1626260070.00
64.000000
-0.00
-0.00
-0.00
-0.00
-0.00
-0.00
-0.00
-0.00
-0.00
-0.00
0.00
0.01
0.01
-0.00
-0.03
-0.05
-0.05
0.00
0.13
0.36
0.66
1.01
1.37
1.72
2.06
2.40
2.79
3.24
3.80
4.42
5.06
5.66
6.20
6.68
7.15
7.68
8.31
9.14
10.09
11.04
11.88
12.56
13.14
13.76
14.65
15.96
17.91
20.32
22.90
25.38
27.58
29.57
31.68
34.32
37.81
42.54
48.15
54.10
59.83
64.97
69.58
74.14
79.34
85.71
93.76
103.00
112.62
121.73
129.77
136.75
143.30
150.75
157.77
166.64
177.95
191.79
206.97
220.57
228.25
225.36
208.53
176.87
132.76
80.05
23.07
-34.95
-92.44
-149.16
-205.21
-260.34
-313.70
-363.85
-409.87
-451.02
-486.72
-516.05
-537.60
-549.62
-550.36
-538.77
-514.64
-479.18
-434.50
-383.21
-327.90
-270.78
-213.57
-157.54
-103.80
-53.24
-6.90
34.37
69.95
99.66
123.70
142.60
157.01
167.52
174.60
178.57
179.74
178.48
175.28
170.66
165.06
158.78
151.87
144.27
135.93
126.99
117.77
108.75
100.32
92.67
85.63
78.74
71.49
63.60
55.17
46.70
38.88
32.23
26.86
22.44
18.34
13.95
8.91
3.13
-3.30
-10.13
-16.74
-22.04
-24.46
-22.52
-15.57
-4.43
8.71
21.05
30.39
36.09
39.06
41.02
43.37
46.49
49.69
51.91
52.42
51.13
48.55
45.19
41.27
36.70
31.23
24.71
17.38
10.02
3.89
0.38
0.40
3.85
9.37
14.74
17.80
17.40
13.91
8.90
4.28
1.26
-0.08
-0.56
-1.24
-2.69
-4.74
-6.75
-8.07
-8.47
-8.16
-7.60
-7.17
-7.13
-7.41
-7.79
-8.06
-8.06
-7.76
-7.22
-6.58
-5.99
-5.62
-5.55
-5.78
-6.20
-6.59
-6.72
-6.44
-5.78
-4.86
-3.88
-3.00
-2.33
-1.99
-2.04
-2.50
-3.17
-3.53
-2.78
-0.07
5.04
12.32
20.77
28.96
35.46
39.29
40.12
38.24
34.26
28.87
22.77
16.23
9.59
3.21
-2.49
-7.15
-10.52
-12.61
-13.61
-13.87
-13.77
-13.53
-13.22
-12.84
-12.34
-11.73
-11.15
-10.72
-10.58
-10.78
-11.26
-11.86
-12.41
-12.67
-12.56
-12.04
-11.26
-10.40
-9.66
-9.14
-8.80
-8.58
-8.38
-8.22
-8.12
-8.10
-8.11
-8.08
-7.97
-7.84
-7.87
-8.23
-9.00
-10.08
-11.21
-12.12
-12.69
-13.01
-13.33
-13.95
-15.05
-16.62
-18.44
-20.24
-21.75
-22.86
-23.62
-24.25
-25.13
-26.65
-29.16
-32.75
-37.12
-41.48
-44.34
-44.13
-39.62
-30.35
-16.86
-0.62
16.44
32.45
46.02
56.47
63.66
67.84
69.36
68.62
65.95
61.75
56.53
50.95
45.69
41.32
38.17
36.24
35.27
34.88
34.73
34.62
34.46
34.23
33.84
33.09
31.77
29.76
27.05
23.84
20.43
17.16
14.26
11.81
9.73
7.88
6.14
4.48
2.94
1.58
0.46
-0.46
-1.27
-2.10
-3.08
-4.27
-5.66
-7.15
-8.57
-9.82
-10.86
-11.79
-12.83
-14.22
-16.12
-18.48
-21.15
-23.88
-26.53
-29.07
-31.65
-34.42
-37.48
-40.76
-44.10
-47.28
-50.18
-52.81
-55.31
-57.91
-60.86
-64.45
-68.87
-74.04
-79.44
-83.92
-85.88
-83.67
-76.17
-63.26
-46.02
-26.38
-6.56
11.64
27.12
39.51
48.86
55.33
59.00
59.96
58.53
55.32
51.22
47.13
43.74
41.39
40.06
39.50
39.47
39.79
40.35
41.05
41.74
42.20
42.19
41.56
40.24
38.27
35.81
33.03
30.09
27.14
24.28
21.57
19.01
16.60
14.33
12.13
9.97
7.82
5.70
3.67
1.77
0.01
-1.69
-3.47
-5.45
-7.68
-10.10
-12.54
-14.84
-16.90
-18.76
-20.56
-22.51
-24.77
-27.40
-30.32
-33.38
-36.33
-38.96
-41.21
-43.10
-44.86
-46.82
-49.36
-52.86
-57.51
-63.12
-68.96
-73.75
-75.89
-73.91
-66.92
-55.03
-39.28
-21.38
-3.21
13.66
28.18
39.83
48.44
54.06
56.83
57.06
55.24
52.07
48.33
44.77
41.92
40.02
39.08
38.91
39.29
40.05
41.04
42.18
43.29
44.14
44.43
43.90
42.43
40.06
37.00
33.57
30.08
26.80
23.88
21.37
19.17
17.08
14.80
12.06
8.63
4.47
-0.27
-5.28
-10.17
-14.65
-18.61
-22.18
-25.67
-29.37
-33.42
-37.75
-42.14
-46.32
-50.05
-53.16
-55.43
-56.60
-56.54
-55.35
-53.57
-51.97
-51.24
-51.49
-52.04
-51.59
-48.78
-42.77
-33.65
-22.35
-10.21
1.58
12.24
21.50
29.27
35.44
39.76
41.95
41.99
40.20
37.37
34.45
32.32
31.52
32.11
33.77
35.92
38.00
39.59
40.51
40.78
40.54
39.94
39.05
37.86
36.22
34.02
31.20
27.91
24.44
21.15
18.33
16.09
14.37
12.96
11.64
10.13
8.27
5.93
3.07
-0.20
-3.66
-7.05
-10.21
-13.15
-16.09
-19.28
-22.97
-27.12
-31.53
-35.86
-39.78
-43.18
-46.17
-49.06
-52.29
-56.33
-61.61
-68.28
-76.03
-83.92
-90.39
-93.60
-91.90
-84.45
-71.49
-54.32
-34.92
-15.42
2.45
17.58
29.52
38.31
44.19
47.45
48.37
47.28
44.65
41.16
37.57
34.63
32.79
32.14
32.41
33.21
34.19
35.17
36.17
37.18
38.09
38.63
38.45
37.28
35.12
32.19
28.90
25.67
22.79
20.33
18.16
16.09
13.92
11.58
9.11
6.66
4.42
2.55
1.07
-0.18
-1.46
-3.09
-5.27
-8.02
-11.12
-14.29
-17.27
-19.97
-22.50
-25.10
-27.99
-31.24
-34.77
-38.40
-41.90
-45.11
-47.98
-50.64
-53.39
-56.72
-61.14
-66.98
-74.15
-81.87
-88.66
-92.62
-91.90
-85.36
-72.92
-55.66
-35.49
-14.60
5.06
22.12
35.89
46.13
52.94
56.52
57.24
55.70
52.66
49.05
45.74
43.30
41.94
41.48
41.53
41.71
41.83
41.91
42.04
42.26
42.42
42.26
41.47
39.89
37.58
34.75
31.69
28.69
25.91
23.42
21.20
19.15
17.17
15.21
13.25
11.34
9.54
7.86
6.20
4.40
2.26
-0.32
-3.27
-6.44
-9.59
-12.57
-15.34
-18.04
-20.86
-23.97
-27.42
-31.12
-34.87
-38.46
-41.71
-44.59
-47.21
-49.87
-52.97
-56.98
-62.18
-68.46
-75.07
-80.68
-83.63
-82.39
-76.12
-64.91
-49.77
-32.26
-14.06
3.42
19.19
32.59
43.22
50.81
55.26
56.74
55.75
53.08
49.66
46.37
43.84
42.34
41.83
42.01
42.54
43.15
43.68
44.09
44.31
44.22
43.53
41.95
39.30
35.64
31.24
26.59
22.17
18.27
14.90
11.85
8.77
5.44
1.85
-1.79
-5.16
-8.07
-10.53
-12.82
-15.25
-18.11
-21.46
-25.16
-28.98
-32.72
-36.28
-39.70
-43.11
-46.73
-50.81
-55.69
-61.62
-68.58
-76.01
-82.73
-87.02
-87.14
-81.85
-70.92
-55.22
-36.45
-16.60
2.55
19.77
34.33
45.91
54.43
59.89
62.53
62.74
61.15
58.53
55.59
52.86
50.63
48.98
47.82
47.09
46.74
46.79
47.22
47.88
48.50
48.73
48.22
46.77
44.37
41.16
37.39
33.32
29.20
25.26
21.65
18.50
15.85
13.70
11.97
10.54
9.19
7.69
5.87
3.68
1.26
-1.18
-3.40
-5.33
-7.08
-8.89
-10.99
-13.51
-16.39
-19.47
-22.57
-25.54
-28.36
-31.08
-33.81
-36.68
-39.80
-43.27
-47.08
-51.11
-55.14
-58.95
-62.41
-65.62
-68.95
-72.96
-78.21
-85.05
-93.33
-102.17
-109.99
-114.72
-114.35
-107.55
-94.13
-75.20
-52.82
-29.39
-7.10
12.56
28.85
41.61
50.99
57.26
60.81
62.11
61.78
60.57
59.15
58.07
57.54
57.56
57.91
58.31
58.63
58.86
59.09
59.40
59.71
59.83
59.47
58.40
56.53
53.95
50.89
47.67
44.59
41.86
39.62
37.88
36.53
35.41
34.30
33.01
31.41
29.42
27.05
24.33
21.29
18.01
14.60
11.25
8.15
5.47
3.23
1.29
-0.68
-3.02
-5.98
-9.59
-13.62
-17.71
-21.50
-24.84
-27.81
-30.72
-33.92
-37.65
-41.93
-46.58
-51.29
-55.76
-59.78
-63.34
-66.63
-70.10
-74.35
-80.08
-87.74
-97.19
-107.46
-116.70
-122.61
-123.08
-116.88
-104.05
-85.84
-64.29
-41.61
-19.70
0.14
17.08
30.71
40.84
47.53
51.02
51.87
50.83
48.77
46.52
44.67
43.52
43.10
43.21
43.64
44.26
45.03
45.99
47.05
48.03
48.59
48.43
47.38
45.50
43.04
40.34
37.67
35.14
32.71
30.24
27.63
24.85
21.95
19.06
16.29
13.70
11.26
8.92
6.56
4.13
1.61
-0.97
-3.53
-5.99
-8.32
-10.56
-12.85
-15.34
-18.21
-21.51
-25.18
-29.04
-32.82
-36.33
-39.46
-42.28
-45.11
-48.42
-52.75
-58.45
-65.37
-72.62
-78.66
-81.54
-79.55
-71.79
-58.49
-41.01
-21.34
-1.59
16.61
32.22
44.78
54.15
60.32
63.36
63.52
61.36
57.65
53.26
48.95
45.21
42.23
40.04
38.63
38.01
38.21
39.14
40.54
41.94
42.84
42.80
41.59
39.28
36.05
32.23
28.11
23.89
19.66
15.44
11.19
6.89
2.61
-1.56
-5.47
-9.05
-12.32
-15.42
-18.58
-21.99
-25.74
-29.80
-34.00
-38.16
-42.18
-46.07
-50.02
-54.29
-59.26
-65.25
-72.33
-80.10
-87.54
-93.03
-94.72
-91.09
-81.45
-66.24
-46.92
-25.55
-4.21
15.41
32.25
45.75
55.76
62.31
65.58
65.93
63.97
60.50
56.41
52.54
49.46
47.46
46.48
46.32
46.71
47.47
48.50
49.72
50.98
52.01
52.39
51.72
49.69
46.23
41.62
36.37
31.11
26.37
22.37
18.98
15.84
12.53
8.78
4.65
0.43
-3.49
-6.87
-9.76
-12.46
-15.42
-19.04
-23.48
-28.61
-34.07
-39.39
-44.16
-48.19
-51.52
-54.51
-57.69
-61.71
-67.10
-74.05
-82.19
-90.39
-96.88
-99.65
-96.99
-88.04
-73.05
-53.38
-31.11
-8.49
12.51
30.50
44.75
55.06
61.65
64.95
65.55
64.11
61.37
58.03
54.76
52.03
50.14
49.10
48.71
48.71
48.82
48.89
48.87
48.70
48.33
47.62
46.44
44.64
42.20
39.17
35.75
32.20
28.76
25.63
22.86
20.35
17.96
15.56
13.08
10.61
8.24
6.08
4.18
2.48
0.89
-0.73
-2.50
-4.56
-7.03
-9.91
-13.17
-16.64
-20.12
-23.42
-26.47
-29.36
-32.27
-35.40
-38.82
-42.45
-46.13
-49.62
-52.77
-55.53
-57.98
-60.32
-62.90
-66.20
-70.69
-76.64
-83.75
-90.95
-96.40
-97.99
-93.94
-83.49
-67.15
-46.57
-24.03
-1.75
18.50
35.56
48.84
58.15
63.59
65.53
64.65
61.82
57.99
53.99
50.46
47.75
45.96
44.97
44.59
44.61
44.83
45.18
45.56
45.89
46.01
45.68
44.65
42.75
39.99
36.54
32.75
28.95
25.40
22.22
19.29
16.42
13.45
10.31
7.08
3.94
1.01
-1.65
-4.13
-6.51
-8.88
-11.22
-13.44
-15.47
-17.30
-19.05
-20.91
-23.08
-25.68
-28.67
-31.85
-34.98
-37.85
-40.40
-42.75
-45.17
-48.06
-51.81
-56.73
-62.79
-69.51
-75.83
-80.22
-81.03
-76.94
-67.42
-52.97
-35.05
-15.59
3.44
20.51
34.69
45.56
53.09
57.40
58.71
57.39
54.03
49.43
44.53
40.19
37.02
35.19
34.52
34.61
35.06
35.59
36.09
36.51
36.73
36.53
35.62
33.79
31.00
27.44
23.45
19.34
15.33
11.44
7.55
3.53
-0.71
-5.12
-9.52
-13.66
-17.31
-20.38
-22.99
-25.40
-27.97
-30.95
-34.42
-38.26
-42.20
-45.97
-49.44
-52.71
-56.07
-59.96
-64.85
-71.01
-78.37
-86.22
-93.24
-97.63
-97.55
-91.76
-79.98
-63.14
-43.02
-21.80
-1.42
16.76
32.02
44.11
53.03
58.86
61.73
61.97
60.11
56.94
53.30
49.94
47.38
45.81
45.14
45.14
45.55
46.16
46.85
47.52
48.05
48.25
47.86
46.60
44.30
40.94
36.71
31.95
27.10
22.56
18.55
15.15
12.22
9.55
6.88
4.04
0.97
-2.28
-5.54
-8.63
-11.44
-14.04
-16.65
-19.58
-23.05
-27.14
-31.68
-36.36
-40.86
-44.90
-48.41
-51.46
-54.33
-57.44
-61.33
-66.47
-73.08
-80.81
-88.56
-94.61
-96.95
-93.92
-84.73
-69.76
-50.43
-28.75
-6.83
13.55
31.19
45.40
55.94
62.89
66.59
67.59
66.57
64.22
61.18
57.96
54.97
52.47
50.64
49.53
49.03
48.93
48.98
48.96
48.74
48.25
47.48
46.35
44.80
42.72
40.08
36.98
33.63
30.34
27.38
24.93
22.92
21.13
19.24
16.96
14.21
11.14
8.03
5.24
2.94
1.04
-0.76
-2.88
-5.55
-8.79
-12.31
-15.70
-18.64
-21.08
-23.25
-25.55
-28.40
-31.98
-36.23
-40.87
-45.54
-49.93
-53.90
-57.49
-60.89
-64.44
-68.62
-73.87
-80.46
-88.14
-95.99
-102.39
-105.38
-103.19
-94.87
-80.57
-61.60
-39.96
-17.82
2.93
20.98
35.59
46.46
53.69
57.57
58.65
57.63
55.30
52.45
49.73
47.53
46.00
45.07
44.57
44.38
44.42
44.70
45.18
45.73
46.11
46.03
45.28
43.75
41.54
38.84
35.91
32.98
30.20
27.60
25.11
22.54
19.73
16.60
13.25
9.90
6.83
4.24
2.17
0.43
-1.28
-3.19
-5.41
-7.82
-10.19
-12.38
-14.38
-16.43
-18.81
-21.76
-25.23
-28.99
-32.70
-36.06
-38.95
-41.46
-43.80
-46.26
-49.22
-52.99
-57.78
-63.36
-68.99
-73.32
-74.73
-71.85
-63.96
-51.35
-35.22
-17.28
0.68
17.24
31.43
42.74
50.95
55.98
57.95
57.17
54.28
50.13
45.65
41.61
38.47
36.33
35.00
34.23
33.79
33.58
33.54
33.61
33.67
33.54
33.05
32.04
30.43
28.19
25.38
22.11
18.55
14.84
11.10
7.39
3.68
-0.06
-3.84
-7.60
-11.20
-14.54
-17.55
-20.28
-22.90
-25.66
-28.81
-32.47
-36.59
-40.90
-45.04
-48.69
-51.72
-54.31
-56.93
-60.21
-64.75
-70.85
-78.21
-85.87
-92.29
-95.67
-94.47
-87.92
-76.19
-60.38
-42.13
-23.20
-5.09
11.06
24.53
34.89
41.97
45.83
46.79
45.42
42.43
38.64
34.81
31.58
29.44
28.61
29.17
30.99
33.87
37.57
41.86
46.48
51.17
55.57
59.31
61.98
63.26
62.99
61.20
58.14
54.21
49.85
45.43
41.20
37.23
33.45
29.70
25.79
21.61
17.15
12.51
7.87
3.41
-0.77
-4.72
-8.61
-12.68
-17.14
-22.03
-27.23
-32.47
-37.46
-42.01
-46.15
-50.10
-54.28
-59.15
-65.06
-72.00
-79.50
-86.45
-91.34
-92.51
-88.63
-79.17
-64.59
-46.24
-26.01
-5.81
12.78
28.73
41.49
50.89
57.02
60.11
60.58
59.02
56.16
52.76
49.43
46.59
44.36
42.70
41.45
40.53
39.92
39.68
39.80
40.16
40.47
40.36
39.49
37.71
35.10
31.86
28.28
24.59
20.93
17.29
13.65
9.98
6.35
2.85
-0.36
-3.20
-5.71
-8.01
-10.35
-12.93
-15.94
-19.39
-23.12
-26.86
-30.30
-33.21
-35.48
-37.15
-38.34
-39.15
-39.57
-39.53
-38.94
-37.78
-36.19
-34.50
-33.16
-32.70
-33.64
-36.32
-40.76
-46.49
-52.42
-57.03
-58.68
-56.12
-48.86
-37.28
-22.56
-6.24
10.15
25.36
38.52
49.07
56.68
61.23
62.79
61.72
58.65
54.37
49.69
45.30
41.63
38.86
36.95
35.81
35.31
35.36
35.81
36.41
36.87
36.86
36.13
34.58
32.27
29.36
26.04
22.46
18.71
14.84
10.92
7.06
3.41
0.06
-2.96
-5.77
-8.54
-11.43
-14.53
-17.81
-21.15
-24.43
-27.56
-30.57
-33.51
-36.46
-39.57
-43.03
-47.08
-51.94
-57.54
-63.34
-68.18
-70.55
-68.96
-62.42
-50.87
-35.20
-17.05
1.68
19.29
34.60
46.96
56.12
62.06
64.87
64.79
62.23
57.89
52.59
47.26
42.62
39.09
36.75
35.42
34.84
34.74
34.93
35.27
35.62
35.79
35.55
34.66
32.98
30.47
27.26
23.64
19.92
16.41
13.22
10.31
7.45
4.37
0.85
-3.14
-7.43
-11.75
-15.80
-19.37
-22.44
-25.16
-27.80
-30.67
-33.95
-37.68
-41.73
-45.86
-49.80
-53.38
-56.53
-59.43
-62.40
-65.90
-70.36
-75.90
-82.08
-87.80
-91.41
-91.13
-85.58
-74.28
-57.85
-37.80
-16.15
5.10
24.33
40.44
52.87
61.48
66.42
68.14
67.25
64.56
60.88
56.95
53.32
50.28
47.90
46.06
44.63
43.49
42.59
41.92
41.45
41.10
40.71
40.09
39.04
37.44
35.25
32.56
29.56
26.50
23.58
20.94
18.64
16.63
14.82
13.10
11.42
9.77
8.18
6.66
5.22
3.84
2.46
1.00
-0.60
-2.36
-4.24
-6.17
-8.07
-9.88
-11.61
-13.34
-15.16
-17.18
-19.45
-21.91
-24.46
-26.98
-29.40
-31.77
-34.25
-37.02
-40.24
-43.87
-47.73
-51.51
-54.88
-57.66
-59.88
-61.84
-64.06
-67.16
-71.63
-77.56
-84.41
-90.90
-95.23
-95.51
-90.34
-79.25
-62.86
-42.71
-20.81
0.84
20.59
37.30
50.32
59.40
64.62
66.39
65.37
62.41
58.39
54.10
50.14
46.83
44.31
42.55
41.43
40.85
40.64
40.67
40.73
40.65
40.30
39.60
38.55
37.14
35.38
33.24
30.73
27.89
24.83
21.72
18.73
15.98
13.51
11.29
9.27
7.40
5.61
3.85
2.12
0.42
-1.26
-2.87
-4.48
-6.15
-7.95
-9.92
-12.03
-14.17
-16.26
-18.24
-20.18
-22.25
-24.61
-27.35
-30.42
-33.67
-36.89
-39.90
-42.61
-44.99
-47.14
-49.25
-51.61
-54.55
-58.25
-62.61
-67.03
-70.41
-71.30
-68.37
-60.77
-48.53
-32.55
-14.41
4.08
21.29
36.06
47.71
56.00
60.96
62.77
61.80
58.59
53.85
48.43
43.12
38.55
35.07
32.72
31.36
30.74
30.63
30.86
31.30
31.77
32.07
31.93
31.15
29.61
27.33
24.44
21.15
17.69
14.28
11.09
8.26
5.83
3.75
1.83
-0.18
-2.48
-5.18
-8.19
-11.29
-14.22
-16.82
-19.15
-21.44
-24.02
-27.11
-30.75
-34.73
-38.70
-42.36
-45.54
-48.26
-50.75
-53.30
-56.24
-59.90
-64.51
-70.06
-76.16
-81.89
-85.86
-86.53
-82.61
-73.51
-59.52
-41.77
-21.90
-1.72
17.13
33.41
46.32
55.55
61.19
63.69
63.67
61.81
58.73
54.94
50.87
46.87
43.29
40.41
38.40
37.32
37.07
37.50
38.31
39.20
39.82
39.85
39.03
37.24
34.54
31.14
27.36
23.57
20.01
16.84
14.05
11.53
9.15
6.77
4.34
1.83
-0.75
-3.39
-6.07
-8.78
-11.54
-14.38
-17.35
-20.52
-23.93
-27.58
-31.42
-35.32
-39.10
-42.59
-45.74
-48.61
-51.49
-54.77
-58.83
-63.77
-69.27
-74.41
-77.82
-78.01
-73.75
-64.52
-50.62
-33.21
-13.96
5.30
22.99
37.97
49.58
57.67
62.33
63.91
62.86
59.73
55.14
49.75
44.14
38.81
34.05
30.01
26.76
24.34
22.82
22.19
22.35
23.01
23.76
24.13
23.77
22.50
20.39
17.66
14.64
11.64
8.88
6.45
4.27
2.20
0.10
-2.10
-4.33
-6.45
-8.36
-10.05
-11.67
-13.41
-15.42
-17.71
-20.11
-22.41
-24.46
-26.29
-28.09
-30.16
-32.85
-36.43
-41.05
-46.59
-52.54
-57.89
-61.19
-60.90
-55.81
-45.52
-30.66
-12.78
6.08
23.89
39.11
50.81
58.64
62.60
62.91
59.97
54.41
47.12
39.20
31.78
25.71
21.44
18.94
17.84
17.64
17.88
18.28
18.67
18.91
18.86
18.38
17.35
15.75
13.62
11.02
8.00
4.54
0.60
-3.85
-8.77
-13.97
-19.07
-23.62
-27.20
-29.68
-31.26
-32.47
-34.03
-36.58
-40.48
-45.62
-51.36
-56.60
-59.89
-59.84
-55.41
-46.33
-33.18
-17.28
-0.31
16.10
30.67
42.61
51.50
57.24
59.89
59.77
57.38
53.42
48.65
43.71
39.02
34.78
31.03
27.80
25.15
23.20
22.03
21.56
21.55
21.53
21.00
19.52
16.86
13.13
8.63
3.81
-0.93
-5.36
-9.50
-13.56
-17.85
-22.56
-27.65
-32.85
-37.76
-42.07
-45.73
-49.06
-52.61
-56.98
-62.62
-69.60
-77.52
-85.45
-91.94
-95.33
-94.07
-87.20
-74.70
-57.53
-37.48
-16.62
3.15
20.49
34.67
45.51
53.13
57.79
59.79
59.45
57.14
53.34
48.63
43.63
38.93
34.94
31.85
29.63
28.13
27.20
26.71
26.56
26.59
26.47
25.80
24.13
21.19
16.97
11.80
6.32
1.26
-2.76
-5.48
-7.09
-8.15
-9.41
-11.45
-14.50
-18.36
-22.53
-26.49
-29.87
-32.63
-35.05
-37.54
-40.59
-44.58
-49.61
-55.36
-60.99
-65.19
-66.41
-63.29
-55.10
-41.98
-24.98
-5.76
13.77
31.96
47.59
60.00
68.97
74.58
77.14
77.12
75.11
71.84
68.00
64.19
60.72
57.71
55.10
52.83
50.89
49.36
48.25
47.48
46.79
45.86
44.47
42.62
40.58
38.74
37.44
36.73
36.27
35.35
33.07
28.66
21.72
12.47
1.72
-9.31
-19.36
-27.50
-33.39
-37.28
-39.90
-42.09
-44.55
-47.64
-51.34
-55.40
-59.47
-63.33
-67.00
-70.77
-75.06
-80.23
-86.19
-92.21
-96.86
-98.36
-95.07
-86.13
-71.77
-53.25
-32.50
-11.53
7.97
24.83
38.39
48.34
54.66
57.53
57.43
55.09
51.39
47.19
43.15
39.58
36.51
33.76
31.11
28.48
25.93
23.65
21.83
20.56
19.75
19.17
18.55
17.63
16.28
14.50
12.38
10.03
7.62
5.28
3.06
0.92
-1.26
-3.70
-6.53
-9.75
-13.22
-16.72
-20.07
-23.27
-26.54
-30.28
-34.89
-40.57
-47.02
-53.38
-58.27
-60.09
-57.50
-49.85
-37.44
-21.48
-3.69
14.12
30.41
44.14
54.70
61.90
65.83
66.87
65.60
62.73
58.91
54.65
50.25
45.90
41.74
37.87
34.40
31.35
28.69
26.33
24.17
22.16
20.26
18.39
16.36
13.89
10.65
6.50
1.51
-3.89
-9.16
-13.79
-17.54
-20.55
-23.28
-26.24
-29.81
-34.07
-38.79
-43.55
-47.96
-51.80
-55.10
-58.21
-61.63
-65.96
-71.56
-78.37
-85.68
-92.11
-95.91
-95.35
-89.27
-77.38
-60.38
-39.78
-17.52
4.41
24.25
40.73
53.10
61.19
65.36
66.37
65.14
62.56
59.34
55.92
52.54
49.33
46.35
43.66
41.37
39.58
38.40
37.87
37.90
38.25
38.58
38.50
37.73
36.10
33.65
30.52
27.02
23.52
20.40
17.91
16.07
14.60
12.97
10.60
7.11
2.45
-3.13
-9.15
-15.13
-20.80
-26.09
-31.13
-36.16
-41.33
-46.64
-51.93
-56.87
-61.18
-64.72
-67.64
-70.35
-73.50
-77.73
-83.41
-90.45
-98.07
-104.83
-108.85
-108.28
-101.82
-89.12
-70.97
-49.01
-25.33
-1.95
19.49
37.88
52.57
63.28
70.06
73.23
73.39
71.31
67.80
63.58
59.18
54.95
51.05
47.60
44.67
42.41
40.92
40.23
40.21
40.55
40.85
40.68
39.73
37.89
35.22
31.89
28.14
24.19
20.26
16.47
12.87
9.44
6.10
2.78
-0.52
-3.74
-6.80
-9.65
-12.35
-15.08
-18.05
-21.45
-25.29
-29.43
-33.59
-37.48
-40.87
-43.73
-46.23
-48.77
-51.82
-55.89
-61.17
-67.37
-73.55
-78.17
-79.51
-76.10
-67.27
-53.37
-35.67
-15.98
3.82
22.19
37.98
50.51
59.38
64.44
65.83
63.93
59.45
53.30
46.49
39.92
34.26
29.88
26.83
24.93
23.89
23.42
23.31
23.37
23.42
23.22
22.49
21.00
18.66
15.53
11.80
7.70
3.48
-0.65
-4.50
-7.94
-10.93
-13.59
-16.14
-18.89
-22.06
-25.72
-29.68
-33.62
-37.21
-40.32
-43.11
-46.06
-49.78
-54.77
-61.10
-68.20
-74.84
-79.36
-80.10
-75.88
-66.38
-52.18
-34.60
-15.32
4.00
22.00
37.65
50.28
59.45
64.94
66.78
65.29
61.11
55.16
48.40
41.74
35.80
30.89
27.03
24.14
22.11
20.89
20.43
20.59
21.05
21.31
20.83
19.19
16.22
12.12
7.31
2.31
-2.48
-6.87
-10.88
-14.61
-18.16
-21.51
-24.56
-27.27
-29.67
-31.93
-34.33
-37.22
-40.97
-45.96
-52.43
-60.23
-68.61
-76.10
-80.73
-80.58
-74.39
-62.03
-44.56
-23.83
-1.97
19.10
37.91
53.48
65.19
72.76
76.30
76.29
73.63
69.36
64.45
59.59
55.13
51.12
47.50
44.23
41.35
38.99
37.21
35.98
35.10
34.26
33.07
31.21
28.50
24.92
20.59
15.68
10.35
4.74
-1.01
-6.80
-12.44
-17.71
-22.38
-26.31
-29.51
-32.22
-34.84
-37.88
-41.79
-46.80
-52.64
-58.49
-63.00
-64.59
-61.86
-54.05
-41.33
-24.78
-6.12
12.77
30.23
45.14
56.92
65.45
70.88
73.49
73.63
71.59
67.63
61.96
54.78
46.47
37.60
28.97
21.42
15.61
11.80
9.78
8.96
8.66
8.29
7.50
6.12
4.05
1.15
-2.74
-7.59
-13.12
-18.74
-23.75
-27.63
-30.26
-32.01
-33.57
-35.70
-38.95
-43.53
-49.28
-55.65
-61.84
-66.74
-69.10
-67.69
-61.60
-50.59
-35.27
-17.04
2.19
20.46
36.14
48.22
56.31
60.53
61.36
59.49
55.67
50.66
45.14
39.63
34.53
30.08
26.48
23.90
22.50
22.42
23.71
26.25
29.69
33.44
36.66
38.39
37.73
34.23
28.08
20.19
11.93
4.67
-0.79
-4.46
-7.09
-9.83
-13.73
-19.44
-27.11
-36.44
-46.77
-57.03
-65.74
-71.18
-71.74
-66.41
-55.26
-39.52
-21.33
-3.11
13.01
25.62
34.10
38.46
39.12
36.67
31.90
25.67
18.91
12.49
7.10
3.11
0.59
-0.63
-0.86
-0.34
0.75
2.33
4.37
6.73
9.13
11.08
11.97
11.14
8.07
2.52
-5.41
-15.31
-26.53
-38.30
-49.91
-60.71
-70.09
-77.39
-81.88
-82.80
-79.54
-71.83
-59.91
-44.53
-26.86
-8.31
9.69
25.81
38.96
48.36
53.66
54.99
52.96
48.51
42.69
36.40
30.30
24.80
20.14
16.53
14.12
13.00
13.03
13.78
14.61
14.83
13.88
11.53
7.91
3.44
-1.35
-6.07
-10.55
-14.83
-19.12
-23.65
-28.58
-34.00
-39.96
-46.33
-52.72
-58.25
-61.65
-61.51
-56.72
-46.91
-32.69
-15.52
2.67
19.98
34.87
46.35
53.96
57.69
57.86
55.10
50.20
44.03
37.38
30.86
24.93
19.89
15.97
13.28
11.82
11.37
11.58
11.97
12.10
11.62
10.31
8.08
4.98
1.20
-3.00
-7.28
-11.34
-15.01
-18.38
-21.81
-25.87
-31.09
-37.67
-45.24
-52.73
-58.57
-61.07
-58.92
-51.61
-39.61
-24.23
-7.24
9.56
24.68
37.04
45.97
51.11
52.36
49.96
44.51
36.94
28.37
19.92
12.43
6.33
1.69
-1.72
-4.21
-5.98
-7.16
-7.79
-7.93
-7.74
-7.55
-7.74
-8.65
-10.45
-13.10
-16.36
-19.88
-23.31
-26.39
-29.03
-31.35
-33.66
-36.46
-40.25
-45.41
-51.86
-58.96
-65.44
-69.64
-69.96
-65.33
-55.52
-41.19
-23.72
-4.83
13.72
30.35
43.77
53.02
57.46
56.99
52.10
43.91
34.01
24.18
16.00
10.55
8.26
8.89
11.76
15.97
20.56
24.76
27.98
29.90
30.38
29.45
27.23
23.89
19.65
14.72
9.38
3.89
-1.55
-6.90
-12.27
-17.98
-24.41
-31.91
-40.62
-50.40
-60.73
-70.68
-79.01
-84.35
-85.53
-81.83
-73.23
-60.43
-44.65
-27.45
-10.45
4.90
17.40
26.19
30.86
31.47
28.67
23.53
17.46
11.84
7.84
6.16
7.01
10.11
14.83
20.38
25.96
30.88
34.65
37.01
37.87
37.31
35.41
32.28
27.97
22.56
16.21
9.27
2.26
-4.23
-9.66
-13.74
-16.58
-18.69
-20.92
-24.22
-29.34
-36.44
-44.88
-53.13
-59.09
-60.63
-56.25
-45.54
-29.38
-9.63
11.35
31.25
48.28
61.29
69.79
73.80
73.70
70.22
64.30
57.03
49.51
42.66
37.11
33.15
30.73
29.66
29.71
30.76
32.79
35.80
39.64
43.86
47.75
50.47
51.28
49.83
46.25
41.06
34.99
28.68
22.52
16.55
10.61
4.46
-2.07
-9.02
-16.29
-23.68
-30.94
-37.82
-44.17
-50.04
-55.70
-61.64
-68.40
-76.35
-85.32
-94.45
-102.16
-106.44
-105.37
-97.71
-83.29
-63.06
-38.90
-13.19
11.74
33.88
51.80
64.67
72.32
75.14
74.03
70.17
64.84
59.15
53.88
49.45
46.04
43.62
42.09
41.31
41.09
41.23
41.51
41.68
41.52
40.82
39.43
37.28
34.37
30.80
26.73
22.39
18.02
13.90
10.23
7.14
4.62
2.49
0.47
-1.73
-4.33
-7.35
-10.69
-14.12
-17.43
-20.48
-23.26
-25.84
-28.35
-30.93
-33.70
-36.75
-40.08
-43.60
-47.13
-50.51
-53.62
-56.48
-59.32
-62.53
-66.57
-71.72
-77.79
-83.86
-88.33
-89.20
-84.71
-73.93
-57.16
-35.90
-12.45
10.70
31.43
48.28
60.52
67.98
70.89
69.85
65.68
59.46
52.29
45.24
39.07
34.21
30.71
28.37
26.88
25.98
25.61
25.87
26.93
28.86
31.51
34.45
37.07
38.70
38.87
37.39
34.42
30.41
25.94
21.57
17.64
14.30
11.49
9.03
6.74
4.48
2.20
-0.07
-2.33
-4.61
-7.00
-9.63
-12.65
-16.10
-19.92
-23.92
-27.88
-31.55
-34.82
-37.68
-40.30
-43.00
-46.21
-50.36
-55.66
-61.83
-67.97
-72.56
-73.83
-70.25
-61.12
-46.83
-28.78
-8.95
10.58
28.13
42.54
53.21
59.93
62.80
62.17
58.66
53.13
46.59
40.07
34.42
30.17
27.46
26.13
25.77
26.00
26.54
27.26
28.14
29.09
29.90
30.21
29.68
28.10
25.55
22.34
18.91
15.62
12.70
10.12
7.67
5.08
2.14
-1.20
-4.76
-8.23
-11.25
-13.64
-15.42
-16.88
-18.41
-20.32
-22.78
-25.71
-28.93
-32.20
-35.41
-38.55
-41.71
-45.09
-48.93
-53.47
-58.74
-64.36
-69.41
-72.53
-72.24
-67.42
-57.76
-43.89
-27.23
-9.57
7.40
22.41
34.70
43.90
49.89
52.64
52.32
49.30
44.28
38.16
31.93
26.43
22.25
19.65
18.62
18.98
20.45
22.72
25.43
28.20
30.65
32.44
33.31
33.10
31.74
29.23
25.66
21.19
16.09
10.69
5.35
0.39
-3.97
-7.68
-10.83
-13.64
-16.37
-19.21
-22.20
-25.26
-28.20
-30.81
-32.96
-34.68
-36.11
-37.52
-39.22
-41.48
-44.51
-48.29
-52.57
-56.72
-59.78
-60.68
-58.43
-52.50
-42.96
-30.48
-16.17
-1.31
12.94
25.61
36.01
43.65
48.22
49.63
48.06
44.03
38.32
31.83
25.43
19.83
15.48
12.58
11.15
10.98
11.75
13.06
14.46
15.55
16.07
15.85
14.83
13.06
10.64
7.69
4.38
0.82
-2.92
-6.82
-10.87
-15.06
-19.33
-23.56
-27.61
-31.38
-34.83
-38.02
-41.08
-44.21
-47.50
-50.91
-54.03
-56.19
-56.53
-54.34
-49.28
-41.59
-32.00
-21.47
-10.95
-1.15
7.51
14.77
20.45
24.34
26.33
26.49
25.19
23.01
20.64
18.67
17.44
17.01
17.20
17.76
18.45
19.12
19.71
20.20
20.52
20.55
20.12
19.05
17.25
14.72
11.59
8.08
4.37
0.61
-3.13
-6.90
-10.74
-14.81
-19.30
-24.35
-29.98
-35.81
-41.03
-44.48
-45.00
-41.83
-34.87
-24.77
-12.65
0.19
12.67
23.93
33.31
40.27
44.32
45.19
42.91
38.02
31.37
24.06
17.04
10.95
6.05
2.24
-0.73
-3.13
-5.09
-6.64
-7.71
-8.30
-8.57
-8.89
-9.70
-11.46
-14.38
-18.39
-23.06
-27.80
-31.98
-35.13
-37.06
-37.89
-37.93
-37.71
-37.83
-38.76
-40.61
-42.93
-44.62
-44.19
-40.24
-31.96
-19.46
-3.81
13.35
30.32
45.64
58.35
67.88
73.92
76.38
75.42
71.51
65.47
58.32
51.05
44.42
38.82
34.29
30.68
27.77
25.47
23.71
22.49
21.70
21.13
20.47
19.36
17.49
14.67
10.86
6.19
0.95
-4.46
-9.63
-14.28
-18.38
-22.19
-26.17
-30.82
-36.42
-42.80
-49.18
-54.30
-56.62
-54.83
-48.17
-36.79
-21.66
-4.39
13.21
29.48
43.22
53.67
60.49
63.68
63.49
60.44
55.25
48.84
42.13
35.91
30.70
26.70
23.79
21.69
20.08
18.74
17.59
16.60
15.74
14.85
13.62
11.68
8.75
4.80
0.07
-4.94
-9.72
-13.91
-17.46
-20.63
-23.89
-27.74
-32.52
-38.24
-44.44
-50.20
-54.21
-55.07
-51.60
-43.31
-30.57
-14.61
2.77
19.63
34.30
45.72
53.40
57.40
58.09
56.00
51.73
45.96
39.39
32.75
26.70
21.77
18.18
15.85
14.44
13.53
12.76
11.96
11.13
10.25
9.21
7.77
5.57
2.40
-1.75
-6.55
-11.51
-16.10
-19.98
-23.12
-25.76
-28.34
-31.33
-35.11
-39.80
-45.08
-50.11
-53.65
-54.28
-50.80
-42.68
-30.29
-14.91
1.67
17.52
31.09
41.41
48.13
51.31
51.29
48.53
43.61
37.24
30.30
23.66
18.05
13.93
11.35
10.00
9.41
9.08
8.66
7.99
7.10
6.11
5.09
3.97
2.55
0.49
-2.42
-6.22
-10.65
-15.17
-19.20
-22.32
-24.50
-26.06
-27.55
-29.56
-32.46
-36.32
-40.87
-45.50
-49.29
-51.14
-49.94
-44.89
-35.79
-23.21
-8.42
6.88
20.95
32.44
40.53
44.98
45.97
43.97
39.61
33.63
26.84
20.06
14.08
9.47
6.51
5.16
5.03
5.60
6.29
6.67
6.50
5.70
4.35
2.55
0.41
-2.02
-4.67
-7.52
-10.49
-13.48
-16.33
-18.89
-21.07
-22.89
-24.46
-25.99
-27.72
-29.84
-32.49
-35.68
-39.25
-42.80
-45.64
-46.90
-45.61
-41.03
-32.89
-21.49
-7.79
6.84
20.82
32.72
41.44
46.45
47.73
45.73
41.27
35.28
28.75
22.56
17.38
13.65
11.49
10.76
11.07
11.96
13.00
13.87
14.35
14.33
13.75
12.54
10.70
8.20
5.09
1.45
-2.54
-6.64
-10.58
-14.16
-17.35
-20.29
-23.23
-26.36
-29.69
-33.01
-35.97
-38.28
-39.91
-41.11
-42.39
-44.33
-47.41
-51.84
-57.36
-63.16
-67.92
-70.05
-68.06
-61.05
-49.06
-33.13
-15.05
3.12
19.56
32.98
42.74
48.72
51.13
50.42
47.23
42.35
36.71
31.28
26.91
24.15
23.14
23.60
24.99
26.67
28.13
29.04
29.35
29.11
28.41
27.24
25.53
23.24
20.45
17.39
14.40
11.84
9.91
8.61
7.72
6.91
5.90
4.59
3.10
1.70
0.66
0.12
-0.03
-0.06
-0.35
-1.16
-2.60
-4.53
-6.65
-8.66
-10.36
-11.75
-13.00
-14.39
-16.12
-18.28
-20.75
-23.28
-25.57
-27.48
-29.05
-30.53
-32.29
-34.67
-37.82
-41.63
-45.79
-49.86
-53.52
-56.67
-59.51
-62.51
-66.24
-71.15
-77.36
-84.40
-91.11
-95.81
-96.56
-91.70
-80.39
-62.96
-40.90
-16.51
7.64
29.30
46.94
59.86
68.02
71.84
72.02
69.42
64.97
59.71
54.55
50.25
47.26
45.71
45.43
46.05
47.20
48.53
49.78
50.77
51.36
51.42
50.80
49.41
47.21
44.29
40.86
37.23
33.73
30.58
27.93
25.74
23.91
22.29
20.76
19.28
17.83
16.39
14.96
13.49
11.93
10.25
8.45
6.55
4.61
2.69
0.78
-1.13
-3.14
-5.32
-7.77
-10.45
-13.23
-15.84
-17.96
-19.41
-20.22
-20.74
-21.52
-23.08
-25.72
-29.33
-33.47
-37.56
-41.16
-44.12
-46.62
-49.07
-51.97
-55.79
-60.79
-66.86
-73.29
-78.75
-81.37
-79.31
-71.30
-57.21
-38.16
-16.29
5.86
26.03
42.59
54.73
62.28
65.54
65.08
61.72
56.43
50.23
44.08
38.71
34.60
31.98
30.86
31.12
32.52
34.78
37.55
40.47
43.12
45.11
46.06
45.71
43.98
41.00
37.13
32.84
28.56
24.52
20.73
16.99
13.01
8.59
3.69
-1.51
-6.65
-11.37
-15.34
-18.45
-20.75
-22.43
-23.79
-25.05
-26.36
-27.70
-28.95
-29.97
-30.67
-31.15
-31.69
-32.78
-34.87
-38.18
-42.45
-46.79
-49.81
-50.00
-46.11
-37.67
-25.13
-9.73
6.87
22.98
37.23
48.64
56.61
60.86
61.42
58.62
53.19
46.12
38.54
31.52
25.85
21.92
19.75
19.10
19.54
20.66
22.07
23.50
24.73
25.58
25.87
25.40
24.02
21.67
18.40
14.45
10.15
5.87
1.92
-1.53
-4.53
-7.25
-9.95
-12.80
-15.86
-19.02
-22.08
-24.83
-27.17
-29.17
-31.05
-33.19
-36.01
-39.78
-44.49
-49.65
-54.39
-57.50
-57.78
-54.38
-47.03
-36.15
-22.78
-8.29
5.88
18.51
28.64
35.65
39.22
39.35
36.34
30.89
24.01
16.88
10.61
5.99
3.33
2.54
3.19
4.81
7.00
9.49
12.11
14.67
16.95
18.67
19.52
19.26
17.75
15.05
11.42
7.28
3.15
-0.47
-3.30
-5.29
-6.68
-7.84
-9.14
-10.78
-12.71
-14.74
-16.64
-18.25
-19.58
-20.83
-22.36
-24.62
-28.05
-32.85
-38.81
-45.10
-50.40
-53.17
-52.06
-46.40
-36.39
-23.03
-7.82
7.65
22.00
34.17
43.41
49.26
51.58
50.59
46.85
41.18
34.53
27.74
21.53
16.40
12.70
10.61
10.15
11.15
13.25
15.95
18.68
20.98
22.53
23.20
22.99
21.96
20.18
17.70
14.60
11.02
7.17
3.32
-0.31
-3.67
-6.88
-10.15
-13.69
-17.56
-21.62
-25.59
-29.20
-32.27
-34.84
-37.07
-39.22
-41.52
-44.21
-47.50
-51.52
-56.21
-61.12
-65.32
-67.47
-66.15
-60.29
-49.60
-34.73
-17.16
1.24
18.67
33.74
45.61
53.89
58.52
59.65
57.60
52.95
46.47
39.11
31.80
25.37
20.39
17.16
15.71
15.81
17.07
18.99
21.12
23.07
24.59
25.54
25.82
25.36
24.06
21.85
18.74
14.88
10.54
6.04
1.69
-2.33
-5.98
-9.34
-12.57
-15.80
-19.10
-22.43
-25.64
-28.53
-30.94
-32.84
-34.39
-35.88
-37.69
-40.20
-43.72
-48.37
-54.01
-60.14
-65.83
-69.78
-70.53
-66.84
-58.10
-44.63
-27.64
-8.99
9.40
25.90
39.41
49.38
55.61
58.14
57.19
53.24
47.08
39.78
32.50
26.25
21.70
19.04
18.08
18.36
19.32
20.47
21.42
21.91
21.85
21.21
20.02
18.32
16.10
13.28
9.81
5.68
0.97
-4.13
-9.36
-14.47
-19.30
-23.78
-27.97
-31.96
-35.85
-39.64
-43.24
-46.45
-49.03
-50.78
-51.58
-51.53
-50.89
-50.19
-50.06
-51.10
-53.53
-56.95
-60.15
-61.37
-58.90
-51.65
-39.72
-24.35
-7.54
8.66
22.74
33.92
41.99
47.04
49.20
48.64
45.79
41.42
36.64
32.56
30.06
29.49
30.68
33.12
36.22
39.46
42.51
45.17
47.22
48.43
48.54
47.33
44.80
41.08
36.48
31.40
26.18
21.03
16.03
11.13
6.20
1.17
-3.94
-8.96
-13.63
-17.63
-20.73
-22.92
-24.40
-25.68
-27.36
-30.02
-33.96
-38.94
-44.12
-48.16
-49.49
-46.89
-39.81
-28.63
-14.46
1.15
16.69
30.93
43.01
52.39
58.73
61.83
61.70
58.61
53.10
45.98
38.11
30.30
23.24
17.40
13.02
10.18
8.78
8.56
9.21
10.36
11.64
12.73
13.24
12.77
10.89
7.28
1.89
-4.89
-12.25
-19.19
-24.88
-29.00
-31.85
-34.18
-36.81
-40.31
-44.85
-50.22
-56.05
-61.80
-66.79
-70.05
-70.47
-67.00
-59.07
-46.90
-31.52
-14.52
2.33
17.51
29.88
38.70
43.59
44.44
41.51
35.47
27.36
18.52
10.37
4.13
0.69
0.36
2.87
7.37
12.72
17.71
21.45
23.51
23.90
22.92
20.91
18.13
14.73
10.82
6.57
2.20
-2.12
-6.33
-10.57
-15.03
-19.90
-25.26
-31.05
-37.11
-43.10
-48.42
-52.22
-53.42
-51.06
-44.58
-34.13
-20.60
-5.40
9.92
24.02
35.91
44.88
50.48
52.48
51.00
46.62
40.33
33.39
26.91
21.66
17.95
15.67
14.56
14.26
14.46
14.83
15.11
15.04
14.48
13.33
11.52
9.01
5.72
1.69
-2.94
-7.82
-12.53
-16.69
-20.11
-22.85
-25.19
-27.57
-30.36
-33.76
-37.63
-41.43
-44.29
-45.11
-42.93
-37.17
-27.85
-15.64
-1.59
13.10
27.33
40.23
51.08
59.24
64.18
65.54
63.39
58.30
51.30
43.67
36.66
31.15
27.54
25.77
25.42
25.93
26.75
27.45
27.70
27.24
25.80
23.10
18.95
13.31
6.46
-1.03
-8.44
-15.09
-20.62
-25.03
-28.67
-32.09
-35.72
-39.76
-43.96
-47.70
-49.97
-49.68
-45.89
-38.14
-26.66
-12.42
3.08
18.14
31.25
41.38
47.98
51.04
50.85
47.96
43.14
37.34
31.55
26.69
23.40
21.95
22.20
23.75
26.07
28.69
31.25
33.49
35.22
36.29
36.61
36.13
34.86
32.83
30.11
26.75
22.82
18.45
13.88
9.38
5.25
1.70
-1.21
-3.51
-5.30
-6.69
-7.78
-8.70
-9.63
-10.76
-12.25
-14.11
-16.23
-18.43
-20.58
-22.73
-25.08
-27.87
-31.19
-34.89
-38.59
-41.90
-44.61
-46.82
-48.90
-51.28
-54.25
-57.79
-61.64
-65.44
-68.88
-71.82
-74.30
-76.53
-78.91
-81.93
-85.99
-91.09
-96.42
-100.29
-100.39
-94.50
-81.29
-60.84
-34.77
-5.80
22.94
48.58
68.98
82.93
90.18
91.30
87.57
80.67
72.43
64.45
57.88
53.26
50.61
49.50
49.29
49.34
49.12
48.37
47.01
45.08
42.61
39.64
36.21
32.45
28.58
24.83
21.39
18.30
15.51
12.92
10.48
8.20
6.15
4.37
2.85
1.49
0.21
-1.11
-2.53
-4.10
-5.84
-7.70
-9.62
-11.40
-12.77
-13.41
-13.08
-11.75
-9.69
-7.40
-5.46
-4.31
-4.09
-4.61
-5.53
-6.53
-7.50
-8.52
-9.73
-11.18
-12.73
-14.10
-15.07
-15.63
-16.02
-16.61
-17.74
-19.50
-21.68
-23.93
-25.89
-27.40
-28.64
-29.97
-31.83
-34.50
-38.00
-42.08
-46.33
-50.32
-53.78
-56.70
-59.30
-62.02
-65.44
-70.12
-76.36
-83.91
-91.76
-98.17
-100.94
-97.99
-88.09
-71.27
-48.95
-23.58
1.99
25.18
44.18
58.07
66.73
70.61
70.49
67.33
62.20
56.21
50.42
45.64
42.35
40.65
40.25
40.65
41.32
41.84
41.91
41.44
40.37
38.73
36.60
34.14
31.53
28.99
26.68
24.68
23.01
21.64
20.51
19.52
18.57
17.53
16.34
14.96
13.44
11.93
10.58
9.50
8.73
8.23
7.89
7.55
7.08
6.34
5.29
3.97
2.52
1.13
-0.04
-0.94
-1.70
-2.56
-3.84
-5.71
-8.17
-11.01
-13.90
-16.58
-18.94
-21.13
-23.46
-26.24
-29.62
-33.50
-37.56
-41.39
-44.74
-47.59
-50.22
-53.11
-56.82
-61.81
-68.22
-75.79
-83.58
-90.07
-93.34
-91.56
-83.55
-69.24
-49.84
-27.46
-4.60
16.51
34.37
48.22
57.95
63.86
66.42
66.27
64.17
61.02
57.72
54.99
53.22
52.44
52.41
52.79
53.32
53.84
54.31
54.67
54.84
54.67
53.99
52.64
50.59
47.91
44.75
41.35
37.97
34.82
32.00
29.50
27.23
25.05
22.89
20.73
18.60
16.55
14.60
12.75
11.01
9.38
7.89
6.51
5.21
3.91
2.58
1.20
-0.17
-1.47
-2.66
-3.77
-4.85
-5.99
-7.24
-8.58
-9.93
-11.21
-12.37
-13.45
-14.55
-15.79
-17.28
-19.07
-21.10
-23.27
-25.45
-27.52
-29.42
-31.23
-33.10
-35.29
-38.04
-41.46
-45.44
-49.71
-53.89
-57.65
-60.86
-63.64
-66.36
-69.54
-73.69
-79.10
-85.59
-92.33
-97.85
-100.28
-97.82
-89.27
-74.49
-54.52
-31.40
-7.62
14.41
32.84
46.72
55.92
60.94
62.68
62.09
60.04
57.23
54.26
51.61
49.63
48.50
48.20
48.51
49.18
49.98
50.79
51.53
52.13
52.48
52.40
51.73
50.38
48.37
45.79
42.77
39.43
35.89
32.25
28.66
25.24
22.11
19.33
16.97
15.03
13.51
12.41
11.67
11.21
10.91
10.57
10.04
9.21
8.07
6.69
5.19
3.71
2.34
1.11
0.03
-0.92
-1.79
-2.70
-3.83
-5.38
-7.47
-10.05
-12.92
-15.79
-18.44
-20.83
-23.14
-25.70
-28.72
-32.20
-35.85
-39.22
-41.87
-43.62
-44.63
-45.37
-46.47
-48.51
-51.82
-56.35
-61.56
-66.48
-69.76
-69.89
-65.60
-56.20
-41.88
-23.72
-3.58
16.43
34.38
48.89
59.35
65.77
68.55
68.28
65.60
61.21
55.90
50.57
46.03
42.86
41.23
40.95
41.55
42.56
43.68
44.73
45.63
46.21
46.26
45.57
44.01
41.60
38.49
34.92
31.07
27.13
23.21
19.45
15.93
12.74
9.89
7.35
5.08
3.05
1.21
-0.42
-1.90
-3.29
-4.71
-6.28
-8.18
-10.52
-13.37
-16.62
-20.05
-23.41
-26.48
-29.22
-31.77
-34.40
-37.34
-40.71
-44.39
-48.09
-51.53
-54.52
-57.09
-59.52
-62.23
-65.72
-70.41
-76.41
-83.33
-90.14
-95.17
-96.49
-92.44
-82.22
-66.17
-45.78
-23.24
-0.85
19.44
36.29
48.96
57.25
61.37
61.93
59.83
56.18
52.03
48.21
45.17
43.03
41.67
40.91
40.62
40.71
41.13
41.86
42.79
43.73
44.39
44.47
43.70
41.96
39.36
36.16
32.72
29.38
26.35
23.69
21.30
19.06
16.87
14.75
12.79
11.09
9.71
8.61
7.60
6.51
5.21
3.70
2.11
0.55
-0.92
-2.34
-3.81
-5.43
-7.27
-9.36
-11.70
-14.29
-17.06
-19.88
-22.57
-25.03
-27.25
-29.43
-31.91
-34.98
-38.76
-43.08
-47.56
-51.73
-55.21
-57.90
-60.00
-61.99
-64.50
-68.15
-73.23
-79.49
-85.97
-91.06
-92.86
-89.70
-80.62
-65.78
-46.39
-24.47
-2.27
18.13
35.24
48.24
56.95
61.66
62.95
61.59
58.42
54.31
50.02
46.19
43.15
40.99
39.59
38.76
38.34
38.30
38.66
39.38
40.27
40.98
41.15
40.49
38.82
36.13
32.53
28.23
23.54
18.84
14.55
10.95
8.19
6.17
4.70
3.57
2.65
1.91
1.33
0.82
0.24
-0.57
-1.62
-2.81
-3.99
-5.05
-6.08
-7.28
-8.87
-10.96
-13.41
-15.96
-18.31
-20.35
-22.18
-24.06
-26.22
-28.81
-31.71
-34.71
-37.52
-39.95
-41.94
-43.65
-45.40
-47.64
-50.83
-55.25
-60.80
-66.76
-71.82
-74.27
-72.53
-65.60
-53.47
-37.10
-18.15
1.46
20.04
36.33
49.54
59.28
65.46
68.19
67.84
65.00
60.48
55.13
49.80
45.14
41.54
39.13
37.82
37.36
37.52
38.10
38.94
39.84
40.57
40.77
40.11
38.34
35.44
31.57
27.09
22.43
17.91
13.73
9.91
6.37
2.99
-0.28
-3.43
-6.35
-8.92
-11.10
-12.95
-14.63
-16.40
-18.51
-21.10
-24.22
-27.75
-31.48
-35.17
-38.71
-42.12
-45.62
-49.50
-54.07
-59.43
-65.32
-70.99
-75.20
-76.45
-73.38
-65.22
-52.11
-35.08
-15.88
3.54
21.41
36.42
47.85
55.45
59.36
60.02
58.07
54.31
49.55
44.55
39.89
35.97
33.00
31.01
29.90
29.49
29.56
29.96
30.54
31.20
31.80
32.17
32.03
31.10
29.16
26.16
22.26
17.85
13.39
9.30
5.82
2.94
0.43
-1.97
-4.46
-7.08
-9.72
-12.20
-14.40
-16.29
-18.03
-19.83
-21.93
-24.45
-27.40
-30.65
-34.04
-37.43
-40.76
-44.04
-47.33
-50.77
-54.53
-58.86
-64.01
-69.97
-76.26
-81.74
-84.72
-83.42
-76.57
-63.91
-46.42
-26.02
-4.99
14.58
31.26
44.30
53.50
59.00
61.13
60.39
57.47
53.20
48.45
43.97
40.26
37.54
35.86
35.10
35.13
35.76
36.77
37.90
38.85
39.36
39.21
38.35
36.76
34.52
31.71
28.41
24.69
20.73
16.77
13.07
9.86
7.19
4.90
2.73
0.44
-2.03
-4.57
-6.98
-9.09
-10.98
-12.88
-15.10
-17.86
-21.20
-24.94
-28.80
-32.53
-36.01
-39.21
-42.20
-45.04
-47.84
-50.71
-53.90
-57.76
-62.56
-68.29
-74.34
-79.42
-81.78
-79.74
-72.29
-59.50
-42.55
-23.34
-3.92
14.03
29.40
41.64
50.55
56.12
58.50
57.98
55.12
50.64
45.39
40.16
35.63
32.25
30.22
29.52
29.95
31.22
32.99
34.93
36.73
38.10
38.75
38.43
36.98
34.44
31.06
27.23
23.40
19.93
16.95
14.42
12.17
10.03
7.93
5.93
4.13
2.59
1.27
0.08
-1.13
-2.46
-3.95
-5.61
-7.40
-9.26
-11.14
-13.01
-14.90
-16.92
-19.17
-21.74
-24.60
-27.57
-30.42
-32.93
-35.01
-36.75
-38.43
-40.43
-43.16
-46.93
-51.77
-57.25
-62.36
-65.64
-65.46
-60.54
-50.38
-35.48
-17.30
2.17
20.88
37.09
49.64
57.96
62.03
62.26
59.42
54.49
48.55
42.56
37.30
33.25
30.60
29.29
29.10
29.73
30.93
32.51
34.30
36.11
37.67
38.60
38.54
37.26
34.74
31.22
27.09
22.70
18.29
13.92
9.58
5.22
0.90
-3.23
-7.00
-10.35
-13.33
-16.08
-18.81
-21.70
-24.83
-28.23
-31.83
-35.50
-39.07
-42.33
-45.23
-47.88
-50.69
-54.20
-58.86
-64.63
-70.77
-75.83
-77.99
-75.69
-68.16
-55.70
-39.58
-21.64
-3.75
12.61
26.47
37.36
45.08
49.65
51.29
50.42
47.72
44.03
40.16
36.73
34.09
32.29
31.24
30.82
30.92
31.49
32.45
33.64
34.78
35.51
35.51
34.54
32.48
29.35
25.28
20.54
15.50
10.56
6.14
2.49
-0.33
-2.43
-4.06
-5.43
-6.74
-8.05
-9.43
-10.95
-12.74
-14.99
-17.83
-21.30
-25.29
-29.54
-33.68
-37.38
-40.48
-43.08
-45.58
-48.62
-52.85
-58.59
-65.47
-72.36
-77.44
-78.72
-74.66
-64.73
-49.64
-31.12
-11.39
7.50
24.05
37.47
47.49
54.14
57.56
57.98
55.88
51.97
47.14
42.28
38.02
34.71
32.41
31.05
30.52
30.77
31.66
33.01
34.46
35.59
36.02
35.47
33.85
31.21
27.75
23.73
19.47
15.33
11.61
8.47
5.92
3.85
2.06
0.36
-1.38
-3.30
-5.48
-7.95
-10.65
-13.40
-16.02
-18.36
-20.46
-22.57
-24.98
-27.97
-31.58
-35.59
-39.60
-43.21
-46.14
-48.41
-50.30
-52.31
-54.99
-58.74
-63.57
-68.94
-73.71
-76.30
-75.04
-68.67
-56.81
-40.14
-20.31
0.47
19.98
36.49
48.98
57.15
61.21
61.70
59.30
54.79
49.05
42.99
37.43
33.01
30.06
28.60
28.45
29.27
30.72
32.46
34.21
35.67
36.57
36.67
35.83
34.03
31.34
27.94
24.09
20.04
15.99
12.09
8.42
5.07
2.10
-0.41
-2.42
-3.97
-5.20
-6.25
-7.19
-8.00
-8.59
-8.94
-9.22
-9.78
-11.06
-13.32
-16.53
-20.33
-24.21
-27.70
-30.56
-32.85
-34.78
-36.65
-38.71
-41.20
-44.34
-48.26
-52.80
-57.36
-60.79
-61.65
-58.57
-50.77
-38.36
-22.46
-4.81
12.66
28.32
41.10
50.58
56.77
59.90
60.25
58.14
54.00
48.47
42.40
36.68
32.07
28.96
27.33
26.83
27.06
27.69
28.57
29.59
30.55
31.08
30.78
29.36
26.83
23.44
19.59
15.61
11.68
7.81
3.99
0.26
-3.27
-6.45
-9.25
-11.77
-14.27
-17.03
-20.21
-23.81
-27.67
-31.51
-35.10
-38.30
-41.17
-43.89
-46.80
-50.27
-54.59
-59.88
-65.87
-71.81
-76.45
-78.25
-75.76
-68.12
-55.39
-38.63
-19.64
-0.46
17.07
31.65
42.63
49.87
53.62
54.34
52.64
49.18
44.74
40.11
35.96
32.79
30.83
30.03
30.15
30.89
31.92
32.99
33.89
34.40
34.32
33.46
31.70
29.08
25.78
22.06
18.20
14.42
10.85
7.56
4.56
1.81
-0.71
-3.03
-5.18
-7.15
-9.00
-10.81
-12.75
-15.04
-17.89
-21.40
-25.52
-30.00
-34.47
-38.56
-42.04
-44.85
-47.22
-49.60
-52.52
-56.48
-61.60
-67.44
-72.85
-76.12
-75.44
-69.53
-58.13
-42.11
-23.30
-3.85
14.30
29.84
42.13
51.06
56.74
59.41
59.41
57.24
53.65
49.54
45.76
42.89
41.14
40.38
40.27
40.52
40.92
41.36
41.71
41.75
41.21
39.86
37.65
34.66
31.13
27.26
23.23
19.17
15.25
11.69
8.72
6.45
4.81
3.50
2.18
0.50
-1.64
-4.18
-6.87
-9.44
-11.69
-13.62
-15.41
-17.37
-19.84
-23.05
-27.01
-31.47
-35.99
-40.09
-43.43
-45.91
-47.76
-49.41
-51.39
-54.20
-58.14
-63.13
-68.59
-73.38
-75.94
-74.76
-68.76
-57.75
-42.50
-24.54
-5.69
12.28
28.07
40.82
50.11
55.86
58.21
57.56
54.56
50.04
44.91
39.98
35.86
32.90
31.17
30.54
30.77
31.58
32.75
34.05
35.20
35.88
35.75
34.56
32.26
29.00
25.11
21.01
17.06
13.54
10.55
8.03
5.78
3.53
1.03
-1.84
-4.97
-8.12
-10.97
-13.28
-15.02
-16.37
-17.65
-19.12
-20.97
-23.22
-25.79
-28.53
-31.29
-33.97
-36.53
-39.03
-41.71
-44.89
-48.89
-53.85
-59.47
-64.93
-68.94
-70.00
-66.87
-58.93
-46.41
-30.33
-12.25
6.11
23.18
37.69
48.79
56.08
59.55
59.63
57.06
52.79
47.79
42.87
38.63
35.42
33.39
32.54
32.70
33.65
35.06
36.59
37.94
38.79
38.92
38.12
36.26
33.35
29.58
25.25
20.80
16.62
12.99
10.00
7.53
5.33
3.14
0.81
-1.64
-4.06
-6.26
-8.16
-9.87
-11.70
-14.00
-16.99
-20.66
-24.76
-28.89
-32.77
-36.24
-39.39
-42.44
-45.70
-49.46
-53.97
-59.33
-65.36
-71.41
-76.27
-78.41
-76.35
-69.21
-57.04
-40.88
-22.48
-3.75
13.59
28.38
39.93
47.98
52.56
53.95
52.65
49.41
45.10
40.62
36.67
33.72
31.98
31.41
31.80
32.89
34.33
35.81
37.06
37.81
37.89
37.16
35.57
33.19
30.19
26.82
23.36
20.06
17.11
14.56
12.38
10.47
8.67
6.91
5.16
3.48
1.98
0.70
-0.43
-1.66
-3.30
-5.60
-8.55
-11.90
-15.28
-18.35
-21.03
-23.49
-26.05
-28.96
-32.29
-35.87
-39.48
-42.90
-46.06
-48.99
-51.78
-54.56
-57.54
-60.98
-65.14
-70.05
-75.30
-79.86
-82.23
-80.82
-74.49
-62.96
-47.01
-28.23
-8.63
9.89
25.87
38.47
47.38
52.67
54.67
53.92
51.07
46.94
42.43
38.37
35.38
33.76
33.43
34.03
35.13
36.30
37.29
37.94
38.20
38.00
37.27
35.92
33.93
31.35
28.33
25.09
21.87
18.86
16.14
13.68
11.38
9.14
6.93
4.85
3.02
1.53
0.30
-0.91
-2.33
-4.15
-6.35
-8.76
-11.14
-13.34
-15.38
-17.40
-19.62
-22.19
-25.11
-28.28
-31.49
-34.54
-37.34
-39.90
-42.39
-45.06
-48.23
-52.16
-56.92
-62.24
-67.34
-71.01
-71.80
-68.46
-60.36
-47.76
-31.78
-14.08
3.62
19.92
33.91
45.08
53.13
57.88
59.28
57.56
53.41
47.87
42.14
37.23
33.71
31.72
31.00
31.21
32.05
33.34
34.90
36.48
37.68
38.06
37.33
35.43
32.61
29.26
25.78
22.45
19.35
16.43
13.52
10.56
7.51
4.46
1.54
-1.18
-3.72
-6.21
-8.86
-11.83
-15.14
-18.65
-22.07
-25.12
-27.65
-29.76
-31.74
-33.99
-36.91
-40.81
-45.82
-51.75
-57.98
-63.37
-66.41
-65.61
-59.94
-49.32
-34.69
-17.80
-0.69
14.87
27.76
37.57
44.33
48.27
49.61
48.58
45.51
41.00
35.86
31.00
27.21
24.91
24.13
24.53
25.61
26.89
28.02
28.81
29.15
29.00
28.25
26.81
24.64
21.77
18.35
14.73
11.24
8.23
5.84
3.99
2.42
0.79
-1.19
-3.59
-6.32
-9.13
-11.80
-14.17
-16.24
-18.15
-20.12
-22.39
-25.10
-28.30
-31.89
-35.64
-39.30
-42.65
-45.56
-48.12
-50.63
-53.52
-57.29
-62.31
-68.55
-75.36
-81.45
-85.09
-84.52
-78.56
-66.96
-50.57
-31.07
-10.54
9.05
26.22
40.11
50.36
56.94
60.07
60.16
57.89
54.11
49.79
45.83
42.82
40.98
40.22
40.25
40.76
41.57
42.58
43.69
44.72
45.40
45.40
44.47
42.53
39.67
36.16
32.33
28.51
24.91
21.71
18.93
16.54
14.46
12.54
10.69
8.86
7.06
5.36
3.78
2.34
0.96
-0.49
-2.06
-3.72
-5.35
-6.84
-8.16
-9.41
-10.81
-12.56
-14.74
-17.21
-19.73
-22.06
-24.11
-26.01
-28.03
-30.49
-33.56
-37.17
-41.05
-44.83
-48.13
-50.78
-52.83
-54.57
-56.44
-58.97
-62.63
-67.68
-73.91
-80.46
-85.85
-88.19
-85.71
-77.40
-63.36
-44.89
-24.06
-3.07
16.21
32.63
45.61
55.00
60.80
63.17
62.48
59.43
55.01
50.32
46.28
43.44
41.88
41.33
41.41
41.78
42.27
42.85
43.48
44.04
44.28
43.89
42.61
40.30
37.08
33.26
29.25
25.50
22.25
19.57
17.31
15.22
13.10
10.90
8.73
6.75
5.14
3.95
3.09
2.40
1.71
0.86
-0.29
-1.81
-3.74
-6.03
-8.54
-11.11
-13.62
-16.03
-18.37
-20.70
-23.02
-25.25
-27.26
-28.93
-30.27
-31.41
-32.64
-34.27
-36.64
-40.03
-44.57
-50.13
-56.12
-61.47
-64.69
-64.27
-59.12
-48.97
-34.50
-17.20
1.08
18.59
33.96
46.36
55.39
60.94
63.11
62.20
58.75
53.59
47.71
42.12
37.59
34.53
32.96
32.53
32.80
33.37
33.97
34.48
34.80
34.85
34.44
33.40
31.59
28.98
25.68
21.89
17.88
13.91
10.16
6.77
3.78
1.21
-0.97
-2.80
-4.33
-5.66
-6.93
-8.28
-9.85
-11.72
-13.88
-16.24
-18.67
-21.10
-23.52
-26.03
-28.80
-31.96
-35.57
-39.53
-43.65
-47.67
-51.40
-54.74
-57.72
-60.56
-63.61
-67.30
-71.97
-77.61
-83.66
-88.91
-91.69
-90.28
-83.50
-71.04
-53.69
-33.10
-11.35
9.53
27.93
42.82
53.75
60.76
64.19
64.60
62.72
59.36
55.32
51.35
48.04
45.70
44.36
43.83
43.80
43.94
44.07
44.05
43.84
43.38
42.54
41.19
39.19
36.49
33.15
29.38
25.48
21.81
18.68
16.24
14.42
12.99
11.66
10.19
8.50
6.64
4.77
2.99
1.38
-0.11
-1.55
-3.02
-4.59
-6.27
-8.09
-10.08
-12.17
-14.29
-16.33
-18.26
-20.20
-22.39
-25.12
-28.54
-32.58
-36.91
-41.14
-44.92
-48.11
-50.82
-53.31
-55.95
-59.14
-63.22
-68.40
-74.46
-80.52
-85.03
-86.07
-81.95
-71.84
-56.21
-36.66
-15.42
5.26
23.68
38.79
50.14
57.66
61.54
62.17
60.20
56.48
51.97
47.55
43.85
41.26
39.84
39.46
39.84
40.64
41.60
42.53
43.32
43.86
43.99
43.53
42.27
40.19
37.42
34.23
30.92
27.72
24.78
22.12
19.78
17.79
16.16
14.86
13.81
12.83
11.71
10.31
8.53
6.41
4.09
1.74
-0.43
-2.29
-3.83
-5.22
-6.65
-8.37
-10.49
-13.01
-15.73
-18.42
-20.86
-22.95
-24.75
-26.39
-28.13
-30.14
-32.54
-35.33
-38.36
-41.43
-44.32
-46.91
-49.19
-51.35
-53.73
-56.81
-60.96
-66.27
-72.25
-77.78
-81.21
-80.81
-75.33
-64.41
-48.74
-29.93
-9.98
9.20
26.11
39.79
49.83
56.16
59.00
58.78
56.14
51.89
46.93
42.12
38.17
35.47
34.11
33.88
34.42
35.39
36.53
37.69
38.72
39.41
39.51
38.75
37.00
34.33
30.98
27.31
23.66
20.32
17.43
15.01
12.99
11.23
9.61
8.07
6.62
5.30
4.03
2.69
1.13
-0.71
-2.73
-4.67
-6.32
-7.59
-8.67
-9.84
-11.40
-13.45
-15.86
-18.41
-20.87
-23.18
-25.43
-27.78
-30.41
-33.44
-36.97
-41.06
-45.72
-50.68
-55.33
-58.64
-59.37
-56.42
-49.20
-37.91
-23.47
-7.33
8.93
23.91
36.55
46.18
52.44
55.26
54.84
51.68
46.57
40.48
34.44
29.28
25.54
23.33
22.46
22.52
23.09
23.86
24.64
25.28
25.65
25.55
24.75
23.08
20.50
17.16
13.34
9.37
5.53
1.96
-1.30
-4.34
-7.25
-10.08
-12.78
-15.27
-17.43
-19.26
-20.89
-22.57
-24.57
-27.08
-30.07
-33.36
-36.64
-39.63
-42.24
-44.61
-47.08
-50.10
-54.06
-59.12
-65.02
-70.97
-75.64
-77.46
-74.98
-67.38
-54.78
-38.29
-19.69
-0.96
16.21
30.69
41.97
49.94
54.72
56.55
55.80
52.99
48.87
44.30
40.11
36.89
34.95
34.19
34.31
34.87
35.50
35.97
36.17
36.12
35.79
35.13
33.99
32.17
29.50
25.96
21.69
17.04
12.43
8.28
4.83
2.11
-0.03
-1.83
-3.51
-5.21
-7.00
-8.87
-10.78
-12.70
-14.65
-16.72
-19.06
-21.85
-25.18
-29.02
-33.13
-37.14
-40.69
-43.61
-45.97
-48.16
-50.70
-54.07
-58.51
-63.80
-69.23
-73.61
-75.51
-73.55
-66.86
-55.34
-39.80
-21.72
-2.97
14.72
29.96
41.96
50.40
55.38
57.22
56.43
53.67
49.71
45.37
41.41
38.41
36.64
36.10
36.52
37.51
38.67
39.69
40.34
40.46
39.96
38.76
36.86
34.33
31.27
27.83
24.22
20.66
17.43
14.74
12.67
11.15
9.96
8.81
7.48
5.88
4.05
2.14
0.32
-1.26
-2.56
-3.64
-4.66
-5.84
-7.32
-9.17
-11.30
-13.56
-15.78
-17.91
-19.98
-22.12
-24.39
-26.83
-29.40
-32.01
-34.56
-36.94
-39.01
-40.69
-41.97
-43.04
-44.27
-46.20
-49.29
-53.74
-59.15
-64.44
-68.00
-68.12
-63.48
-53.61
-39.13
-21.47
-2.50
15.99
32.57
46.31
56.67
63.41
66.52
66.31
63.41
58.78
53.46
48.43
44.40
41.67
40.20
39.72
39.87
40.32
40.89
41.43
41.83
41.95
41.56
40.48
38.58
35.91
32.65
29.09
25.48
22.00
18.72
15.62
12.67
9.86
7.26
4.93
2.91
1.10
-0.67
-2.66
-5.02
-7.81
-10.92
-14.14
-17.22
-20.03
-22.60
-25.11
-27.81
-30.90
-34.40
-38.13
-41.78
-45.07
-47.86
-50.27
-52.64
-55.45
-59.12
-63.90
-69.69
-75.92
-81.56
-85.15
-85.17
-80.42
-70.42
-55.64
-37.42
-17.62
1.85
19.40
34.01
45.15
52.75
56.97
58.23
57.14
54.44
50.97
47.48
44.49
42.27
40.82
39.97
39.51
39.25
39.11
39.03
38.92
38.64
37.99
36.80
34.97
32.58
29.81
26.93
24.18
21.73
19.63
17.84
16.28
14.85
13.48
12.11
10.73
9.34
7.97
6.64
5.36
4.06
2.63
0.97
-0.92
-2.98
-5.10
-7.16
-9.14
-11.11
-13.20
-15.51
-18.10
-20.90
-23.75
-26.49
-29.01
-31.29
-33.46
-35.72
-38.29
-41.28
-44.63
-48.12
-51.42
-54.28
-56.69
-58.90
-61.43
-64.89
-69.69
-75.75
-82.27
-87.80
-90.51
-88.69
-81.30
-68.27
-50.62
-30.12
-8.87
11.19
28.57
42.36
52.22
58.22
60.77
60.53
58.32
55.01
51.42
48.17
45.61
43.83
42.72
42.07
41.68
41.44
41.27
41.14
40.97
40.65
40.00
38.87
37.15
34.86
32.14
29.21
26.33
23.70
21.43
19.49
17.75
16.09
14.42
12.72
11.04
9.47
8.08
6.90
5.83
4.71
3.37
1.70
-0.26
-2.33
-4.29
-5.99
-7.46
-8.88
-10.52
-12.55
-15.00
-17.71
-20.41
-22.91
-25.12
-27.10
-29.05
-31.20
-33.72
-36.65
-39.85
-43.04
-45.91
-48.29
-50.21
-51.98
-54.13
-57.14
-61.29
-66.39
-71.63
-75.71
-77.04
-74.19
-66.32
-53.44
-36.53
-17.17
2.72
21.40
37.55
50.31
59.29
64.48
66.19
64.99
61.70
57.22
52.41
47.96
44.35
41.89
40.74
40.89
42.11
43.98
45.96
47.52
48.26
48.02
46.85
44.90
42.33
39.27
35.86
32.28
28.72
25.37
22.31
19.52
16.89
14.33
11.84
9.45
7.25
5.26
3.45
1.71
-0.08
-2.01
-4.11
-6.35
-8.68
-11.09
-13.60
-16.28
-19.18
-22.32
-25.67
-29.17
-32.73
-36.30
-39.85
-43.36
-46.90
-50.58
-54.62
-59.27
-64.61
-70.37
-75.70
-79.22
-79.39
-74.91
-65.29
-50.98
-33.34
-14.19
4.59
21.49
35.50
46.10
53.18
56.89
57.58
55.76
52.16
47.60
42.94
38.90
35.93
34.14
33.34
33.22
33.45
33.84
34.30
34.74
35.00
34.83
33.99
32.34
29.94
27.02
23.88
20.80
17.98
15.47
13.24
11.24
9.42
7.79
6.37
5.16
4.11
3.12
2.05
0.82
-0.61
-2.18
-3.76
-5.19
-6.39
-7.34
-8.15
-8.97
-10.02
-11.41
-13.15
-15.12
-17.15
-19.11
-20.99
-22.89
-25.02
-27.53
-30.44
-33.65
-36.98
-40.26
-43.36
-46.23
-48.91
-51.56
-54.45
-57.93
-62.33
-67.68
-73.48
-78.57
-81.31
-80.03
-73.60
-61.83
-45.61
-26.62
-6.83
11.90
28.24
41.34
50.83
56.67
59.08
58.59
55.96
52.09
47.91
44.15
41.26
39.39
38.42
38.10
38.21
38.57
39.10
39.67
40.04
39.92
39.02
37.18
34.43
31.05
27.40
23.82
20.54
17.68
15.24
13.19
11.46
10.00
8.71
7.50
6.30
5.05
3.76
2.45
1.19
0.00
-1.17
-2.52
-4.27
-6.62
-9.57
-12.90
-16.22
-19.19
-21.68
-23.87
-26.14
-28.86
-32.20
-35.98
-39.81
-43.25
-46.02
-48.13
-49.80
-51.37
-53.15
-55.48
-58.65
-62.87
-68.11
-73.90
-79.12
-82.14
-81.23
-75.11
-63.49
-47.14
-27.77
-7.41
12.02
29.09
42.98
53.24
59.74
62.61
62.20
59.18
54.52
49.28
44.44
40.72
38.39
37.36
37.25
37.61
38.07
38.42
38.60
38.58
38.30
37.64
36.48
34.74
32.47
29.83
26.99
24.15
21.41
18.85
16.47
14.25
12.19
10.28
8.57
7.07
5.81
4.74
3.74
2.66
1.35
-0.28
-2.18
-4.21
-6.18
-7.93
-9.41
-10.72
-12.02
-13.48
-15.20
-17.17
-19.31
-21.48
-23.65
-25.86
-28.29
-31.19
-34.86
-39.44
-44.88
-50.74
-56.11
-59.69
-60.11
-56.27
-47.73
-34.94
-19.06
-1.71
15.47
31.10
44.18
54.08
60.41
63.11
62.38
58.82
53.34
47.01
40.84
35.61
31.72
29.26
28.09
27.91
28.37
29.09
29.77
30.13
30.00
29.29
27.96
26.04
23.58
20.67
17.43
13.99
10.50
7.10
3.92
1.04
-1.52
-3.77
-5.79
-7.67
-9.49
-11.33
-13.27
-15.32
-17.51
-19.82
-22.25
-24.79
-27.48
-30.32
-33.31
-36.41
-39.55
-42.65
-45.64
-48.53
-51.34
-54.16
-57.17
-60.60
-64.77
-69.83
-75.56
-81.16
-85.28
-86.26
-82.62
-73.56
-59.25
-40.85
-20.22
0.57
19.69
35.83
48.29
56.91
61.89
63.67
62.86
60.14
56.30
52.12
48.22
45.03
42.67
41.03
39.91
39.16
38.76
38.68
38.86
39.09
39.07
38.54
37.43
35.84
34.01
32.17
30.52
29.18
28.21
27.66
27.50
27.56
27.52
26.96
25.57
23.20
20.00
16.27
12.38
8.59
5.07
1.92
-0.74
-2.80
-4.17
-4.90
-5.16
-5.26
-5.53
-6.21
-7.44
-9.25
-11.58
-14.33
-17.34
-20.49
-23.66
-26.82
-30.04
-33.46
-37.14
-41.05
-44.96
-48.58
-51.68
-54.25
-56.49
-58.83
-61.73
-65.60
-70.68
-76.89
-83.75
-90.19
-94.67
-95.45
-91.03
-80.69
-64.79
-44.76
-22.72
-0.92
18.72
34.96
47.20
55.40
59.88
61.21
60.12
57.45
54.01
50.51
47.46
45.12
43.56
42.69
42.36
42.41
42.72
43.20
43.71
44.11
44.17
43.67
42.45
40.46
37.80
34.69
31.35
28.00
24.77
21.75
19.00
16.54
14.39
12.51
10.77
9.05
7.24
5.31
3.37
1.57
0.04
-1.19
-2.27
-3.41
-4.85
-6.74
-9.08
-11.77
-14.65
-17.55
-20.36
-23.02
-25.54
-27.96
-30.36
-32.78
-35.25
-37.84
-40.57
-43.43
-46.35
-49.16
-51.76
-54.16
-56.61
-59.56
-63.42
-68.22
-73.38
-77.59
-79.16
-76.49
-68.66
-55.71
-38.69
-19.34
0.37
18.64
34.18
46.21
54.49
59.17
60.63
59.44
56.36
52.25
48.00
44.34
41.79
40.48
40.27
40.83
41.84
43.05
44.32
45.50
46.42
46.86
46.61
45.56
43.69
41.08
37.88
34.23
30.32
26.31
22.38
18.70
15.39
12.50
10.03
7.84
5.80
3.72
1.47
-1.01
-3.71
-6.61
-9.64
-12.80
-16.13
-19.69
-23.52
-27.60
-31.87
-36.25
-40.62
-44.89
-48.96
-52.82
-56.59
-60.59
-65.21
-70.71
-77.02
-83.43
-88.67
-91.11
-89.21
-81.96
-69.22
-51.70
-30.77
-8.14
14.46
35.49
53.64
67.97
77.89
83.26
84.42
82.05
77.12
70.69
63.76
57.21
51.72
47.80
45.70
45.40
46.60
48.68
50.82
52.16
52.02
50.06
46.33
41.22
35.30
29.10
23.02
17.33
12.21
7.80
4.21
1.47
-0.56
-2.11
-3.42
-4.64
-5.73
-6.63
-7.32
-7.98
-8.91
-10.36
-12.45
-15.01
-17.72
-20.31
-22.66
-24.95
-27.54
-30.74
-34.70
-39.26
-44.00
-48.47
-52.34
-55.56
-58.30
-60.91
-63.74
-67.16
-71.41
-76.54
-82.25
-87.68
-91.40
-91.74
-87.20
-77.07
-61.70
-42.47
-21.39
-0.52
18.46
34.50
47.05
55.98
61.38
63.53
62.94
60.30
56.50
52.41
48.74
45.88
43.89
42.60
41.75
41.16
40.80
40.65
40.67
40.66
40.37
39.54
37.98
35.72
32.89
29.70
26.42
23.29
20.44
17.92
15.64
13.43
11.15
8.76
6.36
4.12
2.24
0.77
-0.38
-1.41
-2.60
-4.17
-6.24
-8.77
-11.61
-14.51
-17.30
-19.92
-22.48
-25.17
-28.21
-31.70
-35.56
-39.55
-43.36
-46.70
-49.47
-51.79
-53.99
-56.54
-59.88
-64.30
-69.73
-75.57
-80.70
-83.57
-82.57
-76.50
-64.97
-48.63
-29.04
-8.28
11.58
28.94
42.83
52.92
59.25
62.13
61.99
59.43
55.24
50.29
45.45
41.35
38.38
36.58
35.78
35.73
36.18
36.89
37.66
38.26
38.46
38.03
36.80
34.73
31.91
28.55
24.91
21.24
17.75
14.59
11.83
9.49
7.50
5.76
4.13
2.42
0.52
-1.62
-3.93
-6.27
-8.53
-10.68
-12.79
-14.94
-17.17
-19.44
-21.62
-23.63
-25.41
-27.03
-28.58
-30.17
-31.86
-33.78
-36.11
-39.13
-43.06
-47.85
-52.91
-57.16
-59.16
-57.52
-51.42
-40.80
-26.46
-9.78
7.60
24.15
38.63
50.18
58.28
62.76
63.78
61.83
57.69
52.29
46.56
41.26
36.84
33.49
31.16
29.67
28.78
28.25
27.83
27.32
26.52
25.34
23.75
21.71
19.16
15.93
11.88
7.02
1.65
-3.66
-8.28
-11.80
-14.25
-16.15
-18.22
-21.05
-24.82
-29.23
-33.62
-37.38
-40.19
-42.16
-43.73
-45.38
-47.47
-50.06
-52.95
-55.76
-57.84
-58.18
-55.39
-48.05
-35.29
-17.48
3.50
24.70
43.12
56.79
65.39
70.01
72.19
72.91
72.09
68.87
62.38
52.53
40.24
27.10
14.74
4.20
-4.19
-10.59
-15.33
-18.49
-19.86
-19.14
-16.25
-11.52
-5.76
-0.06
4.55
7.48
8.66
8.53
7.79
7.05
6.62
6.47
6.31
5.82
4.85
3.44
1.84
0.37
-0.71
-1.30
-1.50
-1.53
-1.67
-2.18
-3.22
-4.84
-6.99
-9.54
-12.30
-15.12
-17.93
-20.79
-23.81
-27.16
-30.90
-34.94
-39.09
-43.10
-46.76
-50.06
-53.19
-56.54
-60.56
-65.64
-71.81
-78.50
-84.48
-87.97
-87.14
-80.65
-68.16
-50.52
-29.53
-7.42
13.66
32.09
46.92
57.77
64.73
68.10
68.44
66.45
62.99
58.96
55.11
51.96
49.71
48.32
47.58
47.28
47.26
47.42
47.60
47.56
47.02
45.72
43.55
40.64
37.25
33.68
30.18
26.91
23.97
21.41
19.18
17.24
15.47
13.75
12.01
10.26
8.50
6.78
5.08
3.37
1.66
-0.03
-1.67
-3.30
-5.06
-7.11
-9.61
-12.56
-15.82
-19.11
-22.16
-24.81
-27.00
-28.77
-30.19
-31.29
-32.13
-32.89
-33.91
-35.64
-38.54
-42.86
-48.64
-55.64
-63.58
-72.15
-80.98
-89.44
-96.43
-100.41
-99.71
-93.06
-80.08
-61.56
-39.25
-15.46
7.46
27.61
43.70
55.10
61.77
64.09
62.88
59.22
54.33
49.33
45.07
41.99
40.18
39.40
39.32
39.63
40.11
40.61
41.00
41.15
40.94
40.28
39.12
37.44
35.30
32.73
29.82
26.66
23.36
20.00
16.69
13.55
10.74
8.47
6.81
5.71
4.92
4.11
3.01
1.53
-0.18
-1.90
-3.45
-4.83
-6.17
-7.66
-9.44
-11.54
-13.95
-16.58
-19.38
-22.24
-25.08
-27.83
-30.52
-33.27
-36.26
-39.71
-43.79
-48.59
-53.97
-59.53
-64.47
-67.60
-67.58
-63.27
-54.15
-40.58
-23.75
-5.39
12.69
28.96
42.35
52.23
58.35
60.79
59.95
56.63
51.96
47.19
43.42
41.38
41.26
42.75
45.23
47.99
50.43
52.12
52.75
52.11
50.07
46.60
41.84
36.05
29.63
23.00
16.52
10.46
4.99
0.16
-4.07
-7.87
-11.45
-15.03
-18.61
-22.01
-24.89
-26.94
-28.15
-28.80
-29.49
-30.79
-33.06
-36.25
-39.99
-43.78
-47.23
-50.23
-52.95
-55.75
-59.02
-63.06
-68.04
-73.89
-80.24
-86.22
-90.58
-91.77
-88.38
-79.63
-65.63
-47.44
-26.78
-5.58
14.44
32.05
46.51
57.49
64.88
68.79
69.56
67.80
64.33
60.09
55.88
52.24
49.42
47.42
46.10
45.32
44.97
44.94
45.04
45.03
44.59
43.46
41.53
38.84
35.59
32.05
28.48
25.12
22.16
19.65
17.60
15.86
14.23
12.54
10.66
8.61
6.47
4.41
2.54
0.90
-0.61
-2.23
-4.20
-6.73
-9.83
-13.35
-16.98
-20.44
-23.62
-26.59
-29.59
-32.87
-36.52
-40.48
-44.50
-48.34
-51.82
-54.96
-57.88
-60.86
-64.25
-68.38
-73.53
-79.67
-86.34
-92.44
-96.43
-96.55
-91.40
-80.35
-63.81
-43.18
-20.49
2.08
22.61
39.78
52.85
61.70
66.58
68.06
66.92
64.02
60.24
56.37
52.98
50.39
48.67
47.73
47.39
47.50
47.88
48.37
48.72
48.72
48.15
46.89
44.94
42.35
39.27
35.84
32.27
28.76
25.53
22.73
20.40
18.51
16.91
15.43
13.90
12.18
10.22
8.03
5.71
3.38
1.18
-0.82
-2.66
-4.48
-6.46
-8.81
-11.58
-14.65
-17.76
-20.57
-22.85
-24.61
-26.15
-27.93
-30.41
-33.78
-37.90
-42.33
-46.59
-50.31
-53.44
-56.19
-58.95
-62.17
-66.23
-71.33
-77.40
-83.90
-89.78
-93.50
-93.37
-87.97
-76.73
-60.15
-39.76
-17.76
3.60
22.53
37.92
49.43
57.22
61.67
63.26
62.47
59.84
56.06
51.86
47.96
44.92
43.00
42.13
41.99
42.17
42.33
42.27
41.91
41.22
40.16
38.61
36.43
33.54
30.04
26.17
22.34
18.92
16.16
14.09
12.58
11.44
10.60
10.16
10.28
11.11
12.57
14.31
15.78
16.41
15.79
13.80
10.60
6.51
1.85
-3.08
-8.09
-13.03
-17.70
-21.91
-25.47
-28.33
-30.56
-32.39
-34.08
-35.91
-38.11
-40.87
-44.41
-48.85
-54.13
-59.76
-64.71
-67.52
-66.65
-60.94
-50.05
-34.64
-16.19
3.35
22.07
38.38
51.25
60.13
64.92
65.90
63.59
58.82
52.58
45.95
39.90
35.19
32.18
30.87
30.92
31.79
32.98
34.11
34.97
35.44
35.45
34.85
33.45
31.14
27.91
23.96
19.60
15.14
10.80
6.64
2.65
-1.21
-4.94
-8.51
-11.86
-15.04
-18.13
-21.22
-24.38
-27.63
-30.95
-34.41
-38.12
-42.21
-46.76
-51.72
-56.87
-61.91
-66.63
-70.90
-74.76
-78.27
-81.39
-83.94
-85.59
-85.84
-84.10
-79.59
-71.44
-58.85
-41.45
-19.61
5.33
31.21
55.41
75.47
89.54
96.69
96.93
91.09
80.60
67.23
52.95
39.59
28.54
20.55
15.62
13.14
12.19
11.87
11.54
10.88
9.87
8.55
7.02
5.22
3.07
0.48
-2.44
-5.28
-7.25
-7.24
-4.14
2.85
13.85
28.13
44.28
60.57
75.43
87.72
96.82
102.41
104.20
101.80
94.77
82.85
66.37
46.32
24.31
2.31
-17.81
-34.60
-47.25
-55.60
-60.08
-61.47
-60.80
-59.12
-57.41
-56.44
-56.72
-58.52
-61.86
-66.67
-72.76
-79.95
-88.01
-96.71
-105.60
-113.91
-120.50
-123.87
-122.54
-115.47
-102.39
-84.02
-61.87
-37.98
-14.41
7.02
24.97
38.64
47.73
52.47
53.50
51.79
48.47
44.64
41.20
38.73
37.46
37.32
38.02
39.17
40.41
41.47
42.21
42.60
42.61
42.24
41.40
40.03
38.06
35.50
32.43
29.04
25.53
22.08
18.75
15.55
12.46
9.45
6.59
3.96
1.55
-0.76
-3.22
-6.10
-9.55
-13.46
-17.42
-20.75
-22.69
-22.65
-20.38
-16.11
-10.55
-4.72
0.33
3.74
4.98
3.89
0.50
-5.04
-12.57
-21.90
-32.71
-44.56
-56.90
-69.11
-80.47
-90.12
-96.97
-99.74
-97.28
-88.93
-74.86
-56.22
-34.84
-12.88
7.71
25.46
39.47
49.35
55.06
56.91
55.49
51.72
46.73
41.67
37.50
34.85
33.92
34.55
36.33
38.74
41.25
43.44
44.99
45.70
45.50
44.38
42.44
39.86
36.92
33.92
31.07
28.48
26.10
23.76
21.28
18.53
15.56
12.47
9.42
6.45
3.47
0.30
-3.28
-7.32
-11.71
-16.16
-20.36
-24.12
-27.44
-30.55
-33.79
-37.57
-42.23
-47.92
-54.45
-61.21
-67.01
-70.26
-69.32
-63.02
-51.17
-34.74
-15.58
4.07
22.24
37.63
49.58
57.95
62.72
63.95
61.83
56.90
50.15
42.84
36.19
31.00
27.53
25.50
24.43
23.93
23.81
24.08
24.70
25.44
25.86
25.44
23.88
21.20
17.76
14.03
10.39
6.98
3.72
0.43
-2.99
-6.51
-9.96
-13.22
-16.23
-19.09
-21.99
-25.10
-28.56
-32.40
-36.57
-41.01
-45.62
-50.23
-54.61
-58.51
-61.78
-64.56
-67.34
-70.81
-75.53
-81.42
-87.53
-92.03
-92.80
-88.06
-77.10
-60.47
-39.85
-17.53
4.22
23.59
39.43
51.30
59.37
64.33
67.26
69.46
72.12
76.02
81.16
86.75
91.50
94.06
93.59
90.06
84.22
77.17
69.93
63.09
56.72
50.67
44.79
39.10
33.75
28.88
24.50
20.54
16.90
13.59
10.70
8.33
6.48
5.07
3.93
2.91
1.95
1.04
0.17
-0.68
-1.57
-2.55
-3.66
-4.90
-6.28
-7.81
-9.47
-11.25
-13.17
-15.26
-17.61
-20.27
-23.25
-26.42
-29.56
-32.48
-35.13
-37.68
-40.43
-43.71
-47.65
-52.15
-56.85
-61.37
-65.41
-68.89
-71.94
-74.85
-77.96
-81.67
-86.22
-91.53
-96.95
-101.18
-102.38
-98.73
-89.00
-73.17
-52.44
-28.97
-5.24
16.60
35.07
49.49
59.76
66.12
68.95
68.77
66.22
62.10
57.34
52.84
49.31
47.08
46.07
45.89
46.08
46.30
46.43
46.47
46.41
46.12
45.35
43.88
41.65
38.82
35.67
32.46
29.34
26.32
23.40
20.56
17.87
15.41
13.22
11.26
9.41
7.50
5.43
3.17
0.79
-1.57
-3.73
-5.62
-7.23
-8.71
-10.20
-11.80
-13.47
-15.03
-16.32
-17.28
-18.01
-18.82
-20.02
-21.88
-24.47
-27.66
-31.14
-34.53
-37.40
-39.41
-40.38
-40.51
-40.33
-40.71
-42.54
-46.42
-52.28
-59.21
-65.60
-69.40
-68.73
-62.36
-50.05
-32.61
-11.72
10.51
31.94
50.78
65.77
76.28
82.21
83.88
81.95
77.30
70.99
64.07
57.51
52.04
48.01
45.42
43.99
43.28
42.92
42.65
42.35
41.93
41.29
40.31
38.83
36.80
34.24
31.27
28.06
24.76
21.44
18.16
14.92
11.71
8.53
5.43
2.49
-0.22
-2.67
-4.96
-7.29
-9.89
-12.90
-16.28
-19.81
-23.20
-26.26
-29.02
-31.73
-34.74
-38.36
-42.64
-47.41
-52.32
-57.04
-61.34
-65.20
-68.77
-72.32
-76.22
-80.87
-86.62
-93.49
-100.96
-107.79
-112.12
-111.92
-105.58
-92.53
-73.45
-50.16
-25.07
-0.58
21.38
39.60
53.55
63.21
68.89
71.15
70.71
68.44
65.28
62.01
59.19
56.98
55.26
53.74
52.12
50.32
48.45
46.72
45.27
44.04
42.84
41.34
39.34
36.78
33.76
30.44
27.07
23.85
20.96
18.51
16.48
14.73
13.07
11.29
9.33
7.33
5.47
3.89
2.61
1.47
0.27
-1.14
-2.82
-4.76
-6.96
-9.52
-12.56
-16.13
-20.15
-24.33
-28.33
-31.84
-34.69
-36.89
-38.49
-39.46
-39.65
-38.85
-37.00
-34.44
-31.87
-30.24
-30.44
-32.98
-37.96
-45.14
-54.17
-64.61
-75.79
-86.42
-94.57
-97.93
-94.48
-83.35
-65.21
-42.18
-17.15
7.01
28.13
44.99
57.23
65.07
69.09
70.06
68.83
66.19
62.82
59.22
55.65
52.26
49.17
46.45
44.24
42.66
41.78
41.59
41.88
42.36
42.60
42.29
41.24
39.43
36.96
33.92
30.40
26.48
22.38
18.40
14.83
11.83
9.32
7.02
4.61
1.92
-1.01
-3.94
-6.59
-8.80
-10.57
-12.05
-13.48
-15.05
-16.89
-19.03
-21.40
-23.85
-26.25
-28.50
-30.64
-32.77
-35.07
-37.64
-40.51
-43.61
-46.83
-50.07
-53.36
-56.82
-60.72
-65.42
-71.21
-78.12
-85.67
-92.75
-97.73
-98.81
-94.57
-84.43
-68.83
-49.10
-27.05
-4.58
16.66
35.41
50.86
62.61
70.70
75.48
77.41
76.93
74.29
69.66
63.29
55.72
47.83
40.72
35.37
32.32
31.49
32.26
33.79
35.34
36.54
37.42
38.23
39.11
39.92
40.24
39.55
37.48
34.01
29.47
24.26
18.74
13.05
7.21
1.27
-4.63
-10.18
-15.06
-19.04
-22.10
-24.31
-25.84
-26.84
-27.48
-27.93
-28.31
-28.77
-29.41
-30.39
-31.97
-34.43
-37.86
-41.84
-45.32
-46.66
-44.13
-36.57
-23.84
-6.99
12.14
31.49
49.25
64.16
75.40
82.44
84.97
82.96
76.84
67.68
57.00
46.47
37.46
30.71
26.27
23.62
22.07
20.99
20.08
19.30
18.72
18.35
18.07
17.57
16.57
14.82
12.28
9.05
5.32
1.33
-2.81
-7.05
-11.43
-16.04
-20.90
-25.94
-31.01
-35.95
-40.64
-45.07
-49.28
-53.35
-57.37
-61.48
-65.95
-71.17
-77.54
-85.16
-93.55
-101.44
-106.95
-108.01
-103.01
-91.31
-73.49
-51.18
-26.69
-2.39
19.67
38.08
52.11
61.69
67.24
69.45
69.12
67.01
63.78
59.97
56.01
52.23
48.83
45.92
43.51
41.62
40.25
39.39
38.95
38.71
38.36
37.57
36.09
33.80
30.69
26.86
22.53
18.03
13.77
10.16
7.44
5.52
4.00
2.28
-0.27
-4.09
-9.37
-16.08
-24.00
-32.85
-42.25
-51.80
-61.02
-69.50
-76.94
-83.32
-88.82
-93.71
-98.01
-101.22
-102.23
-99.57
-91.86
-78.46
-59.77
-37.24
-12.99
10.76
32.14
49.89
63.34
72.24
76.66
76.89
73.54
67.51
59.98
52.16
45.11
39.48
35.47
32.85
31.30
30.50
30.40
31.03
32.40
34.30
36.26
37.69
38.09
37.23
35.19
32.27
28.81
25.10
21.36
17.76
14.44
11.54
9.13
7.20
5.61
4.10
2.41
0.34
-2.15
-4.91
-7.63
-10.03
-11.99
-13.67
-15.45
-17.82
-21.17
-25.62
-30.98
-36.83
-42.68
-48.13
-52.95
-57.08
-60.58
-63.63
-66.58
-69.87
-74.05
-79.45
-85.88
-92.30
-96.91
-97.50
-92.16
-80.00
-61.51
-38.40
-13.07
12.02
34.92
54.28
69.32
79.66
85.29
86.59
84.39
79.93
74.58
69.56
65.68
63.20
61.99
61.68
61.89
62.30
62.69
62.85
62.57
61.61
59.82
57.19
53.90
50.23
46.46
42.68
38.82
34.67
30.02
24.86
19.38
13.91
8.83
4.39
0.59
-2.75
-5.89
-9.04
-12.27
-15.50
-18.58
-21.48
-24.33
-27.43
-31.08
-35.41
-40.26
-45.19
-49.66
-53.27
-55.94
-57.99
-59.97
-62.45
-65.94
-70.75
-76.93
-84.19
-91.70
-97.98
-101.13
-99.16
-90.65
-75.24
-53.80
-28.23
-1.05
25.25
48.57
67.51
81.49
90.61
95.50
97.02
95.97
92.95
88.36
82.57
76.00
69.16
62.40
55.84
49.32
42.66
35.83
29.18
23.23
18.43
14.98
12.76
11.46
10.81
10.66
10.94
11.53
12.14
12.40
11.99
10.84
9.16
7.28
5.52
4.07
2.91
2.00
1.31
0.92
0.89
1.21
1.71
2.09
1.99
1.19
-0.39
-2.68
-5.53
-8.80
-12.40
-16.31
-20.52
-25.07
-30.04
-35.51
-41.49
-47.88
-54.40
-60.72
-66.52
-71.68
-76.36
-81.00
-86.23
-92.66
-100.59
-109.73
-119.00
-126.60
-130.35
-128.24
-118.98
-102.50
-79.91
-53.24
-25.01
2.30
26.55
46.19
60.35
68.86
72.26
71.62
68.34
63.83
59.29
55.46
52.56
50.39
48.54
46.69
44.82
43.27
42.52
42.84
44.09
45.66
46.80
46.93
45.97
44.21
42.09
39.92
37.71
35.31
32.55
29.44
26.11
22.75
19.42
16.06
12.58
8.94
5.24
1.63
-1.77
-4.95
-8.06
-11.30
-14.82
-18.61
-22.54
-26.37
-29.94
-33.21
-36.33
-39.53
-42.99
-46.75
-50.69
-54.62
-58.34
-61.76
-64.96
-68.08
-71.41
-75.26
-80.01
-85.92
-92.96
-100.47
-107.08
-110.86
-109.76
-102.27
-87.92
-67.49
-42.75
-16.06
10.19
33.95
53.68
68.37
77.60
81.49
80.75
76.50
70.20
63.25
56.82
51.67
48.10
46.02
45.20
45.32
46.12
47.41
48.99
50.59
51.86
52.45
52.07
50.61
48.18
45.02
41.45
37.75
34.08
30.50
27.02
23.60
20.33
17.32
14.76
12.74
11.14
9.66
7.82
5.17
1.52
-3.03
-8.08
-13.13
-17.83
-22.06
-26.00
-29.99
-34.42
-39.61
-45.76
-52.90
-60.76
-68.57
-75.09
-78.67
-77.72
-71.19
-58.92
-41.78
-21.35
0.44
21.74
40.98
56.87
68.47
75.20
77.00
74.45
68.71
61.24
53.48
46.47
40.76
36.42
33.31
31.24
30.09
29.78
30.18
31.04
31.96
32.52
32.34
31.20
29.08
26.05
22.20
17.63
12.40
6.62
0.48
-5.73
-11.68
-17.08
-21.80
-25.89
-29.67
-33.56
-38.03
-43.32
-49.38
-55.79
-61.97
-67.35
-71.64
-74.88
-77.46
-79.90
-82.73
-86.35
-90.89
-96.07
-101.00
-104.17
-103.65
-97.54
-84.62
-64.88
-39.70
-11.57
16.52
41.81
62.29
76.90
85.39
88.13
85.86
79.65
70.87
61.18
52.29
45.66
42.11
41.66
43.59
46.82
50.34
53.45
55.91
57.72
58.91
59.39
58.93
57.25
54.17
49.65
43.84
37.14
30.11
23.40
17.60
13.04
9.68
7.14
4.89
2.45
-0.35
-3.46
-6.62
-9.59
-12.27
-14.71
-17.10
-19.62
-22.45
-25.70
-29.45
-33.71
-38.43
-43.46
-48.60
-53.62
-58.41
-63.14
-68.24
-74.27
-81.56
-89.81
-97.77
-103.46
-104.63
-99.54
-87.52
-69.21
-46.27
-20.90
4.73
28.75
49.68
66.34
77.99
84.30
85.52
82.55
76.71
69.53
62.42
56.38
51.88
48.88
46.93
45.46
43.95
42.10
39.86
37.33
34.60
31.70
28.63
25.42
22.28
19.50
17.41
16.22
15.95
16.44
17.45
18.73
20.05
21.23
22.16
22.73
22.91
22.64
21.80
20.22
17.62
13.80
8.74
2.65
-4.04
-10.88
-17.62
-24.23
-30.82
-37.40
-43.71
-49.28
-53.65
-56.65
-58.59
-60.19
-62.29
-65.62
-70.61
-77.39
-85.85
-95.54
-105.48
-114.01
-118.99
-118.27
-110.43
-95.33
-74.19
-49.25
-23.08
2.00
24.22
42.33
55.56
63.56
66.52
65.25
61.07
55.54
50.01
45.41
42.13
40.18
39.38
39.55
40.58
42.31
44.52
46.85
48.88
50.20
50.53
49.74
47.84
44.94
41.22
36.91
32.31
27.72
23.38
19.42
15.74
12.13
8.38
4.44
0.43
-3.39
-6.85
-9.95
-12.92
-16.07
-19.66
-23.73
-28.10
-32.46
-36.54
-40.18
-43.41
-46.37
-49.32
-52.58
-56.46
-61.21
-66.87
-73.06
-78.84
-82.74
-83.06
-78.34
-67.79
-51.61
-30.93
-7.59
16.34
38.87
58.35
73.61
83.92
89.11
89.50
85.92
79.56
71.75
63.73
56.50
50.69
46.62
44.33
43.62
44.14
45.43
47.02
48.48
49.41
49.49
48.51
46.37
43.08
38.76
33.60
27.81
21.57
15.06
8.51
2.16
-3.72
-8.97
-13.59
-17.82
-21.99
-26.41
-31.26
-36.55
-42.16
-47.95
-53.83
-59.70
-65.47
-71.11
-76.75
-82.72
-89.49
-97.30
-105.74
-113.51
-118.57
-118.66
-112.13
-98.48
-78.58
-54.35
-28.17
-2.33
21.25
41.19
56.49
66.60
71.44
71.54
68.00
62.28
55.88
49.96
45.20
41.82
39.71
38.69
38.60
39.30
40.63
42.33
44.00
45.23
45.66
45.04
43.22
40.22
36.14
31.19
25.68
20.00
14.51
9.48
4.98
0.94
-2.84
-6.58
-10.47
-14.66
-19.21
-24.09
-29.18
-34.29
-39.17
-43.66
-47.73
-51.58
-55.68
-60.66
-67.06
-75.02
-83.95
-92.45
-98.48
-99.87
-95.00
-83.30
-65.45
-43.17
-18.73
5.57
27.73
46.35
60.53
69.94
74.73
75.50
73.19
68.94
63.85
58.81
54.43
51.01
48.64
47.24
46.71
46.91
47.69
48.83
49.98
50.72
50.61
49.35
46.85
43.26
38.88
34.06
29.08
24.14
19.45
15.18
11.52
8.59
6.28
4.30
2.23
-0.32
-3.53
-7.31
-11.37
-15.37
-19.15
-22.80
-26.60
-30.85
-35.64
-40.80
-45.90
-50.50
-54.29
-57.28
-59.73
-62.15
-65.15
-69.38
-75.44
-83.56
-93.39
-103.70
-112.37
-116.83
-114.72
-104.62
-86.59
-62.15
-33.88
-4.74
22.59
46.15
64.77
78.00
85.87
88.79
87.45
82.86
76.29
69.09
62.50
57.30
53.79
51.89
51.38
52.13
54.04
56.85
59.93
62.31
63.01
61.44
57.64
52.22
45.92
39.29
32.51
25.51
18.37
11.37
5.01
-0.27
-4.27
-7.14
-9.20
-10.86
-12.42
-14.09
-15.94
-17.94
-19.95
-21.78
-23.34
-24.70
-26.16
-28.07
-30.64
-33.76
-37.02
-39.90
-42.05
-43.49
-44.56
-45.75
-47.46
-49.96
-53.40
-57.86
-63.26
-69.15
-74.41
-77.32
-75.87
-68.44
-54.38
-34.39
-10.31
15.32
39.94
61.38
78.12
89.25
94.45
94.00
88.83
80.44
70.68
61.36
53.82
48.66
45.80
44.66
44.58
45.03
45.76
46.68
47.72
48.71
49.34
49.29
48.34
46.45
43.71
40.26
36.25
31.89
27.49
23.50
20.38
18.36
17.26
16.42
14.97
12.10
7.42
1.09
-6.27
-13.89
-21.12
-27.68
-33.59
-39.13
-44.57
-50.05
-55.53
-60.90
-66.11
-71.21
-76.39
-81.80
-87.52
-93.55
-99.89
-106.60
-113.67
-120.72
-126.66
-129.74
-127.90
-119.52
-104.06
-82.30
-56.16
-28.13
-0.65
24.23
45.00
60.66
70.75
75.44
75.57
72.53
67.93
63.17
59.16
56.13
53.81
51.73
49.54
47.26
45.20
43.84
43.46
44.01
45.01
45.77
45.73
44.59
42.40
39.39
35.83
32.04
28.58
26.38
26.51
29.67
35.67
43.21
50.21
54.57
54.97
51.29
44.48
35.92
26.82
17.83
9.19
0.99
-6.57
-13.16
-18.56
-22.78
-26.16
-29.21
-32.38
-35.89
-39.72
-43.66
-47.47
-51.00
-54.26
-57.47
-60.94
-64.94
-69.57
-74.70
-79.96
-84.97
-89.52
-93.71
-97.95
-102.73
-108.44
-115.12
-122.37
-129.27
-134.42
-136.08
-132.45
-122.17
-104.74
-80.79
-52.01
-20.85
10.03
38.15
61.45
78.59
89.02
93.14
92.20
88.05
82.66
77.60
73.73
71.17
69.48
68.03
66.32
64.08
61.38
58.57
56.11
54.35
53.30
52.66
51.89
50.51
48.33
45.50
42.39
39.30
36.38
33.60
30.89
28.23
25.72
23.47
21.53
19.82
18.16
16.33
14.12
11.43
8.26
4.79
1.26
-1.98
-4.66
-6.65
-7.97
-8.80
-9.39
-9.97
-10.71
-11.74
-13.16
-15.09
-17.64
-20.87
-24.75
-29.20
-34.07
-39.18
-44.41
-49.70
-55.05
-60.54
-66.27
-72.38
-78.91
-85.83
-93.08
-100.58
-108.25
-115.90
-123.04
-128.61
-130.99
-128.32
-119.08
-102.67
-79.77
-52.17
-22.37
7.09
34.02
56.80
74.31
85.91
91.54
91.76
87.81
81.39
74.24
67.75
62.66
59.16
57.07
56.18
56.38
57.62
59.81
62.64
65.59
68.04
69.50
69.77
68.90
67.14
64.70
61.69
58.09
53.94
49.39
44.77
40.48
36.82
33.89
31.55
29.60
27.81
26.08
24.34
22.54
20.51
18.02
14.91
11.13
6.84
2.28
-2.31
-6.82
-11.31
-15.95
-20.86
-26.02
-31.28
-36.39
-41.17
-45.56
-49.67
-53.75
-58.11
-63.13
-69.08
-76.05
-83.68
-91.00
-96.35
-97.69
-93.14
-81.64
-63.40
-39.89
-13.53
13.04
37.51
58.16
73.97
84.39
89.33
89.14
84.72
77.48
69.09
61.10
54.52
49.70
46.33
43.89
41.94
40.36
39.26
38.81
38.94
39.32
39.41
38.71
37.03
34.42
31.14
27.43
23.41
19.15
14.68
10.17
5.87
2.04
-1.17
-3.75
-5.82
-7.54
-9.10
-10.69
-12.47
-14.55
-16.94
-19.54
-22.22
-24.84
-27.45
-30.21
-33.38
-37.17
-41.65
-46.67
-52.02
-57.42
-62.68
-67.75
-72.57
-77.15
-81.55
-85.96
-90.75
-96.37
-103.07
-110.53
-117.59
-122.32
-122.50
-116.31
-102.95
-82.95
-57.99
-30.49
-2.99
22.26
43.58
59.97
71.07
77.13
78.90
77.41
73.80
69.15
64.29
59.81
55.97
52.74
49.89
47.18
44.50
41.94
39.74
38.10
37.08
36.57
36.41
36.48
36.70
36.90
36.73
35.65
33.21
29.28
24.21
18.70
13.58
9.55
6.97
5.89
6.01
6.83
7.70
8.05
7.50
6.07
4.14
2.16
0.36
-1.50
-3.94
-7.57
-12.62
-18.89
-25.81
-32.75
-39.32
-45.40
-51.00
-56.12
-60.67
-64.53
-67.61
-70.08
-72.32
-74.98
-78.83
-84.53
-92.25
-101.33
-110.07
-116.00
-116.50
-109.64
-94.79
-72.86
-45.95
-16.71
12.26
38.81
61.32
78.65
90.16
95.77
96.03
92.12
85.62
78.21
71.32
65.94
62.50
60.96
60.98
62.10
63.89
65.99
68.12
70.00
71.35
71.89
71.50
70.20
68.09
65.31
61.89
57.77
52.95
47.59
42.01
36.65
31.79
27.50
23.61
19.78
15.71
11.23
6.42
1.49
-3.25
-7.56
-11.41
-15.01
-18.82
-23.32
-28.79
-35.12
-41.80
-48.15
-53.56
-57.78
-60.95
-63.62
-66.64
-71.05
-77.84
-87.62
-100.02
-113.41
-124.91
-131.09
-129.10
-117.63
-97.40
-70.76
-40.80
-10.41
18.26
43.68
64.68
80.20
89.50
92.48
90.04
83.97
76.44
69.38
63.92
60.33
58.22
57.03
56.31
55.92
55.86
56.09
56.38
56.29
55.35
53.36
50.50
47.29
44.31
41.91
40.00
38.15
35.87
32.95
29.53
26.02
22.77
19.82
16.92
13.72
10.06
6.16
2.48
-0.52
-2.68
-4.24
-5.71
-7.64
-10.37
-13.88
-17.92
-22.17
-26.39
-30.58
-34.90
-39.55
-44.65
-50.09
-55.62
-60.93
-65.83
-70.33
-74.70
-79.22
-84.17
-89.71
-95.93
-102.99
-110.99
-119.84
-128.73
-136.07
-139.59
-137.00
-126.80
-108.86
-84.55
-56.33
-26.99
0.95
25.67
46.02
61.42
71.72
77.14
78.34
76.42
72.72
68.58
65.03
62.58
61.24
60.63
60.29
59.91
59.45
59.07
58.94
59.04
59.12
58.73
57.45
55.10
51.77
47.78
43.47
39.14
34.94
30.93
27.14
23.61
20.37
17.35
14.41
11.34
8.00
4.41
0.73
-2.78
-5.95
-8.82
-11.67
-14.85
-18.64
-23.05
-27.80
-32.40
-36.42
-39.68
-42.40
-45.04
-48.16
-52.08
-56.72
-61.73
-66.60
-71.01
-74.93
-78.61
-82.46
-86.91
-92.29
-98.75
-106.11
-113.73
-120.31
-124.05
-122.95
-115.40
-100.72
-79.34
-52.81
-23.41
6.28
33.77
56.99
74.45
85.46
90.09
89.18
84.23
77.21
70.43
66.03
65.53
69.33
76.41
84.73
91.89
96.06
96.65
94.25
90.11
85.35
80.49
75.36
69.53
62.78
55.28
47.55
40.16
33.50
27.69
22.70
18.40
14.68
11.47
8.67
6.16
3.83
1.62
-0.42
-2.18
-3.49
-4.17
-4.10
-3.26
-1.75
0.08
1.73
2.59
2.08
-0.11
-3.88
-8.64
-13.43
-17.24
-19.32
-19.51
-18.32
-16.73
-15.85
-16.51
-18.91
-22.65
-26.99
-31.18
-34.83
-37.94
-40.78
-43.79
-47.42
-52.07
-58.04
-65.27
-73.08
-80.07
-84.20
-83.38
-76.07
-61.79
-41.40
-16.80
9.56
35.13
57.74
75.71
88.03
94.37
95.08
91.18
84.10
75.51
66.98
59.69
54.31
50.91
49.18
48.55
48.47
48.56
48.60
48.42
47.87
46.69
44.69
41.79
38.08
33.80
29.19
24.38
19.41
14.26
8.99
3.70
-1.40
-6.12
-10.31
-13.92
-17.01
-19.73
-22.31
-24.94
-27.87
-31.22
-35.07
-39.47
-44.36
-49.61
-54.92
-59.89
-64.04
-67.01
-68.76
-69.60
-70.11
-70.90
-72.46
-75.10
-79.06
-84.59
-91.72
-99.98
-108.03
-113.64
-114.29
-107.96
-93.92
-73.10
-47.77
-20.73
5.42
28.88
48.61
64.10
75.08
81.38
83.06
80.63
75.15
68.25
61.72
57.17
55.59
57.15
61.21
66.67
72.34
77.33
81.13
83.56
84.56
84.06
81.91
77.95
72.20
64.97
56.82
48.45
40.57
33.61
27.71
22.70
18.31
14.32
10.69
7.53
5.03
3.24
2.07
1.31
0.76
0.34
0.09
0.07
0.29
0.57
0.61
0.12
-1.07
-2.97
-5.40
-8.14
-11.03
-14.05
-17.33
-21.09
-25.53
-30.81
-36.99
-43.99
-51.62
-59.52
-67.28
-74.47
-80.82
-86.31
-91.19
-96.00
-101.33
-107.72
-115.37
-123.95
-132.48
-139.28
-142.32
-139.65
-129.95
-113.00
-89.78
-62.31
-33.10
-4.73
20.63
41.46
57.00
67.20
72.56
74.02
72.67
69.66
66.05
62.72
60.28
58.96
58.63
58.89
59.26
59.46
59.45
59.41
59.50
59.69
59.72
59.14
57.54
54.73
50.80
46.07
41.02
36.18
31.97
28.58
25.91
23.63
21.31
18.67
15.67
12.51
9.48
6.76
4.33
2.05
-0.31
-2.89
-5.74
-8.88
-12.30
-15.95
-19.78
-23.65
-27.42
-30.94
-34.18
-37.19
-40.11
-43.10
-46.26
-49.66
-53.28
-57.06
-60.95
-64.91
-69.07
-73.67
-79.07
-85.53
-92.89
-100.28
-106.14
-108.43
-105.20
-95.24
-78.45
-55.90
-29.54
-1.73
25.21
49.27
68.98
83.44
92.39
96.24
95.94
92.88
88.56
84.32
81.10
79.29
78.71
78.79
78.76
78.03
76.38
73.99
71.21
68.35
65.45
62.35
58.94
55.31
51.82
48.83
46.42
44.19
41.33
37.04
30.88
23.07
14.35
5.77
-1.80
-7.89
-12.55
-16.14
-19.08
-21.63
-23.84
-25.61
-26.94
-28.09
-29.60
-32.07
-35.96
-41.27
-47.60
-54.32
-60.87
-66.97
-72.69
-78.28
-84.02
-90.10
-96.59
-103.42
-110.17
-115.92
-119.08
-117.67
-109.85
-94.60
-72.23
-44.34
-13.46
17.59
46.21
70.34
88.58
100.19
105.21
104.41
99.23
91.50
82.99
75.14
68.79
64.31
61.63
60.46
60.35
60.83
61.40
61.57
60.94
59.12
55.82
50.87
44.35
36.60
28.18
19.81
12.20
6.00
1.71
-0.42
-0.40
1.41
4.34
7.61
10.48
12.41
13.11
12.43
10.33
6.79
1.94
-3.90
-10.19
-16.33
-21.83
-26.49
-30.44
-34.06
-37.86
-42.25
-47.46
-53.53
-60.23
-67.11
-73.65
-79.33
-83.83
-87.15
-89.65
-92.05
-95.21
-99.98
-106.71
-114.99
-123.40
-129.72
-131.45
-126.55
-114.06
-94.42
-69.28
-41.02
-12.17
15.02
38.80
58.00
72.00
80.71
84.51
84.26
81.14
76.48
71.55
67.28
64.12
62.00
60.49
59.06
57.43
55.64
53.99
52.74
51.90
51.16
50.08
48.29
45.69
42.36
38.50
34.29
29.89
25.50
21.40
17.81
14.85
12.42
10.32
8.28
6.15
3.91
1.61
-0.67
-2.92
-5.15
-7.39
-9.73
-12.26
-15.10
-18.34
-22.00
-25.91
-29.83
-33.54
-36.98
-40.30
-43.83
-47.90
-52.63
-57.79
-62.79
-66.86
-69.29
-69.77
-68.53
-66.41
-64.66
-64.65
-67.47
-73.48
-81.98
-91.23
-98.72
-101.72
-98.16
-87.10
-69.03
-45.64
-19.36
7.23
31.82
52.61
68.39
78.59
83.35
83.39
79.96
74.51
68.43
62.79
58.20
54.80
52.39
50.69
49.49
48.83
48.90
49.91
51.84
54.40
56.97
58.97
60.03
60.08
59.25
57.71
55.61
53.23
51.07
49.70
49.50
50.19
50.81
50.07
47.03
41.57
34.50
27.06
20.22
14.33
9.21
4.59
0.45
-2.96
-5.47
-7.38
-9.39
-12.29
-16.40
-21.33
-26.37
-30.79
-34.43
-37.70
-41.38
-46.29
-53.06
-61.98
-72.79
-84.49
-95.22
-102.41
-103.42
-96.50
-81.46
-59.92
-34.83
-9.48
13.45
32.48
47.32
58.46
66.65
72.52
76.49
78.87
79.99
80.21
79.85
78.93
77.24
74.33
69.85
63.83
56.79
49.57
43.06
37.75
33.66
30.44
27.66
25.19
23.20
22.01
21.77
22.31
23.11
23.56
23.29
22.28
20.90
19.61
18.68
18.08
17.46
16.39
14.58
12.07
9.07
5.90
2.66
-0.75
-4.59
-9.06
-14.14
-19.59
-25.01
-30.11
-34.77
-39.11
-43.32
-47.64
-52.28
-57.42
-63.21
-69.66
-76.63
-83.79
-90.74
-97.15
-102.88
-108.04
-113.03
-118.36
-124.59
-131.96
-140.07
-147.68
-152.68
-152.59
-145.30
-129.82
-106.69
-77.85
-46.04
-14.04
15.76
41.64
62.45
77.59
87.00
91.25
91.46
89.10
85.60
82.06
79.07
76.70
74.74
72.84
70.74
68.40
66.01
63.86
62.15
60.89
59.75
58.27
56.04
52.97
49.31
45.49
41.83
38.42
35.01
31.20
26.72
21.62
16.29
11.28
7.14
4.17
2.34
1.30
0.55
-0.43
-2.01
-4.29
-7.05
-9.84
-12.12
-13.44
-13.67
-13.03
-12.12
-11.66
-12.23
-14.02
-16.74
-19.86
-22.76
-25.21
-27.30
-29.45
-32.07
-35.33
-39.09
-43.02
-46.80
-50.18
-53.00
-55.17
-56.80
-58.37
-60.82
-65.30
-72.49
-81.90
-91.42
-97.77
-97.51
-88.37
-70.12
-44.56
-14.86
15.49
43.47
66.83
84.05
94.28
97.26
93.51
84.30
71.44
56.87
42.23
28.65
16.77
6.94
-0.56
-5.46
-7.59
-6.97
-3.78
1.50
8.22
15.54
22.49
28.11
31.60
32.47
30.65
26.51
20.80
14.44
8.34
3.24
-0.42
-2.49
-3.10
-2.54
-1.15
0.74
2.87
4.99
6.85
8.21
8.86
8.67
7.65
5.94
3.79
1.40
-1.10
-3.73
-6.55
-9.60
-12.81
-16.03
-19.16
-22.29
-25.81
-30.26
-36.14
-43.77
-53.19
-64.22
-76.55
-89.60
-102.30
-112.94
-119.20
-118.80
-110.09
-92.77
-68.03
-38.22
-6.18
25.34
54.11
78.45
97.15
109.51
115.38
115.24
110.27
102.06
92.28
82.37
73.25
65.40
58.99
54.09
50.78
49.12
49.04
50.31
52.52
55.25
58.21
61.26
64.32
67.16
69.39
70.46
69.95
67.66
63.76
58.58
52.56
46.09
39.49
32.98
26.54
19.86
12.25
2.78
-9.35
-24.40
-41.88
-60.61
-79.10
-95.98
-110.30
-121.46
-128.99
-132.41
-131.35
-126.04
-117.68
-108.44
-100.80
-96.49
-95.60
-96.39
-95.97
-91.65
-82.00
-67.23
-48.84
-28.70
-8.31
11.36
29.73
46.19
60.02
70.57
77.65
81.78
84.12
86.04
88.57
92.01
95.77
98.61
99.11
96.20
89.49
79.35
66.67
52.64
38.39
24.81
12.54
1.94
-6.80
-13.58
-18.16
-20.15
-19.05
-14.58
-7.06
2.39
11.95
19.62
23.89
24.11
20.50
13.75
4.47
-7.02
-20.60
-35.93
-52.15
-67.80
-81.23
-91.12
-96.95
-98.97
-97.94
-94.63
-89.61
-83.37
-76.58
-70.24
-65.43
-62.86
-62.31
-62.57
-61.88
-58.69
-52.22
-42.60
-30.61
-17.16
-3.11
10.80
23.76
34.95
43.69
49.78
53.58
55.89
57.59
59.27
61.11
62.94
64.52
65.76
66.76
67.72
68.78
69.84
70.52
70.25
68.49
64.91
59.58
52.88
45.36
37.48
29.57
21.83
14.55
8.13
3.01
-0.54
-2.54
-3.32
-3.40
-3.26
-3.24
-3.58
-4.44
-6.04
-8.52
-11.88
-15.93
-20.33
-24.78
-29.11
-33.38
-37.74
-42.34
-47.19
-52.13
-56.96
-61.51
-65.74
-69.68
-73.45
-77.23
-81.30
-86.05
-92.01
-99.53
-108.40
-117.43
-124.45
-126.73
-121.80
-108.28
-86.44
-58.05
-25.90
6.99
37.93
64.82
86.20
101.17
109.47
111.54
108.54
102.15
94.20
86.25
79.33
73.87
69.88
67.17
65.56
64.96
65.35
66.61
68.47
70.44
71.96
72.56
71.99
70.30
67.79
64.75
61.42
57.85
53.96
49.66
44.91
39.71
34.13
28.30
22.33
16.35
10.44
4.63
-1.18
-7.19
-13.50
-20.12
-26.83
-33.32
-39.27
-44.64
-49.66
-54.82
-60.74
-67.90
-76.39
-85.66
-94.38
-100.58
-102.03
-96.82
-83.90
-63.49
-37.11
-7.31
22.87
50.50
73.30
89.85
99.75
103.33
101.47
95.36
86.39
76.09
65.99
57.31
50.70
46.09
42.74
39.65
36.20
32.37
28.72
25.99
24.54
24.16
24.16
23.76
22.41
20.05
16.95
13.58
10.29
7.28
4.47
1.66
-1.42
-4.92
-8.73
-12.58
-16.01
-18.64
-20.37
-21.49
-22.56
-24.23
-26.96
-30.98
-36.22
-42.32
-48.63
-54.37
-58.81
-61.66
-63.27
-64.61
-66.86
-70.81
-76.48
-83.09
-89.58
-95.16
-99.73
-103.83
-108.37
-114.18
-121.76
-131.12
-141.56
-151.50
-158.49
-159.68
-152.62
-136.10
-110.77
-78.93
-43.95
-9.29
22.28
48.95
69.84
84.67
93.56
97.00
95.78
91.05
84.14
76.36
68.65
61.45
54.68
48.07
41.60
35.78
31.64
30.26
32.18
36.95
43.33
49.70
54.82
58.21
60.09
61.04
61.43
61.26
60.22
57.97
54.47
50.03
45.20
40.50
36.24
32.39
28.73
24.99
21.06
17.03
13.25
10.08
7.78
6.32
5.39
4.49
3.20
1.33
-1.08
-3.78
-6.53
-9.22
-11.87
-14.64
-17.66
-21.00
-24.60
-28.27
-31.80
-35.02
-37.92
-40.68
-43.60
-46.99
-51.02
-55.63
-60.56
-65.45
-70.00
-74.05
-77.58
-80.64
-83.39
-86.26
-90.04
-95.77
-104.21
-115.15
-126.91
-136.38
-139.80
-133.95
-117.29
-90.39
-55.72
-16.83
22.35
58.13
87.29
107.43
117.36
117.55
110.24
98.93
87.41
78.55
73.67
72.47
73.60
75.53
77.08
77.69
77.36
76.40
75.20
74.13
73.41
73.07
72.96
72.90
72.75
72.49
72.18
71.80
71.24
70.20
68.41
65.65
61.90
57.29
52.03
46.41
40.70
35.16
29.94
25.05
20.35
15.60
10.60
5.15
-0.84
-7.47
-14.68
-22.30
-29.86
-36.73
-42.29
-46.23
-48.76
-50.56
-52.47
-55.11
-58.64
-62.78
-66.97
-70.81
-74.18
-77.25
-80.35
-83.85
-88.14
-93.69
-100.98
-110.16
-120.63
-130.68
-137.53
-138.00
-129.55
-111.11
-83.56
-49.44
-12.24
24.42
57.47
84.65
104.55
116.61
121.15
119.33
113.06
104.61
96.12
89.15
84.37
81.52
79.72
77.86
75.09
71.22
66.71
62.41
59.11
57.05
55.85
54.67
52.70
49.49
45.11
39.99
34.67
29.54
24.75
20.31
16.21
12.46
9.12
6.22
3.78
1.82
0.38
-0.59
-1.22
-1.80
-2.68
-4.13
-6.16
-8.53
-10.81
-12.64
-13.87
-14.76
-15.74
-17.30
-19.75
-23.11
-27.19
-31.59
-35.93
-39.89
-43.32
-46.31
-49.21
-52.53
-56.83
-62.40
-69.11
-76.45
-83.71
-90.35
-96.14
-101.29
-106.23
-111.51
-117.72
-125.30
-134.31
-144.01
-152.66
-157.57
-155.90
-145.55
-126.07
-98.84
-66.48
-32.06
1.72
32.82
59.64
80.87
95.43
102.85
103.61
99.25
92.01
84.23
77.66
73.12
70.44
68.75
66.96
64.24
60.45
56.23
52.70
50.97
51.42
53.55
56.15
57.93
58.20
57.07
55.24
53.42
51.79
49.95
47.15
42.86
37.12
30.55
24.11
18.74
15.10
13.49
13.92
16.21
20.02
24.72
29.38
32.72
33.32
30.08
22.66
11.76
-0.89
-13.12
-23.02
-29.69
-33.37
-35.21
-36.53
-38.23
-40.52
-43.10
-45.57
-47.73
-49.62
-51.33
-52.82
-53.89
-54.43
-54.66
-55.23
-57.04
-60.86
-67.15
-75.96
-87.18
-100.58
-115.65
-131.12
-144.72
-153.30
-153.67
-143.72
-123.33
-94.38
-60.12
-24.00
11.19
43.55
71.72
94.39
110.17
118.00
117.82
111.01
100.19
88.41
78.23
70.96
66.53
64.00
62.24
60.63
59.27
58.76
59.62
61.76
64.39
66.28
66.39
64.40
60.82
56.61
52.62
49.12
45.78
42.04
37.59
32.69
28.04
24.44
22.31
21.47
21.29
20.99
20.01
18.12
15.45
12.35
9.14
6.01
2.90
-0.45
-4.38
-9.20
-14.94
-21.36
-27.98
-34.32
-40.12
-45.43
-50.59
-56.05
-62.28
-69.66
-78.49
-88.78
-99.99
-110.77
-118.88
-121.62
-116.63
-102.76
-80.52
-51.96
-20.02
12.35
42.71
69.33
90.94
106.54
115.41
117.33
112.92
103.75
92.14
80.62
71.27
65.17
62.21
61.41
61.43
61.24
60.51
59.53
58.85
58.78
59.06
58.94
57.53
54.23
48.95
42.14
34.51
26.79
19.52
12.93
7.05
1.70
-3.28
-8.04
-12.59
-16.96
-21.27
-25.74
-30.63
-36.03
-41.71
-47.10
-51.51
-54.42
-55.73
-55.84
-55.43
-55.25
-55.81
-57.35
-59.86
-63.35
-68.12
-74.82
-84.24
-96.57
-110.70
-123.86
-132.04
-131.19
-118.74
-94.65
-61.51
-23.61
14.45
48.98
77.68
99.41
113.74
120.55
120.08
113.18
101.48
87.25
72.93
60.55
51.24
45.02
41.05
38.14
35.30
32.20
29.27
27.21
26.52
27.07
28.08
28.52
27.66
25.38
22.07
18.34
14.55
10.67
6.40
1.46
-4.23
-10.54
-17.18
-23.83
-30.20
-36.02
-41.19
-45.86
-50.55
-55.97
-62.66
-70.61
-79.10
-86.94
-93.09
-97.14
-99.57
-101.57
-104.52
-109.53
-117.07
-126.82
-137.50
-147.04
-152.84
-152.24
-143.21
-125.03
-98.69
-66.72
-32.61
0.21
29.16
52.89
71.09
83.91
91.47
93.65
90.35
81.95
69.69
55.53
41.65
29.85
21.13
15.87
14.17
16.25
22.35
32.33
45.25
59.15
71.62
80.35
84.02
82.51
76.83
68.57
59.29
50.08
41.40
33.17
24.99
16.46
7.37
-2.28
-12.27
-22.28
-31.86
-40.50
-47.65
-53.00
-56.77
-59.65
-62.57
-66.22
-70.86
-76.42
-83.00
-91.18
-101.82
-115.11
-129.57
-141.80
-147.26
-142.02
-124.41
-95.81
-59.91
-21.20
16.45
50.42
79.10
101.39
116.39
123.67
123.73
118.03
108.70
97.81
86.75
76.12
65.95
56.15
46.88
38.54
31.58
26.27
22.45
19.56
16.78
13.33
8.74
3.02
-3.48
-10.44
-17.88
-26.21
-36.00
-47.53
-60.32
-73.21
-84.77
-93.74
-99.38
-101.43
-99.80
-94.44
-85.40
-73.34
-59.75
-46.84
-36.62
-29.76
-24.91
-18.89
-7.96
10.46
36.54
67.83
100.35
130.16
154.64
172.90
185.25
192.24
194.07
190.64
182.09
169.30
153.92
137.80
122.44
108.59
96.22
85.00
74.65
65.18
56.73
49.34
42.77
36.42
29.55
21.47
11.80
0.78
-10.75
-21.39
-29.67
-34.71
-36.83
-37.91
-40.95
-49.17
-64.79
-87.96
-116.46
-146.11
-172.02
-189.97
-197.59
-194.79
-183.41
-166.24
-146.09
-124.99
-103.89
-82.69
-60.48
-35.83
-7.21
26.38
64.86
106.51
148.02
185.09
213.43
229.80
232.63
222.05
199.53
167.50
129.08
87.90
47.91
12.76
-15.03
-34.59
-46.81
-53.65
-57.16
-58.38
-57.07
-52.15
-42.73
-29.10
-13.06
2.57
14.93
22.25
24.27
22.04
17.19
11.25
5.24
-0.14
-4.29
-6.56
-6.52
-4.36
-1.08
1.72
2.55
0.76
-3.11
-7.57
-10.88
-11.86
-10.26
-6.67
-2.08
2.59
6.79
10.21
12.72
14.08
13.98
12.19
8.72
4.06
-1.02
-5.71
-9.59
-12.87
-16.28
-20.70
-26.79
-34.77
-44.70
-56.72
-71.06
-87.62
-105.30
-121.57
-132.88
-135.89
-128.77
-112.04
-88.45
-61.79
-35.56
-12.03
7.84
23.96
36.53
45.79
52.19
56.60
60.41
65.11
71.79
80.69
91.16
101.92
111.66
119.53
125.34
129.39
132.07
133.49
133.20
130.45
124.53
115.23
103.02
88.90
74.03
59.21
44.72
30.47
16.40
2.78
-9.82
-20.87
-30.16
-37.90
-44.48
-50.06
-54.37
-56.90
-57.34
-55.91
-53.41
-50.82
-48.90
-47.97
-48.06
-49.31
-52.23
-57.61
-66.26
-78.63
-94.52
-113.05
-132.53
-150.55
-164.19
-170.45
-166.99
-152.78
-128.56
-96.78
-61.11
-25.70
5.54
29.55
44.51
50.02
47.11
37.88
25.07
11.37
-1.06
-10.80
-17.08
-19.55
-17.99
-12.31
-2.74
10.08
25.01
40.57
55.26
67.79
77.28
83.26
85.71
84.98
81.78
77.04
71.57
65.66
58.90
50.26
38.70
23.82
6.30
-12.23
-29.83
-44.97
-56.99
-66.00
-72.45
-76.66
-78.60
-78.18
-75.62
-71.77
-68.15
-66.51
-68.12
-73.05
-79.69
-84.91
-84.90
-76.37
-57.83
-30.22
3.41
38.85
72.02
99.88
120.71
133.82
139.11
136.91
128.00
113.74
96.01
76.81
57.99
41.11
27.63
19.09
16.92
21.87
33.32
48.92
65.11
78.07
84.93
84.43
76.91
63.76
46.74
27.66
8.35
-9.42
-24.06
-34.58
-40.86
-43.67
-44.29
-44.04
-43.92
-44.59
-46.40
-49.44
-53.48
-57.83
-61.58
-64.09
-65.44
-66.66
-69.33
-74.92
-84.05
-96.34
-110.48
-124.71
-137.02
-145.31
-147.43
-141.48
-126.30
-101.98
-70.10
-33.34
5.11
42.30
75.85
103.92
125.04
137.99
142.12
137.80
126.78
112.08
97.25
85.29
77.78
74.53
74.09
74.74
75.52
76.59
78.86
83.07
88.96
95.05
99.21
99.73
96.15
89.42
81.29
73.33
66.05
58.73
49.89
38.26
23.53
6.69
-10.30
-25.48
-37.63
-46.88
-54.41
-61.82
-70.26
-79.93
-90.05
-99.40
-106.93
-112.33
-115.92
-118.42
-120.54
-122.80
-125.76
-130.09
-136.53
-145.28
-155.24
-163.69
-166.81
-160.77
-143.24
-114.17
-75.88
-32.28
12.13
53.07
86.93
111.03
123.93
125.78
118.42
105.07
89.46
74.79
62.97
54.49
48.74
44.76
41.73
39.35
37.77
37.45
38.84
42.04
46.64
51.75
56.25
59.21
60.20
59.30
56.98
53.68
49.56
44.44
38.01
30.01
20.47
9.75
-1.52
-12.55
-22.62
-31.26
-38.35
-44.16
-49.17
-53.86
-58.44
-62.83
-66.78
-70.07
-72.82
-75.46
-78.54
-82.47
-87.53
-93.91
-101.87
-111.68
-123.15
-135.02
-144.71
-148.67
-143.51
-127.31
-100.42
-65.39
-26.05
13.76
51.04
83.76
110.51
130.06
141.50
144.60
140.39
131.10
119.54
108.11
98.00
89.19
80.96
72.83
65.14
58.99
55.62
55.64
58.53
62.79
66.50
68.17
67.29
64.25
59.96
55.21
50.30
44.98
38.77
31.40
22.94
13.94
5.07
-3.06
-10.16
-16.32
-21.94
-27.54
-33.62
-40.40
-47.80
-55.43
-62.76
-69.30
-74.80
-79.25
-82.93
-86.45
-90.73
-96.80
-105.35
-116.05
-127.06
-135.22
-136.84
-128.99
-110.62
-82.82
-48.36
-10.72
26.69
61.03
89.93
111.50
124.54
128.89
125.80
117.69
107.41
97.31
88.57
81.10
74.16
67.09
59.93
53.51
49.04
47.47
48.90
52.49
56.68
59.86
60.89
59.45
55.81
50.52
44.00
36.38
27.68
18.12
8.29
-0.91
-8.58
-14.23
-18.05
-20.87
-23.87
-28.13
-34.19
-41.87
-50.42
-58.81
-66.24
-72.34
-77.19
-81.12
-84.48
-87.81
-91.85
-97.64
-106.02
-116.88
-128.49
-137.49
-139.78
-131.99
-112.79
-83.38
-46.98
-7.68
30.61
64.80
92.55
112.25
123.02
125.04
119.79
109.82
98.07
86.90
77.40
69.43
62.09
54.65
47.18
40.64
36.48
35.80
38.69
44.00
49.76
54.03
55.59
54.32
50.85
45.95
40.00
32.84
24.21
14.17
3.48
-6.63
-14.96
-20.97
-25.06
-28.36
-32.29
-37.82
-45.21
-53.89
-62.85
-71.11
-78.03
-83.48
-87.80
-91.68
-96.05
-101.91
-110.01
-120.34
-131.72
-141.71
-147.05
-144.62
-132.45
-110.38
-80.11
-44.64
-7.46
28.05
59.04
83.27
99.24
106.42
105.40
97.86
86.13
72.60
59.11
46.77
36.04
27.16
20.44
16.35
15.26
17.17
21.41
26.75
31.69
35.01
36.06
34.83
31.69
27.02
20.95
13.48
4.64
-5.24
-15.51
-25.37
-34.27
-42.01
-48.82
-55.23
-61.75
-68.78
-76.50
-84.80
-93.31
-101.42
-108.46
-114.23
-119.20
-124.53
-131.50
-140.52
-150.42
-158.27
-160.25
-153.01
-135.03
-107.19
-72.53
-35.30
-0.11
28.82
48.18
56.41
54.64
47.20
41.25
45.00
64.99
103.59
157.93
220.85
283.53
338.57
381.93
413.29
434.60
448.33
455.91
457.49
452.69
441.65
425.68
407.04
388.12
370.34
353.48
336.03
316.16
292.81
266.32
238.20
210.19
183.19
156.75
129.34
99.29
65.69
28.76
-10.44
-50.67
-91.19
-131.86
-172.82
-214.13
-255.37
-295.84
-335.03
-373.05
-410.83
-450.22
-493.76
-543.94
-601.76
-665.20
-728.38
-782.39
-817.78
-827.95
-811.78
-774.00
-723.16
-668.14
-615.21
-566.85
-522.70
-481.57
-442.99
-407.54
-376.00
-348.27
-322.98
-298.00
-271.61
-243.28
-213.87
-185.22
-159.16
-136.64
-117.38
-100.07
-83.02
-64.90
-45.34
-24.96
-5.08
12.94
28.34
41.24
52.61
63.82
76.12
90.12
105.60
121.68
137.19
151.25
163.61
174.79
185.90
198.20
212.60
229.32
247.86
267.33
286.84
305.92
324.72
343.87
364.34
387.30
414.07
445.77
482.68
523.32
563.97
599.07
622.69
630.53
621.50
598.01
564.97
527.94
491.64
459.30
432.98
414.11
403.74
402.20
408.44
419.90
432.83
443.26
447.99
445.14
434.25
416.07
392.16
364.38
334.60
304.28
274.36
245.23
216.94
189.49
162.97
137.57
113.46
90.60
68.71
47.48
26.72
6.60
-12.40
-29.63
-44.49
-56.60
-65.89
-72.51
-76.67
-78.53
-78.12
-75.39
-70.29
-62.93
-53.60
-42.84
-31.30
-19.69
-8.62
1.44
10.18
17.43
23.13
27.29
29.98
31.30
31.43
30.55
28.88
26.60
23.86
20.73
17.24
13.42
9.32
5.00
0.56
-3.92
-8.42
-12.94
-17.57
-22.36
-27.33
-32.41
-37.50
-42.49
-47.34
-52.15
-57.12
-62.46
-68.32
-74.68
-81.29
-87.75
-93.64
-98.74
-103.14
-107.25
-111.68
-117.00
-123.44
-130.83
-138.59
-146.10
-153.03
-159.59
-166.59
-175.10
-185.98
-199.47
-214.92
-231.16
-246.89
-261.30
-274.57
-287.64
-301.97
-318.94
-339.38
-363.24
-389.41
-415.91
-440.20
-459.72
-472.35
-476.93
-473.58
-463.83
-450.12
-434.84
-419.06
-401.61
-379.14
-347.23
-302.45
-244.26
-175.69
-102.55
-31.08
34.14
91.11
139.54
178.91
206.74
218.74
211.02
183.06
139.74
90.70
47.13
17.64
5.42
8.22
20.86
38.44
58.19
79.15
100.44
119.80
133.77
139.35
135.66
124.37
108.55
90.60
70.99
48.56
22.02
-8.62
-41.76
-74.84
-105.53
-132.71
-156.81
-179.20
-200.95
-221.62
-238.42
-246.29
-239.13
-211.83
-162.40
-93.28
-10.94
76.11
159.71
233.85
295.08
341.69
372.73
387.53
386.15
370.24
343.27
309.93
274.75
240.82
208.94
178.11
147.14
116.24
87.81
65.84
54.18
54.60
65.69
83.01
100.62
112.94
116.38
109.97
95.12
74.69
51.99
29.76
9.59
-8.24
-24.52
-40.44
-56.95
-74.47
-93.08
-112.95
-134.51
-157.58
-180.51
-199.67
-210.33
-208.79
-194.97
-173.40
-151.97
-138.55
-137.37
-147.30
-162.93
-177.93
-188.72
-196.32
-205.23
-220.02
-241.78
-266.79
-288.20
-299.91
-300.00
-291.55
-280.29
-270.50
-261.95
-249.77
-227.82
-193.12
-148.72
-103.04
-66.06
-44.53
-39.34
-46.44
-60.38
-78.31
-101.72
-134.86
-180.80
-237.40
-295.82
-343.13
-368.28
-368.33
-351.13
-332.43
-328.14
-346.14
-382.06
-421.66
-448.26
-451.22
-430.31
-394.21
-354.36
-318.62
-288.30
-259.67
-228.27
-192.67
-155.54
-121.71
-95.00
-75.93
-61.62
-47.36
-29.15
-5.41
22.37
50.69
75.74
95.22
109.24
120.09
131.10
145.13
163.34
184.89
207.52
228.53
246.05
259.88
271.47
283.18
297.40
315.32
336.36
357.73
375.01
383.45
379.46
361.50
329.77
285.33
229.38
163.55
90.98
17.57
-48.30
-97.72
-124.18
-126.06
-107.07
-74.23
-34.82
5.75
44.06
77.32
102.15
115.18
115.36
105.76
93.39
86.66
91.72
109.79
137.36
168.73
199.58
229.19
260.29
297.04
342.27
395.33
451.58
503.49
542.76
562.78
560.89
539.60
505.74
467.75
432.30
401.60
373.03
341.42
302.56
255.88
204.88
155.51
113.45
82.30
63.07
55.00
56.83
67.56
86.76
113.81
146.90
182.27
214.44
237.12
245.15
236.59
213.66
181.91
147.87
116.46
89.31
65.03
40.89
14.59
-14.86
-46.93
-79.33
-107.78
-126.42
-129.25
-113.04
-80.22
-39.67
-3.95
15.89
15.52
-0.87
-23.29
-41.54
-50.48
-51.96
-52.53
-58.99
-74.80
-98.92
-127.65
-157.53
-187.20
-217.32
-248.92
-281.16
-310.05
-329.35
-332.90
-317.71
-286.21
-246.12
-208.44
-183.31
-176.04
-185.23
-203.93
-223.23
-236.61
-242.52
-243.60
-243.35
-242.40
-237.24
-222.72
-196.63
-163.19
-132.47
-115.74
-118.46
-136.30
-156.21
-162.86
-146.93
-110.20
-64.72
-26.34
-6.70
-7.96
-23.85
-44.94
-64.85
-83.17
-103.48
-128.52
-155.73
-176.91
-181.59
-162.62
-120.05
-60.98
4.43
68.26
127.82
185.04
242.87
301.34
355.99
399.61
426.14
433.72
425.61
407.87
386.04
362.51
336.51
306.22
271.36
234.28
198.69
167.36
140.37
115.39
89.76
62.60
35.33
10.21
-11.69
-32.06
-54.50
-81.98
-114.45
-148.40
-178.55
-201.09
-215.86
-226.18
-236.55
-250.07
-267.20
-286.41
-305.98
-324.84
-342.20
-356.14
-362.64
-356.40
-333.03
-291.41
-234.57
-168.32
-98.46
-28.29
41.59
111.54
180.14
242.96
293.51
326.14
338.65
333.23
315.08
289.80
261.22
230.79
199.13
167.82
140.28
120.79
112.23
114.17
122.44
130.85
133.95
129.35
118.46
105.49
95.39
91.92
96.30
107.22
121.34
134.37
142.01
142.59
136.15
124.91
112.07
100.19
89.86
79.49
66.32
47.92
25.03
0.06
-23.74
-44.05
-60.72
-75.27
-89.28
-102.91
-115.51
-123.02
-123.65
-117.82
-108.11
-98.32
-91.85
-90.67
-95.01
-106.91
-120.75
-134.16
-144.37
-148.52
-144.40
-131.42
-111.33
-88.02
-72.99
-62.91
-60.30
-65.23
-76.45
-92.69
-113.81
-140.76
-174.13
-222.96
-271.55
-315.84
-353.16
-383.75
-410.24
-435.13
-457.96
-474.35
-490.87
-485.80
-457.81
-410.58
-350.82
-284.78
-215.91
-144.94
12.08
136.73
241.05
317.39
360.67
372.13
360.04
337.00
315.10
301.56
283.52
272.50
262.90
251.92
240.89
233.50
232.61
237.44
243.25
233.28
215.36
189.30
159.87
134.19
117.93
112.27
113.43
115.10
105.71
91.63
75.13
59.87
47.78
37.72
26.55
11.93
-5.42
-24.86
-38.00
-42.37
-39.49
-34.20
-32.08
-36.60
-47.57
-61.70
-75.92
-86.04
-91.98
-96.06
-101.82
-112.32
-128.39
-148.44
-169.08
-186.45
-197.83
-202.37
-200.97
-195.64
-189.03
-184.46
-185.97
-197.30
-220.10
-251.91
-285.78
-311.94
-321.43
-309.71
-278.33
-233.68
-183.95
-135.58
-91.52
-51.43
-13.14
25.72
66.92
111.29
158.44
206.54
251.86
289.30
313.66
321.10
310.67
285.11
250.52
214.92
185.93
168.37
162.55
164.42
167.33
165.01
154.10
135.18
111.73
87.88
66.21
47.05
29.22
11.48
-6.69
-24.96
-43.07
-61.39
-81.04
-102.89
-126.57
-149.90
-169.12
-180.16
-179.97
-167.68
-145.07
-116.09
-85.47
-57.05
-32.78
-13.00
2.29
12.21
14.73
8.08
-7.23
-27.24
-45.07
-53.28
-46.70
-23.98
12.79
59.97
114.48
174.21
236.60
296.97
347.92
381.05
390.14
374.10
337.73
290.34
242.08
200.63
168.80
144.37
122.56
99.19
73.73
49.99
34.61
33.59
48.92
77.11
110.43
140.18
160.16
168.42
166.51
157.48
143.68
126.31
106.04
84.28
63.61
47.04
36.60
32.24
31.49
30.21
23.91
8.77
-17.61
-55.75
-104.41
-160.14
-217.13
-267.84
-304.09
-319.12
-309.49
-276.11
-223.55
-157.92
-84.41
-6.10
75.14
156.38
231.65
292.14
329.01
337.37
319.00
282.08
237.52
194.12
155.45
120.03
84.69
48.68
15.48
-8.70
-18.93
-15.32
-3.83
6.46
7.85
-2.35
-21.37
-43.77
-65.34
-85.68
-107.69
-134.65
-166.85
-200.28
-228.30
-245.37
-250.34
-247.33
-243.57
-245.50
-255.76
-272.72
-292.49
-311.81
-329.57
-346.22
-361.69
-373.60
-377.32
-367.82
-342.17
-300.89
-247.54
-187.21
-124.99
-65.61
-14.01
24.25
43.34
38.50
8.24
-44.39
-111.87
-183.86
-249.83
-301.49
-334.44
-348.24
-345.44
-330.08
-306.33
-277.73
-247.08
-216.50
-187.54
-161.04
-136.87
-114.27
-92.29
-70.46
-49.04
-28.84
-10.51
5.95
21.37
37.02
53.96
72.28
91.01
108.50
123.29
135.07
145.01
155.43
168.80
186.38
207.45
229.59
249.56
264.96
275.44
282.99
291.19
304.13
325.09
355.55
394.39
437.32
476.69
502.52
504.99
478.21
423.55
350.71
275.14
212.90
175.07
164.55
177.17
205.89
245.77
295.96
357.99
431.23
508.64
577.37
622.81
634.28
608.97
552.80
477.95
399.12
330.20
281.71
259.97
266.28
296.17
339.45
382.80
413.88
425.45
417.08
392.49
357.74
318.47
278.61
240.02
203.86
171.69
145.12
124.59
105.12
81.21
50.11
12.97
-27.04
-66.16
-100.81
-128.51
-148.66
-169.43
-197.89
-234.95
-275.86
-315.19
-349.49
-377.02
-397.13
-410.09
-427.76
-458.73
-501.56
-547.08
-587.01
-618.12
-640.83
-657.03
-668.88
-692.50
-738.95
-806.22
-882.65
-958.28
-1029.76
-1098.07
-1165.23
-1143.35
-990.10
-739.03
-470.28
-242.42
-72.03
48.08
131.56
191.09
236.61
261.21
260.34
240.30
215.11
195.69
185.52
183.18
185.74
190.43
184.71
161.69
126.63
94.03
77.05
81.23
104.25
138.39
174.02
196.35
197.30
179.61
153.57
128.80
109.72
96.30
86.72
79.54
71.46
61.38
51.12
43.71
40.66
41.32
43.87
47.58
52.48
57.92
63.69
69.99
76.94
83.87
89.43
92.29
91.85
88.35
82.58
75.51
67.79
59.62
50.85
41.28
30.94
20.16
9.56
-0.18
-8.47
-15.12
-20.30
-24.52
-27.96
-30.86
-33.46
-36.08
-39.01
-42.48
-46.65
-51.59
-57.33
-63.33
-69.20
-74.66
-79.65
-84.24
-88.43
-91.99
-94.40
-96.89
-99.20
-101.01
-102.33
-103.61
-105.53
-108.63
-113.14
-118.99
-125.94
-131.93
-135.26
-135.35
-133.04
-129.98
-127.59
-126.58
-126.88
-128.04
-126.17
-118.09
-102.87
-82.46
-60.39
-39.60
-21.40
-5.57
8.93
28.54
58.48
100.27
150.59
203.68
254.48
300.72
342.77
382.47
428.62
488.44
564.14
651.52
743.17
832.58
916.62
995.20
1028.42
989.82
876.54
714.76
542.77
389.47
265.02
164.86
76.98
-9.97
-94.64
-169.16
-224.43
-256.57
-267.50
-263.31
-252.52
-242.04
-235.63
-228.97
-217.04
-197.57
-173.69
-149.79
-130.33
-116.53
-109.43
-109.07
-111.39
-113.23
-110.48
-104.09
-95.94
-90.24
-89.88
-99.78
-122.75
-156.55
-197.02
-239.19
-280.88
-320.18
-359.29
-380.40
-373.10
-337.08
-281.64
-219.46
-157.76
-113.35
-80.34
-54.52
-34.81
-28.38
-42.48
-70.56
-105.62
-139.16
-165.16
-179.31
-183.67
-182.53
-186.76
-205.16
-241.48
-294.89
-360.01
-430.21
-496.65
-552.20
-565.55
-519.88
-419.75
-291.07
-166.00
-64.95
6.68
54.90
87.84
112.02
124.59
123.81
110.34
88.54
66.79
52.16
48.08
52.97
62.71
69.99
69.80
61.69
49.34
40.69
42.04
55.58
78.94
107.33
134.54
157.33
176.10
194.10
218.57
254.96
304.69
365.20
431.69
499.21
565.40
630.41
675.00
684.97
656.01
597.34
525.37
452.50
381.85
309.81
231.51
145.84
60.53
-13.00
-65.08
-92.31
-98.91
-93.28
-83.84
-76.24
-72.64
-70.36
-65.95
-58.68
-50.13
-43.67
-41.47
-43.87
-49.94
-58.51
-67.39
-75.11
-81.11
-85.46
-89.40
-93.56
-98.12
-103.44
-110.59
-120.47
-134.26
-153.56
-173.28
-191.30
-206.44
-218.63
-229.04
-239.84
-253.31
-271.56
-295.70
-324.97
-357.06
-386.68
-406.67
-409.99
-392.21
-352.94
-295.83
-227.12
-153.40
-80.78
-12.96
48.68
104.22
154.14
198.28
234.87
260.37
270.41
261.54
234.31
194.19
150.06
110.18
78.37
52.41
26.37
-4.55
-40.01
-73.65
-97.07
-105.68
-102.43
-96.62
-98.21
-111.32
-131.24
-147.70
-151.56
-141.07
-123.08
-108.12
-102.92
-105.46
-105.87
-93.38
-64.31
-26.01
5.99
16.16
-3.06
-47.38
-103.26
-154.61
-189.69
-204.60
-202.24
-188.52
-168.60
-144.80
-117.03
-84.50
-47.27
-6.69
35.20
76.58
116.28
153.56
187.43
215.89
235.81
244.11
239.48
223.91
202.68
182.37
167.96
160.51
157.01
152.73
144.27
131.70
118.17
107.26
100.33
95.23
87.35
72.42
48.73
18.12
-15.32
-47.19
-74.72
-97.41
-116.70
-134.90
-154.05
-174.92
-196.50
-216.12
-230.03
-234.62
-227.64
-209.02
-180.73
-145.87
-107.56
-68.02
-28.33
11.24
50.77
90.56
131.02
172.72
215.97
260.16
303.35
342.26
372.68
390.54
392.96
378.84
349.22
307.08
256.52
201.83
146.74
94.27
47.26
8.98
-16.98
-27.84
-23.46
-7.85
11.03
23.18
20.03
-2.44
-42.59
-94.40
-150.19
-202.98
-248.03
-282.96
-307.42
-322.60
-330.59
-333.60
-332.88
-327.99
-317.03
-298.03
-270.21
-235.12
-196.25
-157.32
-120.64
-86.18
-51.60
-13.56
30.48
80.51
132.99
181.12
216.62
232.33
224.87
195.90
151.45
99.73
48.74
4.79
-27.77
-45.99
-48.42
-35.64
-11.12
19.18
48.62
72.43
89.18
100.16
107.13
110.14
107.25
96.30
77.25
53.53
30.75
13.93
4.93
1.75
0.02
-4.28
-12.84
-24.55
-36.46
-45.30
-48.48
-44.33
-31.86
-10.70
18.85
55.56
97.35
141.57
185.09
224.24
254.64
271.60
271.36
252.81
218.51
174.43
128.03
85.83
51.55
25.84
7.56
-4.42
-10.09
-8.61
0.49
16.12
35.47
54.88
71.25
82.79
89.03
90.21
86.58
78.33
65.94
50.47
33.35
15.96
-0.99
-17.51
-34.08
-51.13
-68.87
-87.01
-104.61
-119.87
-129.86
-130.78
-118.62
-90.71
-47.03
9.04
71.43
133.08
187.70
230.87
259.99
273.66
271.34
253.70
223.39
185.40
146.28
112.21
87.07
71.45
63.25
59.56
58.41
59.58
63.85
71.80
82.67
94.52
104.90
111.79
114.02
111.15
103.13
90.22
73.12
53.19
32.33
12.41
-5.46
-21.51
-37.57
-56.63
-81.65
-113.87
-151.23
-187.77
-214.75
-223.18
-207.02
-165.49
-103.20
-28.31
50.43
125.83
192.93
248.13
288.09
309.64
310.78
292.42
258.93
217.29
174.78
136.17
102.21
69.99
35.37
-4.01
-46.41
-86.04
-115.23
-127.67
-121.23
-98.78
-66.92
-33.45
-4.81
15.24
25.41
25.87
17.24
0.16
-24.46
-55.06
-89.36
-125.13
-161.10
-197.55
-235.77
-276.31
-317.11
-352.41
-373.99
-374.22
-349.65
-302.99
-242.13
-176.68
-114.06
-57.76
-8.39
33.38
64.58
80.40
76.98
54.73
19.27
-20.67
-57.42
-87.65
-112.79
-136.45
-160.73
-183.81
-200.51
-205.17
-194.81
-171.04
-139.45
-107.30
-80.87
-63.51
-55.45
-54.68
-58.60
-65.11
-73.02
-81.65
-90.39
-98.84
-107.44
-118.19
-134.26
-158.36
-190.67
-227.58
-262.51
-288.62
-301.96
-302.89
-295.13
-282.93
-268.56
-251.98
-232.63
-211.84
-193.50
-182.47
-181.58
-189.66
-201.81
-211.87
-215.49
-211.70
-202.49
-190.81
-178.58
-165.94
-151.85
-135.37
-116.63
-96.93
-78.05
-61.57
-48.08
-37.22
-27.92
-18.87
-8.91
2.56
15.53
29.67
44.43
59.09
72.61
83.66
90.88
93.49
91.92
87.90
84.05
82.85
85.59
92.11
101.10
111.01
120.96
131.30
142.99
156.71
171.75
185.72
195.50
198.88
196.02
189.53
183.28
180.34
181.66
186.15
191.94
197.78
203.45
209.03
213.78
215.81
212.79
203.63
189.43
173.04
157.55
144.50
133.25
121.76
107.71
89.64
67.16
40.85
12.05
-16.66
-41.56
-58.12
-62.30
-52.14
-28.68
4.27
41.66
78.89
112.93
142.24
165.85
182.47
190.42
188.41
176.51
156.71
132.40
107.27
84.14
64.55
49.09
38.00
31.62
30.31
33.99
41.67
51.50
61.14
68.34
71.40
69.44
62.31
50.39
34.28
14.40
-9.16
-36.36
-66.64
-97.95
-126.53
-147.40
-156.02
-150.08
-130.58
-101.52
-68.08
-34.45
-2.41
28.45
59.14
89.26
116.10
135.27
142.57
136.03
116.84
88.90
57.32
26.91
1.09
-18.27
-30.58
-36.50
-37.82
-37.42
-38.37
-42.48
-48.88
-53.53
-50.22
-32.98
1.04
49.70
105.73
158.47
196.99
213.21
204.22
173.09
127.77
78.55
35.05
3.74
-13.07
-16.57
-9.58
5.10
25.39
49.59
75.49
100.07
120.11
133.48
140.17
142.24
142.69
143.81
146.04
148.03
147.59
142.98
133.78
121.06
106.85
93.21
81.53
71.87
62.96
52.36
37.19
14.99
-15.34
-53.04
-95.75
-140.25
-183.49
-223.18
-257.49
-284.35
-300.80
-303.22
-288.57
-256.07
-208.29
-150.82
-90.47
-32.94
18.68
63.84
103.18
136.77
163.42
181.32
189.54
189.10
182.93
174.52
166.33
159.00
151.91
144.37
136.78
130.60
127.31
127.20
128.81
129.49
126.84
119.80
108.93
95.83
81.98
68.00
53.68
38.41
21.63
2.80
-18.73
-43.65
-72.00
-102.34
-131.37
-154.71
-168.55
-171.41
-164.82
-152.49
-138.32
-124.58
-111.37
-97.51
-82.29
-66.63
-52.90
-43.63
-40.00
-41.17
-44.97
-49.26
-53.03
-56.60
-60.94
-66.52
-72.72
-78.02
-80.94
-80.94
-78.82
-76.37
-75.55
-77.57
-82.41
-89.09
-96.17
-102.54
-107.72
-111.98
-115.91
-120.05
-124.52
-128.98
-132.95
-136.07
-138.49
-140.77
-143.60
-147.36
-152.17
-158.19
-165.94
-176.14
-188.82
-202.22
-212.29
-213.52
-201.09
-173.24
-132.51
-84.78
-36.80
6.54
43.26
73.49
97.51
114.37
122.23
120.01
109.20
94.14
80.38
72.12
70.49
73.41
77.41
79.90
80.60
81.29
84.27
90.79
100.14
110.13
118.18
122.46
122.36
118.26
110.86
100.77
88.43
74.38
59.62
45.41
32.95
22.85
14.88
8.02
0.90
-7.86
-19.32
-34.10
-52.31
-73.57
-97.03
-121.43
-145.28
-167.09
-185.57
-199.85
-209.55
-214.74
-215.80
-213.23
-207.51
-198.94
-187.98
-175.83
-164.72
-157.71
-157.37
-164.24
-175.65
-186.12
-189.24
-180.22
-157.77
-124.18
-83.70
-40.25
3.90
47.82
90.32
128.59
158.29
175.29
177.95
168.39
151.80
134.21
120.12
111.21
106.75
105.18
105.58
108.21
113.88
122.85
134.17
145.71
154.96
159.89
159.55
154.24
145.31
134.73
124.47
115.99
109.76
105.20
101.08
96.24
90.26
83.67
77.69
73.46
71.50
71.49
72.53
73.67
74.36
74.48
74.12
73.40
72.19
70.35
67.82
64.71
61.17
57.06
51.84
44.50
33.64
17.91
-3.60
-30.55
-60.83
-90.23
-113.21
-124.42
-120.65
-102.11
-72.45
-37.18
-1.51
31.30
60.21
85.21
105.82
120.42
126.84
123.99
113.08
97.79
82.68
71.35
64.89
61.85
59.62
56.20
51.45
47.09
45.54
48.36
55.30
64.30
72.51
77.63
78.78
76.61
72.58
68.04
63.54
58.73
52.81
45.12
35.72
25.47
15.74
7.94
2.93
0.64
0.06
-0.38
-2.35
-6.98
-14.62
-24.79
-36.63
-49.36
-62.70
-76.86
-92.24
-109.16
-127.82
-148.53
-171.81
-197.85
-225.58
-251.80
-271.28
-278.28
-268.81
-242.67
-203.59
-157.79
-111.23
-67.65
-28.08
7.79
39.76
66.24
84.81
93.79
93.73
87.49
78.98
71.35
65.70
61.14
55.96
49.14
41.17
33.90
29.45
29.00
32.15
37.14
41.69
44.11
43.77
41.10
36.86
31.51
24.96
16.75
6.60
-5.25
-18.02
-30.93
-43.49
-55.68
-67.66
-79.27
-89.81
-98.47
-105.10
-110.74
-117.23
-125.89
-135.98
-143.98
-144.28
-131.15
-100.74
-52.24
12.02
87.09
166.00
240.31
300.83
339.33
350.62
334.41
295.59
242.46
183.73
125.53
70.22
16.77
-37.34
-94.40
-154.95
-217.12
-276.49
-326.55
-360.17
-371.65
-359.00
-324.86
-275.61
-219.00
-161.48
-106.89
-56.82
-12.21
25.23
52.97
69.13
73.93
70.45
63.51
57.47
54.31
53.02
50.74
44.84
34.83
22.89
12.72
7.73
9.23
15.98
24.94
32.93
38.04
40.12
40.33
40.05
40.01
40.00
39.29
37.24
33.80
29.59
25.61
22.80
21.73
22.31
23.75
24.68
23.39
18.40
8.91
-4.80
-21.33
-38.44
-53.61
-64.64
-70.26
-70.40
-66.30
-60.12
-54.26
-50.36
-48.71
-48.20
-47.11
-44.37
-40.48
-37.54
-38.27
-44.53
-56.33
-71.74
-87.98
-102.72
-114.91
-124.73
-133.04
-140.71
-148.47
-156.98
-166.73
-177.51
-187.79
-194.44
-193.47
-181.46
-157.03
-121.38
-77.69
-29.73
19.41
67.55
112.82
152.78
184.31
204.36
211.39
206.36
192.56
174.44
156.01
139.60
125.71
113.79
103.31
94.57
88.63
86.70
89.37
96.15
105.52
115.66
124.94
132.46
137.97
141.61
143.47
143.48
141.45
137.25
131.00
123.07
113.89
103.83
93.18
82.24
71.48
61.52
52.94
46.06
40.74
36.44
32.43
28.14
23.27
17.88
12.28
6.80
1.72
-2.96
-7.51
-12.48
-18.59
-26.63
-37.37
-51.38
-68.61
-87.92
-106.72
-121.26
-127.46
-122.34
-105.10
-77.45
-42.95
-5.54
31.52
66.14
96.89
122.30
140.41
149.24
147.83
137.10
120.08
100.99
83.88
71.21
63.24
58.48
54.73
50.38
45.24
40.43
37.60
37.73
40.43
43.99
46.25
45.67
42.07
36.55
30.65
25.40
20.62
15.18
7.59
-3.04
-16.49
-31.43
-45.97
-58.46
-68.15
-75.44
-81.73
-88.81
-98.05
-109.80
-123.16
-136.42
-147.92
-156.90
-163.79
-169.85
-176.42
-184.37
-194.11
-205.93
-219.95
-235.58
-250.54
-260.58
-260.43
-245.90
-216.00
-173.74
-124.97
-75.79
-30.27
10.40
46.80
79.29
106.74
126.73
137.15
137.82
131.06
120.79
110.81
103.35
98.55
95.08
91.27
86.28
80.49
75.15
71.63
70.56
71.39
72.59
72.36
69.58
64.30
57.59
50.88
45.12
40.29
35.60
30.04
23.20
15.56
8.26
2.52
-1.01
-2.54
-2.99
-3.48
-4.75
-6.93
-9.61
-12.33
-15.01
-17.99
-21.90
-27.13
-33.43
-39.95
-45.56
-49.54
-52.00
-53.87
-56.52
-61.08
-67.95
-76.84
-87.05
-98.10
-109.98
-123.05
-137.28
-151.63
-163.87
-171.40
-172.78
-168.91
-162.84
-158.28
-157.24
-158.69
-158.84
-153.18
-138.84
-115.94
-87.07
-55.46
-23.37
8.47
39.88
69.82
95.88
114.95
125.00
126.48
122.47
117.38
114.93
116.59
121.09
125.28
125.98
121.45
112.26
100.86
90.17
82.27
77.41
74.24
70.76
65.54
58.43
50.39
42.73
36.23
30.77
25.49
19.55
12.62
5.11
-2.22
-8.75
-14.34
-19.30
-24.04
-28.77
-33.38
-37.63
-41.46
-45.18
-49.44
-54.93
-62.00
-70.50
-79.74
-88.74
-96.42
-101.90
-104.60
-104.30
-101.21
-96.00
-89.82
-84.08
-80.03
-78.27
-78.52
-79.69
-80.45
-79.84
-77.81
-75.24
-73.65
-74.75
-79.92
-89.72
-103.31
-118.20
-130.42
-135.28
-128.74
-108.65
-75.48
-32.11
17.13
67.81
116.34
160.17
197.60
227.19
247.77
258.64
260.06
253.48
241.35
226.48
211.36
197.68
186.17
177.02
170.28
166.17
165.02
166.86
171.03
176.06
180.16
181.95
181.10
178.36
174.99
171.95
169.31
166.23
161.56
154.54
145.22
134.37
123.03
111.83
100.79
89.33
76.72
62.56
46.96
30.51
13.96
-2.15
-17.65
-32.72
-47.68
-62.77
-78.21
-94.40
-112.21
-132.53
-155.43
-179.21
-199.99
-212.63
-212.47
-197.37
-168.62
-130.43
-88.29
-46.98
-9.53
22.67
48.99
68.56
80.22
82.96
76.97
64.09
47.56
31.15
17.97
9.55
5.54
4.24
3.59
2.08
-0.64
-3.95
-6.84
-8.76
-9.96
-11.34
-13.93
-18.32
-24.46
-31.86
-39.98
-48.48
-57.32
-66.54
-76.11
-85.75
-95.05
-103.48
-110.65
-116.49
-121.30
-125.65
-130.20
-135.32
-140.99
-146.88
-152.58
-157.81
-162.56
-167.06
-171.79
-177.26
-183.69
-190.44
-195.49
-195.52
-186.73
-166.42
-134.32
-93.10
-47.33
-1.61
41.02
79.49
113.71
143.10
165.82
179.43
182.49
176.04
163.63
149.89
138.49
130.72
125.39
120.08
112.80
103.09
92.15
82.09
74.76
71.00
70.37
71.58
73.07
73.67
72.92
70.91
67.95
64.15
59.39
53.33
46.01
37.98
30.34
24.29
20.62
19.47
20.41
22.87
26.35
30.56
35.10
39.25
42.03
42.55
40.43
35.98
30.05
23.53
17.01
10.68
4.51
-1.40
-6.77
-11.27
-14.82
-17.74
-20.62
-23.97
-27.97
-32.42
-36.96
-41.43
-46.11
-51.64
-58.89
-68.79
-82.26
-100.12
-122.85
-150.18
-180.78
-212.29
-241.62
-265.82
-283.10
-293.44
-298.44
-300.39
-300.76
-299.12
-292.96
-278.61
-252.89
-214.71
-165.81
-110.38
-53.72
-0.81
44.66
80.52
105.60
119.34
121.79
114.08
98.82
80.00
62.04
48.65
42.00
42.83
51.09
66.63
89.17
117.47
148.76
178.87
203.81
221.76
234.08
244.33
255.71
268.55
279.54
283.65
277.35
261.27
240.08
219.74
204.00
192.51
181.76
168.25
151.40
134.21
121.27
115.42
115.75
118.12
117.97
113.27
105.59
98.69
95.58
96.36
98.11
96.79
89.72
76.82
60.18
42.42
25.29
9.29
-5.50
-18.56
-28.68
-34.66
-36.41
-35.35
-34.11
-35.11
-39.47
-46.37
-53.82
-59.95
-64.28
-68.31
-74.59
-85.52
-102.19
-124.14
-149.65
-176.30
-201.06
-220.08
-228.96
-223.56
-201.53
-163.53
-113.62
-58.10
-3.57
45.09
85.68
118.33
144.23
164.25
178.35
185.84
186.31
180.50
170.53
159.44
149.82
142.70
136.60
128.27
114.48
94.00
68.92
44.00
24.56
13.83
11.63
14.76
19.19
22.38
24.55
28.00
34.99
45.68
57.09
64.00
61.12
45.56
18.24
-16.25
-51.48
-81.56
-103.21
-116.34
-123.21
-126.56
-127.82
-126.51
-121.26
-111.53
-99.06
-87.68
-81.39
-82.07
-88.27
-96.05
-101.54
-103.49
-104.15
-107.75
-117.62
-133.69
-152.14
-167.51
-175.66
-176.21
-172.50
-169.59
-171.25
-178.05
-187.36
-195.47
-200.19
-202.48
-206.11
-215.29
-231.87
-253.72
-275.75
-292.92
-303.48
-310.17
-318.21
-331.50
-349.07
-364.37
-368.16
-353.13
-317.56
-265.84
-205.80
-144.94
-88.02
-37.00
7.11
42.46
66.32
76.51
73.13
59.06
38.86
16.81
-4.52
-24.54
-43.85
-62.81
-80.66
-95.50
-105.17
-108.23
-104.84
-96.84
-86.91
-77.35
-68.82
-59.85
-47.40
-28.33
-1.02
33.90
73.80
115.23
155.06
190.79
220.09
240.02
247.25
239.50
217.54
186.51
155.30
133.88
129.63
144.66
175.44
214.84
255.38
291.80
321.69
344.17
358.05
361.10
351.00
327.67
295.00
260.78
233.94
220.39
219.72
224.88
225.41
212.70
184.45
145.67
105.65
72.60
49.28
32.27
15.08
-7.03
-33.93
-61.05
-82.83
-96.48
-103.70
-108.92
-115.86
-124.94
-133.30
-137.69
-136.90
-132.87
-128.61
-125.17
-119.49
-104.96
-74.73
-25.55
40.14
114.82
188.84
253.69
304.09
338.05
355.67
357.73
345.28
319.92
284.30
242.23
197.93
155.27
117.06
84.73
58.43
37.40
20.35
5.96
-6.61
-17.28
-24.70
-27.19
-23.47
-13.74
-0.05
14.43
26.52
34.36
37.92
38.57
38.04
37.33
36.12
33.16
27.08
17.48
5.49
-6.45
-15.56
-19.91
-19.28
-15.11
-9.78
-5.58
-3.99
-5.70
-11.11
-20.78
-35.46
-55.39
-79.54
-105.55
-130.45
-152.01
-169.68
-184.46
-197.83
-210.40
-221.36
-229.10
-232.63
-232.59
-231.32
-231.79
-236.29
-245.73
-260.01
-278.94
-302.53
-330.26
-359.97
-387.59
-408.48
-419.58
-421.05
-415.85
-407.48
-397.32
-383.35
-361.36
-327.72
-281.87
-226.71
-166.90
-106.27
-46.76
10.83
65.04
112.63
149.55
173.16
184.05
186.00
184.00
181.84
180.69
179.56
176.68
171.08
162.88
152.74
140.96
127.10
110.35
90.17
66.78
41.19
14.93
-10.18
-32.41
-50.54
-64.12
-73.34
-78.42
-78.67
-72.21
-56.48
-29.94
6.37
48.25
89.43
123.91
147.92
160.93
164.82
162.34
155.70
146.04
133.96
120.42
107.11
96.10
88.94
85.96
86.01
87.00
86.87
84.23
78.78
71.10
62.12
52.49
42.28
31.04
18.24
3.74
-12.04
-28.39
-44.55
-60.00
-74.30
-87.12
-98.03
-106.66
-112.82
-116.54
-118.14
-118.49
-119.35
-123.49
-133.81
-151.84
-176.06
-201.28
-219.75
-223.63
-207.97
-172.15
-119.47
-55.64
12.72
78.73
135.42
176.07
195.82
193.63
173.65
144.49
116.38
97.51
91.26
95.65
104.92
112.47
113.30
105.86
91.99
76.03
63.26
58.24
63.76
80.09
105.16
135.21
165.83
192.83
213.04
224.65
227.02
220.32
205.34
183.81
158.65
134.06
114.65
103.79
102.05
106.36
111.03
110.08
99.81
80.23
54.71
28.09
4.29
-15.42
-32.77
-51.36
-74.81
-104.54
-138.39
-170.59
-193.42
-199.95
-186.67
-154.91
-110.15
-60.23
-13.28
23.79
46.20
52.02
43.09
25.34
7.58
-1.39
3.59
21.66
46.74
70.93
88.45
97.70
100.27
97.97
90.44
75.15
49.91
15.45
-23.14
-57.98
-81.24
-88.04
-77.77
-53.72
-21.56
12.49
43.46
69.02
89.88
108.90
128.98
150.62
170.65
183.11
182.11
164.83
133.29
93.42
52.29
15.04
-16.69
-44.17
-69.46
-93.42
-114.62
-130.20
-137.36
-135.03
-124.36
-108.15
-89.57
-70.79
-52.40
-33.52
-12.61
11.61
39.22
68.55
96.12
116.98
126.19
120.24
98.54
63.75
20.77
-25.26
-70.58
-113.23
-152.10
-185.41
-210.50
-224.94
-228.61
-224.76
-219.18
-217.38
-221.45
-229.01
-234.74
-234.19
-226.89
-216.68
-209.09
-207.16
-208.55
-205.90
-190.42
-156.70
-105.99
-45.92
13.17
62.71
99.01
123.03
137.74
144.99
144.33
134.11
114.20
88.11
62.81
46.21
43.59
54.62
72.74
87.63
89.26
72.17
37.67
-6.89
-51.32
-87.03
-110.27
-122.49
-128.02
-130.62
-131.24
-128.33
-120.23
-107.33
-92.84
-81.09
-75.12
-75.24
-79.30
-84.16
-87.03
-85.85
-78.99
-65.60
-46.77
-26.42
-11.11
-7.55
-19.06
-43.40
-73.39
-100.75
-120.79
-134.84
-148.85
-168.88
-196.49
-227.28
-253.37
-268.17
-270.17
-263.38
-254.25
-247.43
-242.95
-236.65
-223.36
-200.29
-168.86
-133.61
-99.29
-68.05
-38.47
-7.27
27.70
64.81
98.21
119.90
122.93
104.54
67.54
19.33
-30.53
-73.33
-103.23
-117.98
-118.31
-106.78
-86.65
-61.28
-33.65
-6.12
19.77
43.27
64.37
83.51
101.51
119.47
138.59
159.80
183.34
208.70
234.73
260.32
285.28
310.84
339.54
373.88
414.44
458.34
498.83
526.82
533.67
514.26
468.96
403.47
326.88
248.76
176.96
116.60
70.52
40.19
26.05
27.13
40.38
60.55
81.18
96.63
103.89
103.41
98.36
92.46
87.90
84.19
78.65
68.17
51.20
28.75
4.08
-18.66
-36.26
-47.53
-53.43
-56.24
-58.68
-63.37
-72.54
-87.82
-109.41
-134.99
-158.98
-173.22
-169.41
-142.65
-94.26
-32.07
32.33
88.24
130.05
158.61
179.12
197.26
216.16
235.47
252.83
266.09
274.15
276.54
272.54
261.43
243.84
223.16
205.28
196.06
197.84
207.43
217.10
218.13
205.10
178.16
142.50
105.72
74.76
53.91
44.35
44.65
51.66
61.70
71.51
78.91
82.92
83.44
80.59
74.43
65.41
54.75
44.45
36.33
30.81
26.12
18.83
5.71
-14.39
-39.75
-66.65
-91.10
-110.81
-125.76
-137.75
-149.35
-163.13
-181.30
-205.47
-235.66
-269.03
-299.35
-317.91
-316.55
-291.19
-244.13
-183.50
-119.80
-61.84
-13.98
23.48
51.86
71.43
80.69
77.94
63.74
42.37
20.80
5.89
1.22
5.65
14.22
20.41
18.95
7.61
-12.80
-39.76
-70.83
-104.92
-142.04
-181.96
-222.42
-258.40
-283.16
-290.78
-278.99
-250.41
-211.60
-170.35
-132.89
-102.55
-80.15
-65.80
-60.39
-65.73
-83.48
-113.60
-153.78
-199.72
-246.66
-290.55
-328.73
-359.83
-383.37
-399.10
-406.76
-406.17
-397.55
-382.25
-363.05
-343.77
-328.10
-318.02
-312.55
-307.85
-298.77
-281.11
-253.46
-217.83
-178.47
-139.84
-104.84
-74.11
-46.31
-19.24
9.07
39.40
71.16
102.48
130.61
152.41
164.61
163.78
146.65
111.15
57.99
-7.85
-76.94
-137.57
-179.30
-196.63
-190.83
-168.75
-139.21
-109.28
-82.31
-58.57
-37.53
-19.65
-6.32
1.29
3.66
2.73
0.50
-2.77
-8.91
-20.44
-38.28
-60.12
-80.93
-95.09
-99.19
-93.43
-81.07
-66.37
-52.53
-40.63
-30.12
-20.11
-10.11
-0.44
8.24
15.50
21.45
26.71
32.12
38.35
45.62
53.63
61.72
69.11
75.28
80.14
84.19
88.34
93.62
100.79
110.10
121.16
133.05
144.83
155.78
165.84
175.51
185.66
197.20
210.85
227.18
246.48
268.42
291.48
312.61
327.57
332.17
323.69
302.01
269.54
230.18
188.07
146.83
109.81
80.72
63.73
62.49
78.24
108.39
146.47
183.76
211.77
224.15
217.65
192.25
151.03
100.06
47.96
4.57
-21.41
-24.89
-5.88
31.04
79.18
132.74
188.74
246.86
307.42
369.00
427.20
475.28
506.42
516.13
503.82
472.72
428.45
377.08
323.32
269.84
217.47
166.17
116.15
68.48
25.07
-12.00
-41.31
-62.59
-76.52
-84.13
-85.97
-81.94
-71.98
-57.23
-40.77
-27.27
-21.22
-24.65
-35.66
-48.89
-57.88
-58.24
-50.00
-38.06
-30.47
-35.16
-56.33
-92.08
-134.08
-169.97
-187.33
-178.14
-141.45
-83.41
-14.61
53.59
112.16
155.69
181.77
189.83
180.60
156.72
123.57
89.13
61.87
47.52
46.57
53.97
61.67
62.61
54.33
40.03
26.80
22.04
29.92
49.48
75.33
100.15
117.66
124.60
120.97
108.86
90.78
68.52
42.97
14.67
-15.50
-46.03
-75.27
-102.17
-126.85
-150.69
-175.97
-205.08
-239.77
-280.02
-323.09
-363.06
-391.62
-400.35
-383.94
-342.97
-284.23
-218.40
-155.97
-103.62
-63.04
-32.34
-9.00
7.99
17.84
19.62
14.00
3.74
-7.43
-17.05
-25.39
-35.27
-50.05
-70.85
-94.46
-113.36
-118.30
-102.37
-64.93
-12.76
42.06
87.23
115.32
126.61
128.48
131.44
143.87
168.31
201.14
235.57
265.86
290.20
310.53
329.94
349.36
365.91
374.11
368.99
349.38
319.00
285.01
254.48
231.19
214.36
200.10
184.28
164.96
143.01
120.99
101.52
85.79
73.28
62.18
50.57
37.38
22.70
7.55
-6.84
-19.75
-31.33
-42.49
-54.30
-67.34
-81.31
-95.22
-107.92
-118.68
-127.59
-135.48
-143.50
-152.44
-162.35
-172.49
-181.83
-189.70
-196.26
-202.53
-210.04
-220.07
-232.95
-247.98
-263.80
-279.01
-293.03
-306.42
-320.74
-338.26
-361.60
-393.35
-435.47
-488.07
-548.33
-609.91
-664.00
-701.74
-717.31
-710.04
-684.36
-647.77
-607.68
-568.95
-533.17
-499.63
-467.24
-435.59
-405.22
-376.64
-349.61
-322.91
-295.06
-265.20
-233.64
-201.76
-171.49
-144.34
-120.69
-99.80
-80.18
-60.34
-39.53
-17.90
3.64
23.83
41.70
57.15
70.94
84.22
97.88
112.12
126.44
139.87
151.29
159.78
165.32
168.81
171.36
173.70
175.86
177.35
177.46
175.37
170.35
162.51
152.74
141.98
130.53
118.06
104.06
88.56
72.27
56.49
44.03
38.71
44.16
62.64
94.78
139.86
196.79
264.35
334.39
394.86
435.71
453.68
451.77
435.54
409.81
378.45
343.92
307.66
271.45
237.41
207.38
181.86
160.16
140.58
121.95
103.32
83.89
63.89
44.19
25.94
9.42
-3.52
-15.43
-27.92
-41.90
-57.90
-75.66
-94.38
-112.69
-129.85
-145.67
-160.70
-175.00
-188.64
-201.75
-214.32
-226.26
-236.85
-245.81
-253.12
-259.11
-263.51
-265.81
-265.10
-259.73
-252.36
-243.58
-233.71
-222.98
-211.68
-199.74
-187.01
-173.42
-159.03
-144.09
-128.29
-111.60
-94.09
-75.91
-57.11
-37.75
-18.09
1.39
19.94
37.25
52.90
66.67
78.67
89.33
99.27
109.04
118.80
128.33
137.42
145.77
153.26
160.19
167.23
175.19
184.64
195.64
207.65
219.98
231.89
243.03
253.51
263.98
275.38
288.79
305.32
325.70
349.83
375.99
400.74
419.46
427.69
422.81
405.04
377.37
344.36
310.38
278.31
249.25
223.03
199.16
177.45
158.00
140.88
125.76
111.89
98.49
85.11
71.76
58.84
46.94
36.49
27.57
19.95
13.19
6.87
0.76
-5.14
-10.64
-15.47
-19.47
-22.64
-25.20
-27.41
-29.48
-31.46
-33.29
-34.87
-36.01
-36.55
-36.46
-35.97
-35.66
-36.35
-38.73
-42.96
-48.42
-53.93
-58.34
-61.10
-62.65
-64.16
-66.79
-70.92
-75.83
-80.03
-82.16
-81.69
-79.20
-75.93
-73.00
-70.80
-68.81
-65.78
-60.33
-51.36
-38.38
-21.40
-0.89
22.19
46.36
69.60
89.55
103.95
111.28
111.34
105.29
95.36
83.95
72.79
62.35
51.85
39.85
25.09
7.16
-13.24
-34.54
-54.89
-72.78
-87.49
-99.26
-108.97
-117.86
-126.92
-136.60
-146.63
-156.13
-163.95
-169.12
-171.16
-170.22
-166.93
-162.20
-156.72
-151.02
-145.24
-139.39
-133.44
-127.45
-121.54
-115.76
-109.91
-103.51
-95.81
-85.80
-72.57
-55.67
-35.45
-13.06
9.80
31.32
49.86
64.29
74.14
79.43
80.48
77.71
71.54
62.82
52.54
41.72
31.32
22.36
15.43
10.67
7.58
4.88
1.94
-1.68
-6.14
-11.34
-16.68
-21.24
-23.82
-23.25
-18.67
-7.69
10.86
35.89
63.73
89.71
109.65
121.30
124.48
120.22
113.39
108.08
106.08
106.74
108.69
111.34
114.97
119.93
125.35
133.88
146.78
163.50
182.02
201.06
221.36
245.18
274.57
288.14
272.14
225.09
158.86
88.59
23.91
-32.02
-79.31
-114.69
-141.98
-159.53
-165.72
-161.68
-151.80
-141.64
-135.19
-133.83
-136.36
-140.92
-142.01
-135.91
-122.32
-104.14
-85.47
-69.64
-58.44
-52.26
-50.89
-50.87
-48.95
-43.67
-36.25
-29.85
-28.16
-33.90
-47.66
-67.96
-90.24
-109.92
-124.39
-133.98
-140.98
-147.92
-155.68
-163.00
-166.93
-164.02
-152.37
-132.71
-108.07
-82.26
-58.63
-39.28
-25.35
-17.36
-15.26
-18.15
-24.02
-29.81
-32.32
-29.33
-20.56
-7.72
6.40
19.31
29.91
38.81
47.68
57.82
68.65
77.21
78.99
70.01
49.26
19.83
-11.63
-37.60
-52.41
-54.55
-46.41
-32.54
-17.41
-3.75
7.52
16.49
23.26
27.56
29.10
28.08
25.44
22.56
20.60
20.16
21.05
22.54
23.68
23.78
22.58
20.34
17.67
15.40
14.33
14.93
17.30
21.10
25.52
29.44
31.68
31.12
26.94
18.70
6.58
-8.49
-24.77
-39.83
-50.89
-55.53
-52.30
-41.27
-24.09
-3.69
16.53
33.56
45.37
51.30
51.89
48.49
42.79
36.47
30.90
27.15
25.89
27.46
31.75
38.13
45.61
53.02
59.27
63.56
65.45
64.94
62.39
58.52
54.22
50.35
47.40
45.34
43.62
41.44
38.17
33.62
28.16
22.42
16.87
11.50
5.79
-1.04
-9.49
-19.49
-30.26
-40.60
-49.31
-55.71
-59.92
-62.70
-65.14
-68.14
-72.04
-76.57
-81.17
-85.24
-88.44
-90.46
-90.88
-89.05
-84.23
-76.10
-65.13
-52.51
-39.68
-27.56
-16.19
-4.96
6.62
18.24
28.49
35.38
37.36
34.07
26.64
17.22
8.18
1.40
-1.99
-1.58
2.51
9.77
19.30
29.69
39.29
46.50
50.39
51.13
49.98
48.76
49.07
51.49
55.39
59.15
61.06
60.16
56.79
52.36
48.64
46.69
46.44
46.49
45.29
41.91
36.80
31.90
29.69
32.19
39.96
51.91
65.73
78.65
88.10
92.18
90.03
82.17
70.85
59.98
54.29
57.94
72.85
97.66
127.92
157.58
181.12
195.46
200.86
200.25
197.77
196.73
198.38
201.43
203.22
200.86
192.69
178.43
158.76
134.76
107.22
76.71
43.74
9.50
-24.01
-54.60
-81.08
-103.98
-125.58
-148.87
-176.30
-209.01
-246.04
-284.45
-320.63
-351.97
-377.79
-399.37
-419.67
-442.55
-472.94
-513.44
-561.90
-610.98
-650.39
-670.30
-664.75
-633.86
-583.75
-526.59
-473.05
-427.52
-387.64
-348.26
-305.02
-255.95
-201.06
-141.08
-81.24
-25.67
23.94
67.26
102.61
127.46
140.85
144.88
143.67
135.10
116.55
87.93
52.42
13.49
-26.52
-66.27
-105.35
-108.32
-58.53
30.56
126.26
205.18
261.98
301.05
328.02
346.63
358.96
360.61
349.15
327.25
302.16
280.30
264.56
254.99
250.18
248.32
243.34
231.12
211.36
188.52
166.73
147.80
131.70
117.64
104.72
89.51
72.03
52.38
33.29
17.36
5.77
-1.55
-5.26
-6.16
-6.39
-7.47
-9.89
-12.60
-14.57
-15.45
-15.31
-14.41
-13.00
-11.73
-11.01
-11.07
-11.44
-11.68
-11.64
-11.34
-10.84
-10.19
-9.44
-8.64
-7.97
-7.43
-7.00
-6.67
-6.44
-6.30
-6.22
-6.18
-6.20
-6.37
-6.67
-7.08
-7.60
-8.21
-8.92
-9.68
-10.46
-11.30
-12.26
-13.32
-14.49
-15.78
-17.17
-19.02
-21.01
-23.04
-25.11
-27.14
-29.02
-30.59
-31.66
-32.01
-31.41
-30.00
-27.36
-23.45
-18.35
-12.27
-5.51
1.54
8.46
14.85
20.40
24.86
28.04
29.91
30.59
30.26
29.22
27.77
26.23
24.87
23.93
23.48
23.53
24.09
25.12
26.57
28.36
30.42
32.76
35.38
38.12
40.92
43.72
46.57
49.46
52.46
55.63
59.08
