5.49
2.46
-4.14
-11.4
-16.86
-19.94
-22.08
-25.91
-34.01
-47.8
-67.06
-89.86
-112.75
-130.96
-138.88
-131.25
-104.89
-60.49
-3.64
55.64
105.22
134.31
136.84
113.51
71.53
22.16
-23.08
-55.74
-72.17
-73.17
-62.17
-43.31
-20.27
3.86
26.23
44.24
55.98
60.93
60.06
55.45
49.29
43.13
37.78
33.61
30.81
29.27
28.33
26.52
22.07
13.72
1.54
-13.04
-27.89
-41.17
-51.96
-60.31
-66.74
-71.44
-74.04
-73.47
-68.45
-57.98
-41.86
-20.88
3.19
27.86
50.35
67.92
78.1
79.06
69.86
51.13
25.5
-2.25
-26.12
-40.57
-42.51
-32.36
-13.78
8.18
29.26
47.33
62.59
76.16
88.63
99.15
105.71
106.18
99.53
86.35
68.62
48.95
29.58
11.8
-4.27
-19.64
-35.91
-54.64
-76.22
-99.08
-119.29
-131.28
-129.68
-111.45
-77.56
-33.01
14.76
58.52
93.4
117.81
132.54
139.25
139.26
133.08
121.28
105.03
86.53
68.42
52.91
41.15
33.05
27.7
23.84
20.52
17.24
14.03
11.34
9.61
9
8.95
8.44
6.13
0.98
-7.31
-18.13
-30.06
-41.29
-50.09
-55.46
-57.27
-56.37
-54.09
-51.7
-50.02
-49.26
-49.31
-49.91
-50.71
-51.01
-49.66
-45.23
-36.84
-25.05
-12.17
-1.6
3.74
2.75
-3.21
-11.24
-18.74
-24.89
-31.1
-39.45
-50.9
-63.91
-75.04
-80.88
-80.2
-74.8
-68.4
-64.58
-64.99
-69.3
-76.31
-85.43
-96.83
-110.28
-123.57
-132.12
-130.44
-114.79
-85.45
-46.78
-5.48
31.99
61.35
80.8
90.29
90.62
83.05
69.45
52.37
34.63
18.5
5.02
-6.07
-15.72
-24.71
-33.25
-41.1
-48.08
-54.44
-60.76
-67.66
-75.42
-83.79
-92.15
-99.53
-104.43
-104.81
-98.3
-83.23
-59.86
-31.11
-2.12
21.52
36
41
39.53
36.23
35
37.1
41.14
44.43
44.99
42.9
40.23
39.67
42.88
49.44
57.07
62.98
65.22
63.68
59.93
56.02
53.5
52.98
54.75
59.72
70.01
88.24
116.04
152.44
193.47
233.26
266.21
289.05
301.53
305.78
304.37
298.97
289.71
275.82
256.88
233.63
208.16
182.86
159.51
138.43
118.59
98.32
76.32
52.53
28.05
4.58
-16.75
-36.14
-55.13
-75.64
-98.65
-123.28
-146.9
-166.37
-179.49
-186.16
-188.01
-187.26
-185.32
-182.17
-176.85
-168.56
-157.63
-145.57
-134.36
-125.3
-118.53
-113.23
-108.22
-102.72
-96.44
-89.47
-81.9
-73.85
-65.55
-57.59
-50.85
-46.15
-44.06
-44.69
-47.92
-53.77
-62.43
-74.15
-88.56
-104
-117.11
-123.42
-118.64
-100.48
-69.78
-30.46
11.83
51.78
85.8
112.63
132.43
145.76
152.87
153.8
149.12
140.36
129.9
120.12
112.65
107.88
105.23
103.63
102.01
99.5
95.45
89.6
82.07
73.41
64.26
54.94
45.16
34.13
20.99
5.4
-12.01
-29.58
-44.95
-55.72
-60.23
-58.01
-50.07
-38.46
-25.62
-13.58
-3.6
3.71
7.99
8.86
6.1
0.14
-7.45
-14.19
-17.54
-16.01
-9.91
-1.13
7.74
14.65
18.8
20.72
21.85
23.75
27.71
34.41
44.14
56.52
70.43
83.95
94.42
98.97
95.15
81.99
60.55
34.05
7.04
-16.09
-32.45
-41.58
-45.24
-46.45
-48.17
-52.42
-59.84
-69.97
-81.85
-94.33
-106.54
-117.75
-127.46
-135.35
-141.46
-146.52
-152.09
-160.28
-172.65
-189
-205.97
-217.45
-216.34
-197.72
-161.37
-112.43
-59.61
-11.66
25.76
51.49
67.82
78.12
84.79
88.44
88.65
85.16
78.73
70.96
63.69
58.11
54.36
51.75
49.35
46.68
43.99
42.28
42.67
45.77
51.08
57.07
61.7
63.06
60.15
52.7
41.19
26.11
8.29
-11.34
-31.11
-49.04
-63.38
-73.16
-79
-82.66
-86.47
-92.29
-101.11
-112.85
-126.36
-139.53
-149.3
-152.28
-145.78
-129.12
-104.38
-76.08
-49.78
-30.02
-18.97
-15.86
-17.85
-21.1
-21.83
-17.28
-6.32
9.45
25.47
34.86
31.23
11.57
-21.06
-57.93
-87.9
-101.57
-95.09
-70.83
-35.82
1.52
34.06
57.4
70.14
73.56
71.26
68.43
70.63
81.93
103.28
132.06
162.94
189.94
208.38
216.07
213.24
201.68
183.85
162.07
138.27
113.91
89.96
67.1
45.95
27.24
11.62
-0.52
-9.36
-15.78
-21.1
-26.71
-33.66
-42.47
-53.26
-65.83
-79.44
-92.8
-104.11
-111.48
-113.67
-110.63
-103.64
-94.75
-86
-78.69
-73.05
-68.46
-63.95
-58.72
-52.36
-44.94
-36.75
-28.09
-19.17
-10.12
-1.24
6.91
13.41
17.19
17.51
14.49
9.32
3.92
0.19
-0.99
-0.15
0.85
0.05
-3.37
-8.1
-10.76
-7.02
6.48
30.57
62.94
98.74
132.48
159.86
178.83
189.55
193.31
191.45
184.83
174.34
161.46
148.6
138.41
132.57
130.84
130.96
129.51
123.15
109.74
88.73
61.24
30.02
-0.65
-25.19
-37.93
-34.85
-15.59
15.58
50.63
80.43
97.96
100.52
90.1
71.65
50.69
31.32
15.36
2.75
-7.59
-16.95
-26.44
-36.75
-48.29
-61.09
-74.95
-89.32
-103.33
-115.76
-124.97
-129.25
-127.38
-119.38
-106.74
-92.2
-78.87
-69.2
-64.36
-64.12
-67.4
-72.73
-78.77
-84.42
-88.83
-91.51
-92.06
-90.27
-85.8
-78.3
-67.54
-53.9
-38.73
-24.23
-13
-6.88
-6.27
-9.83
-15.28
-20.26
-23.62
-26.05
-29.74
-37.67
-52.49
-75.95
-108.36
-148.25
-192.13
-234.49
-268.67
-288.43
-289.96
-273.26
-242.07
-202.17
-158.75
-114.56
-69.96
-24.86
18.88
56.37
81.02
87.69
75.68
49.77
18.48
-9.34
-27.93
-36.22
-37.43
-36.74
-38.69
-45.31
-55.52
-65.79
-71.5
-68.55
-54.74
-30.42
1.55
36.85
70.95
100.28
122.62
137.08
143.49
142.15
133.8
119.82
102.31
83.76
66.56
52.21
41.12
32.71
25.97
20.22
15.58
13.02
13.71
18.32
26.2
35.39
43.2
47.26
46.59
41.92
35.37
29.42
25.98
25.87
28.76
33.66
39.2
43.91
46.24
44.86
38.86
28.3
14.33
-1.08
-15.69
-27.69
-35.91
-39.8
-39.1
-33.77
-24.14
-11.12
3.63
18.15
30.64
40.16
46.61
50.41
51.82
50.39
45.03
34.59
18.83
-1.12
-22.74
-42.99
-59.18
-69.84
-74.73
-74.66
-71.05
-65.77
-60.96
-58.72
-60.46
-66.01
-73.02
-77.34
-74.13
-59.92
-33.99
1.04
40.19
77.9
109.5
132.29
145.39
149.38
145.58
135.62
121.16
103.74
84.73
65.34
46.85
30.69
18.4
11.22
9.69
13.23
20.17
28.36
35.84
41.24
44
43.85
40.72
34.54
25.58
14.7
3.45
-6.27
-12.62
-14.45
-11.55
-4.62
4.89
15.2
24.51
31.28
34.55
34.03
30.04
23.39
15.15
6.31
-2.36
-10.31
-17.22
-22.85
-26.92
-29.18
-29.52
-28.1
-25.6
-23.08
-21.65
-22.1
-24.38
-27.63
-30.49
-31.61
-30.31
-26.86
-22.48
-18.87
-17.64
-19.63
-24.71
-31.81
-39.33
-45.63
-49.52
-50.52
-49.05
-46.51
-45.22
-47.98
-57.13
-73.21
-93.82
-113.57
-125.24
-122.27
-101.3
-63.59
-14.76
37.26
84.78
122.36
147.54
160.42
162.64
156.36
143.86
127.25
108.41
88.97
70.26
53.33
38.93
27.6
19.46
14.34
11.82
11.36
12.46
14.57
16.88
18.27
17.49
13.68
7.02
-1.02
-8.04
-11.52
-9.91
-3.21
7.06
18.5
28.77
36.23
40.25
41.1
39.55
36.45
32.48
27.97
22.99
17.49
11.56
5.51
-0.09
-4.57
-7.51
-9
-9.61
-10.22
-11.62
-14.18
-17.77
-22.07
-26.74
-31.61
-36.63
-41.85
-47.4
-53.57
-60.78
-69.3
-79.04
-89.24
-98.54
-105.44
-108.91
-109.06
-107.1
-105.01
-104.8
-107.93
-114.73
-124.17
-133.66
-139.28
-136.71
-122.42
-95.2
-56.9
-12.36
32.25
71.03
99.9
117.45
124.1
121.45
111.37
95.93
77.51
58.57
40.92
24.89
9.46
-6.83
-24.3
-41.2
-54.13
-59.77
-56.81
-46.97
-34.28
-22.99
-15.74
-12.5
-11.42
-10.34
-8.01
-4.52
-0.51
3.56
7.92
12.86
18.55
24.58
29.86
33.33
34
31.61
26.56
19.98
13.49
8.77
6.91
7.81
10.07
11.24
8.94
1.91
-9.39
-22.82
-35.5
-44.87
-49.66
-50.08
-47.73
-44.97
-44.13
-47.1
-54.56
-65.62
-77.63
-86.6
-87.83
-77.29
-53.07
-16.43
27.95
73.17
112.01
139.19
152.75
154.04
146.39
133.24
116.8
97.82
76.39
53.04
29.33
7.59
-10.04
-22.44
-29.8
-33.13
-33.53
-31.61
-27.6
-21.7
-14.43
-6.94
-0.63
3.31
4.43
3.03
0
-3.64
-7.15
-10.18
-12.79
-15.04
-16.93
-18.16
-18.23
-16.58
-12.76
-6.54
2.05
12.7
24.89
37.83
50.61
62.22
71.71
78.4
81.93
82.32
79.82
74.73
67.24
57.56
45.95
33.06
20
8.11
-1.55
-9.14
-16.44
-26.62
-42.82
-66.22
-94.46
-121.41
-138.95
-139.93
-120.98
-83.76
-34.2
19.92
71.37
114.96
147.62
167.66
174.46
168.65
152.6
130.45
107.06
86.57
71.01
60.07
51.84
44.15
35.6
25.96
15.85
6.21
-2
-7.99
-11.25
-11.71
-10.11
-8.11
-7.95
-11.48
-19.34
-30.4
-42.13
-51.52
-56.43
-56.3
-52.24
-46.41
-40.95
-37.36
-35.95
-36.12
-36.73
-36.59
-34.96
-31.67
-27.33
-23.05
-20.26
-20.08
-22.99
-28.57
-35.56
-42.33
-47.42
-50.03
-50.24
-48.96
-47.53
-47.13
-48.17
-49.93
-50.82
-49.08
-43.76
-35.27
-25.54
-17.41
-13.79
-16.82
-27.07
-43.19
-61.78
-78.01
-86.65
-83.58
-67.1
-38.53
-1.77
38.02
75.73
107.52
131.01
145.31
150.7
148.36
139.96
127.11
110.9
91.76
69.99
46.55
23.43
3.49
-10.59
-17.34
-16.99
-11.11
-1.95
8.25
17.39
23.43
24.6
20
10.23
-2.39
-14.46
-22.75
-25.29
-21.85
-13.77
-3.16
7.54
16.07
20.54
19.81
14.03
4.85
-4.74
-11.44
-12.85
-8.63
-0.71
7.34
11.67
9.61
0.68
-13.25
-28.73
-41.99
-50.45
-53.53
-52.7
-50.57
-49.59
-51.09
-54.89
-59.77
-64.08
-66.32
-65.33
-60.38
-51.55
-40.17
-29.06
-21.84
-21.25
-27.26
-36.28
-42.1
-38.65
-23.02
3
33.55
61.37
80.81
89.74
89.39
82.63
72.09
58.89
42.95
24
2.65
-19.13
-38.51
-52.81
-60.63
-62.38
-60.11
-56.43
-53.37
-51.52
-50.16
-48.18
-45.13
-41.82
-39.89
-40.78
-44.51
-49.44
-52.66
-51.3
-43.77
-30.34
-13.05
5.15
21.21
32.84
38.9
39.57
36.25
31.09
26.39
23.9
24.28
27.14
31.35
35.59
38.98
41.37
43.11
44.61
45.51
44.23
38.1
24.38
1.79
-28.01
-59.9
-86.33
-99.58
-94.45
-70.01
-29.82
19.48
70.22
115.52
150.43
172.16
180.05
175.2
160.16
138.3
113.07
87.23
62.53
39.79
19.37
1.75
-12.35
-22.14
-27.1
-27.33
-23.65
-17.53
-10.74
-5.06
-1.8
-1.45
-3.63
-7.33
-11.51
-15.51
-19.32
-23.21
-27.27
-31.06
-33.76
-34.89
-34.96
-35.72
-39.41
-47.69
-60.56
-76.13
-91.43
-103.63
-111.19
-114.05
-113.28
-110.18
-105.67
-100.24
-94.21
-88.2
-83.28
-80.95
-82.54
-88.59
-98.15
-108.51
-115.66
-115.31
-104.55
-82.99
-53.19
-19.74
12.44
39.8
61.14
77.46
91.07
104.72
121.29
143.73
174.59
214.84
262.39
311.41
353.11
378.49
381.3
360.36
319.65
266.71
209.96
156.53
111.2
76.23
51.78
36.33
27.11
20.83
14.43
5.77
-6.08
-20.9
-37.69
-54.83
-70.22
-81.8
-88.16
-89.35
-86.98
-83.53
-80.75
-78.43
-74.24
-65.02
-48.82
-26.42
-1.47
20.96
36.32
42.3
39.19
29.29
15.66
1.04
-12.72
-24.61
-34.23
-41.54
-46.76
-50.27
-52.61
-54.26
-55.67
-57.16
-59.15
-62.07
-66.31
-71.83
-77.93
-83.36
-86.68
-86.96
-84.2
-79.58
-75.3
-74.18
-79.06
-91.8
-112.26
-137.44
-161.75
-178.3
-181.21
-167.71
-139.01
-99.55
-54.88
-9.8
32.55
70.25
101.53
124.13
135.73
134.92
122.17
100.08
72.67
44.54
19.93
2.04
-7.43
-8.66
-3.89
2.96
7.51
6.44
-1.24
-13.88
-27.96
-39.47
-45.37
-44.15
-35.94
-21.91
-3.77
16.55
37.05
55.71
70.69
80.7
85.36
85.36
82.33
78.54
76.27
77.25
82.11
90.13
99.29
107.02
110.94
109.69
103.33
93.17
81.28
69.69
59.94
52.69
47.85
44.64
41.71
37.34
29.63
17.17
-0.53
-22.53
-46.7
-70.4
-91.36
-108.43
-121.83
-132.9
-143.47
-155.36
-169.75
-186.7
-204.6
-220.04
-228.3
-224.71
-206.62
-174.71
-133.34
-89.13
-48.72
-16.62
5.8
19.82
27.99
32.6
34.8
34.65
31.61
25.38
16.34
5.82
-4.22
-11.71
-15.19
-14.3
-9.85
-3.44
3.14
8.37
11.22
11.02
7.27
-0.25
-11.31
-25.09
-40.24
-55.33
-69.35
-82.07
-93.88
-105.42
-117.1
-128.76
-139.78
-149.54
-157.84
-165.04
-171.76
-178.29
-184.15
-188.15
-188.99
-185.93
-179.24
-170.13
-160.16
-150.49
-141.49
-132.68
-123.13
-111.95
-98.58
-82.8
-64.74
-44.73
-23.33
-1.33
20.26
40.33
57.52
70.19
76.46
74.71
64.15
45.5
21.11
-5.56
-30.68
-51.09
-64.92
-71.83
-72.8
-69.77
-65.07
-60.64
-57.41
-54.78
-50.81
-43.13
-30.17
-12.37
7.44
24.7
34.46
33.16
20.01
-2.57
-29.54
-54.61
-72.19
-79.02
-74.88
-61.97
-43.77
-23.23
-1.86
20.22
43.6
68.7
95.51
123.25
150.2
173.54
189.81
196.19
192.22
181.29
170.14
166.56
175.93
198.54
229.38
260.49
284.57
297.62
299.66
293.2
281.11
265.11
245.61
222.66
196.94
170.11
144.39
122.17
105
93.34
86.44
82.66
80.14
77.41
73.95
70.01
66.12
62.23
57.59
51.32
43.44
35.61
30.82
32.32
41.92
58.97
80.53
102.56
121.9
137.28
149.4
159.67
169.05
177.11
182.36
183.17
178.87
170.48
160.33
151.07
144.45
140.56
137.95
134.42
128.2
118.51
105.82
91.23
76.05
61.39
48.19
37.27
29.33
24.67
22.83
22.73
22.91
22.17
19.98
16.5
12.37
8.44
5.63
4.63
5.54
7.35
7.64
3.11
-9.24
-30.61
-59.31
-90.73
-118.49
-136.44
-140.39
-129.1
-104.23
-69.79
-31.04
6.36
37.56
59.6
72.29
78.4
82.58
89.51
101.65
118.24
135.72
149.73
157.22
157.43
151.6
141.78
129.95
117.77
106.81
98.39
92.72
88.06
80.84
67.18
45.1
16.37
-13.62
-37.71
-49.97
-48.16
-34.41
-14.16
6.2
21.68
30.27
33.18
34.09
37.48
46.88
63.55
86.16
111.49
135.66
155.48
169.34
177.15
179.96
179.16
176.04
171.28
165.03
157.22
147.94
137.57
126.62
115.23
102.88
88.79
72.37
54.02
35.21
17.94
3.92
-6.25
-13.27
-18.83
-24.71
-32.13
-41.25
-51.21
-60.63
-68.21
-73.36
-76.38
-78.34
-80.56
-84.07
-89.2
-95.56
-102.29
-108.62
-114.22
-119.48
-125.27
-132.7
-142.73
-156.03
-172.85
-193.05
-215.8
-239.51
-261.87
-280.6
-294.45
-303.91
-311.32
-319.82
-331.88
-347.85
-365.56
-381.25
-391.16
-393.19
-387.32
-375.02
-357.88
-336.78
-311.82
-283.08
-251.3
-218.06
-185.35
-154.65
-126.52
-100.53
-75.91
-52.17
-29.48
-8.57
9.78
25.08
37.42
47.19
54.78
60.15
62.59
60.99
54.27
42.37
26.61
9.76
-5.15
-16.22
-23.66
-29.7
-37.04
-47.02
-58.46
-68.05
-72.02
-68.26
-57.19
-41.22
-23.09
-4.4
14.66
34.51
54.64
72.9
85.89
90.52
85.63
72.84
56.11
40.21
29.12
24.68
26.36
31.79
37.96
42.53
44.63
45
45.24
46.69
49.5
52.4
53.57
51.73
46.95
40.46
33.81
27.83
22.28
16.39
9.81
3.08
-2.73
-6.88
-9.8
-12.77
-17.01
-22.5
-27.77
-30.75
-30.3
-27.39
-24.86
-26.09
-33.29
-46.38
-63
-79.36
-91.38
-95.45
-88.94
-70.66
-41.29
-3.87
36.67
74.63
105.22
125.89
136.66
139.3
136.12
128.9
118.73
106.56
93.86
82.7
75.17
72.36
73.76
77.28
80.19
80.35
77.14
71.47
65.06
59.4
54.9
50.8
45.73
38.68
29.64
19.74
10.61
3.48
-1.34
-4.55
-7.29
-10.54
-14.72
-19.61
-24.62
-29
-31.98
-32.96
-31.76
-28.7
-24.72
-21.06
-18.78
-18.33
-19.43
-21.3
-23.17
-24.7
-26.07
-27.67
-29.61
-31.41
-32.1
-30.71
-26.87
-21.09
-14.66
-9.14
-5.84
-5.4
-7.74
-12.3
-18.39
-25.44
-33.08
-41.2
-49.88
-59.34
-69.7
-80.77
-91.71
-101.1
-107.47
-109.87
-108.56
-104.95
-101.22
-99.54
-101.51
-107.56
-116.73
-126.45
-132.77
-131.21
-118.07
-92.16
-55.74
-14.31
25.17
56.7
77.12
86.69
87.86
83.61
76.03
66.09
54.36
41.83
30.23
21.53
17.12
17.2
20.84
26.52
32.74
38.52
43.33
47.05
49.76
51.56
52.43
52.09
50.1
45.94
39.5
31.13
21.79
12.7
4.97
-0.66
-4.01
-5.29
-5.06
-3.9
-2.5
-1.41
-1.07
-1.67
-3.09
-4.99
-6.98
-9.04
-11.51
-15.36
-21.71
-31.31
-43.92
-57.89
-70.66
-79.71
-83.75
-83.14
-79.77
-75.95
-73.62
-73.87
-76.99
-82.67
-89.61
-95.2
-95.61
-86.86
-66.62
-35.69
1.59
38.99
70.63
93.15
106.2
111.49
111.13
106.47
97.95
85.74
70.61
54.01
37.76
23.39
11.71
2.95
-3.08
-6.55
-7.69
-6.72
-4
-0.1
4.19
7.91
10.19
10.35
8.31
4.62
0.26
-3.8
-7.05
-9.58
-11.83
-14.02
-15.84
-16.4
-14.76
-10.66
-4.82
1.06
5.03
5.6
2.41
-3.81
-11.59
-19.35
-25.91
-30.7
-33.61
-34.81
-34.82
-34.61
-35.8
-40.16
-48.68
-60.41
-71.92
-78.26
-74.78
-59.45
-33.96
-3.14
27.18
52.44
70.63
82.06
88
89.6
87.39
81.79
73.65
64.39
55.54
48.07
42.27
37.89
34.8
33.33
34.06
37.52
43.66
51.71
60.07
66.73
69.6
67.22
59.24
46.8
32.28
18.43
7.6
0.95
-1.37
0.01
4.38
11.03
19.04
27.13
33.57
36.83
36.09
31.77
25.27
18.23
11.71
5.78
-0.09
-6.51
-13.35
-19.74
-24.48
-26.8
-26.9
-25.99
-25.77
-27.52
-31.59
-37.22
-43.06
-47.94
-51.43
-54.12
-57.19
-61.8
-68.24
-75.91
-83.51
-89.84
-94.4
-97.47
-99.9
-102.41
-105.58
-109.9
-116.1
-125.05
-136.88
-149.98
-160.54
-163.67
-155.27
-134.38
-103.97
-69.95
-38.72
-14.6
1.27
10.59
15.88
19.02
20.39
19.4
15.7
10.08
4.69
1.99
3.75
10.11
19.53
29.66
38.43
45.1
50.31
55.56
62.01
69.68
77.17
82.19
82.5
77.04
66.55
53.37
40.75
31.44
26.54
25.11
24.76
23.07
18.9
13.04
7.44
3.77
2.28
1.6
-0.14
-3.96
-9.23
-14.3
-17.67
-19.03
-19.25
-19.71
-21.44
-24.77
-29.84
-36.69
-45.29
-54.81
-63.08
-66.85
-62.9
-49.61
-27.65
0.33
31.02
61.4
89.29
112.82
129.99
138.67
137.38
126.35
107.84
85.76
64.3
46.67
34.27
26.77
22.79
20.74
19.53
18.8
18.7
19.44
20.86
22.33
22.91
22.03
19.71
16.77
14.11
12.18
10.6
8.37
4.64
-0.69
-6.56
-11.31
-13.49
-12.73
-9.91
-6.82
-5.29
-6.45
-10.38
-16.2
-22.72
-28.9
-34.24
-38.65
-42.17
-44.86
-46.92
-48.93
-51.87
-56.5
-62.52
-67.96
-69.52
-63.77
-48.87
-25.58
2.83
31.91
57.62
77.48
90.75
97.77
99.29
96.05
88.89
78.94
67.73
56.84
47.54
40.47
35.65
32.76
31.23
30.6
30.54
30.86
31.54
32.37
32.96
32.66
30.95
27.7
23.42
18.87
14.58
10.52
6.29
1.81
-2.17
-4.16
-2.87
1.69
7.65
11.94
11.84
6.3
-3.45
-14.71
-24.83
-32.15
-36.26
-37.29
-35.17
-29.45
-19.91
-7.22
6.71
19.19
27.71
30.62
27.43
18.52
5.03
-11.56
-29.18
-45.52
-58.49
-66.74
-70.13
-69.62
-66.91
-64
-62.94
-65.28
-71.57
-80.52
-88.67
-91.17
-83.43
-63.4
-32.89
2.8
37.03
64.48
82.8
92.83
96.87
97.05
94.27
88.37
79.14
67.18
54.09
41.79
31.9
24.95
20.61
18
16.24
14.85
13.79
13.35
13.64
14.46
15.05
14.48
12.08
7.78
2.24
-3.56
-8.69
-12.6
-15
-15.81
-14.93
-12.27
-8.1
-3.02
1.9
5.54
7.16
6.83
5.43
4.19
4.19
5.58
7.72
9.45
9.87
8.86
7.09
5.55
4.77
4.54
3.9
1.93
-1.55
-5.7
-8.95
-9.96
-8.29
-4.92
-1.72
-0.81
-3.59
-10.37
-20.64
-33.59
-48.68
-65.33
-82.3
-96.78
-104.66
-101.78
-86.09
-59.11
-25.71
7.67
35.68
55.71
67.96
74.06
75.47
72.73
65.82
55.18
42.09
28.53
16.34
6.63
-0.5
-5.65
-9.69
-13.52
-17.6
-21.82
-25.39
-27.28
-26.96
-25.04
-23.41
-24.27
-29.1
-37.6
-47.97
-57.87
-65.54
-70.29
-72.11
-71.2
-67.48
-61.04
-52.62
-43.89
-36.85
-33.05
-32.78
-34.98
-38.19
-41.23
-43.93
-46.85
-50.67
-55.57
-60.9
-65.53
-68.26
-68.46
-66.24
-62.6
-59.18
-57.67
-59.12
-63.08
-67.44
-68.76
-63.66
-50.38
-29.62
-4.33
21.7
45.32
65.01
80.62
92.62
101.06
105.31
104.39
97.73
85.86
70.44
53.97
39.03
27.75
21.34
19.93
22.64
27.86
33.76
38.66
41.38
41.38
38.75
34.04
27.96
21.19
14.08
6.87
-0.12
-6.13
-10.01
-10.84
-8.69
-5.16
-2.79
-3.95
-9.34
-17.53
-25.63
-30.8
-31.81
-29.35
-25.65
-23.03
-23.43
-27.92
-36.77
-49.18
-62.74
-73.05
-74.41
-62.06
-34.64
4.25
46.83
84.2
109.85
121.92
122.86
117.14
108.37
97.77
84.57
67.88
48.43
28.98
13.3
4.07
1.74
4.31
8.68
12.33
14.32
15.3
16.36
18.2
20.23
21.01
19.15
14.1
6.58
-1.91
-9.58
-15.05
-17.53
-16.98
-13.99
-9.93
-6.63
-5.88
-8.8
-15.13
-23.49
-31.88
-38.65
-43
-45.03
-45.33
-44.57
-43.63
-43.62
-45.91
-51.29
-59.07
-66.47
-69.38
-64.14
-49.33
-26.65
0.02
26.24
48.77
66.09
77.81
83.82
83.78
77.55
65.87
50.83
35.38
22.35
13.47
8.87
7.61
8.18
9.41
10.67
11.95
13.47
15.38
17.55
19.48
20.65
20.7
19.7
17.99
15.97
13.82
11.57
9.31
7.3
6.06
5.9
6.76
8.12
9.16
9.14
7.43
3.68
-2.28
-10.13
-19.03
-27.6
-34.42
-38.61
-40.18
-39.94
-38.92
-38.07
-38.2
-40.2
-44.93
-52.55
-61.78
-69.5
-71.66
-65.03
-48.94
-25.73
0.24
24.39
43.6
56.58
63.55
65.22
62.42
56.02
47.18
37.22
27.26
17.92
9.29
1.52
-4.84
-8.74
-9.06
-5.36
1.8
10.69
19.02
24.56
25.94
23.02
16.87
9.52
2.96
-1.44
-3.61
-4.6
-6.19
-10.02
-16.81
-25.76
-34.23
-38.42
-34.17
-18.71
7.94
41.96
76.34
102.92
115.12
110.46
91.08
62.76
32.21
4.66
-17.52
-34.55
-47.77
-58.46
-67.18
-74.22
-79.95
-84.83
-88.78
-90.44
-87.47
-77.42
-59.24
-34
-4.67
25.13
52.25
74.66
91.15
100.8
102.93
97.42
85.39
69.27
52.06
36.32
23.36
13.45
6.6
3.38
4.84
11.78
23.75
38.6
53.02
63.75
68.8
67.9
62.25
53.71
44.05
34.62
26.37
20.03
16
14.37
14.64
15.84
16.81
16.42
14.01
9.37
2.83
-5.06
-13.66
-22.49
-31.1
-38.91
-45.16
-49
-50.13
-49.12
-47.75
-48.48
-53.69
-64.79
-81.42
-101.49
-121.38
-136.83
-143.88
-139.97
-124.71
-100.11
-70.12
-39.55
-12.79
7.19
19.11
23.36
21.56
16.02
9.42
4.24
2.31
4.3
9.77
17.37
25.48
32.61
37.57
39.31
36.85
29.33
16.27
-1.77
-22.94
-43.8
-59.64
-65.39
-57.11
-33.55
2.87
46.25
88.77
123.03
143.99
149.77
141.24
121.02
92.38
58.97
24.61
-6.9
-32.47
-50.55
-61.39
-66.72
-68.76
-69.33
-69.63
-70.61
-73.31
-78.52
-86.14
-94.38
-100
-99.59
-91.15
-75.07
-53.94
-31.17
-9.53
9.57
26.1
40.49
52.97
63.47
71.87
78.4
83.63
88.12
92.06
95.34
97.8
99.51
100.82
102.17
103.84
105.71
107.61
109.38
110.99
112.23
112.37
110.16
104.29
94.13
79.98
62.74
43.1
20.98
-4.4
-33.92
-67.75
-105.16
-144.82
-185.46
-226.01
-264.93
-299.47
-325.63
-339.56
-339.52
-327.39
-308.14
-287.62
-269.8
-255.2
-241.47
-225.47
-205.63
-182.77
-159.32
-137.35
-117.11
-96.96
-74.87
-50.23
-24.74
-1.76
15.62
26.25
31.54
34.7
39.19
47.12
58.82
73.55
90.2
108.03
126.62
145.42
163.37
178.57
188.65
191.12
184.14
167.08
141.16
109.59
77
48.12
26.14
11.76
3.18
-2.56
-7.96
-14.15
-20.87
-27.64
-34.69
-43.11
-53.97
-67.42
-82.26
-96.43
-107.76
-114.78
-116.85
-113.69
-105.07
-90.71
-70.7
-45.89
-17.95
10.84
38.38
62.98
83.62
99.81
111.4
118.33
120.38
116.98
107.23
90.6
67.8
41.69
17.27
0.46
-3.9
6.2
29.17
60.46
94.33
125.59
150.81
168.37
178.03
180.28
176.2
167.38
155.81
143.74
133.23
125.72
121.86
121.52
124.14
128.97
135.14
141.62
147.24
150.93
152
150.44
146.59
140.67
132.24
120.24
103.69
82.74
59.2
36.02
16.03
0.19
-13.05
-27.29
-46.31
-72.23
-104.31
-139.1
-171.53
-196.45
-209.93
-210.02
-197
-173.12
-142
-107.76
-74.36
-45.03
-21.94
-6.27
1.81
3.2
-0.31
-6.42
-13.1
-19.17
-24.56
-29.62
-34.22
-37.18
-36.53
-30.75
-19.83
-5.76
8.41
19.83
27.19
30.78
31.91
31.97
31.94
32.56
34.67
39.16
46.34
55.11
62.79
66.09
62.86
53.35
40.48
28.47
20.88
19.22
22.67
28.93
35.33
39.74
40.82
38.15
32.23
24.49
17
11.55
8.66
7.12
4.68
-0.68
-9.38
-19.92
-29.98
-37.98
-44.02
-49.54
-56.02
-63.88
-72.34
-80.28
-87.33
-93.92
-100.25
-105.22
-105.98
-99.09
-82.56
-57.22
-26.79
3.77
30.18
50.09
62.91
68.96
68.73
62.85
52.84
41.26
31.18
24.82
22.55
22.95
23.94
24.17
23.61
23.31
24.29
26.93
30.74
34.89
38.59
41.29
42.48
41.65
38.47
32.96
25.77
17.99
10.7
4.7
0.29
-2.41
-3.5
-3.27
-2.62
-3.01
-6.02
-12.7
-22.83
-34.96
-47.04
-57.4
-65.51
-72.12
-78.43
-85.2
-92.02
-97.43
-99.88
-98.6
-94.21
-88.32
-82.64
-78.19
-75.21
-73.66
-73.78
-76.13
-80.79
-86.48
-90.32
-88.77
-79.33
-61.88
-38.79
-13.67
10.43
32.32
52.54
72.03
90.64
106.53
116.88
119.48
114.22
103.35
90.62
79.75
73.01
70.84
72.17
75.32
78.7
81.19
82
80.57
76.57
70.13
61.94
53.12
44.73
37.23
30.49
24.02
17.59
11.55
6.72
3.79
2.71
2.63
2.17
0.29
-3.28
-7.93
-12.75
-17.3
-21.84
-27.13
-33.51
-40.29
-45.79
-48.5
-48.24
-46.65
-46.52
-49.78
-56.03
-62.11
-63.51
-56.73
-41.11
-19.17
5
27.67
47.09
63.26
76.81
87.63
94.48
95.66
90.2
78.79
63.69
48.09
34.94
26.15
22.25
22.56
25.62
29.75
33.49
35.92
36.61
35.57
32.93
28.86
23.46
16.97
9.84
2.79
-3.25
-7.48
-9.64
-10.11
-9.95
-10.44
-12.48
-16.33
-21.56
-27.28
-32.67
-37.15
-40.56
-43.09
-45.29
-47.73
-50.92
-55.05
-59.94
-65.35
-71.17
-77.59
-84.59
-91.34
-95.81
-95.14
-86.94
-70.5
-47.42
-20.88
5.76
30.23
51.6
69.55
83.38
91.84
93.76
89.04
79.19
66.91
54.88
44.87
37.34
31.93
28.06
25.51
24.26
24.27
25.22
26.53
27.63
28.09
27.74
26.37
23.8
19.81
14.46
8.23
2.02
-2.99
-5.78
-5.86
-3.62
-0.21
2.75
3.76
1.87
-3.12
-10.72
-20.06
-30.04
-39.51
-47.44
-53.1
-56.21
-57.12
-56.86
-56.87
-58.73
-63.56
-71.32
-80.43
-87.88
-90.1
-84.28
-69.67
-47.86
-22.18
3.68
26.97
46.28
61.02
70.58
74.01
70.47
60.11
44.7
27.36
11.41
-0.77
-8.44
-12.34
-13.82
-14.09
-13.74
-12.89
-11.62
-10.34
-9.97
-11.45
-15.31
-21.07
-27.15
-31.59
-32.92
-31.12
-27.8
-25.41
-25.93
-29.87
-36.07
-42.52
-47.49
-50.29
-51.35
-51.55
-51.7
-52.32
-54
-57.6
-63.87
-72.6
-81.76
-87.74
-86.65
-76.53
-58.9
-38.74
-22.55
-15.26
-17.9
-26.81
-35.56
-37.92
-30.76
-15.06
5.11
24.98
41.3
53.12
61.28
66.75
69.61
68.86
63.19
52.3
37.4
21
5.76
-6.29
-14.41
-18.73
-19.74
-18.04
-14.24
-9.24
-4.2
-0.21
2.23
3.46
4.47
6.46
10.01
14.85
19.99
24.3
26.99
28.04
27.98
27.58
27.42
27.58
27.71
27.18
25.36
21.93
16.94
10.66
3.2
-5.51
-15.8
-27.53
-39.56
-49.56
-54.47
-51.53
-39.39
-18.77
7.77
36.6
64.26
88.04
106.2
117.67
121.67
117.72
106.01
87.81
65.51
42.21
20.98
4.13
-7.23
-13.25
-15.09
-14.59
-13.79
-14.63
-18.36
-25.11
-33.71
-41.77
-46.76
-47.14
-43.11
-36.48
-29.63
-24.23
-20.5
-17.68
-14.99
-12.82
-12.88
-17.46
-28.04
-44.28
-64.09
-84.44
-102.51
-116.23
-124.26
-125.4
-118.53
-103.01
-79.17
-48.74
-14.25
22.17
60.06
100.83
146.44
197.06
249.11
295.19
326.1
334.37
317.41
278.59
225.91
169.06
116.24
72.33
38.87
15.18
-0.15
-8.57
-11.56
-10.98
-9.27
-8.99
-12.17
-19.55
-30.4
-42.63
-53.69
-61.51
-65.15
-64.98
-62.23
-58.29
-54.17
-50.32
-46.86
-43.95
-42.11
-42.04
-44.46
-49.64
-57.05
-65.43
-73.1
-78.6
-81.48
-82.62
-83.82
-86.76
-91.67
-96.81
-99.01
-95.05
-83.33
-64.4
-40.36
-13.53
14.48
42.77
70.38
95.46
115.4
127.66
131.09
126.6
116.9
105.37
94.76
86.49
80.5
75.81
71.04
64.88
56.38
45.05
30.79
14.01
-4.39
-23.04
-40.09
-53.54
-61.83
-64.33
-61.66
-55.37
-47.22
-38.52
-30.15
-22.68
-16.91
-13.74
-13.7
-16.43
-20.48
-24.1
-26.18
-27.16
-28.76
-33.01
-40.91
-51.65
-62.98
-72.3
-78.03
-80.26
-80.54
-80.96
-83.21
-88.13
-95.76
-105.82
-117.69
-130.11
-140.75
-146.25
-143.11
-129.06
-104.26
-71.35
-34.64
1.48
33.62
59.85
79.28
91.58
96.86
95.76
89.66
80.47
70.04
59.71
50.13
41.56
34.25
28.42
24.01
20.6
17.49
14.16
10.6
7.3
4.85
3.38
2.49
1.42
-0.53
-3.79
-8.64
-15.18
-23.32
-32.31
-40.69
-46.51
-48.19
-45.27
-38.66
-30.14
-21.4
-13.58
-7.25
-2.9
-1.14
-2.51
-6.78
-12.53
-17.49
-19.51
-17.62
-12.6
-6.48
-1.66
-0.12
-2.94
-10.08
-20.25
-30.84
-38.29
-38.99
-30.67
-13.45
10.04
35.72
59.71
79.58
94.78
105.88
113.58
117.97
118.5
114.69
106.65
95.32
82.18
68.82
56.59
46.52
39.42
35.76
35.75
39.23
45.62
53.85
62.52
69.98
74.6
75.14
71.01
62.64
51.36
39.11
27.82
18.78
12.34
7.91
4.64
1.96
-0
-0.61
0.7
3.63
6.77
7.91
5.03
-2.44
-12.95
-23.1
-28.84
-27.48
-19.36
-8.37
-1.06
-4.6
-24.46
-62.52
-116.17
-178.52
-239.76
-289.45
-319.03
-324.09
-305.34
-267.9
-219.23
-166.43
-114.06
-63.45
-13.62
36.69
87.12
134.82
175.18
203.51
217
215.83
203.05
183.5
162.13
142.52
126.42
114.1
105.2
99.35
96.36
95.79
96.53
96.75
94.26
87.41
75.75
60.31
43.34
27.51
14.98
6.71
2.35
0.68
0.39
0.6
1.12
2.04
3.34
4.44
4.37
2.08
-3.17
-11.27
-21.3
-31.47
-39.5
-43.02
-40.28
-30.74
-15.61
2.16
18.62
29.83
33.05
27.33
13.51
-6.36
-29.56
-53.28
-74.89
-92.15
-103.49
-108.36
-107.52
-103.19
-98.77
-97.87
-103
-114.33
-129.21
-142.84
-149.85
-146.24
-130.7
-104.78
-71.88
-35.9
-0.12
32.99
61.46
83.52
97.9
104.37
104.16
99.64
93.38
87.19
81.74
77.03
73.12
70.58
70.12
71.99
75.41
78.9
81.17
81.95
82.32
83.83
87.33
92.1
96.03
96.52
91.83
81.74
67.56
51.35
34.99
19.66
5.78
-6.68
-17.83
-27.67
-36.07
-42.88
-47.96
-51.31
-52.98
-53.16
-52.12
-50.13
-47.28
-43.45
-38.58
-32.86
-27.09
-22.44
-20.05
-20.54
-23.6
-28.21
-33.11
-37.51
-41.25
-44.61
-47.73
-50.34
-51.82
-51.72
-50.39
-49.2
-50.26
-55.45
-65.52
-79.65
-95.99
-112.65
-128.45
-142.96
-155.4
-163.72
-164.45
-154.1
-131.25
-97.98
-59.46
-21.65
11.28
38.48
61.66
82.83
102.29
118.07
127.29
128.17
121.3
109.12
94.65
80.01
66.13
53.36
42.13
33.32
27.81
25.99
27.51
31.51
36.98
42.89
48.16
51.62
52.34
50.02
45.33
39.69
34.54
30.75
28.25
26.41
24.57
22.55
20.6
18.9
17.36
15.72
13.91
12.03
10.03
6.87
0.34
-12.21
-32.38
-59.12
-88.51
-114.88
-133.19
-140.94
-138.91
-130.02
-117.58
-103.79
-89.4
-74.7
-60.49
-48.6
-41.24
-39.94
-44.71
-54.14
-66.17
-79.09
-92.02
-104.51
-115.71
-123.73
-125.85
-119.5
-103.44
-78.51
-47.41
-13.79
18.78
47.67
71.29
88.9
100.17
105.06
103.89
97.77
88.77
79.64
73.05
70.49
71.57
74.03
74.75
71.11
62.32
49.71
35.98
24
15.67
11.66
11.75
15.39
21.92
30.33
39.18
46.71
51.45
52.83
51.22
47.53
42.56
36.72
30.23
23.49
17.31
12.64
9.78
7.95
5.57
1.09
-6.08
-15.21
-24.74
-33.22
-39.92
-44.94
-48.76
-51.86
-54.81
-58.48
-64.1
-72.46
-82.88
-92.51
-96.97
-92.26
-76.71
-51.94
-21.91
9.13
38.52
65.61
90.67
113.2
131.2
141.84
143.18
135.53
121.53
104.97
89.18
75.93
65.52
57.52
51.62
47.86
46.5
47.55
50.43
53.97
56.59
56.84
53.83
47.66
39.47
30.95
23.69
18.48
15.18
12.9
10.69
7.82
4.03
-0.68
-6.13
-12.01
-17.84
-23.06
-27.36
-30.87
-34.37
-38.85
-44.91
-52.39
-60.33
-67.54
-73.22
-77.25
-80.05
-82.27
-84.52
-87.43
-92
-99.32
-110.01
-123.17
-135.88
-143.82
-142.8
-130.77
-108.76
-80.43
-50.2
-21.25
5.39
30.29
54.02
75.81
93.37
104.05
106.36
101.02
90.72
78.97
68.73
61.56
57.55
55.77
55
54.3
53.25
51.98
50.81
49.93
49.12
47.84
45.54
42.12
38.07
34.25
31.47
30
29.63
29.96
30.74
31.95
33.42
34.57
34.34
31.65
26.05
18.22
9.75
2.34
-3.09
-7.04
-11.19
-17.56
-27.36
-40.31
-54.77
-68.61
-80.31
-89.54
-97.04
-104.07
-111.65
-120.4
-130.6
-142.3
-155.04
-167.21
-175.79
-176.98
-167.67
-147.14
-117.71
-83.83
-50.28
-20.25
5.2
26.49
44.04
57.43
65.28
66.12
59.23
45.35
26.82
7.62
-7.02
-11.54
-1.73
23.28
59.82
100.17
134.89
156.16
160.45
149.12
127.2
100.96
75.58
54.18
37.74
25.86
17.46
11.24
5.87
0.27
-6.19
-13.48
-20.62
-25.85
-27.09
-22.99
-14.1
-3.63
3.08
0.3
-15.57
-44.07
-80.3
-116.69
-145.83
-163.11
-168.01
-163.49
-154.2
-144.43
-136.46
-130.09
-123.05
-112.37
-95.7
-72.43
-43.85
-12.4
19.54
50.44
79.49
105.74
127.32
141.6
146.32
141.14
128.31
112.09
96.95
85.88
79.65
77.26
77.14
77.96
78.92
79.43
78.78
76.31
71.69
65.18
57.43
49.11
40.48
31.52
22.36
13.6
6.23
1.06
-1.89
-3.69
-5.96
-10.04
-16.2
-23.61
-30.9
-37.03
-41.83
-45.75
-49.35
-52.78
-55.85
-58.51
-61.28
-65.18
-70.83
-77.57
-83.07
-84.09
-77.88
-63.62
-42.73
-18.04
7.69
32.83
56.93
79.9
101.06
118.87
131.4
137.34
136.79
131.25
123.02
114.28
106.43
99.91
94.57
90.14
86.5
83.82
82.27
81.77
81.82
81.67
80.58
78.17
74.52
69.8
63.83
55.76
44.35
28.73
9.1
-12.83
-34.21
-51.93
-63.6
-68.11
-65.85
-58.34
-47.98
-37.72
-30.51
-28.82
-33.83
-45
-60.04
-75.61
-88.53
-96.85
-100.76
-102.34
-104.84
-111.47
-124.25
-143.23
-166.19
-188.9
-205.79
-211.47
-202.41
-178.5
-143.64
-104.6
-68.63
-40.67
-21.66
-8.75
2.37
14.53
27.26
37.14
40.21
34.51
21.6
5.55
-9.33
-20.87
-29.89
-39.06
-50.89
-65.83
-82.19
-97.13
-108.57
-116.28
-121.76
-126.95
-132.89
-139.12
-144.29
-147.39
-148.54
-148.82
-149.16
-149.12
-146.95
-140.67
-130.01
-117.21
-106.34
-100.85
-101.19
-104.13
-104.29
-97.39
-82.81
-64.4
-48.69
-42
-47.82
-65.73
-91.95
-120.79
-146.36
-163.89
-170.56
-165.87
-151.4
-129.94
-104.27
-76.24
-46.53
-15.37
16.55
47.59
75.71
99.73
120.29
139.73
160.66
184.41
210.16
235.42
257.21
273.14
281.9
282.96
276.57
264.01
248.26
234.14
227.55
233.83
255.71
291.95
337.11
382.83
420.01
441.44
444.09
430.01
405.48
378.33
354.57
335.86
319.74
302.27
281.29
258.15
236.29
217.96
201.46
181.41
152.35
113.44
70.89
36.22
20.88
30.3
60.9
101.62
138.86
161.94
166.47
154.1
129.85
98.93
64.44
27.2
-13.24
-57.22
-103.76
-150.39
-193.68
-230.21
-257.41
-274.22
-280.97
-279.1
-270.86
-258.76
-245.56
-233.96
-226.12
-223.02
-224.1
-227.38
-230.29
-230.88
-228.54
-224.09
-219.05
-214.7
-211.52
-209.11
-206.3
-201.38
-192.25
-176.78
-153.6
-122.98
-87.47
-51.42
-19.61
4.61
20.49
29.82
35.53
39.79
42.92
43.49
39.64
30.64
17.69
3.74
-7.78
-14.26
-14.7
-9.74
-1.01
9.61
20.49
30.46
38.98
46.23
53.24
61.83
74.14
91.75
114.6
140.45
165.25
184.72
196.3
200.64
201.6
204.23
212.14
225.36
240.29
251.7
255.61
251.42
241.83
231.06
222.63
218.18
217.71
220.71
226.83
235.41
244.64
251.36
252.21
245.5
232.72
218
205.77
198.21
193.7
187.8
175.62
154.51
125.1
90.54
54.52
19.2
-15.07
-49.3
-84.29
-119.47
-152.9
-182.6
-207.99
-230.43
-252.39
-275.35
-297.97
-315.64
-322.03
-311.88
-283.21
-238.01
-181.17
-118.73
-56.7
-0.84
43.23
70.42
77.26
63.51
32.72
-8.57
-53.2
-95.79
-134.18
-169.24
-203.43
-239.67
-279.87
-324.47
-372.18
-419.96
-463.73
-499.9
-527.03
-546.46
-561.45
-574.85
-586.92
-594.58
-592.83
-577.65
-548.5
-509.04
-465.56
-424
-387.49
-355.8
-326.67
-297.93
-269.03
-241.05
-215.73
-193.97
-175.08
-157
-137.29
-114.22
-87.55
-58.59
-29.51
-2.42
21.56
42.74
62.64
83.19
105.8
130.87
157.68
185.43
213.8
243.49
275.2
308.21
339.59
364.87
380.37
385.64
384.21
381.93
383.58
390
397.59
400.59
394.53
378.63
355.63
329.57
303.32
277.71
252.54
228.23
206.43
188.69
174.55
160.66
142.04
114.9
79.55
41.23
8.26
-11.39
-13.8
-0.65
21.61
44.58
61.33
68.74
67.99
63.25
59.47
60.21
66.39
76.14
85.57
90.21
86.45
72.86
50.82
24.36
-1.1
-20.77
-32.31
-36.78
-37.8
-39.56
-44.56
-52.51
-60.87
-66.7
-68.44
-66.67
-63.48
-60.91
-59.66
-58.89
-57.1
-53.43
-48.58
-44.7
-44.17
-48.31
-56.34
-65.53
-72.23
-73.57
-68.8
-59.68
-49.65
-42.12
-38.74
-38.64
-38.91
-36.1
-28.03
-14.82
1.11
16.1
26.67
30.55
26.98
16.41
0.21
-19.32
-38.61
-52.79
-56.65
-46.36
-21.41
14.54
54.94
93.09
124.95
150.15
170.68
188.13
201.47
207.36
202.65
187.59
167.21
149.56
141.72
145.84
157.77
168.98
170.83
158.46
132.45
97.74
60.71
26.43
-2.74
-26.85
-47.04
-64.18
-78.37
-89.16
-96.17
-99.47
-99.57
-97.04
-92.15
-84.74
-74.41
-60.93
-44.58
-26.26
-7.38
10.43
25.71
37.53
45.67
50.66
53.37
54.39
53.44
49.14
39.74
24.23
3.2
-21.04
-45.52
-68.01
-87.86
-105.68
-122.12
-136.65
-147.4
-152.16
-150.13
-142.94
-134.35
-128.56
-128.07
-132.51
-138.5
-141.05
-135.35
-118.45
-90.2
-53.31
-12.56
26.61
59.55
83.67
98.63
105.67
106.53
102.47
94.13
81.96
67.03
51.15
36.55
24.95
16.89
11.68
7.95
4.55
1.09
-1.86
-3.1
-1.43
3.6
11.21
19.36
25.16
25.85
19.67
6.68
-11.35
-31.46
-50.61
-66.66
-78.78
-87.52
-94.23
-100.46
-107.34
-115.11
-123.05
-129.53
-132.65
-130.91
-123.79
-111.89
-96.68
-80.1
-64.08
-50.51
-41.04
-36.88
-38.19
-43.57
-49.79
-52.39
-46.96
-30.73
-3.82
30.67
67.65
101.81
129.31
148.66
160.46
166.32
167.7
165.21
158.62
147.51
132
113.01
92.07
70.86
50.77
32.81
17.6
5.52
-3.44
-10.11
-16.32
-24.77
-38.05
-57.3
-81.05
-105.18
-124.05
-132.67
-128.77
-113.8
-92.4
-70.44
-52.66
-41.13
-35.04
-31.93
-29.32
-26.01
-22.27
-19.11
-17.36
-17.09
-17.57
-17.96
-18
-18.41
-20.56
-25.48
-32.73
-39.81
-42.54
-36.37
-18.14
12.48
52.46
96.16
137.04
169.59
190.87
200.79
201.39
195.59
185.94
174.08
160.74
146.18
130.73
114.96
99.6
85.28
72.29
60.55
49.73
39.51
29.76
20.67
12.66
6.16
1.32
-2.2
-5.21
-8.7
-13.33
-19.14
-25.66
-32.18
-38.27
-43.96
-49.6
-55.5
-61.65
-67.65
-73.12
-77.92
-82.29
-86.58
-91.04
-95.67
-100.26
-104.27
-106.67
-105.71
-98.93
-83.93
-59.42
-26.19
12.63
52.38
88.33
117
136.8
147.74
150.81
147.32
138.85
127.35
115.07
104.2
96.2
91.25
88.24
85.31
80.55
72.96
62.9
52.07
42.81
37.29
36.61
40.39
47.03
54.4
60.62
64.54
65.84
64.79
61.99
58.32
55.03
53.67
55.64
61.52
70.35
79.7
86.35
87.49
81.95
70.62
56.22
42.35
32.55
29.65
35.06
48.5
67.54
87.68
102.94
107.49
97.72
74.03
41.12
6.37
-23.24
-44.14
-57.49
-68.15
-81.6
-101.02
-125.67
-151.62
-174.31
-191.1
-202.55
-211.7
-221.94
-234.81
-248.96
-260.88
-266.81
-264.79
-255.69
-242.86
-230.52
-221.45
-215.53
-209.64
-199.32
-181.34
-155.93
-127.16
-101.13
-82.65
-72.4
-66.25
-57.4
-40.18
-13.53
17.96
46.11
62.98
64.53
52.11
31.23
8.72
-10.11
-22.7
-28.84
-29.17
-24.03
-13.4
2.28
21.26
40.28
55.43
63.68
63.9
56.86
44.21
27.14
5.94
-19.15
-46.61
-72.67
-92.01
-100.03
-95.38
-81.24
-64.22
-51.38
-46.69
-49.79
-56.96
-63.88
-68.11
-69.97
-71.55
-75.16
-82.18
-92.24
-104.85
-120.08
-138.49
-160.22
-184.06
-207.28
-226.46
-238.66
-240.38
-229.46
-205.31
-169.2
-124.32
-75.2
-26.58
17.75
55.71
90.01
124.65
163.06
206.35
252.75
298.84
341.24
377.92
408.42
437.28
469.71
509.97
559.87
618.55
683.64
752.93
825.15
875.6
883.69
835.96
733.05
590.4
430.73
274.63
135.31
18.32
-76.41
-148.52
-199.09
-230.23
-245.47
-249.55
-247.34
-242.75
-238.31
-235.34
-231.41
-223.53
-209.78
-191.2
-172.45
-160.33
-160.94
-176.8
-205.55
-239
-267.57
-283.93
-285.61
-275.17
-257.64
-237.44
-216.48
-194.48
-169.88
-142.33
-113.72
-87.63
-67.83
-56.56
-53.65
-56.66
-62.21
-67.35
-70.69
-72.33
-72.66
-70.99
-65.05
-51.91
-30.05
-0.63
31.45
59.15
76.04
78.86
68.75
50.01
27.97
6.69
-12.01
-28.17
-42.36
-54.56
-63.92
-69.27
-69.99
-66.42
-59.65
-50.93
-40.93
-29.51
-16.38
-2.14
11.12
20.15
22
15.37
1.78
-15.03
-30.55
-41.38
-46.02
-44.66
-38.25
-27.73
-14.15
1.35
17.25
31.52
42.2
48.05
48.9
45.53
38.95
29.58
17.91
4.9
-7.34
-15.47
-15.36
-3.28
22.71
64.23
118.09
178.15
237.53
290.84
335.4
370.72
396.81
412.68
416.13
404.53
377.35
337.21
289.22
239.27
191.68
148.05
107.66
68.67
29.34
-10.76
-50.69
-88.41
-121.24
-146.42
-162.01
-167.8
-165.98
-160.89
-157.28
-158.14
-163.3
-169.54
-172.39
-168.63
-157.93
-142.77
-126.83
-112.76
-100.91
-89.8
-77.61
-63.87
-49.99
-38.55
-32.03
-31.3
-35.25
-41.4
-47.2
-51.16
-53.4
-55.21
-58.08
-62.82
-69.16
-76.04
-82.35
-87.46
-91.42
-94.67
-97.61
-100.4
-103.35
-107.4
-114.59
-127.64
-148.81
-178.2
-212.66
-245.9
-269.96
-277.6
-264.51
-230.67
-180.4
-121.28
-62.31
-11.87
24.13
43.56
48.21
42.86
33.23
23.9
16.83
11.33
5.32
-2.92
-13.44
-24.48
-33.33
-37.59
-36.03
-28.75
-16.67
-0.92
17.48
37.55
58.02
77.17
92.91
103.23
106.81
103.47
94.41
81.83
68.22
55.44
44.05
33.29
21.59
7.59
-9.16
-27.73
-46.32
-62.77
-75.54
-84.12
-88.98
-91.14
-91.85
-92.38
-93.93
-97.6
-103.92
-112.23
-120.28
-124.3
-120.16
-104.77
-77.5
-40.58
1.64
44.21
83.19
116.38
143.03
162.96
175.67
180.33
176.39
164.41
146.45
125.7
105.47
88.13
74.56
64.22
55.96
48.78
42.27
36.78
33
31.46
32.15
34.37
36.86
38.07
36.65
31.72
23.22
11.78
-1.45
-15.24
-28.69
-41.28
-52.84
-63.27
-72.67
-81.17
-89.26
-97.35
-105.14
-111.07
-112.21
-105.12
-87.31
-58.69
-21.99
17.97
56
88.18
112.53
128.71
137.18
138.32
132.54
120.58
104.04
85.28
66.8
50.47
36.99
25.96
16.41
7.48
-1.11
-9.01
-15.51
-20.01
-22.39
-22.98
-22.44
-21.53
-20.82
-20.8
-21.87
-24.4
-28.71
-34.76
-42.05
-49.71
-56.87
-62.93
-67.81
-71.89
-75.88
-80.7
-87.16
-95.62
-105.42
-114.44
-119.16
-115.73
-101.43
-76.02
-42.22
-4.72
31.57
63.13
88.41
107.24
119.71
125.45
123.88
115.06
100.54
83.27
66.76
53.76
45.3
40.59
37.69
34.75
30.87
26.4
22.43
19.99
19.34
19.69
19.8
18.57
15.75
11.89
7.88
4.17
0.3
-4.86
-12.53
-23.12
-35.89
-49.22
-61.4
-71.42
-79.28
-85.79
-91.94
-98.5
-105.88
-114.37
-124.21
-135.29
-146.52
-155.38
-158.25
-151.64
-133.78
-105.69
-70.95
-34.33
0.04
29.81
54.33
73.51
86.88
93.28
91.56
81.72
65.54
46.34
27.91
13.32
4.29
1.14
3.4
10.35
21.38
35.99
53.51
72.84
92.33
109.99
123.79
132.2
134.54
131.05
122.69
110.76
96.66
81.55
66.38
51.85
38.42
26.23
15.23
5.16
-4.34
-13.62
-23.03
-32.91
-43.53
-55.1
-67.76
-81.64
-96.84
-113.15
-129.58
-143.92
-152.87
-152.79
-141.01
-117.05
-83.23
-44.04
-4.77
30.05
57.59
76.78
87.63
90.63
86.51
76.48
62.41
46.73
31.9
19.72
10.93
5.26
2.04
0.76
1.33
3.96
8.74
15.3
22.75
30
36.11
40.52
43.03
43.66
42.44
39.33
34.3
27.43
19.02
9.59
-0.16
-9.56
-18.08
-25.39
-31.46
-36.48
-40.82
-44.89
-49.27
-54.57
-61.2
-69.01
-76.75
-82.01
-81.66
-72.83
-54.1
-26.29
7.72
43.82
78.01
107.4
130.33
146.12
154.45
155.25
148.94
136.85
121.28
105.01
90.35
78.41
68.92
60.72
52.7
44.51
36.81
30.86
27.64
27.29
28.89
30.86
31.61
30.15
26.37
20.82
14.43
8.03
2.21
-2.85
-7.24
-11.32
-15.62
-20.63
-26.7
-33.75
-41.34
-48.78
-55.47
-61.2
-66.17
-70.91
-76.07
-82.24
-89.6
-97.68
-104.94
-108.89
-106.61
-95.71
-75.38
-46.87
-13.22
21.84
54.92
83.7
106.88
123.64
133.33
135.57
130.65
120
106.12
91.83
79.4
69.82
62.74
56.96
51.15
44.58
37.47
30.83
25.91
23.57
23.8
25.66
27.69
28.47
27.23
24.04
19.51
14.24
8.45
1.94
-5.63
-14.26
-23.46
-32.4
-40.25
-46.57
-51.49
-55.41
-58.87
-62.36
-66.29
-71.1
-77.15
-84.55
-93.01
-101.84
-110.22
-117.52
-123.57
-128.55
-132.82
-136.89
-141.28
-146.59
-153.02
-159.72
-164.38
-163.45
-153.34
-132.01
-100.15
-61.15
-19.87
19.1
52.67
79.47
99.1
111.35
115.97
113.27
104.8
93.51
82.96
75.96
73.52
74.57
76.74
77.67
76.12
72.46
68.16
64.75
63.02
62.54
62.17
60.72
57.68
53.37
48.57
43.88
39.19
33.87
27.17
18.86
9.49
0.16
-8.05
-14.51
-19.29
-23
-26.43
-30.24
-34.91
-40.57
-47.19
-54.55
-62.33
-70.26
-78.23
-86.31
-94.63
-103.14
-111.45
-118.95
-125.15
-129.87
-133.33
-135.91
-137.99
-139.97
-142.39
-146
-151.27
-157.58
-162.67
-162.69
-153.57
-132.81
-100.94
-61.63
-20.25
18.17
50.56
76.14
95.51
109.26
117.27
118.93
114.11
103.63
89.56
74.36
59.89
47.04
36.16
27.89
23.78
26.02
36.35
54.75
78.72
103.69
124.6
137.59
141.25
136.68
126.57
113.76
100.22
86.68
73.01
58.96
44.54
30.21
16.56
4.07
-7.1
-17.01
-25.71
-33.18
-38.95
-42.61
-43.85
-42.63
-39.33
-34.59
-29.2
-23.87
-19.05
-14.89
-11.42
-8.71
-7.21
-7.71
-11.01
-17.16
-24.85
-31.39
-33.35
-27.99
-14.31
6.55
31.84
58.33
83.39
105.38
123.34
136.5
143.94
144.92
139.5
128.94
115.57
102.06
90.49
81.73
75.45
70.66
66.42
62.27
58.3
54.8
51.86
49.2
46.26
42.53
37.82
32.3
26.34
20.18
13.85
7.16
-0.06
-7.8
-15.75
-23.5
-30.77
-37.51
-43.98
-50.59
-57.6
-65.06
-72.83
-80.56
-87.89
-94.57
-100.52
-105.74
-110.36
-114.52
-118.49
-122.74
-127.77
-133.81
-140.2
-145.02
-145.34
-138.07
-121.28
-95.14
-62.04
-25.77
9.84
41.99
69.25
91.12
107.27
117.21
120.51
117.47
109.45
98.65
87.45
77.54
69.46
62.81
56.81
50.95
45.34
40.63
37.5
36.25
36.6
37.81
38.98
39.41
38.81
37.17
34.61
31.21
26.88
21.5
14.96
7.31
-1.18
-10.03
-18.56
-26.02
-31.86
-35.88
-38.46
-40.38
-42.53
-45.54
-49.6
-54.54
-60.06
-66.02
-72.38
-79.15
-86.34
-94.01
-102.29
-111.27
-120.44
-128.32
-132.37
-129.63
-117.91
-96.82
-68.11
-35.01
-1.08
30.82
58.83
81.83
98.87
109.02
111.79
107.67
98.4
86.56
74.82
65.02
57.74
52.53
48.42
44.64
41.01
37.92
35.98
35.64
36.84
39
41.34
43.1
43.94
43.81
42.82
40.9
37.77
32.95
26.2
17.76
8.38
-0.87
-9.04
-15.61
-20.74
-25.08
-29.5
-34.69
-40.9
-47.87
-55.03
-61.74
-67.54
-72.28
-76.17
-79.51
-82.57
-85.37
-87.75
-89.46
-90.46
-90.96
-91.36
-92.05
-93.34
-95.44
-98.61
-103.23
-109.41
-116.59
-122.99
-125.69
-121.33
-107.34
-83.16
-50.59
-13.37
24.04
57.78
85.33
105.62
118.59
124.72
124.73
119.68
111.04
100.65
90.36
81.61
75.06
70.6
67.65
65.54
63.88
62.7
62.24
62.75
64.19
66.19
68.11
69.3
69.32
68.04
65.65
62.47
58.89
55.25
51.81
48.78
46.29
44.4
43.1
42.3
41.82
41.35
40.51
38.85
35.92
31.52
25.69
18.89
11.78
4.94
-1.38
-7.49
-14.04
-21.6
-30.22
-39.25
-47.57
-54.13
-58.49
-60.94
-62.41
-63.98
-66.6
-70.9
-77.16
-85.16
-93.87
-101.24
-104.39
-100.43
-87.52
-65.77
-37.38
-5.96
24.66
51.57
73.09
88.68
98.35
102.17
100.37
93.53
83.03
70.86
59.3
50.16
44.26
41.34
40.32
39.99
39.46
38.56
37.63
37.15
37.33
37.95
38.47
38.37
37.4
35.57
33.11
30.28
27.22
23.97
20.49
16.83
13.2
10.04
7.78
6.73
6.79
7.43
7.82
7.08
4.77
0.91
-4.13
-9.96
-16.5
-23.86
-32.13
-40.86
-49.14
-55.8
-60.04
-61.94
-62.44
-62.93
-64.62
-68.01
-72.81
-78.32
-83.86
-89.15
-94.34
-99.71
-105.49
-111.82
-118.82
-126.67
-135.35
-144.27
-151.85
-155.6
-152.73
-141.17
-120.44
-91.86
-58.11
-22.19
13.27
46.38
75.72
100.09
118.32
129.67
134.23
133.04
127.86
120.67
113.03
105.85
99.4
93.53
88.08
82.98
78.37
74.5
71.68
69.98
69.18
68.76
68.07
66.68
64.56
61.98
59.34
56.79
54.12
50.88
46.62
41.16
34.75
27.94
21.42
15.76
11.25
7.84
5.25
2.98
0.51
-2.52
-6.16
-10.18
-14.17
-17.78
-20.9
-23.72
-26.54
-29.64
-33.12
-36.82
-40.48
-43.79
-46.61
-49.06
-51.51
-54.47
-58.45
-63.72
-70.21
-77.52
-85.03
-92.15
-98.53
-104.15
-109.23
-114.1
-119.19
-124.99
-131.94
-140.19
-149.1
-156.98
-161.13
-158.6
-147.17
-126.22
-97
-62.21
-25.09
11.45
45.17
74.47
98.2
115.54
126.16
130.43
129.45
124.82
118.14
110.66
103.02
95.46
88.04
80.94
74.58
69.49
66.15
64.77
65.03
66.17
67.15
66.88
64.58
59.93
53.16
44.89
35.98
27.14
18.84
11.17
3.95
-3.07
-9.93
-16.42
-22.08
-26.51
-29.63
-31.65
-33.05
-34.22
-35.35
-36.41
-37.33
-38.13
-39
-40.14
-41.62
-43.27
-44.79
-45.91
-46.61
-47.17
-48.09
-49.94
-53.12
-57.79
-63.81
-70.78
-78.12
-85.24
-91.58
-96.79
-100.86
-104.16
-107.41
-111.44
-116.6
-122.29
-126.71
-127.15
-120.93
-106.28
-83.21
-53.44
-19.89
14.32
46.55
74.95
98.28
115.7
126.61
130.82
128.8
121.75
111.46
99.91
88.83
79.37
71.99
66.55
62.6
59.64
57.34
55.65
54.73
54.68
55.45
56.68
57.87
58.57
58.49
57.57
55.86
53.45
50.44
46.98
43.31
39.73
36.49
33.62
30.92
28.03
24.66
20.78
16.6
12.42
8.47
4.72
0.91
-3.24
-7.94
-13.19
-18.82
-24.5
-29.95
-34.97
-39.49
-43.61
-47.53
-51.64
-56.47
-62.6
-70.45
-79.91
-90.01
-98.81
-103.71
-102.15
-92.37
-74.13
-48.74
-18.7
12.95
43.3
70.03
91.51
106.8
115.64
118.38
116.01
110
101.99
93.53
85.77
79.22
73.86
69.36
65.3
61.52
58.13
55.51
53.98
53.66
54.24
55.18
55.9
55.95
55.16
53.52
51.06
47.73
43.61
38.87
33.93
29.25
25.14
21.74
18.93
16.55
14.45
12.58
10.9
9.29
7.48
5.15
2.09
-1.68
-5.91
-10.22
-14.3
-18.02
-21.46
-24.84
-28.33
-32.03
-35.87
-39.76
-43.67
-47.74
-52.21
-57.41
-63.51
-70.47
-78.03
-85.74
-93.14
-99.99
-106.34
-112.43
-118.63
-125.2
-132.42
-140.62
-150.05
-160.54
-171.07
-179.38
-182.38
-176.98
-161.27
-135.35
-101.37
-62.72
-22.99
14.8
48.53
76.74
98.52
113.55
122.17
125.45
124.89
121.91
117.53
112.35
106.7
100.83
95.03
89.42
84
78.75
73.87
69.88
67.32
66.37
66.47
66.51
65.37
62.46
58.02
52.85
47.76
43.14
38.77
34.15
28.91
23.15
17.42
12.56
9.26
7.78
7.79
8.4
8.57
7.43
4.74
0.92
-3.05
-6.2
-8.01
-8.63
-8.76
-9.26
-10.74
-13.46
-17.43
-22.37
-27.51
-31.46
-32.48
-29.12
-21.13
-10.06
1.09
8.92
11.06
7.15
-1.24
-11.63
-21.84
-30.89
-38.92
-46.56
-54.33
-62.14
-69.58
-76.31
-82.31
-87.9
-93.42
-99.05
-104.79
-110.57
-116.67
-123.82
-132.85
-144
-156.16
-166.84
-172.68
-170.62
-159.09
-138.42
-110.52
-77.85
-42.65
-6.62
28.67
61.33
89.09
109.82
122.37
127.01
125.43
119.9
112.53
104.71
97.1
89.93
83.26
77.14
71.58
66.56
62.06
58.22
55.24
53.19
51.86
50.66
48.88
46.02
42.07
37.5
33
29.17
26.18
23.87
21.9
19.97
17.92
15.73
13.35
10.71
7.79
4.73
1.89
-0.25
-1.34
-1.38
-0.72
0.02
0.32
-0.06
-1.01
-2.2
-3.32
-4.26
-5.08
-5.99
-7.16
-8.66
-10.4
-12.26
-14.08
-15.77
-17.39
-19.09
-21.14
-23.78
-27.18
-31.33
-36.09
-41.2
-46.41
-51.49
-56.29
-60.7
-64.75
-68.73
-73.15
-78.65
-85.53
-93.35
-100.73
-105.52
-105.41
-98.65
-84.63
-64.01
-38.46
-10.18
18.61
45.83
69.64
88.52
101.42
107.96
108.62
104.63
97.67
89.49
81.54
74.77
69.61
66.12
64.13
63.51
64.19
66.1
69.08
72.79
76.63
79.88
81.94
82.46
81.48
79.3
76.34
72.9
69.12
65.07
60.71
56.09
51.23
46.24
41.23
36.31
31.6
27.12
22.81
18.55
14.27
9.99
5.77
1.71
-2.26
-6.3
-10.61
-15.22
-19.99
-24.69
-29.17
-33.53
-38.12
-43.3
-49.14
-55.32
-61.33
-66.88
-72.04
-77.35
-83.5
-90.9
-99.6
-109.37
-119.79
-130.26
-139.76
-146.57
-148.35
-142.79
-128.45
-105.53
-76.05
-43.14
-10.18
20.18
46.32
67.47
83.37
94.02
99.7
101.07
99.16
95.23
90.46
85.7
81.32
77.24
73.03
68.13
62.11
55.03
47.54
40.74
35.73
33.11
32.67
33.55
34.69
35.33
35.31
34.73
33.74
32.24
29.94
26.72
22.92
19.3
16.7
15.6
15.87
16.84
17.72
17.94
17.41
16.28
14.84
13.14
10.97
7.99
3.87
-1.48
-7.85
-14.71
-21.49
-27.63
-32.93
-37.52
-41.88
-46.55
-51.82
-57.64
-63.61
-69.27
-74.36
-78.99
-83.55
-88.59
-94.46
-101.14
-108.26
-115.25
-121.64
-127.25
-132.25
-137.12
-142.58
-149.3
-157.67
-167.38
-177.22
-185.05
-188.16
-183.93
-170.7
-148.31
-118.14
-82.7
-44.91
-7.39
27.68
58.65
84.18
103.34
115.72
121.78
122.73
120.19
115.76
110.55
105.14
99.73
94.47
89.58
85.3
81.79
78.97
76.66
74.67
72.94
71.53
70.43
69.44
68.19
66.23
63.34
59.55
55.16
50.56
46.05
41.75
37.59
33.49
29.42
25.44
21.65
18.01
14.43
10.74
6.9
3.04
-0.48
-3.32
-5.36
-6.73
-7.89
-9.34
-11.47
-14.29
-17.51
-20.75
-23.76
-26.64
-29.74
-33.5
-38.13
-43.53
-49.21
-54.58
-59.15
-62.81
-65.79
-68.6
-71.9
-76.25
-82.02
-89.19
-97.13
-104.54
-109.51
-109.87
-103.79
-90.34
-69.8
-43.57
-13.88
16.83
46.22
72.33
93.68
109.31
118.88
122.72
121.73
117.2
110.53
103
95.63
89.09
83.74
79.73
77.02
75.51
75.05
75.52
76.75
78.4
79.98
80.91
80.71
79.15
76.3
72.45
67.92
62.94
57.63
52.12
46.53
41.01
35.6
30.2
24.62
18.7
12.48
6.22
0.27
-5.13
-10.02
-14.75
-19.82
-25.74
-32.89
-41.27
-50.6
-60.34
-69.85
-78.59
-86.21
-92.63
-98.16
-103.48
-109.51
-117.06
-126.34
-136.51
-145.49
-150.32
-148.03
-136.66
-116.08
-87.98
-55.35
-21.58
10.43
38.54
61.54
78.92
90.79
97.73
100.71
100.88
99.28
96.74
93.71
90.44
87.01
83.43
79.68
75.72
71.69
67.86
64.67
62.49
61.37
60.93
60.52
59.49
57.51
54.65
51.25
47.63
43.95
40.14
36.02
31.49
26.55
21.36
16.14
11.11
6.52
2.58
-0.63
-3.21
-5.44
-7.67
-10.24
-13.32
-16.87
-20.7
-24.54
-28.21
-31.6
-34.7
-37.57
-40.36
-43.3
-46.59
-50.4
-54.69
-59.3
-63.96
-68.41
-72.57
-76.62
-80.91
-85.74
-91.29
-97.42
-103.75
-109.86
-115.52
-120.74
-125.75
-130.82
-136.25
-142.39
-149.64
-158.22
-167.69
-176.46
-181.77
-180.32
-169.38
-147.98
-117.35
-80.54
-41.38
-3.38
30.87
59.63
81.8
96.81
104.74
106.57
104.08
99.34
94.13
89.55
86.02
83.57
82.07
81.34
81.02
80.64
79.79
78.41
76.9
75.85
75.64
76.11
76.57
76.22
74.62
71.85
68.33
64.5
60.53
56.29
51.65
46.64
41.49
36.53
31.92
27.66
23.58
19.61
15.8
12.33
9.33
6.75
4.38
1.88
-0.97
-4.25
-7.87
-11.7
-15.61
-19.57
-23.64
-27.85
-32.25
-36.78
-41.33
-45.7
-49.66
-52.96
-55.39
-56.91
-57.7
-58.32
-59.59
-62.41
-67.35
-74.22
-81.86
-88.09
-90.31
-86.11
-74.12
-54.41
-28.49
1.18
31.73
60.5
85.41
105.02
118.6
126
127.64
124.44
117.7
108.87
99.39
90.45
82.83
76.84
72.38
69.12
66.62
64.6
63
61.91
61.42
61.46
61.82
62.18
62.22
61.69
60.39
58.19
55.02
50.91
46.1
41.04
36.2
31.88
28.12
24.67
21.23
17.63
13.95
10.38
7.1
4.08
1.06
-2.26
-6.12
-10.57
-15.46
-20.5
-25.35
-29.79
-33.7
-37.19
-40.62
-44.45
-49.15
-54.97
-61.79
-69.19
-76.6
-83.63
-90.22
-96.69
-103.61
-111.7
-121.6
-133.73
-147.94
-163.16
-177.21
-186.98
-189.1
-180.99
-161.7
-132.36
-95.78
-55.67
-15.75
20.85
51.81
75.68
91.89
100.84
103.79
102.61
99.17
94.91
90.59
86.47
82.52
78.73
75.13
71.65
68.15
64.5
60.68
56.96
53.68
51.07
49.05
47.32
45.57
43.69
41.79
40.06
38.6
37.28
35.83
33.97
31.6
28.8
25.78
22.75
19.89
17.36
15.25
13.57
12.18
10.82
9.11
6.76
3.68
0.01
-3.88
-7.54
-10.59
-12.86
-14.44
-15.61
-16.71
-18.02
-19.68
-21.63
-23.77
-26.02
-28.37
-30.97
-34.01
-37.62
-41.79
-46.28
-50.78
-55.07
-59.15
-63.31
-68.03
-73.77
-80.75
-88.8
-97.4
-105.81
-113.42
-119.83
-124.96
-128.98
-132.23
-135.21
-138.64
-143.33
-149.74
-157.51
-164.91
-169
-166.42
-154.51
-132.42
-101.48
-64.71
-25.84
11.79
45.76
74.62
97.62
114.47
125.25
130.47
131.17
128.68
124.4
119.5
114.8
110.7
107.31
104.42
101.72
98.98
96.13
93.31
90.69
88.36
86.06
83.39
79.95
75.63
70.69
65.59
60.67
55.95
51.09
45.61
39.23
32.01
24.36
16.89
10.19
4.67
0.54
-2.09
-3.23
-2.91
-1.26
1.41
4.66
7.93
10.7
12.63
13.63
13.86
13.59
13.1
12.45
11.52
10.02
7.73
4.56
0.67
-3.61
-7.9
-11.96
-15.8
-19.65
-23.96
-29.07
-35.12
-41.87
-48.86
-55.45
-61.19
-65.96
-69.99
-73.9
-78.43
-84.28
-91.78
-100.56
-109.27
-115.61
-116.79
-110.34
-94.9
-70.83
-40.16
-6.04
28.15
59.49
85.91
106.28
120.21
127.92
130.09
127.8
122.38
115.21
107.57
100.35
94.07
88.85
84.49
80.64
77.05
73.64
70.59
68.17
66.5
65.43
64.52
63.26
61.28
58.5
55.06
51.15
46.91
42.3
37.22
31.6
25.55
19.34
13.32
7.84
3.14
-0.69
-3.75
-6.22
-8.34
-10.34
-12.36
-14.44
-16.63
-18.88
-21.18
-23.48
-25.69
-27.74
-29.67
-31.58
-33.68
-36.14
-39.04
-42.26
-45.54
-48.58
-51.27
-53.8
-56.65
-60.43
-65.48
-71.79
-78.79
-85.74
-91.99
-97.33
-102.08
-106.86
-112.45
-119.41
-128.11
-138.49
-149.91
-160.86
-168.94
-171.2
-164.98
-148.9
-123.46
-90.91
-54.51
-17.54
17.38
48.49
74.56
94.75
108.45
115.61
116.86
113.54
107.32
99.84
92.4
85.76
80.29
76.02
72.77
70.22
68.13
66.37
65.03
64.25
63.96
63.82
63.22
61.64
58.85
55.11
50.94
46.93
43.42
40.41
37.73
35.15
32.62
30.25
28.2
26.56
25.27
24.09
22.72
20.93
18.66
16.02
13.24
10.52
7.95
5.48
2.91
0.04
-3.21
-6.83
-10.68
-14.58
-18.37
-21.93
-25.22
-28.29
-31.34
-34.67
-38.57
-43.2
-48.42
-53.82
-58.88
-63.3
-67.22
-71.14
-75.76
-81.55
-88.45
-95.89
-103.04
-109.33
-114.72
-119.73
-125.21
-131.97
-140.62
-151.29
-163.57
-176.34
-187.66
-194.93
-195.35
-186.8
-168.53
-141.67
-108.84
-73.29
-37.88
-4.36
26.6
54.98
80.7
103.27
121.77
135.22
142.99
145.09
142.23
135.59
126.5
116.18
105.62
95.56
86.65
79.47
74.44
71.74
71.1
71.68
72.31
71.75
69.2
64.51
58.29
51.6
45.59
40.98
37.93
36.05
34.64
33.02
30.82
28.06
25.07
22.26
19.96
18.23
16.97
15.95
14.94
13.78
12.43
10.86
9.14
7.38
5.68
4.1
2.63
1.11
-0.63
-2.84
-5.6
-8.91
-12.58
-16.41
-20.27
-24.23
-28.44
-33.11
-38.31
-43.91
-49.68
-55.31
-60.62
-65.53
-70.14
-74.64
-79.37
-84.73
-91.13
-98.64
-106.65
-113.67
-117.41
-115.37
-105.65
-87.67
-62.4
-32.08
0.46
32.47
61.72
86.54
105.88
119.09
126.04
127.11
123.26
115.88
106.53
96.66
87.41
79.52
73.25
68.61
65.41
63.48
62.74
63.12
64.44
66.3
68.11
69.18
69.03
67.5
64.78
61.27
57.31
53.11
48.74
44.19
39.52
34.85
30.37
26.27
22.67
19.58
16.88
14.32
11.55
8.29
4.4
-0.03
-4.75
-9.44
-13.86
-17.91
-21.73
-25.51
-29.5
-33.83
-38.57
-43.76
-49.35
-55.28
-61.39
-67.51
-73.49
-79.36
-85.39
-92.16
-100.31
-110.15
-121.14
-131.66
-139.15
-140.75
-134.23
-118.71
-95.04
-65.48
-33.03
-0.71
28.99
54.29
74.14
88.07
96.2
99.19
98.12
94.36
89.28
84.03
79.35
75.54
72.48
69.8
67.13
64.33
61.59
59.43
58.4
58.81
60.42
62.54
64.17
64.33
62.38
58.25
52.42
45.73
39.02
32.85
27.38
22.36
17.44
12.37
7.21
2.27
-2.15
-5.93
-9.2
-12.25
-15.23
-18.04
-20.36
-21.89
-22.51
-22.48
-22.29
-22.57
-23.82
-26.29
-29.9
-34.28
-38.97
-43.57
-47.95
-52.27
-56.95
-62.45
-69.04
-76.64
-84.76
-92.79
-100.21
-106.85
-112.86
-118.63
-124.6
-131.13
-138.57
-147.09
-156.59
-166.15
-173.84
-176.86
-172.26
-157.96
-133.7
-101.26
-63.82
-25.02
12.15
45.61
74.17
97.04
113.66
123.76
127.66
126.47
121.89
115.8
109.74
104.59
100.46
96.99
93.59
89.84
85.65
81.34
77.38
74.07
71.28
68.43
64.83
60.07
54.38
48.58
43.56
39.87
37.33
35.12
32.19
27.79
21.81
14.87
8.13
2.93
0.44
1.37
5.63
12.36
20.05
26.95
31.6
33.2
31.67
27.55
21.66
14.73
7.34
-0.12
-7.34
-13.97
-19.66
-24.2
-27.61
-30.14
-32.34
-34.77
-37.89
-41.93
-46.8
-52.15
-57.5
-62.45
-66.74
-70.38
-73.52
-76.4
-79.24
-82.11
-84.93
-87.51
-89.67
-91.39
-92.89
-94.51
-96.69
-99.91
-104.53
-110.86
-118.94
-128.17
-137.07
-143.24
-143.72
-135.94
-118.66
-92.53
-59.88
-23.99
11.95
45.52
75.2
100.05
119.42
132.73
139.79
140.95
137.28
130.33
121.76
113.01
104.97
98.08
92.37
87.64
83.61
80.01
76.67
73.51
70.47
67.41
64.04
60.05
55.19
49.47
43.21
36.88
31.02
25.98
21.9
18.64
16.03
13.79
11.78
9.91
8.17
6.63
5.43
4.68
4.48
4.78
5.37
5.93
6.1
5.56
4.19
2.01
-0.75
-3.81
-6.92
-10.01
-13.22
-16.81
-21.11
-26.28
-32.19
-38.41
-44.42
-49.75
-54.23
-58.08
-61.74
-65.83
-70.92
-77.39
-85.25
-94.06
-102.6
-108.94
-110.73
-105.79
-92.85
-72.01
-44.86
-14.02
17.48
46.95
72.38
92.52
106.83
115.3
118.35
116.78
111.7
104.41
96.22
88.27
81.33
75.73
71.39
67.99
65.17
62.76
60.83
59.58
59.11
59.26
59.67
59.83
59.35
58.07
56.01
53.3
50.09
46.58
42.91
39.3
35.88
32.69
29.6
26.39
22.88
19.07
15.14
11.3
7.71
4.4
1.22
-2.07
-5.67
-9.73
-14.26
-19.15
-24.28
-29.56
-34.98
-40.66
-46.83
-53.71
-61.37
-69.63
-78.1
-86.36
-94.06
-101.15
-107.77
-114.16
-120.64
-127.53
-135.15
-143.62
-152.52
-160.57
-165.64
-165.15
-156.93
-140.02
-115.08
-84.18
-50.13
-15.71
16.77
45.53
69.24
86.97
98.32
103.58
103.8
100.54
95.52
90.18
85.48
81.79
78.95
76.46
73.76
70.48
66.71
62.97
59.96
58.17
57.54
57.45
56.99
55.45
52.55
48.55
43.98
39.34
34.8
30.42
26.06
21.7
17.43
13.28
9.16
4.91
0.45
-4
-7.89
-10.41
-10.85
-8.81
-4.49
1.48
8.24
14.99
21.1
26.15
29.82
31.89
32.21
30.81
27.98
24.13
19.67
14.81
9.5
3.49
-3.47
-11.45
-20.27
-29.45
-38.4
-46.65
-54.03
-60.62
-66.73
-72.73
-78.86
-85.17
-91.57
-97.87
-103.89
-109.49
-114.57
-119.14
-123.42
-127.86
-133.08
-139.56
-147.21
-154.89
-160.36
-160.76
-153.54
-137.41
-112.85
-81.9
-47.48
-12.5
20.68
50.39
75.49
95.16
108.87
116.66
119.23
117.81
113.88
108.77
103.39
98.2
93.33
88.73
84.28
79.91
75.59
71.5
67.88
64.97
62.8
61.08
59.2
56.53
52.66
47.59
41.72
35.61
29.77
24.45
19.71
15.5
11.77
8.56
5.89
3.8
2.22
1.06
0.18
-0.53
-1.21
-2.06
-3.26
-4.98
-7.26
-9.99
-12.98
-16
-18.93
-21.76
-24.59
-27.54
-30.6
-33.66
-36.48
-38.83
-40.55
-41.65
-42.34
-42.96
-43.97
-45.77
-48.59
-52.41
-56.94
-61.72
-66.35
-70.58
-74.44
-78.18
-82.25
-87.17
-93.32
-100.66
-108.56
-115.48
-119.24
-117.46
-108.34
-91.34
-67.34
-38.4
-7.09
24.07
53.06
78.34
98.76
113.54
122.28
125.19
123.06
117.19
109.04
99.9
90.8
82.35
74.87
68.51
63.29
59.22
56.38
54.8
54.49
55.25
56.62
58.01
58.79
58.53
57.06
54.46
50.96
46.85
42.41
37.9
33.57
29.61
26.14
23.16
20.45
17.76
14.8
11.42
7.63
3.64
-0.28
-3.89
-7.11
-10.08
-13.16
-16.67
-20.83
-25.63
-30.78
-35.94
-40.81
-45.25
-49.38
-53.42
-57.8
-62.97
-69.38
-77.2
-86.11
-94.96
-101.86
-104.44
-100.56
-89.03
-70.01
-45.01
-16.42
13.06
40.96
65.35
84.92
98.99
107.42
110.58
109.25
104.5
97.53
89.49
81.33
73.77
67.2
61.66
57.02
53.04
49.63
46.8
44.69
43.28
42.34
41.48
40.27
38.51
36.24
33.62
30.81
27.82
24.49
20.75
16.58
12.18
7.82
3.73
0.02
-3.19
-5.86
-7.97
-9.56
-10.78
-11.83
-12.88
-14.02
-15.23
-16.44
-17.76
-19.43
-21.82
-25.12
-29.3
-34
-38.77
-43.27
-47.41
-51.46
-55.81
-60.84
-66.68
-73.21
-80.09
-86.99
-93.71
-100.2
-106.52
-112.82
-119.27
-126.21
-134.03
-142.93
-152.54
-161.52
-167.56
-167.91
-160.15
-143.22
-117.81
-86.09
-51.02
-15.44
18.42
49
75.14
95.98
110.95
119.98
123.65
123.1
119.77
115
109.85
104.99
100.74
97.15
94.02
90.98
87.7
84.02
80.05
76.04
72.12
68.26
64.1
59.3
53.58
46.93
39.51
31.61
23.53
15.6
8.27
1.91
-3.16
-7.02
-10.11
-13.34
-17.61
-23.47
-30.63
-37.82
-42.86
-43.24
-37.03
-23.72
-4.73
16.84
37.09
52.64
61.67
64.32
62.3
57.89
52.95
48.4
44.2
39.96
35.39
30.63
25.98
21.6
17.19
12.11
5.76
-2.04
-10.7
-19.18
-26.3
-31.5
-35.04
-38.01
-41.76
-47.32
-54.92
-63.88
-73.09
-81.53
-88.78
-95.1
-101.27
-108.12
-116.24
-125.84
-136.59
-147.58
-157.24
-163.44
-163.82
-156.54
-140.82
-117.41
-88.34
-56.35
-24.19
5.92
32.35
54.03
70.3
80.97
86.36
87.25
84.84
80.32
74.77
68.97
63.4
58.41
54.12
50.59
47.78
45.71
44.48
44.24
45.07
46.8
48.93
50.74
51.63
51.25
49.63
47.12
44.14
41.07
38.15
35.44
32.85
30.31
27.72
25.11
22.57
20.27
18.34
16.79
15.51
14.31
13.04
11.62
10.05
8.38
6.65
4.84
2.92
0.88
-1.24
-3.37
-5.52
-7.66
-9.87
-12.17
-14.57
-17.09
-19.72
-22.57
-25.81
-29.65
-34.21
-39.45
-45.15
-50.91
-56.35
-61.19
-65.37
-69.12
-72.88
-77.19
-82.58
-89.41
-97.5
-105.97
-113.14
-116.77
-114.61
-105.09
-87.85
-63.87
-35.17
-4.19
26.58
55.05
79.55
98.85
112.22
119.53
121.25
118.41
112.43
104.76
96.69
89.16
82.7
77.5
73.52
70.56
68.4
66.95
66.13
65.86
65.93
65.96
65.49
64.2
61.96
58.93
55.41
51.7
48.01
44.38
40.77
37.08
33.28
29.34
25.3
21.24
17.19
13.23
9.42
5.75
2.17
-1.39
-5.1
-9.04
-13.24
-17.67
-22.19
-26.63
-30.89
-34.96
-38.91
-42.93
-47.24
-52.01
-57.45
-63.72
-70.97
-79.19
-88.17
-97.49
-106.71
-115.62
-124.42
-133.73
-144.06
-155.21
-165.73
-172.98
-173.87
-165.94
-148.34
-122.34
-90.91
-57.88
-26.88
-0.52
19.93
34.49
44
49.68
52.59
53.39
52.33
49.34
44.17
36.53
26.39
14.56
3.36
-3.19
-0.13
16.62
48.04
90.7
137.36
179.36
209.66
225.21
227.16
219.28
205.51
188.27
168.34
145.79
121.29
96.56
73.81
54.79
39.99
28.62
19.16
10.37
1.8
-6.05
-12.09
-15.38
-15.76
-14.02
-11.67
-10.26
-10.71
-12.91
-15.9
-18.37
-19.37
-18.85
-17.59
-16.73
-17.19
-19.22
-22.39
-25.94
-29.22
-32.02
-34.56
-37.33
-40.68
-44.73
-49.33
-54.18
-59.03
-63.78
-68.48
-73.28
-78.28
-83.48
-88.78
-94.01
-99.08
-104
-108.95
-114.2
-120.06
-126.92
-135.12
-144.84
-155.61
-166.08
-173.97
-176.46
-171.01
-156.27
-132.53
-101.64
-66.31
-29.38
6.73
40.04
68.91
91.95
108.28
117.8
121.43
120.82
117.78
113.77
109.59
105.45
101.33
97.23
93.25
89.57
86.37
83.69
81.52
79.82
78.52
77.33
75.91
73.85
70.93
67.23
63.16
59.3
56.13
53.82
52.06
50.32
48.04
44.96
41.24
37.29
33.51
30.05
26.71
23.18
19.31
15.32
11.76
9.24
8.09
8.13
8.77
9.27
9.02
7.78
5.69
3.06
0.21
-2.75
-5.92
-9.53
-13.81
-18.83
-24.38
-30.03
-35.3
-39.83
-43.61
-47.01
-50.67
-55.18
-60.87
-67.63
-75.08
-82.75
-90.31
-97.69
-104.97
-112.33
-120
-128.28
-137.52
-147.88
-158.86
-168.89
-175.29
-174.97
-165.48
-146.07
-118.06
-84.36
-48.41
-13.2
19.23
47.69
71.37
89.61
101.86
108.09
108.96
105.8
100.23
93.71
87.27
81.46
76.53
72.47
69.25
66.78
64.95
63.71
63.02
62.79
62.76
62.55
61.67
59.77
56.73
52.75
48.24
43.62
39.21
35.04
31.04
27.04
22.94
18.75
14.55
10.54
6.86
3.61
0.82
-1.57
-3.67
-5.61
-7.57
-9.73
-12.22
-15.09
-18.23
-21.42
-24.39
-26.96
-29.12
-31.14
-33.41
-36.26
-39.86
-44.08
-48.62
-53.15
-57.44
-61.46
-65.37
-69.51
-74.29
-80.23
-87.62
-96.27
-105.16
-112.35
-115.33
-111.7
-99.99
-80.13
-53.56
-22.67
9.84
41.54
70.45
95.11
114.37
127.51
134.33
135.29
131.53
124.62
116.18
107.57
99.67
92.91
87.33
82.78
79.16
76.41
74.57
73.64
73.48
73.67
73.64
72.8
70.76
67.49
63.22
58.35
53.19
47.9
42.52
37.04
31.52
26.13
21
16.24
11.81
7.55
3.2
-1.47
-6.56
-12.07
-17.78
-23.46
-28.9
-34.07
-39.18
-44.58
-50.57
-57.2
-64.16
-70.95
-77.03
-82.17
-86.53
-90.64
-95.24
-101.09
-108.76
-118.46
-129.68
-141
-150.12
-154.18
-150.57
-137.75
-115.81
-86.47
-52.51
-17.01
17.25
48.09
73.91
93.63
106.73
113.34
114.28
110.89
104.74
97.32
89.85
83.22
77.93
74.06
71.34
69.18
67.02
64.56
61.9
59.39
57.34
55.78
54.32
52.47
49.89
46.55
42.74
38.89
35.37
32.38
29.95
27.92
26.09
24.22
22.12
19.76
17.22
14.72
12.47
10.57
9
7.6
6.21
4.75
3.26
1.82
0.5
-0.74
-1.99
-3.35
-4.87
-6.52
-8.24
-10.07
-12.13
-14.69
-18.01
-22.24
-27.32
-32.96
-38.75
-44.37
-49.71
-54.98
-60.51
-66.63
-73.37
-80.46
-87.38
-93.63
-98.92
-103.38
-107.46
-111.86
-117.29
-124.29
-133.07
-143.1
-152.91
-160.03
-161.52
-154.74
-138.37
-113
-80.91
-45.41
-9.79
23.4
52.48
76.5
94.85
107.19
113.55
114.55
111.36
105.55
98.59
91.67
85.53
80.51
76.73
74.11
72.53
71.86
72
72.82
74.08
75.26
75.71
74.75
72.03
67.64
62.06
55.97
49.98
44.47
39.62
35.53
32.26
29.79
27.99
26.5
24.9
22.86
20.3
17.37
14.35
11.47
8.79
6.16
3.4
0.39
-2.89
-6.28
-9.64
-12.82
-15.73
-18.42
-20.98
-23.58
-26.39
-29.5
-32.88
-36.39
-39.82
-43.02
-46.04
-49.1
-52.51
-56.57
-61.4
-66.87
-72.66
-78.44
-83.97
-89.22
-94.31
-99.49
-105.07
-111.43
-119
-128
-138.1
-147.95
-155.22
-156.93
-150.44
-134.41
-109.36
-77.57
-42.3
-6.91
25.91
54.34
77.36
94.5
105.7
111.32
112.17
109.36
104.17
97.79
91.11
84.73
78.89
73.63
68.8
64.29
60.12
56.46
53.61
51.7
50.59
49.85
48.9
47.33
45.07
42.34
39.49
36.73
34.07
31.35
28.38
25.09
21.55
17.95
14.44
11.12
8.03
5.14
2.44
-0.08
-2.49
-4.86
-7.32
-9.95
-12.81
-15.9
-19.22
-22.73
-26.4
-30.16
-33.85
-37.32
-40.38
-42.97
-45.19
-47.28
-49.53
-52.16
-55.23
-58.62
-62.15
-65.64
-69.02
-72.39
-75.97
-80.09
-85.21
-91.71
-99.72
-108.72
-117.3
-123.24
-123.94
-117.22
-102.1
-79.12
-50.3
-18.39
13.77
43.83
70.07
91.29
106.77
116.22
119.93
118.78
114.18
107.77
101.06
95.13
90.53
87.29
85.13
83.69
82.64
81.81
81.11
80.52
79.91
79.06
77.59
75.18
71.68
67.28
62.47
57.87
53.97
51.04
49.03
47.68
46.56
45.25
43.43
40.8
37.15
32.31
26.22
18.98
10.83
2.12
-6.76
-15.49
-23.83
-31.65
-38.99
-45.95
-52.71
-59.37
-65.87
-72.06
-77.71
-82.71
-87.14
-91.36
-95.89
-101.37
-108.3
-116.85
-126.51
-135.97
-143.1
-145.35
-140.49
-127.29
-106.01
-78.38
-47.04
-14.88
15.55
42.36
64.28
80.66
91.43
97.04
98.41
96.72
93.18
88.83
84.44
80.45
77.08
74.3
71.92
69.65
67.35
65.08
63.15
61.91
61.44
61.5
61.54
61.02
59.63
57.4
54.61
51.58
48.58
45.71
43.01
40.49
38.11
35.76
33.26
30.36
26.91
22.96
18.69
14.43
10.46
6.96
3.98
1.48
-0.55
-2.11
-3.16
-3.71
-3.82
-3.68
-3.56
-3.74
-4.49
-5.97
-8.25
-11.21
-14.65
-18.23
-21.64
-24.69
-27.37
-29.9
-32.6
-35.75
-39.38
-43.32
-47.2
-50.67
-53.72
-56.62
-59.93
-64.2
-69.66
-76.12
-83.01
-89.63
-95.47
-100.37
-104.53
-108.45
-112.87
-118.53
-126.07
-135.62
-146.39
-156.38
-162.65
-162.01
-152.07
-132.17
-103.64
-69.4
-33.06
2.06
33.51
59.85
80.43
95.23
104.62
109.36
110.42
108.83
105.51
101.26
96.69
92.25
88.19
84.47
80.88
77.26
73.6
70.26
67.71
66.22
65.62
65.35
64.66
63.09
60.64
57.66
54.6
51.69
48.89
46
42.89
39.66
36.54
33.86
31.81
30.42
29.46
28.56
27.4
25.77
23.7
21.43
19.36
17.78
16.79
16.18
15.55
14.53
12.95
10.88
8.56
6.22
3.96
1.71
-0.58
-2.89
-4.98
-6.59
-7.52
-7.9
-8.1
-8.69
-10.22
-12.97
-16.98
-22.06
-27.98
-34.47
-41.36
-48.53
-55.88
-63.29
-70.6
-77.64
-84.1
-89.66
-94.06
-97.2
-99.35
-101.08
-103.31
-107.05
-113.23
-122.26
-133.66
-145.76
-155.79
-160.4
-156.64
-142.96
-119.76
-89.32
-55.04
-20.42
11.66
39.3
61.46
77.79
88.41
93.95
95.43
94.12
91.23
87.7
84.07
80.52
77.07
73.62
70.03
66.27
62.41
58.65
55.3
52.68
50.83
49.58
48.52
47.27
45.61
43.57
41.29
38.95
36.63
34.36
32.12
29.93
27.77
25.61
23.32
20.84
18.16
15.41
12.78
10.45
8.46
6.67
4.78
2.51
-0.27
-3.52
-7.08
-10.68
-14.08
-17.14
-19.78
-22.08
-24.17
-26.24
-28.5
-31.07
-33.98
-37.17
-40.48
-43.82
-47.18
-50.73
-54.67
-59.23
-64.45
-70.18
-76.06
-81.67
-86.71
-91.1
-95.11
-99.35
-104.54
-111.27
-119.54
-128.4
-135.86
-139.24
-135.88
-124.05
-103.52
-75.75
-43.36
-9.47
23.02
51.85
75.56
93.37
105.11
111.22
112.58
110.42
106.09
100.77
95.38
90.44
86.21
82.67
79.69
77.13
74.91
73.1
71.82
71.19
71.21
71.67
72.24
72.53
72.23
71.24
69.61
67.5
65.13
62.65
60.15
57.64
55.01
52.11
48.83
45.09
40.86
36.27
31.51
26.82
22.46
18.53
14.96
11.46
7.67
3.27
-1.76
-7.19
-12.62
-17.72
-22.4
-26.86
-31.54
-36.82
-42.86
-49.42
-56.1
-62.42
-68.11
-73.19
-78
-83.03
-88.88
-96.05
-104.8
-114.85
-125.04
-133.31
-136.97
-133.39
-120.9
-99.43
-70.67
-37.61
-3.74
27.82
54.8
75.98
91.04
100.36
104.73
105.12
102.6
98.15
92.64
86.81
81.22
76.26
72.09
68.67
65.77
63.23
61
59.16
57.84
57.01
56.42
55.6
54.14
51.83
48.8
45.4
41.98
38.73
35.63
32.53
29.32
26.06
22.89
20.06
17.69
15.81
14.33
13.17
12.26
11.56
11.09
10.76
10.46
10.01
9.29
8.22
6.87
5.35
3.79
2.35
1.03
-0.2
-1.47
-2.9
-4.61
-6.62
-8.92
-11.4
-13.86
-16.09
-17.95
-19.47
-20.92
-22.77
-25.52
-29.45
-34.43
-39.92
-45.21
-49.77
-53.46
-56.74
-60.32
-64.86
-70.64
-77.46
-84.76
-91.91
-98.51
-104.33
-109.35
-113.69
-117.68
-121.86
-126.91
-133.18
-140.1
-145.84
-147.55
-142.18
-127.65
-103.8
-72.47
-36.95
-0.91
32.5
61.06
83.48
99.24
108.4
111.64
110.16
105.55
99.45
93.16
87.43
82.52
78.36
74.75
71.56
68.66
66.07
63.89
62.25
61.22
60.69
60.34
59.67
58.21
55.7
52.17
47.96
43.52
39.26
35.5
32.32
29.67
27.42
25.41
23.53
21.75
20.08
18.58
17.24
15.98
14.61
13
11.09
9.02
6.99
5.25
3.91
2.91
2.02
0.99
-0.48
-2.51
-5.07
-7.99
-11
-13.81
-16.29
-18.52
-20.8
-23.54
-27.09
-31.47
-36.47
-41.69
-46.75
-51.55
-56.34
-61.52
-67.48
-74.28
-81.6
-88.9
-95.58
-101.26
-105.88
-109.68
-113.13
-116.91
-121.79
-128.37
-136.73
-145.91
-153.72
-157.12
-153.06
-139.5
-116.32
-85.33
-49.75
-13.26
20.88
50.36
73.83
90.81
101.4
106.27
106.47
103.31
98.12
92.02
85.89
80.29
75.6
71.95
69.22
67.18
65.59
64.32
63.43
63.04
63.1
63.3
63.08
61.88
59.35
55.59
51.02
46.24
41.75
37.8
34.43
31.56
29.02
26.66
24.33
21.94
19.48
17.06
14.85
13.04
11.73
10.81
10.09
9.29
8.17
6.65
4.81
2.82
0.84
-1
-2.77
-4.66
-6.91
-9.79
-13.39
-17.59
-22.06
-26.41
-30.32
-33.77
-36.99
-40.37
-44.28
-48.85
-53.93
-59.11
-63.91
-68.02
-71.35
-74.13
-76.85
-80.22
-84.99
-91.81
-100.69
-110.71
-119.81
-125.06
-123.48
-112.99
-93.18
-65.43
-32.56
2.02
35.1
64.14
87.37
103.88
113.55
116.98
115.49
110.75
104.4
97.73
91.45
85.83
80.87
76.47
72.56
69.11
66.15
63.8
62.21
61.43
61.33
61.57
61.66
61.21
59.95
57.88
55.15
51.95
48.39
44.56
40.57
36.58
32.73
29.1
25.71
22.52
19.52
16.74
14.21
11.94
9.85
7.83
5.76
3.56
1.21
-1.32
-4.08
-7.09
-10.26
-13.45
-16.4
-18.94
-21.1
-23.13
-25.43
-28.41
-32.22
-36.75
-41.62
-46.37
-50.62
-54.31
-57.73
-61.38
-65.8
-71.29
-77.76
-84.79
-91.79
-98.23
-103.84
-108.65
-112.92
-117.09
-121.79
-127.73
-135.44
-144.75
-154.31
-161.51
-162.92
-155.41
-137.3
-109.09
-73.37
-34.03
4.9
40.07
69.3
91.53
106.66
115.36
118.82
118.6
116.16
112.63
108.61
104.37
100.06
95.86
92.02
88.61
85.55
82.7
80.07
77.94
76.63
76.25
76.47
76.58
75.86
74.01
71.24
68.14
65.26
62.65
59.81
56.01
50.63
43.56
35.3
26.66
18.61
11.97
7.26
4.68
4.09
5.13
7.25
9.87
12.4
14.27
15.07
14.49
12.48
9.15
4.8
-0.22
-5.56
-11.03
-16.57
-22.19
-27.83
-33.27
-38.14
-42.01
-44.55
-45.63
-45.48
-44.53
-43.36
-42.52
-42.27
-42.63
-43.47
-44.68
-46.26
-48.5
-51.8
-56.42
-62.43
-69.52
-77.12
-84.59
-91.33
-96.96
-101.44
-105.11
-108.69
-113.25
-119.82
-128.9
-139.99
-151.14
-159.2
-160.61
-152.48
-133.59
-104.95
-69.33
-30.44
8.05
43.17
72.88
95.98
111.95
120.97
123.8
121.84
116.87
110.55
104.2
98.54
93.76
89.71
86.11
82.69
79.33
76.13
73.28
71.05
69.51
68.4
67.25
65.46
62.67
58.9
54.52
50.02
45.81
42.03
38.57
35.26
31.91
28.5
25.07
21.69
18.47
15.52
12.93
10.71
8.79
6.94
4.89
2.48
-0.27
-3.09
-5.67
-7.8
-9.53
-11.11
-12.92
-15.26
-18.28
-21.91
-25.99
-30.29
-34.55
-38.6
-42.37
-46
-49.8
-54.14
-59.3
-65.25
-71.65
-77.98
-83.68
-88.43
-92.28
-95.73
-99.57
-104.74
-111.87
-120.79
-130.23
-137.74
-140.3
-135.13
-120.64
-97.04
-66.3
-31.55
3.74
36.53
64.52
86.37
101.55
110.26
113.31
111.93
107.59
101.69
95.42
89.58
84.58
80.55
77.39
74.97
73.15
71.94
71.34
71.46
72.36
73.97
76.04
78.09
79.52
79.69
78.16
74.69
69.49
63.02
55.88
48.66
41.67
35.08
28.82
22.82
17
11.34
5.84
0.61
-4.23
-8.61
-12.54
-16.23
-19.96
-24.11
-28.92
-34.44
-40.49
-46.74
-52.86
-58.67
-64.12
-69.34
-74.54
-80.11
-86.53
-94.26
-103.36
-113.1
-121.8
-126.92
-125.78
-116.31
-97.95
-71.83
-40.55
-7.48
24.04
51.43
73.08
88.42
97.77
101.98
102.19
99.57
95.18
89.89
84.38
79.22
74.7
70.97
67.85
65.19
62.82
60.76
59.18
58.15
57.6
57.13
56.26
54.57
51.95
48.59
44.83
40.98
37.22
33.55
29.91
26.3
22.74
19.38
16.34
13.7
11.41
9.29
7.11
4.63
1.8
-1.28
-4.33
-7.03
-9.21
-10.97
-12.72
-15.02
-18.27
-22.58
-27.65
-32.99
-38.05
-42.54
-46.5
-50.29
-54.41
-59.21
-64.8
-71.01
-77.46
-83.72
-89.37
-94.16
-98.09
-101.49
-105.04
-109.62
-115.97
-124.24
-133.49
-141.55
-145.42
-142.09
-129.62
-107.82
-78.39
-44.33
-9.16
23.95
52.63
75.45
91.89
102.22
107.34
108.59
107.44
105.09
102.32
99.46
96.55
93.52
90.36
87.1
83.79
80.55
77.52
74.89
72.82
71.29
70.1
68.81
67.04
64.53
61.28
57.51
53.47
49.39
45.33
41.31
37.27
33.11
28.78
24.3
19.79
15.42
11.39
7.85
4.89
2.52
0.69
-0.64
-1.55
-2.11
-2.5
-2.91
-3.54
-4.56
-6.02
-7.91
-10.14
-12.59
-15.15
-17.69
-20.1
-22.33
-24.36
-26.23
-27.98
-29.61
-31.08
-32.37
-33.51
-34.7
-36.22
-38.33
-41.14
-44.52
-48.17
-51.77
-55.15
-58.35
-61.65
-65.4
-69.88
-75.09
-80.74
-86.37
-91.44
-95.59
-98.68
-101
-103.18
-106.18
-110.98
-118.1
-127.1
-136.22
-142.58
-142.89
-134.53
-116.5
-89.78
-57.1
-21.99
12.1
42.47
67.41
86.1
98.38
104.7
105.95
103.34
98.3
92.18
86.08
80.77
76.65
73.79
71.99
70.88
70.05
69.22
68.28
67.27
66.2
64.94
63.24
60.81
57.56
53.64
49.42
45.3
41.56
38.25
35.27
32.41
29.54
26.6
23.66
20.86
18.35
16.24
14.61
13.51
12.87
12.54
12.35
12.14
11.82
11.34
10.71
9.93
8.94
7.72
6.25
4.62
2.97
1.4
-0.09
-1.68
-3.6
-6.15
-9.38
-13.2
-17.36
-21.58
-25.71
-29.85
-34.26
-39.27
-45.01
-51.32
-57.74
-63.77
-69.02
-73.37
-77.03
-80.43
-84.17
-88.95
-95.4
-103.86
-114.05
-124.63
-133.18
-136.65
-132.13
-117.95
-94.31
-63.34
-28.43
6.55
38.28
64.43
83.86
96.5
103.05
104.7
102.91
98.99
93.99
88.62
83.22
78.03
73.23
68.97
65.33
62.33
59.99
58.29
57.22
56.73
56.64
56.61
56.17
54.85
52.44
48.99
44.87
40.6
36.68
33.39
30.81
28.76
27.01
25.28
23.39
21.3
19.05
16.74
14.46
12.28
10.23
8.32
6.5
4.72
2.97
1.27
-0.34
-1.86
-3.31
-4.71
-6.1
-7.5
-8.95
-10.42
-11.9
-13.33
-14.68
-15.88
-16.93
-18
-19.35
-21.41
-24.5
-28.77
-34.05
-39.92
-45.8
-51.2
-55.95
-60.2
-64.43
-69.15
-74.7
-81.05
-87.79
-94.4
-100.4
-105.6
-110.11
-114.29
-118.74
-124.2
-131.38
-140.65
-151.59
-162.56
-170.7
-172.48
-164.86
-146.35
-117.69
-81.71
-42.47
-4.11
30.06
57.97
78.88
92.99
101.24
104.95
105.54
104.29
102.12
99.56
96.87
94.14
91.44
88.82
86.3
83.86
81.57
79.65
78.39
78.01
78.42
79.16
79.51
78.87
76.89
73.64
69.46
64.77
59.93
55.16
50.56
46.19
42.07
38.19
34.52
31.02
27.66
24.48
21.57
18.96
16.68
14.68
12.81
10.91
8.78
6.29
3.37
0.14
-3.18
-6.35
-9.17
-11.7
-14.14
-16.83
-20.09
-24.01
-28.48
-33.12
-37.49
-41.3
-44.48
-47.36
-50.45
-54.28
-59.18
-65.1
-71.72
-78.54
-85.08
-90.99
-96.13
-100.59
-104.82
-109.54
-115.65
-123.77
-133.69
-143.85
-151.41
-152.94
-145.51
-127.82
-100.64
-66.69
-29.72
6.44
38.72
65.19
84.99
98.2
105.52
108.05
107.09
103.88
99.47
94.68
90.06
85.96
82.48
79.52
76.83
74.16
71.47
68.98
67.07
65.98
65.58
65.37
64.69
63.04
60.3
56.78
52.96
49.22
45.63
42.06
38.26
34.12
29.74
25.38
21.33
17.84
14.96
12.59
10.53
8.57
6.54
4.4
2.2
-0
-2.16
-4.32
-6.62
-9.19
-12.17
-15.53
-19.11
-22.68
-25.98
-28.83
-31.24
-33.43
-35.84
-38.96
-43.15
-48.41
-54.35
-60.28
-65.49
-69.53
-72.4
-74.57
-76.86
-80.25
-85.48
-92.81
-101.59
-110.19
-116.09
-116.4
-108.75
-92.1
-67.19
-36.34
-2.83
30.02
59.51
83.82
102.09
114.15
120.37
121.43
118.29
112.07
104.03
95.35
87.14
80.21
75
71.53
69.46
68.33
67.75
67.47
67.36
67.14
66.34
64.32
60.61
55.18
48.52
41.47
34.9
29.38
25.04
21.7
18.99
16.59
14.28
11.96
9.54
6.97
4.2
1.23
-1.89
-5.03
-8.08
-10.9
-13.52
-16.08
-18.81
-21.95
-25.63
-29.75
-34
-38.04
-41.65
-44.95
-48.33
-52.35
-57.45
-63.66
-70.57
-77.51
-83.81
-89.12
-93.5
-97.33
-101.18
-105.71
-111.54
-119.11
-128.37
-138.27
-146.64
-150.42
-146.47
-132.7
-108.94
-77.12
-40.67
-3.5
31.05
60.68
84.19
101.25
112.1
117.45
118.38
116.19
112.18
107.45
102.67
98.11
93.78
89.55
85.26
80.9
76.66
72.87
69.94
68.14
67.39
67.24
66.96
65.79
63.26
59.24
54.06
48.26
42.55
37.49
33.41
30.3
27.8
25.45
22.84
19.85
16.65
13.59
10.96
8.86
7.11
5.4
3.45
1.1
-1.59
-4.4
-7.03
-9.22
-10.9
-12.23
-13.56
-15.35
-17.94
-21.43
-25.63
-30.14
-34.53
-38.53
-42.01
-45.15
-48.35
-52.17
-57.19
-63.68
-71.37
-79.37
-86.35
-91.03
-92.89
-92.54
-91.75
-92.99
-98.45
-109.05
-123.66
-139.02
-150.48
-153.36
-144.47
-123.17
-91.49
-53.4
-13.55
23.82
55.58
79.82
95.69
103.39
104.06
99.66
92.56
84.96
78.28
73
68.87
65.34
62.04
58.92
56.18
54.1
52.9
52.58
53.09
54.16
55.36
56.12
55.93
54.46
51.76
48.15
44.03
39.8
35.65
31.64
27.74
23.89
20.1
16.4
12.91
9.82
7.26
5.3
3.81
2.58
1.33
-0.16
-1.93
-3.9
-5.89
-7.79
-9.64
-11.65
-14.13
-17.37
-21.53
-26.52
-32
-37.45
-42.4
-46.58
-50.04
-53.14
-56.46
-60.5
-65.47
-71.28
-77.57
-83.82
-89.67
-94.93
-99.81
-104.91
-110.94
-118.48
-127.32
-136.2
-142.68
-143.71
-136.5
-119.59
-93.42
-60.28
-23.69
12.62
45.51
72.89
93.63
107.54
115.04
117.06
114.87
109.86
103.38
96.45
89.71
83.45
77.75
72.61
68.04
64.17
61.11
59.05
58.11
58.15
58.66
58.75
57.48
54.06
48.35
40.79
32.35
24.16
17.16
11.89
8.43
6.53
5.75
5.65
5.88
6.16
6.33
6.19
5.68
4.81
3.71
2.56
1.52
0.65
-0.24
-1.43
-3.25
-5.79
-8.93
-12.39
-15.98
-19.77
-24.11
-29.4
-35.81
-43.16
-50.94
-58.54
-65.47
-71.47
-76.61
-81.14
-85.65
-90.9
-97.69
-106.37
-116.25
-125.23
-130.09
-127.46
-115.07
-92.72
-62.54
-28.25
6.06
37.09
62.85
82.66
96.64
105.25
109.03
108.69
105.15
99.58
93.24
87.19
82.05
77.99
74.75
71.93
69.23
66.65
64.42
62.82
61.98
61.63
61.23
60.1
57.77
54.1
49.38
44.07
38.67
33.55
28.87
24.67
20.88
17.41
14.13
10.93
7.7
4.41
1.11
-2.09
-5.02
-7.63
-9.94
-12.15
-14.56
-17.46
-21.02
-25.3
-30.17
-35.48
-41.1
-46.9
-52.81
-58.71
-64.47
-70.02
-75.39
-80.81
-86.54
-92.77
-99.34
-105.85
-111.88
-117.41
-122.99
-129.41
-137.01
-144.92
-150.85
-151.65
-144.42
-127.42
-100.46
-64.53
-21.38
26.57
76.06
122.67
161.29
187.41
198.68
195.93
182.83
164.4
145.05
127.29
111.7
97.74
84.92
73.35
63.64
56.35
51.52
48.61
46.69
44.87
42.62
39.91
37.14
34.83
33.35
32.67
32.33
31.63
29.95
27.05
23.2
19
15.16
12.16
10.12
8.75
7.54
5.95
3.58
0.4
-3.33
-7.09
-10.27
-12.31
-12.94
-12.23
-10.63
-8.91
-8.1
-9.19
-12.9
-19.29
-27.61
-36.53
-44.56
-50.69
-54.86
-58.03
-61.54
-66.41
-72.76
-79.69
-85.92
-90.43
-93.08
-94.69
-96.67
-100.37
-106.72
-115.95
-127.52
-139.99
-150.99
-157.39
-156.03
-144.58
-122.53
-91.54
-55.04
-17.11
18.54
49.31
73.86
91.77
103.24
108.9
109.75
107.14
102.58
97.48
92.84
89.08
86.13
83.65
81.16
78.31
75.09
71.85
69.15
67.46
66.86
66.9
66.74
65.5
62.71
58.52
53.5
48.4
43.73
39.66
36
32.42
28.65
24.63
20.47
16.38
12.56
9.08
5.9
2.88
-0.14
-3.18
-6.19
-9.11
-12
-15.04
-18.48
-22.45
-26.86
-31.39
-35.7
-39.63
-43.43
-47.57
-52.56
-58.61
-65.52
-72.73
-79.6
-85.66
-90.77
-95.12
-99.08
-103.18
-108.04
-114.18
-121.75
-130.02
-137.04
-139.92
-135.54
-121.68
-98.07
-66.57
-30.64
5.7
39.01
67.04
88.75
104.01
113.18
116.86
115.94
111.51
104.8
97.11
89.53
82.86
77.51
73.52
70.65
68.56
66.94
65.63
64.63
63.93
63.34
62.47
60.78
57.83
53.53
48.16
42.28
36.55
31.43
27.12
23.55
20.48
17.58
14.63
11.53
8.38
5.38
2.7
0.45
-1.45
-3.27
-5.4
-8.12
-11.56
-15.58
-19.83
-23.9
-27.45
-30.38
-32.88
-35.33
-38.22
-41.9
-46.39
-51.36
-56.24
-60.5
-63.83
-66.39
-68.78
-71.93
-76.79
-83.92
-93.05
-102.79
-110.67
-113.68
-109.05
-95.24
-72.58
-43.25
-10.59
21.86
51.17
75.55
94.15
106.76
113.53
114.81
111.24
103.9
94.24
83.89
74.28
66.37
60.53
56.64
54.27
53.02
52.56
52.74
53.41
54.27
54.77
54.22
52.11
48.29
43.14
37.36
31.69
26.58
22.09
17.95
13.81
9.41
4.77
0.06
-4.4
-8.32
-11.51
-13.91
-15.67
-17.1
-18.66
-20.82
-23.86
-27.71
-31.99
-36.07
-39.47
-42.05
-44.23
-46.81
-50.61
-56.11
-63.11
-70.86
-78.44
-85.18
-90.85
-95.73
-100.4
-105.49
-111.64
-119.36
-128.83
-139.4
-149.22
-155.19
-153.71
-141.95
-119.04
-86.66
-48.61
-9.51
26.55
56.92
80.53
97.4
108.09
113.31
113.97
111.16
106.28
100.71
95.56
91.4
88.23
85.69
83.34
80.91
78.44
76.23
74.65
73.87
73.73
73.71
73.19
71.63
68.81
64.89
60.24
55.34
50.59
46.28
42.51
39.2
36.13
32.97
29.44
25.46
21.14
16.83
12.95
9.81
7.47
5.77
4.37
2.92
1.14
-1.07
-3.67
-6.49
-9.34
-12.11
-14.79
-17.47
-20.41
-23.81
-27.85
-32.54
-37.71
-43.08
-48.32
-53.15
-57.45
-61.36
-65.26
-69.62
-74.82
-80.95
-87.76
-94.67
-101.07
-106.5
-110.87
-114.55
-118.27
-123.04
-129.83
-139.11
-150.3
-161.36
-168.81
-168.57
-157.33
-133.85
-99.69
-58.77
-16.16
23.52
57.12
83.28
102.03
114.08
120.36
121.8
119.48
114.58
108.39
101.95
95.95
90.7
86.16
82.17
78.55
75.25
72.35
70.08
68.6
67.91
67.7
67.35
66.19
63.7
59.71
54.5
48.67
42.83
37.51
32.97
29.25
26.24
23.73
21.56
19.54
17.56
15.56
13.57
11.66
9.89
8.29
6.73
5.09
3.17
0.96
-1.44
-3.85
-6.06
-8.04
-9.92
-12.08
-14.96
-18.9
-24.03
-30.11
-36.58
-42.78
-48.17
-52.61
-56.42
-60.25
-64.78
-70.37
-76.83
-83.59
-89.86
-95.05
-98.97
-101.95
-104.74
-108.35
-113.86
-121.97
-132.58
-144.3
-154.38
-159.15
-155.11
-140.12
-114.34
-80.24
-41.93
-3.73
30.91
59.95
82.73
99.48
110.69
116.83
118.27
115.35
108.67
99.12
87.98
76.77
66.94
59.58
55.1
53.22
53.19
54.22
55.74
57.48
59.27
60.74
61.29
60.24
57.22
52.38
46.43
40.34
34.96
30.77
27.7
25.32
23.14
20.76
18.06
15.24
12.61
10.54
9.22
8.57
8.3
7.98
7.13
5.48
2.91
-0.48
-4.38
-8.45
-12.39
-16.05
-19.53
-23.12
-27.24
-32.26
-38.37
-45.36
-52.76
-59.92
-66.25
-71.45
-75.6
-79.23
-83.2
-88.53
-96
-105.85
-117.14
-127.69
-134.32
-133.62
-123.2
-102.49
-73.18
-38.66
-3.04
30.06
58.2
80.31
96.31
106.66
111.95
112.83
109.99
104.35
96.98
89.07
81.67
75.5
70.85
67.59
65.3
63.58
62.19
61.1
60.4
60.09
59.9
59.33
57.9
55.29
51.58
47.16
42.57
38.32
34.69
31.66
29.02
26.41
23.56
20.32
16.75
13.02
9.33
5.9
2.81
0.05
-2.52
-5.13
-8.02
-11.44
-15.5
-20.14
-25.07
-29.93
-34.41
-38.48
-42.37
-46.53
-51.4
-57.17
-63.65
-70.43
-76.99
-82.91
-88.07
-92.6
-96.9
-101.59
-107.38
-114.9
-124.16
-134.07
-142.27
-145.45
-140.36
-124.94
-99.21
-65.45
-27.48
10.5
44.95
73.51
95.11
109.65
117.64
120
117.97
112.97
106.41
99.52
93.11
87.6
83.05
79.34
76.3
73.83
71.94
70.7
70.11
70.02
70.09
69.79
68.66
66.38
62.96
58.56
53.57
48.37
43.32
38.7
34.67
31.27
28.45
26.06
23.96
22.04
20.28
18.65
17.14
15.61
13.9
11.85
9.35
6.42
3.23
-0.02
-3.13
-5.98
-8.62
-11.16
-13.77
-16.64
-19.95
-23.81
-28.32
-33.43
-38.9
-44.39
-49.48
-53.88
-57.7
-61.36
-65.52
-70.73
-77.13
-84.33
-91.63
-98.25
-103.7
-107.99
-111.6
-115.38
-120.35
-127.3
-136.39
-146.67
-155.82
-160.47
-157.12
-143.29
-118.58
-84.91
-45.96
-6.07
30.89
62.27
86.72
103.91
114.27
118.67
118.37
114.84
109.55
103.75
98.26
93.42
89.19
85.34
81.65
78.03
74.63
71.78
69.81
68.81
68.54
68.4
67.63
65.6
62.11
57.41
52.1
46.87
42.2
38.35
35.28
32.71
30.26
27.57
24.53
21.28
18.16
15.55
13.69
12.47
11.52
10.33
8.55
6.09
3.18
0.17
-2.62
-5.07
-7.31
-9.57
-12.12
-15.1
-18.48
-22.06
-25.47
-28.44
-30.84
-32.84
-34.91
-37.56
-41.24
-46.05
-51.74
-57.72
-63.37
-68.17
-71.97
-75.02
-77.93
-81.65
-87.12
-94.9
-104.56
-114.33
-121.17
-121.5
-112.3
-92.37
-62.81
-26.81
11.33
47.48
78.55
102.8
119.68
129.35
132.35
129.55
122.15
111.76
100.24
89.35
80.39
73.9
69.66
66.95
64.9
62.94
60.91
59.02
57.58
56.66
56.03
55.17
53.57
50.95
47.34
43
38.33
33.72
29.43
25.67
22.42
19.52
16.72
13.82
10.73
7.5
4.37
1.5
-0.93
-2.87
-4.34
-5.43
-6.34
-7.34
-8.77
-10.92
-13.82
-17.24
-20.76
-23.99
-26.78
-29.3
-31.91
-34.98
-38.71
-43.04
-47.66
-52.23
-56.5
-60.51
-64.61
-69.24
-74.87
-81.57
-89.07
-96.75
-103.87
-109.9
-114.69
-118.59
-122.33
-126.97
-133.59
-143
-155.1
-168.33
-179.49
-184.18
-178.11
-158.6
-125.75
-82.64
-34.51
12.82
54.47
87.33
110.23
123.5
128.44
126.77
120.39
111.15
100.67
90.25
80.74
72.65
66.16
61.19
57.46
54.56
52.12
50
48.29
47.17
46.78
46.91
47.05
46.56
44.92
41.99
38.03
33.63
29.41
25.95
23.46
21.82
20.67
19.52
17.99
15.99
13.8
11.84
10.55
10.07
10.19
10.43
10.26
9.4
7.86
5.98
4.12
2.53
1.19
-0.18
-1.89
-4.12
-6.82
-9.75
-12.58
-15.11
-17.41
-19.77
-22.65
-26.42
-31.26
-36.94
-42.97
-48.74
-53.78
-58
-61.79
-65.88
-71
-77.59
-85.52
-94.19
-102.79
-110.62
-117.34
-122.99
-128.06
-133.35
-139.89
-148.65
-160.04
-173.16
-185.44
-192.81
-190.79
-176.08
-147.83
-108.24
-61.85
-14.17
29.83
66.71
94.85
114.13
125.41
130.1
129.86
126.36
121.16
115.48
110.11
105.41
101.48
98.18
95.34
92.81
90.56
88.76
87.64
87.35
87.74
88.33
88.35
87.12
84.25
79.9
74.63
69.13
64.02
59.54
55.64
52
48.24
44.08
39.48
34.61
29.75
25.2
21.16
17.62
14.43
11.35
8.17
4.83
1.42
-1.93
-5.12
-8.19
-11.41
-15.08
-19.48
-24.61
-30.21
-35.85
-41.17
-46.01
-50.59
-55.39
-60.85
-67.17
-74.19
-81.46
-88.41
-94.58
-99.79
-104.26
-108.43
-113.03
-118.88
-126.7
-136.74
-148.25
-159.12
-165.98
-164.98
-153.08
-129.13
-94.57
-53.04
-9.34
31.91
67.27
94.93
114.5
126.53
132.02
132.11
128.03
121.07
112.54
103.72
95.66
89.13
84.5
81.72
80.5
80.45
81.18
82.45
84.01
85.54
86.59
86.6
85.11
81.94
77.22
71.41
65.07
58.7
52.58
46.89
41.7
37.18
33.52
30.9
29.38
28.79
28.74
28.76
28.44
27.5
25.91
23.78
21.26
18.46
15.42
12
8.05
3.41
-2.03
-8.12
-14.53
-20.8
-26.53
-31.57
-36.12
-40.65
-45.7
-51.58
-58.21
-65.18
-71.97
-78.19
-83.78
-88.96
-94.18
-100.04
-107.2
-116.16
-126.95
-138.59
-148.71
-153.86
-150.35
-135.59
-109.17
-73.33
-32.24
9.23
46.91
78.17
101.98
118.42
128.1
131.87
130.68
125.76
118.61
110.74
103.43
97.38
92.72
89.14
86.16
83.48
81.08
79.23
78.23
78.21
78.82
79.43
79.26
77.7
74.63
70.34
65.42
60.4
55.62
51.17
46.95
42.79
38.56
34.25
29.9
25.66
21.71
18.19
15.19
12.69
10.53
8.52
6.45
4.14
1.52
-1.38
-4.52
-7.8
-11.19
-14.7
-18.33
-22.04
-25.76
-29.32
-32.56
-35.5
-38.32
-41.4
-45.13
-49.73
-55.1
-60.86
-66.42
-71.27
-75.31
-78.78
-82.27
-86.51
-91.92
-98.48
-105.71
-112.84
-119.1
-124.04
-127.61
-130.25
-132.86
-136.63
-142.81
-152.12
-164.12
-176.52
-185.34
-185.77
-173.75
-147.49
-108.34
-60.58
-9.99
37.71
78.24
109.37
130.73
143.26
148.59
148.61
145.1
139.63
133.48
127.53
122.37
118.25
115.19
112.87
110.89
108.84
106.6
104.43
102.84
102.32
102.95
104.24
105.2
104.78
102.27
97.57
91.23
84.15
77.22
70.95
65.48
60.72
56.58
53.14
50.5
48.53
46.83
44.74
41.67
37.49
32.59
27.66
23.3
19.73
16.66
13.62
10.28
6.62
2.91
-0.51
-3.59
-6.57
-9.94
-14.16
-19.51
-25.83
-32.64
-39.25
-45
-49.66
-53.55
-57.58
-62.96
-70.69
-81.08
-93.54
-106.71
-118.93
-129
-136.6
-142.41
-147.75
-153.82
-161.12
-169.3
-177.3
-184.03
-188.92
-192.17
-194.75
-197.99
-203.2
-211.18
-221.76
-233.46
-243.29
-247.28
-241.29
-222.31
-189.47
-144.44
-91.1
-34.57
19.93
68.08
106.96
135.24
153.03
161.63
163.15
159.93
154.12
147.32
140.57
134.5
129.41
125.42
122.39
120.06
118.14
116.52
115.24
114.51
114.34
114.34
113.84
112.02
108.31
102.59
95.28
87.13
78.87
71.04
63.85
57.25
51
44.88
38.79
32.76
26.91
21.38
16.26
11.53
7.12
2.9
-1.29
-5.61
-10.23
-15.3
-20.9
-26.96
-33.29
-39.55
-45.36
-50.44
-54.67
-58.24
-61.51
-64.99
-69.05
-73.89
-79.35
-85.02
-90.36
-94.94
-98.58
-101.42
-103.99
-107.13
-111.81
-118.8
-128.09
-138.42
-147.13
-150.56
-145.17
-128.69
-101.14
-64.88
-23.98
17.03
54.28
85.21
108.63
124.41
133.06
135.41
132.61
126.07
117.42
108.29
100.08
93.69
89.37
86.83
85.4
84.46
83.62
82.79
82.12
81.72
81.46
80.87
79.32
76.27
71.5
65.26
58.08
50.69
43.75
37.68
32.55
28.14
23.94
19.43
14.23
8.26
1.84
-4.49
-10.22
-15.08
-19.21
-23.16
-27.64
-33.2
-40.07
-47.98
-56.28
-64.18
-71.09
-76.79
-81.54
-86.07
-91.35
-98.42
-107.99
-119.94
-132.97
-144.34
-150.35
-147.33
-132.86
-106.78
-71.52
-31.29
9.03
45.33
75
97.11
111.91
120.33
123.48
122.41
118.25
112.07
104.99
97.97
91.72
86.6
82.58
79.36
76.54
73.88
71.41
69.44
68.23
67.73
67.5
66.84
65.07
61.93
57.58
52.52
47.31
42.33
37.71
33.44
29.39
25.47
21.53
17.47
13.18
8.63
3.96
-0.53
-4.47
-7.64
-10.08
-12.21
-14.66
-18.05
-22.71
-28.45
-34.66
-40.56
-45.56
-49.61
-53.23
-57.26
-62.42
-68.96
-76.48
-84.23
-91.44
-97.71
-103.03
-107.82
-112.68
-118.28
-125.32
-134.22
-144.74
-155.44
-163.43
-164.9
-156.18
-135.26
-102.69
-61.74
-17.35
25.31
62.22
91.16
111.61
124.22
130.23
130.97
127.82
122.08
115.02
107.71
100.94
95.13
90.28
86.15
82.34
78.57
74.87
71.55
69.03
67.55
66.94
66.59
65.73
63.78
60.56
56.36
51.76
47.29
43.28
39.75
36.52
33.32
30.02
26.58
23.14
19.9
17.05
14.74
12.96
11.63
10.56
9.56
8.41
7
5.32
3.47
1.57
-0.26
-2.02
-3.83
-5.85
-8.22
-10.96
-13.9
-16.79
-19.37
-21.46
-23.14
-24.7
-26.65
-29.51
-33.65
-39.06
-45.33
-51.64
-57.14
-61.25
-64.01
-66.11
-68.65
-72.59
-78.35
-85.49
-92.9
-99.33
-103.84
-106.33
-107.45
-108.55
-111.14
-116.5
-125.18
-136.42
-147.84
-155.41
-154.24
-140.03
-110.78
-67.93
-16.32
37.06
85.2
122.97
148.09
161.02
163.91
159.4
149.85
137.13
122.71
108.05
94.55
83.37
75.2
70
67.11
65.48
64.16
62.58
60.84
59.43
58.78
58.94
59.36
59.15
57.48
54.09
49.31
43.99
38.99
34.82
31.48
28.55
25.55
22.11
18.24
14.18
10.36
7.12
4.61
2.8
1.51
0.54
-0.26
-0.93
-1.49
-1.9
-2.13
-2.21
-2.23
-2.38
-2.84
-3.82
-5.41
-7.57
-10.07
-12.6
-14.93
-17.05
-19.2
-21.76
-25.06
-29.19
-33.92
-38.84
-43.56
-48.04
-52.59
-57.87
-64.43
-72.5
-81.65
-91.02
-99.55
-106.37
-111.2
-114.32
-116.62
-119.28
-123.64
-130.91
-141.73
-155.71
-170.61
-182.47
-186.27
-177.49
-153.82
-116.2
-68.79
-17.62
31.22
73.26
106.2
129.7
144.52
151.86
152.98
149.16
141.86
132.56
122.65
113.1
104.46
96.78
89.8
83.19
76.7
70.42
64.69
60.05
56.81
54.84
53.51
51.75
48.6
43.47
36.5
28.31
19.78
11.76
4.84
-0.64
-4.58
-7.08
-8.46
-9.13
-9.61
-10.27
-11.26
-12.4
-13.4
-14.02
-14.18
-14.06
-13.87
-13.79
-13.81
-13.73
-13.4
-12.75
-11.87
-10.95
-10.29
-10.12
-10.65
-11.97
-14.01
-16.58
-19.34
-21.91
-24.06
-25.83
-27.55
-29.73
-32.77
-36.86
-41.76
-47.05
-52.23
-57.07
-61.72
-66.65
-72.47
-79.53
-87.74
-96.54
-105.2
-113.09
-119.94
-125.91
-131.39
-136.96
-143.39
-151.51
-162.07
-175.05
-188.96
-200.48
-204.85
-197.3
-174.86
-137.71
-89.39
-35.73
16.92
63.37
100.43
126.95
143.26
150.61
150.79
145.99
138.52
130.46
123.31
117.73
113.62
110.37
107.26
103.75
99.74
95.55
91.8
89.14
87.88
87.84
88.27
88.21
86.89
84.01
79.86
75.05
70.23
65.79
61.79
58.01
54.22
50.2
45.85
41.17
36.24
31.26
26.49
22.16
18.46
15.36
12.71
10.21
7.56
4.6
1.31
-2.18
-5.69
-9.07
-12.39
-15.84
-19.74
-24.38
-29.84
-35.92
-42.18
-48.13
-53.48
-58.34
-63.16
-68.54
-74.86
-82.15
-89.93
-97.57
-104.5
-110.44
-115.51
-120.13
-124.96
-130.8
-138.53
-148.62
-160.62
-172.55
-180.87
-181.26
-169.96
-145.33
-108.55
-63.45
-15.33
30.62
70.46
101.99
124.49
138.32
144.35
143.78
138.19
129.32
119.01
108.92
100.26
93.65
89.11
86.18
84.16
82.53
81.09
79.94
79.31
79.24
79.42
79.21
77.88
74.96
70.5
64.86
58.69
52.6
47.02
42.12
37.85
33.91
29.93
25.62
20.86
15.81
10.89
6.51
2.98
0.28
-1.92
-4.02
-6.39
-9.16
-12.16
-15.07
-17.65
-19.89
-22.07
-24.75
-28.42
-33.35
-39.44
-46.25
-53.24
-60.01
-66.38
-72.38
-78.2
-84.16
-90.78
-98.78
-108.76
-120.67
-133.13
-143.17
-146.81
-140.33
-121.73
-91.62
-53.14
-10.84
30.7
67.9
98.6
121.68
136.76
143.92
143.84
137.84
127.89
116.19
104.71
94.85
87.21
81.76
78.1
75.72
74.2
73.37
73.25
73.89
75.13
76.51
77.32
76.81
74.54
70.55
65.25
59.26
53.11
47.04
41.06
35.08
28.99
22.83
16.76
11.01
5.78
1.13
-2.97
-6.66
-10.15
-13.67
-17.5
-21.84
-26.82
-32.41
-38.38
-44.31
-49.74
-54.44
-58.53
-62.56
-67.24
-73.16
-80.43
-88.65
-96.98
-104.66
-111.23
-116.78
-121.88
-127.33
-134.08
-142.87
-154.03
-166.9
-179.45
-188.23
-188.97
-177.94
-153.32
-116.06
-69.82
-19.78
28.74
71.56
106.04
131.11
146.75
153.79
153.68
148.38
140.06
130.68
121.66
113.78
107.33
102.19
98.11
94.78
91.89
89.22
86.78
84.72
83.23
82.31
81.61
80.52
78.49
75.3
71.19
66.71
62.47
58.77
55.65
52.93
50.35
47.85
45.35
42.81
40.08
36.93
33.2
28.91
24.26
19.59
15.17
11.07
7.26
3.61
-0.03
-3.73
-7.5
-11.38
-15.44
-19.71
-24.29
-29.27
-34.82
-41.14
-48.42
-56.68
-65.68
-74.91
-83.58
-91.01
-96.84
-101.24
-104.87
-108.61
-113.19
-118.85
-125.27
-131.76
-137.64
-142.53
-146.5
-150.04
-153.96
-159.22
-166.69
-176.72
-188.52
-199.68
-206.2
-203.37
-187.3
-156.38
-112.19
-59.12
-3.15
49.86
95.36
130.72
155.1
168.93
173.66
171.38
164.55
155.53
146.31
138.07
131.3
125.92
121.52
117.6
113.69
109.49
104.92
100.25
95.92
92.34
89.61
87.36
84.92
81.6
77.08
71.47
65.22
58.84
52.64
46.72
40.92
35.04
28.97
22.77
16.65
10.94
6.02
2.14
-0.62
-2.46
-3.8
-5.16
-6.99
-9.48
-12.53
-15.76
-18.79
-21.4
-23.69
-26.07
-29.04
-32.96
-37.81
-43.19
-48.49
-53.24
-57.29
-60.96
-64.9
-69.73
-75.89
-83.34
-91.64
-100.06
-107.87
-114.45
-119.64
-123.72
-127.47
-132.06
-138.63
-147.6
-158.1
-167.46
-171.51
-165.53
-145.76
-110.89
-62.88
-6.78
50.57
102.27
143.02
170.09
183.38
184.81
177.29
163.88
147.19
129.27
111.73
95.92
82.97
73.65
68.13
65.9
65.89
66.97
68.27
69.44
70.55
71.72
72.77
73.15
72.08
68.89
63.44
56.12
47.8
39.53
32.17
26.1
21.3
17.29
13.45
9.34
4.78
-0.12
-5.06
-9.76
-14.02
-17.77
-21.01
-23.77
-26.09
-28.15
-30.26
-32.78
-36.08
-40.25
-45.12
-50.23
-55.11
-59.49
-63.57
-67.85
-73.03
-79.59
-87.57
-96.56
-105.82
-114.62
-122.51
-129.36
-135.29
-140.68
-146.16
-152.59
-160.81
-171.09
-182.4
-191.95
-195.48
-188.48
-167.89
-133.42
-87.93
-36.56
14.89
61.43
99.76
128.38
147.2
157.02
159.35
156.13
149.51
141.52
133.66
126.76
121.03
116.21
111.85
107.46
102.76
97.83
93.18
89.63
87.8
87.78
88.85
89.73
89.18
86.58
82.13
76.65
70.99
65.58
60.33
54.93
49.17
43.25
37.71
33.07
29.63
27.26
25.58
24.14
22.69
21.12
19.46
17.63
15.47
12.75
9.35
5.38
1.17
-2.84
-6.32
-9.11
-11.39
-13.45
-15.56
-17.82
-20.11
-22.19
-23.92
-25.41
-27.08
-29.61
-33.61
-39.39
-46.73
-54.91
-62.94
-69.89
-75.32
-79.4
-82.85
-86.58
-91.36
-97.52
-104.9
-113.01
-121.21
-128.88
-135.67
-141.57
-147.08
-153.21
-161.18
-171.76
-184.38
-196.53
-203.85
-201.28
-184.73
-152.75
-107.31
-53.3
2.86
54.97
98.39
130.58
151.08
161
162.5
158.2
150.76
142.45
134.8
128.62
124.02
120.7
118.09
115.58
112.61
108.96
104.82
100.75
97.36
94.88
93.02
91.02
88.08
83.79
78.32
72.32
66.49
61.26
56.67
52.49
48.47
44.53
40.72
37.16
33.86
30.76
27.78
24.91
22.29
20.06
18.27
16.79
15.28
13.33
10.6
6.96
2.5
-2.5
-7.7
-12.78
-17.48
-21.63
-25.26
-28.61
-32.07
-36.13
-41.11
-46.98
-53.44
-59.96
-66.11
-71.7
-76.93
-82.27
-88.31
-95.4
-103.42
-111.8
-119.64
-126.03
-130.53
-133.3
-135.25
-137.81
-142.57
-150.69
-162.24
-175.62
-187.35
-192.61
-186.46
-165.56
-129.55
-81.56
-27.43
26.02
72.91
109.56
134.77
149.26
154.74
153.16
146.4
136.21
124.31
112.38
101.78
93.37
87.34
83.32
80.6
78.43
76.32
74.16
72.12
70.44
69.12
67.83
65.97
62.93
58.34
52.25
45.22
38.03
31.43
25.98
21.8
18.67
16.06
13.42
10.36
6.79
2.89
-0.99
-4.48
-7.35
-9.54
-11.21
-12.66
-14.26
-16.36
-19.14
-22.46
-25.88
-28.74
-30.37
-30.49
-29.38
-27.94
-27.45
-29.08
-33.48
-40.47
-49.21
-58.49
-67.24
-74.86
-81.42
-87.49
-94.02
-102
-112.13
-124.37
-137.41
-148.44
-153.51
-148.55
-130.83
-100.14
-59.18
-12.8
33.39
74.52
107.49
131.08
145.47
151.54
150.44
143.45
132.13
118.33
104.05
91.15
80.94
73.96
69.93
67.98
67.12
66.7
66.53
66.81
67.73
69.05
70.1
69.98
67.96
63.84
58.01
51.25
44.45
38.28
33
28.54
24.59
20.68
16.49
11.9
7.14
2.58
-1.39
-4.72
-7.71
-10.92
-14.89
-19.85
-25.63
-31.72
-37.52
-42.63
-47.04
-51.14
-55.57
-61.07
-68.1
-76.69
-86.38
-96.36
-105.79
-114.1
-121.16
-127.33
-133.4
-140.39
-149.32
-160.7
-173.95
-186.87
-195.61
-195.52
-182.61
-155.13
-114.44
-64.83
-12.15
37.81
80.68
114.09
137.4
151.13
156.53
155.2
149.06
140.18
130.57
121.86
115
110.26
107.23
105.11
103.04
100.51
97.52
94.63
92.52
91.59
91.59
91.63
90.59
87.65
82.7
76.31
69.47
62.97
57.2
52.04
47.13
42.1
36.91
31.75
26.93
22.74
19.24
16.33
13.68
10.95
7.77
3.94
-0.56
-5.52
-10.53
-15.15
-19.19
-22.78
-26.44
-30.85
-36.5
-43.46
-51.32
-59.44
-67.29
-74.77
-82.27
-90.44
-99.78
-110.35
-121.58
-132.47
-141.94
-149.21
-154.05
-156.85
-158.56
-160.5
-164.1
-170.31
-178.96
-188.18
-194.34
-192.73
-179.03
-150.97
-109.37
-58.16
-3.34
48.83
93.32
127.18
149.61
161.48
164.62
161.34
154.01
144.8
135.51
127.35
120.87
116.08
112.48
109.44
106.36
102.94
99.31
95.92
93.28
91.59
90.5
89.17
86.63
82.23
75.95
68.4
60.59
53.44
47.52
42.87
39.13
35.72
32.14
28.15
23.81
19.4
15.29
11.7
8.71
6.11
3.59
0.8
-2.45
-6.16
-10.09
-13.85
-17.11
-19.68
-21.67
-23.5
-25.72
-28.8
-32.88
-37.68
-42.66
-47.32
-51.47
-55.46
-59.96
-65.68
-73.02
-81.72
-90.99
-99.78
-107.26
-113.07
-117.5
-121.37
-125.88
-132.29
-141.51
-153.53
-166.84
-178.16
-182.96
-176.65
-156.22
-121.6
-76.04
-25.21
24.54
67.88
101.7
125.02
138.51
143.57
141.78
134.76
124.29
112.25
100.53
90.67
83.55
79.28
77.34
76.87
77.03
77.26
77.42
77.59
77.89
78.15
77.9
76.56
73.69
69.33
64.09
58.95
54.89
52.53
51.88
52.31
52.89
52.65
51.01
47.83
43.35
37.96
31.98
25.62
18.98
12.25
5.66
-0.58
-6.51
-12.49
-19.1
-26.81
-35.67
-45.14
-54.24
-62.02
-68.03
-72.69
-77.15
-82.77
-90.49
-100.4
-111.65
-122.82
-132.55
-140.09
-145.49
-149.56
-153.5
-158.65
-166.09
-176.34
-188.86
-201.65
-211.15
-212.78
-202.23
-176.96
-137.34
-86.86
-31.24
23.21
71.1
109.06
135.86
151.97
158.93
158.67
153.22
144.57
134.52
124.66
116.18
109.73
105.38
102.7
100.94
99.46
97.88
96.23
94.77
93.61
92.48
90.81
87.95
83.58
77.86
71.32
64.63
58.2
52.16
46.36
40.71
35.2
29.9
24.89
20.07
15.26
10.29
5.1
-0.14
-5.16
-9.65
-13.43
-16.51
-19.15
-21.81
-24.99
-29.16
-34.44
-40.56
-46.96
-52.91
-57.98
-62.27
-66.38
-71.17
-77.34
-84.99
-93.56
-102.13
-109.76
-115.89
-120.52
-124.13
-127.49
-131.51
-137.1
-144.88
-154.75
-165.3
-173.5
-175.12
-165.8
-142.71
-105.78
-58.09
-5.04
47.16
93.28
130.01
156.21
172.38
179.87
180.36
175.48
166.88
156.08
144.56
133.56
123.88
115.84
109.23
103.51
98.1
92.75
87.58
83.11
79.78
77.62
76.13
74.32
71.18
66.16
59.3
51.26
42.87
34.9
27.73
21.41
15.75
10.56
5.8
1.55
-1.99
-4.66
-6.41
-7.46
-8.15
-8.93
-10.08
-11.68
-13.72
-16.01
-18.46
-21.07
-23.84
-26.71
-29.45
-31.84
-33.7
-35.17
-36.65
-38.68
-41.7
-45.78
-50.57
-55.47
-59.92
-63.71
-67.13
-70.84
-75.6
-81.87
-89.55
-98.04
-106.41
-113.83
-119.82
-124.49
-128.54
-133.1
-139.48
-148.63
-160.65
-174
-185.4
-190.23
-183.8
-163
-127.52
-80.29
-26.7
26.92
74.98
113.68
141.32
158.09
165.34
165.11
159.64
151.1
141.39
132.01
123.97
117.71
113.22
110.06
107.52
104.96
102.02
98.86
95.99
94
93.03
92.72
92.16
90.42
86.89
81.54
74.81
67.32
59.67
52.19
45.07
38.41
32.33
27.02
22.62
19.22
16.78
15.13
13.99
13.06
12.1
10.88
9.31
7.3
4.8
1.7
-1.97
-6.15
-10.61
-15
-19.02
-22.5
-25.57
-28.59
-32.05
-36.25
-41.18
-46.47
-51.65
-56.32
-60.46
-64.47
-68.94
-74.45
-81.2
-88.94
-97.04
-104.78
-111.57
-117.15
-121.75
-126.1
-131.28
-138.45
-148.3
-160.34
-172.42
-180.97
-181.61
-170.67
-146.43
-109.95
-64.86
-16.33
30.24
70.61
102.11
123.82
136.21
140.5
138.37
131.6
122.03
111.39
101.32
93.05
87.33
84.25
83.26
83.46
83.96
84.22
84.12
83.82
83.49
83.07
82.25
80.59
77.86
74.12
69.67
64.9
60.22
55.89
51.96
48.31
44.63
40.63
36.06
30.91
25.37
19.86
14.81
10.46
6.74
3.26
-0.52
-5.05
-10.54
-16.84
-23.52
-30.13
-36.43
-42.52
-48.88
-56.09
-64.51
-74.05
-84.07
-93.6
-101.79
-108.12
-112.6
-115.82
-118.72
-122.42
-127.98
-136.08
-146.7
-158.46
-168.55
-173.05
-168.13
-151.4
-122.99
-85.76
-44.33
-3.74
32.07
60.85
81.96
95.8
103.18
104.97
102.17
96.02
87.97
79.61
72.33
67
63.81
62.38
61.87
61.41
60.49
59.1
57.55
56.21
55.11
53.84
51.68
48.02
42.73
36.23
29.37
22.99
17.65
13.48
10.29
7.78
5.7
4.04
2.89
2.39
2.58
3.33
4.31
5.23
5.83
5.98
5.68
4.91
3.67
1.89
-0.45
-3.27
-6.37
-9.45
-12.36
-15.12
-17.98
-21.31
-25.37
-30.12
-35.2
-40.06
-44.27
-47.8
-51.08
-54.85
-59.86
-66.42
-74.24
-82.6
-90.65
-97.78
-103.88
-109.28
-114.64
-120.85
-128.84
-139.25
-151.98
-165.47
-176.54
-180.74
-173.5
-151.9
-115.89
-68.66
-15.88
35.95
81.31
116.74
141.11
155.16
160.7
159.88
154.81
147.35
139.03
131.16
124.63
119.86
116.72
114.61
112.68
110.21
106.96
103.18
99.53
96.55
94.38
92.57
90.33
86.96
82.2
76.35
70.1
64.16
58.97
54.61
50.83
47.31
43.81
40.24
36.65
33.12
29.74
26.54
23.51
20.65
17.93
15.35
12.79
10.1
7.08
3.58
-0.38
-4.68
-8.99
-12.99
-16.44
-19.34
-21.95
-24.73
-28.18
-32.63
-38.03
-43.99
-49.92
-55.31
-60.01
-64.4
-69.15
-74.97
-82.18
-90.55
-99.36
-107.73
-114.96
-120.81
-125.49
-129.64
-134.21
-140.28
-148.76
-159.85
-172.42
-183.56
-188.99
-184.09
-165.55
-132.81
-88.52
-37.83
13.11
58.92
96.04
123
140.02
148.38
149.78
146.1
139.17
130.62
121.82
113.76
106.96
101.56
97.33
93.77
90.38
86.91
83.42
80.31
77.96
76.39
75.11
73.29
70.18
65.51
59.65
53.36
47.42
42.27
37.81
33.71
29.56
25.18
20.63
16.19
12.08
8.44
5.29
2.58
0.32
-1.47
-2.74
-3.52
-3.96
-4.36
-5.12
-6.59
-9.05
-12.57
-17
-22
-27.12
-31.97
-36.41
-40.66
-45.17
-50.46
-56.84
-64.2
-72.03
-79.7
-86.66
-92.69
-97.89
-102.64
-107.51
-113.17
-120.37
-129.68
-140.96
-152.77
-162.1
-164.81
-156.92
-136.07
-102.72
-60.15
-13.54
31.63
71.03
102.12
124.12
137.33
142.61
141.11
134.29
123.93
112.08
100.68
91.1
83.99
79.28
76.42
74.78
73.92
73.64
73.92
74.67
75.55
75.98
75.29
72.98
68.93
63.43
57.02
50.32
43.83
37.91
32.75
28.37
24.71
21.65
18.98
16.51
14.08
11.49
8.54
5.05
0.87
-3.97
-9.25
-14.64
-19.89
-25.01
-30.41
-36.67
-44.17
-52.89
-62.26
-71.44
-79.71
-86.66
-92.46
-97.67
-103.06
-109.46
-117.58
-127.7
-139.15
-149.93
-156.58
-155
-141.73
-115.37
-77.33
-31.59
16.48
61.7
100.22
129.99
150.55
162.42
166.7
164.75
158.18
148.66
137.96
127.57
118.74
112.27
108.53
107.39
108.38
110.78
113.87
117.05
119.85
121.91
122.88
122.47
120.67
117.75
114.19
110.42
106.6
102.51
97.81
92.31
86.19
80
74.55
70.55
68.48
68.42
70.06
72.8
75.94
78.81
81
82.56
84.04
86.29
90.21
96.47
105.25
116.29
128.85
141.88
154.1
164.2
171.01
173.64
171.63
164.86
153.49
137.88
118.42
95.5
69.46
40.67
9.53
-23.44
-57.55
-92.01
-126.14
-159.61
-192.62
-225.87
-260.3
-296.7
-335.7
-377.73
-423.18
-471.98
-522.93
-573.05
-617.93
-653.05
-675.44
-684.75
-682.91
-672.54
-655.1
-630.22
-596.49
-553.2
-501.74
-445.68
-389.3
-335.73
-285.83
-238.53
-192.09
-145.52
-99.06
-53.84
-10.99
29.03
66.6
102.66
138.1
173.1
206.71
236.87
260.91
276.36
281.91
277.86
266
248.86
228.73
206.8
183.12
157.11
128.54
98.52
69.77
46.32
32.4
31.13
43.33
67.15
98.39
131.57
161.3
183.47
196.02
199.02
194.38
185.13
174.49
165.05
158.02
153.25
149.44
144.95
138.61
130.34
121.01
111.97
104.2
97.71
91.44
83.66
72.78
57.95
39.41
18.14
-4.39
-26.79
-47.82
-66.35
-81.43
-92.42
-99.37
-103.31
-106.22
-110.58
-118.68
-132.13
-151.21
-174.72
-199.68
-221.64
-235.36
-236.11
-221.06
-190.1
-145.77
-92.2
-33.88
25.05
80.83
129.6
167.45
191.01
198.87
192.36
175.49
153.58
131.41
111.98
96.27
84.12
75.16
69.29
66.25
65.18
64.66
63.44
61.38
59.9
61.36
67.57
78.6
92.63
106.88
119.28
129.32
138.01
146.63
155.61
163.99
170.04
172.28
170.13
163.78
153.45
139.11
120.51
97.9
72.33
45.45
18.87
-6.54
-30.69
-53.56
-74.56
-92.39
-105.65
-113.8
-117.67
-119.22
-120.64
-123.46
-128.42
-135.93
-146.72
-161.83
-181.88
-206.26
-232.63
-257.61
-277.69
-290.14
-293.41
-286.74
-269.7
-242.1
-204.3
-157.45
-103.59
-45.1
15.82
77.18
136.83
191.79
238.24
272.15
290.74
293.62
283.21
263.93
240.73
217.62
197.12
180.43
168.03
160.32
157.53
159.48
165.27
173.21
181.13
186.71
188.14
184.49
176.04
164.13
150.61
137.08
124.04
110.69
95.24
75.86
51.59
22.82
-8.89
-41.32
-72.38
-100.48
-124.81
-145.41
-163.02
-178.76
-193.38
-206.8
-218.18
-226.63
-232.22
-236.27
-240.72
-246.67
-253.28
-257.84
-257.12
-249.28
-234.83
-216.2
-196.19
-176.72
-158.49
-141.85
-127.6
-116.87
-109.91
-104.61
-96.27
-79.08
-48.77
-4.97
47.97
102.55
150.81
187.05
209.39
219.41
220.69
216.9
210.54
202.71
193.6
183.54
173.33
164.31
157.58
153.36
150.71
147.92
143.46
136.64
127.99
118.71
109.98
102.3
95.24
87.96
79.67
70.08
59.54
48.84
38.75
29.65
21.13
12.12
1.47
-11.26
-25.32
-39.03
-50.75
-59.78
-66.57
-72.03
-76.53
-79.23
-78.56
-73.33
-63.79
-51.72
-39.67
-29.68
-22.49
-17.8
-15.1
-14.34
-15.98
-20.31
-26.85
-34.26
-40.94
-46.06
-50.09
-54.68
-61.91
-73.31
-89.1
-107.88
-127.21
-144.39
-157.58
-166.55
-172.56
-177.77
-184.2
-192.9
-203.7
-215.16
-224.9
-229.83
-226.67
-212.33
-184.75
-143.71
-91.22
-31.52
29.72
86.6
134.13
169.09
190.28
198.34
195.28
183.99
167.81
150
133.4
120.02
110.73
105.17
101.98
99.49
96.6
93.25
90.48
89.65
91.49
95.43
99.69
102.08
100.9
95.66
87.07
76.51
65.5
55.27
46.79
40.95
38.55
39.95
44.8
51.79
58.98
64.55
67.31
67
63.96
58.61
51.01
40.88
28.1
13.15
-2.67
-17.56
-29.87
-38.86
-44.87
-49.26
-53.61
-59.2
-66.59
-75.71
-86.14
-97.46
-109.37
-121.6
-133.82
-145.56
-156.25
-165.29
-172.14
-176.41
-178.1
-177.68
-176.2
-174.98
-175.12
-176.71
-178.25
-176.57
-167.52
-147.37
-114.16
-68.66
-14.24
43.98
100.53
150.69
191.12
219.8
235.79
238.98
230.18
211.44
186.14
158.88
134.55
117.19
108.87
109.17
115.46
123.88
130.83
134.16
133.77
131.1
128.08
125.83
124.04
121.15
115.27
105.3
91.5
75.4
58.92
43.47
29.43
16.45
4.11
-7.49
-17.65
-25.77
-31.91
-37.01
-42.44
-49.33
-58.04
-67.96
-78.11
-87.58
-96.07
-103.76
-110.97
-117.9
-124.59
-131.23
-138.27
-146.32
-155.73
-166.34
-177.38
-187.78
-196.51
-202.81
-206.55
-208.15
-208.69
-209.35
-210.92
-213.49
-216.75
-220.44
-224.66
-229.73
-235.22
-239.16
-237.88
-226.99
-203.06
-165.21
-115.49
-58.08
2.29
61.55
116.58
164.76
203.63
231.1
246.36
250.54
246.74
239.16
231.78
227.22
226.36
228.72
232.89
237.45
241.39
244.29
246.29
247.82
249.15
250.21
250.56
249.64
246.95
242.41
236.28
228.99
220.74
211.35
200.24
186.65
169.97
149.98
127.01
101.94
75.99
50.53
26.62
4.86
-14.57
-31.73
-46.52
-58.67
-67.94
-74.35
-78.62
-82.23
-87.02
-94.48
-105.06
-117.86
-130.91
-142.15
-150.4
-155.93
-160.2
-164.96
-171.25
-178.68
-185.72
-190.71
-192.92
-193.24
-193.7
-196.29
-201.73
-209.11
-216.51
-222.25
-225.89
-228.44
-231.47
-236
-241.68
-247.16
-250.95
-252.35
-251.62
-249.09
-244.21
-235.03
-218.71
-192.86
-156.71
-111.35
-58.89
-1.56
58.62
119.19
176.25
224.3
257.4
271.31
265.57
244.23
214.64
185.11
162.18
149.11
145.55
148.51
153.96
158.25
158.99
155.26
147.3
135.73
120.93
102.84
81.38
57.49
33.68
13.48
-0.06
-5.88
-5.69
-3.04
-1.43
-2.58
-5.93
-9.56
-11.98
-13.33
-15.05
-18.44
-22.98
-25.69
-22.44
-10.11
11.47
39.24
68.35
94.47
115.33
130.78
141.47
147.24
146.51
137.1
117.93
90.36
58.11
25.52
-4.55
-31.89
-58.61
-87.31
-119
-152.28
-183.81
-210.13
-229.7
-243.8
-256.13
-271.21
-292.09
-318.64
-347.14
-371.14
-383.75
-380.03
-358.64
-322.19
-275.87
-225.43
-175.06
-126.53
-79.48
-32.56
15.32
64.43
114.04
162.77
208.96
250.86
286.77
315.16
335.01
345.97
348.94
346.07
340.27
334.15
328.81
323.37
315.72
304.1
288.42
270.52
252.82
236.44
220.05
200.23
173.41
137.78
94.29
45.7
