-5.25
-57.34
-111.28
-168.56
-230.18
-295.41
-361.23
-422.54
-472.84
-505.74
-516.91
-505.9
-476.79
-436.66
-392.57
-348.64
-304.94
-258.59
-206.29
-146.87
-82.22
-16.28
47.13
106.34
162.19
216.73
271.71
327.8
384.84
442.35
499.33
553.95
603
641.6
664
665.76
646.06
608.72
561.14
510.37
461.94
419.31
383.99
356.18
335.42
321.04
312.12
306.99
300.42
287.37
265.48
235.68
200.46
162.12
121.83
79.81
35.66
-15.41
-76.72
-147.06
-220.63
-290.29
-350.37
-397.8
-431.76
-453.31
-470.45
-490.68
-517.08
-547.99
-580.44
-612.92
-645.76
-680.08
-681.83
-630.47
-531.57
-413.17
-302.54
-212.1
-142.14
-88.07
-44.63
-7.78
19.64
35.03
39.73
38.74
37.51
39.27
44.8
53.63
64.83
73.22
74.89
69.96
61.73
54.05
49.21
47.7
49.04
52.55
55.06
52.33
45.99
39.22
34.82
34.29
37.56
43.59
50.97
57.18
60.51
61.2
60.64
59.98
59.93
60.31
60.36
59.08
55.28
48.54
39.72
30.13
20.5
11.27
2.28
-7.21
-18.61
-33.86
-55.62
-86.92
-125.24
-167.86
-209.2
-241.9
-259.37
-258.71
-242
-215.2
-185.16
-157.4
-136.05
-123.61
-121.93
-132.04
-152.91
-180.48
-208.23
-229.42
-239.8
-239.51
-231.29
-218.15
-201.3
-179.98
-153.01
-120.56
-84.7
-48.4
-14.46
16.01
43.43
68.83
93.14
117.01
140.79
164.76
189.44
215.47
243.66
273.94
304.3
330.43
346.55
347.93
333.53
307.13
275.67
245.75
220.26
197.38
172.75
143.2
109.58
76.64
50.01
32.54
22.76
16.62
11.04
6.51
6.49
14.07
28.84
46.06
59.12
63.58
59.36
50.2
40.66
33.38
28.35
24.19
20.04
16
12.05
6.87
-2.01
-16.25
-34.42
-51.77
-62.44
-62.98
-54.66
-42.96
-34.4
-32.94
-38.02
-45.26
-49.37
-47.09
-38.7
-27.52
-17.95
-13.61
-15.91
-23.92
-34.77
-44.65
-49.77
-46.91
-34.09
-10.5
23.57
66.89
117.75
174.69
236.97
304.47
376.58
450.48
520.32
577.9
615.09
626.94
613.8
581.1
537.07
489.56
443.47
400.37
359.72
320.97
284.77
252.8
226.54
205.97
189.29
173.68
156.83
137.84
117.51
97.79
80.62
66.97
56.45
47.59
38.52
27.89
15.34
1.57
-12.01
-24.01
-33.54
-40.55
-45.66
-49.86
-54
-58.58
-63.58
-68.6
-73.12
-76.67
-79
-80.15
-80.4
-80.16
-79.87
-79.9
-80.38
-81.23
-82.15
-82.72
-82.64
-81.88
-80.69
-79.54
-78.96
-79.31
-80.85
-83.68
-87.76
-92.67
-97.4
-100.41
-100
-95.24
-86.52
-75.8
-65.82
-59.03
-56.52
-57.75
-61.07
-64.67
-67.5
-69.38
-70.75
-71.99
-73.11
-73.73
-73.52
-72.53
-71.16
-70.02
-69.58
-69.93
-70.79
-71.63
-72.01
-71.74
-71.01
-70.26
-70.03
-70.7
-72.4
-75.03
-78.33
-82.09
-86.24
-90.84
-95.99
-101.76
-108.05
-114.65
-121.33
-127.93
-134.42
-140.82
-147.16
-153.22
-158.56
-162.63
-164.87
-165.11
-163.52
-160.72
-157.44
-154.28
-151.41
-148.59
-145.4
-141.59
-137.52
-134.27
-133.39
-136.49
-144.63
-157.94
-175.67
-196.5
-219.13
-242.75
-267.3
-293.45
-322.42
-355.76
-394.87
-440.28
-490.66
-542.14
-588.42
-622.03
-636.67
-629.34
-601.49
-558.48
-507.6
-455.59
-406.98
-363.75
-326.1
-293.69
-266.35
-244.04
-226.41
-212.4
-200.31
-188.43
-175.63
-161.77
-147.54
-134.01
-121.9
-111.29
-101.48
-91.43
-80.24
-67.57
-53.8
-39.78
-26.56
-14.82
-4.77
3.95
11.96
19.79
27.66
35.33
42.24
47.71
51.26
52.69
52.18
50.16
47.13
43.55
39.76
36.04
32.52
29.43
26.95
25.25
24.42
24.42
25.09
26.12
27.21
28
28.26
27.78
26.45
24.3
21.43
18.1
14.65
11.51
9.08
7.73
7.66
8.96
11.52
15.15
19.67
24.91
30.8
37.3
44.37
51.86
59.49
66.92
73.75
79.75
84.93
89.61
94.22
99.16
104.62
110.39
116
120.89
124.75
127.77
130.6
134.19
139.34
146.38
154.92
164.06
172.78
180.54
187.66
195.34
205.33
219.09
237.3
259.46
284.29
310.24
336.23
362.08
388.49
416.78
448.61
485.89
530.21
581.92
638.74
694.98
742.11
771.02
775.24
753.47
710.24
653.93
593.49
535.4
482.34
433.98
388.82
345.98
305.6
268.27
233.95
201.61
169.51
136.08
100.72
63.89
27.05
-8.32
-41.26
-71.82
-100.9
-129.85
-159.89
-191.4
-223.83
-255.96
-286.67
-315.76
-344.46
-374.8
-408.12
-443.33
-476.02
-499.61
-507.78
-497.55
-470.7
-432.51
-389.11
-344.9
-302.16
-262.5
-228.54
-203.87
-190.93
-188.14
-188.85
-183.41
-163.53
-126.32
-75.13
-16.82
42.88
102.13
162.27
224.4
285.53
337.81
371.03
377.35
354.35
305.9
240.31
167.6
97.88
40.62
4.66
-2.96
20.46
70.89
137.17
203.87
256.38
286.02
292.1
280.46
259.74
237.81
220.02
209.47
207.8
215.33
230.49
249.16
265.27
272.71
267.66
250.17
223.84
194.01
165.57
141.68
123.36
110.16
100.74
93.03
84.63
73.13
56.96
36.21
12.73
-10.58
-30.99
-47.19
-59.88
-71.33
-84.39
-101.29
-123.16
-149.95
-180.47
-212.16
-240.8
-261.06
-268.08
-259.94
-239.41
-213.76
-192.35
-182.8
-188.01
-205.67
-230.51
-257.86
-286.37
-318.09
-355.88
-399.85
-445.16
-482.67
-502.12
-496.52
-464.94
-412.81
-349.57
-284.84
-225.09
-172.29
-124.85
-79.5
-33.13
16.48
70.43
128.48
188.37
245.15
291.62
320.12
325.37
306.81
268.84
219.17
165.8
114.46
67.51
24.59
-16.24
-57.52
-101.98
-152.04
-208.67
-269.96
-330.31
-381.3
-414.46
-424.64
-412.1
-382.56
-344.82
-307.32
-275.73
-252.14
-235.98
-225.72
-219.95
-217.74
-218.18
-220.02
-221.77
-222.23
-220.93
-218.25
-215.16
-212.6
-210.95
-209.84
-208.28
-205.19
-199.83
-192.15
-182.75
-172.68
-162.88
-153.86
-145.51
-137.24
-128.28
-118.07
-106.48
-93.87
-80.94
-68.42
-56.86
-46.48
-37.17
-28.76
-21.05
-14.08
-8.09
-3.46
-0.57
0.36
-0.67
-3.4
-7.47
-12.41
-17.84
-23.43
-28.92
-34.06
-38.55
-42.08
-44.33
-45.07
-44.2
-41.81
-38.1
-33.42
-28.1
-22.41
-16.5
-10.4
-4.1
2.37
8.88
15.14
20.84
25.75
29.89
33.65
37.66
42.6
48.87
56.36
64.45
72.2
78.8
84
88.29
92.8
98.77
106.99
117.28
128.54
139.14
147.75
154.04
158.99
164.56
172.85
185.05
200.81
218.3
235.09
249.38
260.93
271.2
282.65
297.71
317.94
344.1
376.25
413.51
453.11
489.46
514.63
521.1
505.76
472.61
432.24
397.45
377.4
374.08
382.94
396.85
410.93
424.54
439.99
459.05
480.38
499.21
509.67
507.8
493.06
467.84
435.8
400.2
363.22
326.26
290.11
255.25
221.78
189.6
158.88
130.09
103.63
79.3
56.2
33.24
10.4
-10.75
-27.42
-36.84
-38.37
-34.47
-30.41
-32.49
-45.26
-69.56
-102.2
-137.42
-169.03
-192.42
-205.47
-208.35
-203.11
-193.25
-183.16
-177.23
-178.58
-187.73
-202.44
-218.65
-232.1
-240.09
-242.22
-240.07
-236.19
-233.23
-233.52
-239.28
-252.71
-275.91
-310.43
-356.64
-413.21
-476.56
-540.75
-597.92
-639.7
-659.5
-654.67
-627.59
-584.87
-534.76
-484.24
-437.16
-394.34
-355.05
-318.73
-285.75
-256.94
-232.52
-211.33
-191.19
-169.87
-146.36
-121.22
-96.37
-73.91
-54.99
-39.22
-24.88
-9.8
7.49
27.07
47.53
66.8
83.22
96.55
108.12
120.41
135.82
155.63
179.43
205.53
231.78
256.6
279.76
302.17
325.54
351.85
383.17
421.13
466.13
515.84
564.14
601.6
617.98
606.41
566.95
507.56
441.15
380.22
331.78
295.47
265.74
236.19
203.39
167.54
130.53
93.12
53.71
9.86
-39.11
-90.59
-139.67
-181.89
-216.23
-245.65
-275.14
-308.18
-343.9
-376.94
-399.5
-404.55
-388.43
-351.84
-299.23
-237.25
-173.13
-113.27
-62.07
-21.05
11.1
37.29
59.97
79.3
92.88
97.26
90.32
72.92
48.79
22.95
-0.51
-19.1
-31.35
-35.66
-30.04
-13.84
9.82
32.99
44.34
33.79
-2.55
-59.69
-125.79
-187.36
-235.42
-268.81
-293.19
-316.75
-345.37
-380.09
-417.66
-453.43
-483.93
-507.87
-525.11
-534.97
-535.58
-524.56
-500.74
-465.43
-422.34
-376.17
-330.87
-288.51
-249.13
-210.98
-171.97
-130.69
-87.32
-42.24
3.77
49.71
93.92
134.73
171.24
203.13
230.51
253.26
272.31
289.11
305.09
320.95
336.73
353.4
371.6
391.4
411
430.85
453.26
481.88
519.47
566.34
622.81
684.05
739.99
773.75
775.62
744.07
685.73
610.54
529.75
462.01
421.89
415.83
432.39
464.2
506.07
555.75
609.15
662.35
725.2
804.51
897.97
978.81
1032.2
1053.6
1049.4
1027.5
996.07
979.36
994.48
1044.5
1099.9
1145.6
1177.8
1203.7
1227.3
1145.5
899.23
493.82
116.43
-174.73
-371.32
-517.46
-627.86
-711.93
-776.59
-810.93
-807.42
-768.49
-725.88
-694.68
-678.3
-669.54
-664.28
-660.49
-644.76
-607.93
-549.77
-493.64
-450.8
-423.93
-407.66
-398.87
-395.75
-389.24
-372.84
-345.53
-321.04
-305.46
-299.52
-299
-301.33
-305.09
-305.83
-300.74
-289.89
-280.54
-276.05
-276.93
-281.11
-287.34
-295.03
-302.83
-310.14
-317.37
-327.2
-340.36
-356.19
-372.93
-389.45
-405.32
-420.92
-437.1
-454.73
-474.66
-497.73
-524.73
-556.18
-591.38
-627.73
-661
-686.69
-701.84
-706.33
-702.52
-693.72
-681.98
-666.92
-646.22
-617.36
-579.48
-534.26
-485.24
-436.28
-390.07
-347.56
-308.33
-271.34
-235.63
-200.52
-165.65
-131.12
-97.3
-64.82
-34.33
-5.9
20.93
47.22
74.28
102.94
133.1
163.68
193.08
219.81
243.34
264.35
284.55
306.2
331.26
361.29
396.55
435.36
473.3
503.55
518.03
509.88
475.88
417.99
343.09
261.18
183
116.86
67.99
37.46
22.67
18.75
20.24
22.84
23.92
22.76
18.07
9.77
-1.02
-10.8
-13.71
-3.48
23.28
63.8
109.22
144.19
154.8
133.78
83.92
17.45
-48.31
-97.05
-118.64
-109.98
-77.68
-30.79
22.17
76.24
130.43
186.38
246.32
302.83
363
421.11
470.64
504.3
516.01
502.68
465.29
408.66
339.43
265.49
191.11
120.46
57.04
3.79
-37.76
-69.05
-95
-122.91
-158.33
-204.53
-257.21
-306.35
-339.27
-344.78
-316.71
-255.7
-168.86
-67.27
35.06
125.65
195.09
238.1
253.28
242.56
211.41
168.62
126.27
96.27
87.42
101.31
130.86
162.11
179.95
174.63
146
102.96
58.07
21.3
-4.59
-24.02
-45.09
-74.82
-115.15
-162.43
-209.33
-248.1
-273.67
-285.38
-286.46
-282.16
-276.97
-272.81
-268.94
-263.46
-255.48
-246.45
-239.58
-237.93
-241.26
-245.09
-241.73
-223.49
-186.22
-131.28
-65.02
3.8
67.63
122.02
165.45
197.76
217.93
223.41
210.79
177.86
125.36
57.42
-19.35
-97.15
-168.23
-225.73
-264.43
-282.4
-282.64
-273.13
-264.62
-266.68
-284.18
-315.82
-355.83
-397.52
-435.74
-467.71
-491.79
-505.85
-507.16
-493.84
-466.81
-430.49
-391.21
-354.58
-323.35
-297.12
-273.65
-250.64
-226.89
-202.44
-177.99
-154.44
-132.62
-113.01
-95.76
-80.9
-68.2
-57.34
-47.98
-39.84
-32.69
-26.29
-20.44
-15
-9.89
-5.04
-0.45
3.9
8.07
12.15
16.31
20.72
25.46
30.55
35.89
41.37
46.93
52.62
58.66
65.38
73.08
81.91
91.74
102.15
112.54
122.36
131.29
139.39
147.1
154.98
163.52
172.86
182.68
192.37
201.29
209.15
216.22
223.33
231.57
241.89
254.67
269.59
285.83
302.41
318.65
334.43
350.14
366.47
384.35
404.82
428.82
456.62
486.96
516.57
540.48
553.37
551.56
534.52
505.18
468.73
430.59
394.55
362.09
332.89
305.92
280.43
256.21
233.26
211.35
189.96
168.64
147.46
127.16
108.9
93.88
82.73
75.14
69.95
65.46
59.98
52.48
42.88
32
21.2
11.67
4.08
-1.66
-6.13
-10.14
-14.23
-18.59
-23.14
-27.72
-32.41
-37.46
-43.18
-49.53
-55.91
-61.06
-63.25
-60.84
-52.74
-38.88
-20.26
1.33
23.81
45.33
64.67
81.33
95.39
107.25
117.32
125.94
133.34
139.77
145.68
151.8
159.06
168.38
180.33
194.8
210.92
227.13
241.66
252.88
259.74
261.75
258.96
251.62
240.06
224.7
206.16
185.43
163.77
142.55
122.84
105.11
89.18
74.31
59.48
43.77
26.58
7.75
-12.48
-33.69
-55.42
-77.26
-98.85
-119.82
-139.72
-158.05
-174.42
-188.75
-201.39
-213.06
-224.84
-237.79
-252.64
-269.47
-287.47
-305.15
-320.7
-332.78
-341.08
-346.67
-351.7
-358.7
-369.54
-384.65
-402.74
-421.25
-437.19
-448.17
-453.06
-452.12
-446.59
-438.09
-427.93
-416.91
-405.32
-393.31
-381.04
-368.77
-356.69
-344.74
-332.72
-320.56
-308.73
-298.24
-290.17
-284.98
-281.84
-278.58
-272.39
-260.96
-243.37
-220.46
-194.27
-167.09
-140.58
-115.28
-90.82
-66.54
-42.05
-17.47
6.68
29.81
51.56
71.83
90.73
108.29
124.29
138.23
149.55
157.97
163.68
167.46
170.24
172.71
174.78
175.65
174.2
169.78
162.62
153.86
144.87
136.35
127.8
117.82
105.09
89.5
72.7
57.55
46.86
41.98
42.07
44.41
45.59
42.87
34.95
22.2
6.19
-10.73
-25.85
-36.35
-39.64
-33.89
-18.67
4.62
32.92
62.19
88.49
109.01
122.6
129.64
131.54
129.99
126.5
122.15
117.76
114.05
111.77
111.52
113.47
117.13
121.39
124.81
126.15
124.82
121.15
116.32
111.92
109.36
109.3
111.42
114.44
116.66
116.53
113.28
107.13
99.17
90.98
83.99
78.99
75.99
74.39
73.31
72
70.08
67.58
64.79
62.07
59.68
57.75
56.35
55.46
55
54.82
54.72
54.52
54.15
53.6
52.97
52.35
51.82
51.6
52.08
53.79
57.17
62.3
68.78
76.04
83.64
91.54
100.04
109.41
119.57
129.96
139.84
148.6
156.03
162.31
167.85
173.27
179.53
188.2
201.4
221.37
249.57
285.84
328.04
372.27
413.75
447.7
470.27
479.1
473.59
454.8
425.19
388.05
346.89
304.76
263.88
225.5
190.13
157.76
128.21
101.22
76.57
54.1
33.82
15.84
0.36
-12.42
-22.4
-29.72
-34.72
-37.91
-39.96
-41.52
-43.26
-45.77
-49.52
-54.82
-61.72
-70.07
-79.57
-89.93
-101.03
-112.98
-126.09
-140.68
-156.9
-174.51
-192.97
-211.63
-230.06
-248.32
-266.94
-286.63
-307.89
-330.65
-354.49
-379.02
-404.43
-431.38
-460.25
-490.12
-518.4
-541.57
-556.8
-563.28
-562.32
-555.84
-544.17
-525.07
-494.5
-449.28
-389.62
-320
-247.6
-179.22
-118.89
-67.37
-23.67
12.55
39.79
55.6
58.93
52.17
41.57
35.06
38.87
54.47
77.41
99.01
110.04
104.48
81.88
47.18
7.93
-29.28
-61.35
-88.84
-114.23
-139.32
-163.59
-184.69
-200.18
-209.25
-213.22
-214.33
-213.4
-208.45
-195.32
-170.75
-135.05
-93.09
-52.49
-19.66
3.53
20.68
38.5
62.29
92.13
121.87
141.43
141.73
119.62
79.72
32.41
-10.56
-40.72
-55.39
-57.06
-50.45
-39.28
-24.63
-5.17
19.98
48.7
74.85
89.73
85.52
58.89
12.45
-45.89
-106.23
-159.99
-201.8
-229.53
-242.94
-242.41
-228.5
-202.52
-167.19
-126.14
-82.88
-39.8
1.88
41.42
77.92
110.03
136.69
157.63
173.23
183.26
186.13
179.07
160.15
130.56
95.05
59.98
29.95
5.4
-17.05
-41.4
-68.47
-94.33
-112.13
-116.36
-106.15
-86.01
-63.14
-43.15
-27.32
-12.46
5.92
30.06
58.14
85.18
106.3
119.6
127.09
133.35
142.89
157.72
176.65
195.82
210.4
216.21
211.21
196.52
176.68
158.76
150.26
156.44
177.99
210.05
243.98
270.56
283.65
281.97
268.58
248.03
223.69
196.38
164.57
126.58
82.57
35.43
-9.58
-46.67
-71.34
-81.82
-79.31
-67.82
-53.02
-41.42
-39.06
-49.9
-74.33
-108.35
-144.51
-174.3
-191.78
-195.68
-189.68
-180.52
-174.37
-174.35
-179.46
-185.91
-188.88
-184.46
-170.25
-145.36
-110.3
-67.09
-19.71
26.13
63.76
87.04
91.7
76.51
43.97
0.32
-45.03
-81.34
-99.15
-92.68
-61.36
-9.76
53.91
120.02
179.32
224.03
248.59
250.79
232.6
200.19
162.48
128.92
106.74
98.98
104.53
118.75
134.97
146.46
148.2
138.7
120.87
100.73
85.16
78.65
81.61
90.9
101.82
110.18
113.2
109.11
96.53
75.17
47.13
17.81
-5.42
-16.42
-13.7
-1.97
9.46
10.49
-5.59
-39.28
-84.85
-132.19
-170.22
-190.59
-190.67
-174.86
-152.97
-135.84
-130.76
-138.47
-153.75
-169.51
-180.71
-186.93
-191.45
-198.19
-208.56
-220.41
-229.11
-229.91
-219.68
-197.15
-162.35
-116.23
-60.91
-0.18
60.33
114.62
157.8
187.41
202.89
204.88
194.77
174.82
148.77
121.8
99.39
85.31
79.87
80.37
82.62
83.11
80.6
76.07
71.62
69.17
69.39
71.03
70.71
63.48
44.56
11.87
-31.69
-77.91
-115.37
-134.13
-130.04
-106.72
-74.38
-45.81
-32.06
-39.15
-66.86
-109.25
-156.41
-196.88
-221.04
-224.27
-208.79
-182.71
-156.63
-139.01
-132.63
-134.4
-138.02
-137.95
-131.65
-119.54
-102.87
-81.69
-54.79
-22.01
13.07
42.68
57.37
51.25
26.38
-6.65
-32.85
-39.84
-23.82
9.06
46.07
73.89
83.76
73.66
46.71
8.49
-35.16
-78.66
-116.07
-141.09
-148.39
-135.86
-105.79
-64.11
-18.4
24.23
58.55
81.48
92.29
93.1
89.58
89.95
101.95
128.76
166.45
204.98
232.41
240.24
226.49
195.34
154.23
110.12
68.04
31.64
4.42
-9.8
-8.15
9.44
39.23
74.51
107.73
132.53
144.72
142.59
126.83
100.74
69.82
40.74
19.38
8.83
8
12.02
14.69
11.68
3.22
-6.1
-10.1
-5.46
5.77
17.4
22.79
19.04
8.77
-2.15
-8.12
-6.63
1.61
14.99
33.37
58.42
91.18
129.37
166.43
193.66
204.02
194.57
166.75
124.39
71.7
12.68
-48.11
-105
-152.04
-184.7
-201.62
-204.65
-197.49
-184.02
-167.43
-150.63
-136.67
-128.42
-127.57
-133.94
-145.88
-161.76
-181.44
-205.85
-234.88
-264.78
-287.59
-293.17
-273.77
-227.76
-160.82
-84.03
-9.7
51.98
95.05
118.07
123.59
117.18
105.82
95.84
90.55
89.37
88.95
86.15
80.81
76.2
76.41
82.74
91.77
97
93.28
80.95
67.07
61.88
72.76
99.09
131.56
156.47
162.28
145.18
110.23
68.44
31.55
7.8
0.29
7.82
26.41
50.56
74.11
91.15
96.92
89.1
68.28
37.78
2.46
-32.39
-62.34
-84.3
-96.7
-99.44
-93.43
-80.12
-60.62
-35.59
-5.43
28.54
63.25
93.73
114.02
119.33
107.89
82.01
47.23
10.83
-20.62
-42.94
-55.39
-60.08
-59.73
-55.65
-46.47
-29.02
-1.21
35.34
74.34
107.03
125.63
127.09
113.74
91.14
64.84
37.91
11.03
-15.83
-41.57
-63.7
-79.94
-90.6
-99.74
-114.15
-140.28
-180.92
-232.89
-287.28
-332.28
-356.93
-354.44
-323.85
-269.53
-199.32
-121.81
-44.99
24.25
79.24
113.54
122.61
106.26
70.56
27
-11.22
-34.43
-40.18
-33.26
-21.92
-12.94
-8.15
-4.74
1.48
12.53
26.78
40.5
50.74
57.31
61.91
65.32
65.31
57.08
36.71
4.96
-31.18
-61.23
-76.38
-74.12
-59.08
-39.38
-21.3
-5.41
12.83
38.74
73.32
110.73
140.32
151.58
139.4
106.05
59.23
7.82
-41.7
-86.6
-126.53
-161.46
-190.48
-211.8
-223.95
-227.12
-223.53
-217.13
-212.26
-212.07
-217.14
-225.04
-230.64
-227.8
-211.6
-179.96
-134.23
-77.99
-15.38
50.45
116.97
180.94
237.18
278.94
300.46
300.37
283.83
261.73
246.65
247.47
265.71
294.93
323.99
342.09
343.03
326.84
298.55
265.05
232.18
203.1
178.27
156.68
137.05
118.04
98.42
77.02
53.16
27.41
1.63
-21.19
-37.95
-46.78
-48.42
-46.32
-45.45
-50.27
-62.76
-81.86
-104.34
-126.54
-146.31
-164.29
-183.55
-207.95
-240.13
-279.86
-323.83
-367.19
-405.51
-436.17
-458.26
-471.47
-475.72
-471.56
-461.27
-449.67
-443.1
-446.83
-461.97
-483.86
-503.6
-512.01
-503.82
-479.67
-445
-406.74
-370.04
-336.96
-307.16
-279.5
-253.56
-229.72
-208.55
-190.11
-173.73
-158.23
-142.57
-126.46
-110.37
-95.3
-82.23
-71.63
-63.19
-55.99
-48.89
-41.05
-32.15
-22.47
-12.65
-3.34
5.06
12.52
19.24
25.53
31.64
37.76
44.07
50.78
58.18
66.54
75.96
86.35
97.51
109.3
121.94
136.11
152.82
173.1
197.47
225.71
256.85
289.57
322.64
355.47
388.16
421.42
456.32
494.07
535.82
582.17
632.31
683.27
729.78
765.41
784.55
784.61
767.02
736.67
699.81
661.67
624.94
589.94
555.92
522.54
490.56
461.44
436.24
414.83
395.93
377.95
359.97
342.3
326.2
313.2
304.13
298.7
295.6
292.98
289.02
282.36
272.16
258.06
240.1
218.69
194.58
168.79
142.41
116.41
91.49
68.13
46.72
27.56
10.78
-3.75
-16.5
-28.2
-39.57
-51.09
-62.77
-74.26
-84.95
-94.41
-102.54
-109.71
-116.59
-123.93
-132.22
-141.56
-151.6
-161.73
-171.41
-180.45
-189.13
-198.15
-208.35
-220.4
-234.55
-250.53
-267.71
-285.4
-303.03
-320.48
-338.26
-357.39
-379.29
-405.24
-435.76
-469.88
-504.79
-536.09
-559.03
-570.01
-567.86
-554.17
-532.54
-507.1
-481.15
-456.46
-433.26
-411.19
-390
-369.69
-350.27
-331.39
-312.28
-292.15
-270.44
-246.58
-220.53
-192.51
-162.83
-131.81
-99.72
-66.84
-33.29
1.11
37.6
76.93
118.71
161.32
202.6
240.72
275.1
306.61
337.28
371.03
410.96
458.79
514.24
574.76
635.31
688.38
725.18
737.98
724.44
686.58
630.2
562.77
491.31
421.02
354.91
294.65
230.84
162.47
95.3
38.8
0
-20.24
-25.98
-22.75
-14.83
-4.67
8.38
24.64
42.87
60.23
73.5
80.32
79.68
71.44
58.52
44.74
32.52
22.45
13.52
4.18
-6.62
-19.08
-32.62
-46.25
-58.53
-68.85
-77.61
-85.99
-95.24
-106.05
-118.48
-132.13
-146.46
-160.94
-175.56
-190.73
-207.12
-225.18
-244.93
-265.87
-287.27
-308.49
-329.25
-350.05
-372.18
-397.16
-425.78
-457.14
-488.42
-515.73
-535.36
-544.89
-543.41
-530.77
-506.56
-470
-420.69
-360.08
-292.23
-222.87
-157.41
-98.65
-46.64
-0.47
39.25
69.31
85.75
87.06
76.65
61.89
50.15
44.74
43.72
42.33
37.43
30.13
24.84
25.89
33.98
45.93
57.22
65.26
70.68
75.73
81.69
87.39
90.63
90.39
87.89
85.2
82.68
78.01
67.44
48.62
22.1
-9.56
-44.15
-81.17
-120.56
-160.25
-194.77
-216.85
-221.3
-208.53
-184.85
-158.92
-136.68
-118.13
-98.11
-70.12
-30.63
18.85
72.5
122.87
163.47
190.37
202.72
202.38
193.48
181.15
170.11
163.42
161.82
164.03
167.34
168.32
163.75
151.91
133.82
113.61
97.05
88.51
88.21
91.64
91.95
84.25
68.96
51.89
40.65
39.86
47.9
57.67
60.76
52.16
32.74
7.91
-15.96
-34.81
-47.72
-55.76
-59.98
-60.52
-57.44
-51.83
-46.3
-43.95
-46.57
-53.28
-60.84
-65.59
-65.79
-62.92
-60.92
-63.96
-74.04
-90.14
-109.29
-128.7
-147.29
-165.61
-184.55
-203.73
-221.15
-233.88
-239.59
-237.62
-229.11
-215.95
-199.48
-179.81
-155.87
-126.28
-90.3
-48.37
-2.18
45.69
92.21
134.7
171.37
202.11
228.71
254.4
282.96
317.82
361.47
414.97
477.16
543.75
607.11
657.4
685.44
686.12
660.6
615.88
561.89
507.35
457.01
411.08
367.04
322.01
274.46
224.88
175.86
131.86
98.66
81.87
84.59
105.1
136.23
167.4
188.33
192.76
180.14
154.41
121.06
84.53
47.23
10.45
-24.27
-54.75
-79.15
-97.32
-111.52
-125.44
-142.26
-162.97
-185.97
-208.1
-226.56
-240.74
-252.53
-265.58
-284.04
-311.04
-347.99
-394
-445.39
-495.56
-536.08
-559.3
-561.55
-545.17
-517.63
-487.86
-461.53
-438.37
-412.95
-378.73
-332.51
-276.64
-217.46
-161.42
-111.43
-65.49
-18.47
34.7
96.1
163.48
230.75
289.55
331.53
350.29
343.6
313.9
267.22
211.18
152.33
94.24
37
-21.62
-83.84
-149.31
-214.06
-271.23
-313.04
-333.39
-329.65
-302.89
-257.34
-199.35
-135.84
-74.97
-26.52
-1.14
-7.72
-49.6
-121.58
-209.99
-296.32
-361.43
-392.63
-387.28
-352.34
-300.46
-244.37
-192.69
-149
-113.21
-81.22
-49.06
-14.63
21.81
58.83
95.29
131.25
167.15
202.97
241.36
284.85
335.15
392.22
454.72
521.18
591.07
664.15
718.78
734.79
700.91
622.91
519.88
412.56
314.79
232.82
167
114.31
73.67
44.29
25.25
14.57
9.43
7.03
6.08
5.84
5.34
5.85
8.58
14.24
22.33
33.73
45.75
57.34
68.74
80.61
94.75
110.96
126.54
136.15
133.78
115.67
83.4
43.24
3.7
-26.94
-44.71
-50.03
-46.81
-39.94
-33.27
-28.11
-24.71
-24.13
-24.34
-26.36
-31.73
-41.39
-54.99
-71.07
-87.3
-101.88
-114.25
-125.19
-136.88
-151.37
-170.04
-193.64
-222.43
-255.75
-291.44
-325.09
-350
-359.02
-346.22
-309.25
-250.5
-176.06
-93.34
-8.53
74.75
155.05
231.35
301.88
363.63
413.05
447.37
465.59
468.85
459.83
441.73
417.49
389.65
360.59
332.69
308.26
288.78
274.27
262.98
251.72
236.97
216.26
189.2
157.37
123.67
91.05
61.64
36.47
15.6
-1.47
-15.45
-27.77
-39.59
-51.41
-62.88
-73.23
-81.65
-87.4
-90
-89.38
-86.51
-82.58
-78.45
-74.52
-70.99
-68.04
-65.79
-64.29
-63.51
-65.05
-70.04
-78.33
-88.67
-99.66
-110.47
-120.79
-130.59
-139.97
-153.3
-173.55
-200.12
-229.2
-256.69
-280.23
-299.13
-313.54
-323.82
-338.93
-364.97
-400.57
-437.88
-468.63
-488.43
-496.75
-495.2
-485.99
-485.19
-504.54
-543.62
-591.43
-635.82
-670.39
-694.3
-709.53
-718.64
-741.72
-793.43
-872.57
-964.2
-1052.3
-1128.4
-1191.7
-1245.1
-1174.7
-927.26
-538.01
-106.87
276.52
573.65
786.39
933.49
1035.8
1099.8
1125.3
1110.1
1062.1
1000
941.51
895.5
862.29
837.04
821.67
801.35
763.75
708.74
646.97
590.24
544.73
511.06
487.14
470.44
449.9
416.76
370.55
317.91
266.5
220.72
181.75
149.26
122.71
97.17
68.52
36.43
3.85
-25.86
-50.81
-70.38
-84.42
-92.79
-97.45
-100.62
-103.8
-107.65
-112.6
-118.98
-126.57
-134.39
-141.05
-145.77
-149.03
-152.73
-159.56
-172.02
-191.2
-216.18
-244.15
-271.58
-295.75
-315.74
-332.75
-349.68
-370.18
-397.3
-431.87
-471.57
-510.49
-540.12
-551.28
-537.03
-495.37
-431.04
-355.49
-284.35
-232.93
-211.23
-220.27
-251.66
-290.88
-322.68
-336.61
-329.78
-306.13
-273.11
-237.51
-203.09
-170.69
-140.28
-112.62
-89.63
-73.21
-63.57
-58.56
-54.43
-47.55
-36.27
-21.55
-6.36
5.84
12.75
14.2
12.09
9.41
8.9
11.92
18.07
25.62
32.52
37.36
40.01
41.5
43.51
47.48
54.06
62.86
72.71
82.17
90.08
95.87
99.62
101.78
102.86
103.2
102.82
101.55
99.13
95.47
90.62
84.83
78.39
71.58
64.58
57.47
50.3
43.09
35.96
29.09
22.7
17.08
12.45
9.01
6.84
5.93
6.22
7.61
9.93
13.08
16.9
21.25
25.95
30.79
35.53
39.9
43.66
46.63
48.7
49.86
50.1
49.45
47.89
45.44
42.17
38.26
34.1
30.16
26.92
24.75
23.73
23.64
24.12
24.76
25.36
26.04
27.15
29.13
32.25
36.46
41.33
46.32
50.98
55.31
59.65
64.53
70.34
76.98
83.96
90.83
97.69
105.24
114.28
124.95
136.13
145.83
152.12
154.46
154.15
153.89
156.41
163.41
175.04
190.35
208.28
228.08
249.24
271.19
293.17
314.69
336.5
361.1
391.93
431.41
478.68
528.59
572.43
600.72
606.48
587.62
548.05
496.74
445.43
405.44
384.4
383.81
398.64
419.11
434.32
436.29
422.72
397.28
367.15
339.33
317.43
300.64
285.36
267.81
246.2
221.33
195.45
170.44
146.56
122.38
95.93
66.2
34.19
2.82
-24.5
-45.6
-60.68
-72.34
-84.2
-99.25
-118.78
-142.36
-168.76
-196.75
-225
-251.22
-271.59
-281.52
-277.84
-260.96
-235.99
-211.13
-194.5
-190.95
-200.96
-221.94
-250.64
-284.75
-321.94
-358.15
-385.99
-395.61
-377.87
-328.17
-249
-149.63
-43.39
55.93
137.25
194
224.54
231.38
219.85
196.37
166.61
134.17
100.41
65.03
27.14
-13.66
-57.32
-102.74
-147.42
-186.74
-214.4
-224.13
-212.58
-181.55
-138
-91.5
-49.41
-13.52
20.5
59.64
108.44
165.09
221.33
266.11
290.8
292.98
276.65
249.26
217.83
186.1
154.28
120.88
85.02
47.52
10.81
-22.44
-50.85
-74.6
-95.24
-114.92
-135.95
-160.17
-188.35
-219.29
-249.58
-274.58
-290.42
-296.41
-296.03
-296
-303.3
-322.15
-352.71
-392.22
-437.5
-486.81
-539.66
-594.58
-647.03
-689.16
-712.13
-709.97
-682.55
-635.81
-579.15
-521.67
-469.14
-423.12
-382.3
-344.7
-309.27
-276.16
-245.91
-218.37
-192.44
-166.49
-139.37
-111.12
-83.15
-57.63
-36.37
-19.76
-6.49
6.07
20.73
39.21
61.26
84.79
106.87
125.05
138.37
147.97
156.47
166.96
182.2
203.8
231.68
263.28
293.45
315.25
321.91
309.66
279.97
239.75
198.95
166.56
146.98
138.72
136.39
134.26
129.63
123.69
119.59
119.84
124.55
131.76
138.7
143.4
144.7
141.9
134.75
123.88
111.89
103.57
104.77
119.41
146.67
179.78
208.13
221.67
215.38
191.03
155.01
114.19
72.37
29.84
-14.34
-58.81
-98.06
-123.77
-128.1
-107.32
-63.33
-2.85
64.81
129.93
183.54
218.06
227.66
209.44
164.42
97.99
19.34
-60.32
-129.98
-181.81
-213.56
-229.6
-239.32
-253.4
-278.59
-314.36
-352.82
-382.22
-392.36
-379.06
-345.56
-300.52
-254.38
-215.61
-188.62
-173.49
-166.99
-164.08
-159.46
-148.87
-129.7
-101.27
-64.49
-21.61
24.15
68.86
108.77
141.51
167.26
189.5
213.97
246.54
290.25
343.08
397.71
443.03
467.79
464.4
431.88
376.58
310.57
247.81
199.8
171.74
161.09
159.05
154.78
140.46
115.21
85.75
63.31
58.21
74.78
109.42
152.92
195.73
232.85
265.22
297.2
331.68
366.15
392.73
401.64
386.5
347.93
293.29
232.82
174.96
123.26
76.87
33.64
-6.58
-40.44
-62.51
-68.39
-57.41
-32.88
-0.06
37.06
77.71
123.66
176.5
234.56
291.77
339.31
369.2
377.63
366.26
340.86
308.33
274.06
240.73
208.99
178.95
151.25
126.85
106.15
88.35
71.33
52.77
31.23
7.02
-17.96
-41.1
-60.34
-75.13
-86.8
-98.04
-112.11
-131.54
-156.89
-185.88
-213.4
-233.11
-239.95
-232.79
-215.66
-196.71
-184.88
-186.22
-201.39
-226.06
-253.87
-279.81
-302.69
-324.83
-349.97
-380.55
-416.54
-456.18
-497.44
-538.92
-579.37
-616.61
-647.07
-666.26
-670.49
-658.38
-631.2
-591.88
-543.35
-487.46
-425.34
-359.12
-293.78
-237.51
-199.63
-186.73
-199.12
-229.67
-265.87
-294.62
-307.02
-300.95
-280.55
-252.6
-222.6
-192.45
-161.23
-127.65
-92.48
-58.96
-30.93
-10.32
4.4
17.64
34.37
57.6
87.29
121
155.45
187.78
215.61
236.54
248.02
248.24
237.48
218.87
197.44
178.09
163.64
154.45
149.89
150.56
159.45
180.51
215.28
259.67
303.47
333.99
342.29
328.31
301.91
278.39
271.14
285
313.77
343.33
358.16
347.91
310.86
253.26
185.89
120.15
65.6
28.77
12.65
16.43
35.31
61.99
89.31
113.17
133.93
155.46
182.28
216.52
256.55
297.58
333.82
360.66
375.82
379.39
372.95
358.61
338.37
313.54
284.48
251.03
213.62
174.84
140.2
117.11
112.09
127.21
158.23
195.55
227.94
247
250.01
239.89
222.29
202.16
181.51
159.65
135.1
107.86
80.23
55.88
37.82
26.7
20.54
15.64
8.49
-2.53
-16.64
-31.17
-43
-50.03
-52.08
-50.73
-48.54
-47.8
-49.61
-53.59
-58.26
-61.89
-63.3
-62.32
-59.71
-56.75
-54.54
-53.62
-53.81
-54.42
-54.68
-54.14
-52.82
-51.15
-49.76
-49.13
-49.38
-50.24
-51.2
-51.78
-51.75
-51.33
-51.08
-51.77
-54.05
-58.24
-64.21
-71.42
-79.2
-87.02
-94.79
-102.81
-111.71
-122.03
-133.88
-146.84
-160.01
-172.47
-183.8
-194.4
-205.47
-218.64
-235.31
-256.07
-280.44
-307.28
-335.15
-362.99
-390.5
-417.99
-446.33
-476.85
-511.39
-551.95
-599.54
-652.68
-706.26
-751.85
-779.98
-783.5
-760.58
-715.6
-657.5
-596.24
-539.44
-490.5
-448.98
-412.47
-378.58
-346.08
-314.92
-285.51
-258.12
-232.41
-207.85
-183.77
-159.66
-135.4
-110.98
-86
-59.48
-30.29
1.37
32.57
57.41
68.76
61.64
36.29
-0.87
-39.41
-69.22
-84.6
-86.04
-78.66
-68.84
-60.93
-55.98
-52.76
-49.81
-46.9
-45.04
-45.36
-47.92
-51.39
-53.74
-53.17
-49.07
-42.36
-34.82
-28.35
-24.01
-21.7
-20.27
-18.18
-14.19
-7.97
-0.17
7.97
15.17
20.7
24.63
27.67
30.84
35.01
40.61
47.57
55.49
63.91
72.92
82.72
93.35
104.5
115.66
126.22
135.65
143.51
149.51
153.88
156.83
158.4
158.38
156.71
153.62
149.83
146.26
143.83
144.21
148.26
155.76
165.5
176.22
187.33
199.2
212.78
228.95
250.91
280.17
315.54
353.54
390.38
423.98
454.46
483.34
512.27
547.9
593.71
648.11
704.77
756.27
797.95
828.88
850.86
867.04
890.42
930.75
989.81
1059.8
1126.8
1177
1200
1191.2
1152.1
1101.9
1059.2
1033.9
1024.1
1020.5
1014.8
1003
986.1
891.08
682.59
373.52
23.07
-301.26
-559.53
-743.12
-861.51
-929.69
-962.17
-958.94
-920.54
-855.61
-778.41
-704.45
-643.52
-598.36
-567.04
-546.1
-523.24
-490.6
-448.74
-402.28
-359.89
-327.56
-307
-296.93
-295.04
-293.23
-285.74
-271.35
-253.2
-236.69
-225.54
-220.91
-222.3
-228.65
-236.02
-241.39
-243.76
-244.03
-244.41
-246.61
-251.58
-259.99
-272.44
-288.38
-307.13
-328.1
-350.55
-373.83
-396.96
-419.04
-440.06
-461.59
-486.69
-518.73
-559.23
-605.79
-651.43
-685.9
-698.91
-683.89
-640.21
-573.17
-492.28
-408.91
-334.24
-277.72
-245.47
-238.64
-252.47
-276.93
-299.62
-309.86
-302.36
-278.28
-243.49
-204.96
-167.69
-133.74
-103.05
-75.22
-50.58
-29.97
-13.76
-1.1
9.95
21.62
35.49
51.76
69.27
86.05
100.32
111.19
119.06
125.45
132.4
141.7
154.1
169.09
185.05
199.96
212.28
221.7
229.21
236.76
246.27
258.84
274.33
291.76
310.18
329.2
348.72
368.08
385.16
396.7
399.78
393.47
379.4
360.83
340.44
318.57
292.59
258.29
212.2
154.11
87.79
20.37
-39.74
-85.12
-110.74
-114.33
-95.84
-57.14
-2.53
60.3
119.67
161.58
173.5
149.72
95.18
25.14
-39.7
-80.85
-88.47
-63.49
-15.45
41.98
95.2
133.03
148.03
137.52
104.71
58.51
10.99
-27.2
-51.1
-62.51
-67.54
-72.09
-78.5
-85.36
-89.96
-91.11
-90.07
-88.97
-88.38
-86.22
-78.98
-63.88
-40.75
-12.13
18.27
47.17
72.97
95.96
117.9
141.3
168.61
201.36
239.35
280.49
321.56
359.51
392.7
421.35
446.77
470.05
490.76
506.39
512.87
505.82
482.39
442.96
392.34
339.48
295.28
269.11
265.4
281.69
309.47
337.69
357.1
363.48
358.16
345.85
331.28
316.63
301.11
282.42
259.09
231.95
203.82
177.94
156.09
137.75
120.58
102.11
81.16
58.67
36.97
18.48
4.44
-5.62
-13.44
-21.21
-30.44
-41.42
-53.34
-64.87
-74.97
-83.31
-90.44
-97.27
-104.67
-112.95
-121.88
-131.02
-140.06
-149.22
-159.09
-170.37
-183.43
-198.02
-213.41
-228.78
-243.76
-258.75
-274.86
-293.36
-315.07
-339.85
-366.68
-394.15
-421.07
-447.06
-472.65
-498.95
-527.37
-559.38
-596.32
-638.83
-685.87
-733.68
-775.66
-803.55
-810
-791.16
-748.31
-687.29
-616.18
-542.51
-471.08
-403.58
-339.68
-278.74
-220.77
-166.58
-116.82
-71.02
-27.21
17.15
63.51
110.68
154.27
188.17
207.53
211.74
205.44
196.85
194.21
201.99
218.99
239.31
255.4
261.49
255.51
239.04
215.85
190.53
167.75
152.4
149.43
162.63
192.59
234.99
280.3
315.91
330.54
318.52
282.34
231.88
180.39
139.22
113.85
102.92
100.47
99.5
94.77
83.71
65.33
38.66
2.42
-43.77
-97.66
-153.78
-205.05
-246.07
-275.74
-297.44
-316.34
-335.51
-353.16
-362.94
-357.33
-331.91
-288.12
-232.64
-174.44
-121.41
-78.34
-47.37
-29.71
-26.72
-39.79
-69
-111.78
-162.89
-215.88
-265.06
-307.09
-341.17
-367.88
-387.55
-399.29
-401.13
-391.3
-369.53
-337.66
-299.34
-258.79
-219.34
-182.57
-148.16
-114.63
-80.34
-44.35
-6.81
31.28
68.64
104.45
138.63
171.99
205.77
240.99
277.84
315.43
352.2
386.48
417.31
444.84
470.33
495.76
523.45
555.65
594.15
639.48
689.77
739.96
782.21
807.95
810.74
788.73
745.25
687.4
623.31
559.23
498.24
440.76
386.35
335.22
288.45
246.9
210.46
177.75
146.37
113.57
77.17
36.48
-6.89
-49.29
-86.36
-113.74
-128.16
-128.61
-116.9
-97.31
-75.35
-56.49
-45.5
-46.47
-61.44
-89.57
-127.31
-169.4
-210.24
-245.01
-268.88
-275.02
-259.61
-224.62
-176.56
-122.83
-69.19
-19.21
25.49
64.02
97.58
126.36
149.93
167.82
179.67
185.15
183.68
174.42
159.64
141.49
121.51
101.04
81.44
63.93
49.24
37.56
28.86
23.11
19.92
18.34
17.3
15.79
12.87
7.74
-0.18
-10.82
-23.24
-36.23
-48.65
-59.7
-69.18
-77.59
-85.9
-94.94
-104.88
-114.85
-123.55
-129.81
-133.39
-135.41
-138.2
-144.6
-156.72
-175
-197.88
-222.6
-246.54
-268.44
-289.07
-310.77
-336.19
-367.07
-403.89
-446.1
-492.71
-541.86
-589.76
-630.13
-655.58
-661
-647.13
-621.64
-596.2
-580.68
-577.79
-581.44
-580.34
-564.32
-529.89
-481.43
-427.86
-377.25
-333
-293.58
-255.4
-216.29
-177.1
-140.86
-110.58
-87.19
-69.02
-52.65
-34.67
-13.21
11.31
36.67
60.06
79.62
95.48
109.7
124.98
142.84
162.49
180.87
194.34
200.73
200.81
198.22
197.88
203.89
217.85
238.79
264.02
290.82
317.42
343.31
368.72
394.07
419.66
445.98
474.28
506.58
544.85
589.32
636.84
680.3
710.12
717.37
697.13
650.54
584.33
508.11
430.64
357.38
289.97
227.59
169.07
113.95
61.92
11.66
-39.68
-95.19
-155.27
-215.14
-264.84
-292.53
-289.69
-255.49
-197.57
-129.11
-63.77
-11.42
23.38
40.4
41.85
31.21
13.42
-5.27
-18.64
-22.91
-19.23
-13.8
-15.35
-31.01
-63.24
-108.91
-161.07
-211.79
-253.92
-282.33
-293.38
-284.85
-256.14
-208.71
-145.93
-72.39
6.89
86.85
161.68
224.78
269.33
289.91
284.43
255.2
208.28
151.02
89.7
27.07
-36.46
-101.82
-169.41
-238.12
-305.43
-368.18
-423.61
-468.9
-503.38
-526.04
-536.08
-532.79
-515.86
-486.03
-445.66
-398.85
-349.16
-302.6
-261.53
-225.46
-191.36
-155.29
-114.07
-66.41
-13.36
43.93
97.24
138.95
161.7
161.26
139.27
103.85
67.54
42.74
40.11
57.46
89.88
130.43
174.05
219.32
267.67
320.69
358.18
396.58
424.35
433.7
421.19
389.79
348.45
308.47
278.18
258.95
247.63
231.62
203.94
165.56
126.31
100.55
100.05
127.71
175.96
232.48
279.6
306.46
308.83
288.24
249.57
199.44
146.02
99.37
71.87
70.59
97.62
146.32
202.43
248.89
272.02
265.82
232.71
181.52
121.28
60.22
3.6
-46.03
-88.33
-124.5
-156.98
-188.5
-220.96
-255.36
-291.06
-326.98
-362.78
-399.49
-438.78
-481.54
-526.4
-569.56
-605.94
-631.15
-643.09
-642.19
-630.45
-609.89
-581.49
-545.03
-500.28
-448.15
-391.39
-334.12
-280.51
-233.05
-191.53
-153.36
-114.97
-73.71
-29.19
16.76
61.31
102.54
140.37
176.18
211.03
243.86
271.1
288.09
291.68
282.2
263.05
238.27
209.41
174.3
128.96
71.71
6.59
-56.53
-105.75
-132.55
-135.6
-120.62
-96.32
-69.38
-41.56
-10.92
24.34
62.13
96.04
118.42
125.31
119.43
109.43
105.4
113.23
131.36
151.63
163.8
161.38
145.22
123.24
106.62
104.44
119.86
149.22
184.53
217.51
243.23
261.45
275.33
288.55
302.51
315.22
322.41
320.28
307.86
287.94
265.4
244.08
224.49
203.72
178.16
146.78
112.7
81.57
58.02
42.36
30.24
15.73
-4.55
-28.98
-51.81
-66.86
-71.36
-67.15
-58.8
-50.39
-42.92
-34.28
-21.41
-2.87
19.9
43.04
62.04
73.89
78.35
78.19
78.18
83.28
96.88
119.67
149.47
182.19
213.15
238.25
254.6
260.46
254.94
237.92
210.46
175.59
138.81
107.34
88.02
84.46
95.01
112.83
128.42
133.49
123.95
100.71
68
30.6
-8.09
-46.29
-82.8
-116.41
-146.2
-172.67
-197.91
-224.4
-253.22
-283.13
-311.53
-336.61
-358.91
-380.98
-405.29
-431.91
-458.33
-481.59
-500.67
-517.6
-535.61
-555.77
-574.63
-585.02
-579.41
-554.33
-512.65
-462.13
-411.35
-365.73
-325.5
-287.02
-246.28
-202.07
-157.3
-117.54
-87.77
-69.5
-59.91
-53.16
-43.49
-27.95
-7.57
13.52
30.24
38.79
37.63
27.54
11.01
-8.65
-27.7
-42.34
-49.18
-46.03
-32.4
-9.66
19.5
52.19
86.29
120.86
155.77
190.85
224.97
255.69
279.47
292.7
292.88
279.56
254.36
220.55
181.81
141.3
101.53
64.82
33.98
12.08
1.28
1.25
8.29
16.34
19.62
15.63
6.62
-1.34
-1.36
10.93
35.68
69.54
107.95
147.36
186.14
223.92
260.19
293.48
321.38
341.74
353.63
357.89
356.96
354.27
353.25
356.64
365.86
380.68
399.36
419.16
437.16
450.78
457.88
456.64
445.4
422.85
388.58
343.96
292.56
239.84
191.75
153.26
126.73
111.17
102.77
96.14
85.99
68.57
42.86
10.8
-23.26
-53.91
-76.72
-90.01
-95.83
-99.3
-106.71
-122.88
-149.01
-182.1
-216.11
-244.36
-261.85
-266.54
-259.47
-244.17
-225.44
-208.38
-197.24
-194.44
-199.9
-211.25
-225.33
-239.94
-254.77
-271.12
-289.82
-309.12
-323.6
-325.51
-307.66
-266.96
-205.8
-131.17
-52.18
22.81
87.37
136.78
167.43
176.83
164.38
132.53
87.03
36.11
-11.64
-49.33
-73.15
-82.47
-79.09
-66.28
-47.52
-25.76
-2.89
20.31
43.2
64.03
79.3
84.25
75.09
51.41
17.74
-17.41
-44.8
-58.87
-60.35
-56.5
-58.18
-74.98
-110.6
-161.05
-216.31
-264.56
-297.03
-310.49
-306.81
-290.35
-264.95
-233.05
-196.86
-160.03
-128.12
-107.07
-100.23
-106.71
-122.22
-141.41
-160.81
-179.4
-196.96
-211.96
-220.6
-218.41
-202.74
-174.69
-139.08
-102.68
-71.77
-50.25
-38.99
-35.98
-37.08
-37.05
-30.95
-15.3
11.13
47.73
93.04
145.22
201.95
259.34
311.21
349.93
368.93
366.08
345.74
318.23
296.3
290.39
304.34
333.86
368.68
397.19
411.79
412.35
405.92
403.11
412.3
435.14
465.39
491.95
504.24
497.17
472.71
437.85
400.28
364.54
330.79
296.45
259.4
220.26
182.49
150.43
126.55
109.85
96.33
80.93
60.15
33.64
4.3
-23.26
-44.96
-59.18
-67.45
-73.63
-82.05
-95.59
-114.35
-135.76
-156.03
-171.75
-181.48
-186.16
-188.7
-192.68
-201.43
-217.17
-240.45
-269.12
-297.89
-319.04
-324.73
-310.27
-276.66
-230.71
-182.32
-140.37
-109.23
-88.19
-73.6
-62.4
-54.42
-52.3
-59.56
-78.15
-107.64
-145.5
-187.72
-228.95
-262.24
-279.87
-275.86
-248.93
-203.92
-151.17
-102.99
-69.02
-53.23
-53.38
-63.74
-78.26
-92.81
-105.72
-116.8
-126.34
-134.57
-141.96
-149.5
-158.83
-171.81
-190.35
-216.05
-250.1
-293.33
-345.8
-406.46
-472.22
-537.6
-595.11
-636.77
-656.57
-652.33
-626.39
-584.59
-534.17
-480.83
-427.65
-375.4
-324.23
-275.49
-231.92
-196.47
-170.35
-151.66
-135.85
-117.64
-93.3
-62.03
-25.71
12.55
49.89
84.24
113.76
136.06
147.95
146.42
130.39
102.06
67.17
33.55
8.85
-1.46
4.56
25.41
56.99
93.91
130.78
163.51
189.99
210.51
227.25
243.24
261.25
283
308.62
336.59
363.76
385.13
394.66
386.54
357.55
309.24
248.6
186.19
132.25
92.33
64.92
42.77
17.32
-16.08
-55.21
-92.44
-119.43
-132.62
-135.88
-138.64
-150.58
-176.21
-212.35
-250.06
-279.65
-295.41
-297.74
-291.59
-282.61
-273.74
-264.25
-251.19
-232.16
-207.32
-179.64
-153.36
-131.9
-116.26
-104.9
-94.76
-82.82
-67.55
-49.38
-30.21
-12.48
2
12.76
20.65
27.35
34.55
43.25
53.54
64.71
75.7
85.56
93.81
100.56
106.42
112.36
119.39
128.36
139.75
153.52
169.09
185.58
202.08
218.11
233.93
250.46
269
290.58
315.46
342.83
371.17
398.71
424.22
447.49
469.24
490.92
514.4
541.74
574.81
614.35
658.84
703.53
740.73
761.74
759.9
733.17
684.87
622.35
553.92
486.16
422.4
363.11
307.57
255.3
206.63
162.1
121.53
83.61
46.58
8.71
-30.75
-71.24
-110.72
-146.42
-175.91
-198.12
-213.8
-224.46
-232.55
-240.58
-250.1
-260.92
-270.99
-277.15
-276.28
-266.3
-244.98
-212.36
-170.75
-124.1
-76.56
-31.14
10.59
48.18
81.96
115.82
153.34
196.45
244.17
292.66
336.01
367.38
380.84
373.33
349.67
317.34
283.47
252.08
224.15
199.07
176.05
155.04
114.58
46.1
-45.09
-141.71
-225.81
-287.67
-326.35
-345.55
-349.89
-343.35
-325.67
-297.51
-261.67
-223.57
-188.6
-160
-138.61
-123.42
-112.69
-102.05
-88.62
-71.86
-54.15
-38.26
-25.95
-17.63
-12.97
-11.73
-12.62
-16.04
-19.26
-22.65
-27.18
-33.36
-41.2
-50.58
-61.6
-73.71
-86.53
-99.72
-113.59
-127.98
-142.27
-155.85
-168.51
-180.58
-192.28
-203.65
-214.08
-222.99
-229.51
-232.99
-233.72
-233.17
-233.82
-238.78
-251.36
-274.6
-310.96
-360.65
-420.51
-483.66
-540.64
-582.01
-601.51
-598.11
-575.99
-542.46
-504.78
-467.6
-432.46
-398.85
-365.92
-333.7
-303.03
-274.73
-248.79
-224.19
-199.49
-173.8
-147.41
-121.58
-98.09
-78.24
-62.36
-49.68
-38.74
-28.12
-16.95
-5.29
6.07
16.05
23.85
29.33
33
35.83
38.73
42.29
46.5
50.93
54.95
58.09
60.19
61.49
62.45
63.56
65.18
67.41
70.15
73.23
76.48
79.85
83.43
87.36
91.77
96.7
102.07
107.7
113.33
118.7
123.63
128.09
132.14
135.99
139.88
144.02
148.54
153.43
158.57
163.78
168.87
173.65
177.95
181.57
184.18
185.33
184.47
181.08
174.83
165.81
154.53
141.84
128.72
115.97
103.93
92.54
81.42
70.35
59.55
49.84
42.5
38.77
39.35
43.96
51.55
60.54
69.48
77.73
85.84
95.32
108
125.09
146.44
170.86
196.3
220.65
242.66
262.31
280.95
301.01
325.6
357.37
397.69
444.61
491.74
529.02
545.33
532.54
489.05
421.32
342.26
268.41
213.22
182.66
173.93
177.68
182.34
178.15
159.28
123.91
76.59
24.2
-25.23
-63.34
-82.25
-75.36
-39.43
23.48
105.41
199.05
295.1
383.98
457.26
508.98
536.83
542.38
529.85
504.2
476.48
455.29
444.61
443.32
447.09
451.44
453.9
453.99
419.7
334.5
198.4
30.73
-139.37
-287.53
-401.77
-481
-526.05
-548.83
-553
-540.46
-514.04
-479.05
-442.39
-410.44
-385.99
-369.73
-361.54
-355.41
-346.46
-332.48
-314.5
-295.47
-278.2
-263.89
-252.39
-243.09
-231.64
-214.62
-190.73
-161.05
-128.24
-95.17
-63.9
-35.72
-11.57
9.83
29.54
47.9
64.35
77.81
87.28
92.23
92.53
88.15
80.01
68.96
55.63
40.46
23.77
6.06
-11.94
-29.41
-45.57
-59.73
-71.49
-80.75
-87.73
-92.85
-96.6
-99.5
-101.92
-104.06
-105.86
-107.06
-107.25
-105.92
-102.59
-96.92
-88.74
-78.17
-65.58
-51.54
-36.81
-22.19
-8.44
3.81
14.17
22.47
28.83
33.62
37.39
40.82
44.61
49.41
55.73
63.93
74.1
86.1
99.6
114.07
128.86
143.27
156.6
168.19
177.56
184.33
188.33
189.54
188.06
184.12
178.01
170.01
160.37
149.29
136.88
123.2
108.25
92.02
74.48
55.69
35.76
14.87
-6.65
-28.47
-50.15
-71.28
-91.42
-110.2
-127.33
-142.6
-155.95
-167.38
-177.04
-185.11
-191.79
-197.24
-201.56
-204.75
-206.77
-207.54
-206.97
-205.02
-201.65
-196.86
-190.67
-183.12
-174.26
-164.22
-153.19
-141.43
-129.26
-116.98
-104.83
-92.99
-81.51
-70.41
-59.75
-49.76
-40.85
-33.56
-28.46
-25.98
-26.24
-29.01
-33.85
-40.22
-47.71
-56.15
-65.58
-76.78
-89.99
-104.53
-118.88
-131.43
-141.29
-148.55
-154.21
-159.7
-167.16
-177.77
-191.42
-206.78
-222.45
-237.63
-252.25
-266.63
-280.95
-296.8
-314.7
-333.86
-352.68
-370.1
-385.83
-399.24
-408.52
-410.31
-405.59
-394.18
-373.91
-341.48
-295.01
-235.53
-166.76
-94.66
-27.07
16.73
22.69
-11.52
-75.44
-152.94
-229.54
-295.9
-349.06
-391.63
-446.34
-529.84
-643.13
-771.27
-894.15
-995.73
-1067.1
-1106.1
-1116.5
-1127.5
-1161.5
-1222.5
-1296
-1363.8
-1414.3
-1445.2
-1460.2
-1330.5
-1003.7
-523.15
-3.48
452.01
797.6
1034.7
1184.7
1271.5
1314.8
1308.7
1251.7
1154.5
1043.2
941.02
860.13
801.95
762.27
735.57
700.85
645.27
570.74
491.88
424.6
376.56
348.89
339.02
343.33
348.02
343.86
330.33
314.71
305.08
305.91
318.02
339.99
369.3
397.68
418.48
429.31
432.15
430.53
427.63
426.09
428.28
436.61
451.72
474.64
506.49
547.06
592.58
635.4
666.18
677.2
665.2
632.17
584.03
527.77
468.93
410.45
353.55
299.44
250.57
210.32
181.25
163.25
152.83
144.02
130.85
109.64
80.2
45.5
9.6
-24.52
-56.2
-86.88
-118.69
-152.61
-187.44
-220.04
-246.59
-264.16
-271.85
-270.93
-264.21
-254.9
-245.35
-236.46
-227.87
-218.68
-208.35
-197.49
-187.85
-181.87
-182.04
-190.45
-208.64
-237.21
-275.13
-318.91
-362.32
-397.29
-416.26
-414.78
-393.34
-357.08
-313.68
-270.37
-231.68
-199.1
-172.18
-150.26
-133.33
-121.8
-115.42
-112.45
-109.82
-104.15
-93.25
-76.85
-56.45
-34.55
-13.19
6.91
26.6
47.75
72.5
102.48
138.29
179.11
222.52
264.51
300.06
324.31
334
328.76
311.32
286.41
258.77
231.56
205.68
180.62
155.9
132.1
110.67
92.9
78.8
66.99
55.27
41.98
26.69
10.31
-5.52
-18.96
-28.51
-33.02
-31.81
-25.01
-13.91
-0.98
10.8
19.13
23.21
23.77
22.26
19.62
15.6
9
-1.44
-15.93
-33.37
-51.47
-67.79
-80.66
-89.62
-95.38
-99.13
-102.09
-105.21
-109.38
-115.57
-124.66
-136.83
-150.68
-163.27
-170.54
-168.72
-155.76
-131.94
-99.28
-60.23
-16.68
29.89
77.23
121.18
155.73
174.94
175.51
158.59
129.51
95.61
63.77
38.33
21.05
11.61
8.57
9.58
11.46
10.34
2.51
-14.17
-39.15
-68.69
-97.21
-119.12
-130.13
-128.11
-112.78
-85.47
-49.43
-10.35
23.58
43.06
40.42
12.94
-35.15
-93.28
-147.93
-187.42
-205.84
-204.42
-189.69
-169.92
-151.8
-138.9
-132.04
-130.87
-134.82
-143.69
-157.1
-173.86
-191.74
-207.81
-219.59
-225.51
-225.25
-219.56
-209.46
-195.85
-179.28
-160.18
-139.2
-117.45
-96.3
-76.93
-59.82
-44.51
-29.68
-13.81
4.29
25.05
48.25
73.46
100.63
130.37
163.98
203.19
249.95
305.87
371.25
443.96
518.71
587.37
640.84
671.86
677.46
659.91
625.62
582.35
536.49
491.41
447.61
404.21
360.81
318.64
280.55
249.81
228.6
216.85
212.08
210.3
207.67
202.16
194.24
186.28
180.94
179.56
181.38
183.97
184.53
181.21
173.62
162.4
148.31
131.64
111.98
88.67
61.27
29.94
-4.32
-40.03
-75.53
-109.39
-140.67
-169.2
-195.23
-219.37
-242.16
-264.01
-285.2
-306.35
-328.59
-353.02
-379.75
-406.8
-430.07
-444.44
-445.73
-432.28
-405.55
-369.13
-326.85
-281.45
-233.86
-183.64
-129.75
-71.5
-9.42
54.15
114.91
167.11
204.77
223.51
221.94
202.09
168.7
127.81
85.83
48.98
22.79
10.9
13.76
27.57
44.78
56.49
55.64
39.65
11.12
-23.65
-57.4
-84.12
-100.45
-105.88
-102.13
-92.48
-81.21
-73.02
-72.05
-80.76
-99.21
-125.24
-155.39
-186.11
-214.69
-239.27
-258.22
-269.76
-272.15
-264.88
-249.58
-230.15
-211.33
-196.64
-186.53
-178.61
-168.97
-154.58
-134.72
-110.88
-85.13
-58.48
-30.46
0.13
33.87
70.04
107.04
143.61
179.4
214.33
247.29
274.58
290.55
289.59
269.32
232.74
187.7
144.25
110.79
90.99
83.55
84.1
88.44
94.9
104.44
118.71
137.5
157.04
170.73
171.72
156.09
124.42
81.45
33.68
-13.34
-56.31
-94.29
-127.57
-156.53
-181
-200.78
-216.33
-228.71
-239.26
-248.43
-255.28
-257.76
-253.61
-241.66
-222.43
-197.86
-170.58
-143.08
-117.39
-95.07
-77.21
-64.12
-54.85
-46.54
-34.7
-14.23
18.33
63.02
115.77
169.31
215.47
247.45
261.44
257.1
237.12
206.09
169.36
132.11
98.65
72.13
54.08
44.2
40.26
38.57
35.08
26.86
13.33
-3.6
-20.46
-33.85
-41.94
-44.95
-44.62
-42.94
-41.34
-40.54
-41.26
-44.55
-51.79
-63.78
-79.7
-96.94
-111.79
-120.88
-122.47
-116.96
-106.28
-92.85
-78.74
-65.3
-53.52
-44.29
-38.54
-36.69
-38.09
-40.77
-42.17
-40.56
-35.98
-30.51
-26.8
-26.25
-27.46
-26.1
-16.14
7.91
48.64
104.15
167.7
229.05
277.02
302.58
301.38
274.63
228.43
171.5
113.06
60.97
21.31
-1.96
-7.49
2.7
22.99
45.81
64.3
75.35
80.55
84.47
91.1
100.73
109.45
111.14
101.06
78.38
46.72
11.9
-20.97
-49.22
-72.35
-90.04
-100.55
-100.67
-87.69
-62.11
-29.13
2.1
21.8
23.49
6.76
-23.03
-57.53
-89.4
-115.24
-136.05
-155.59
-177.97
-205.88
-239.85
-278.3
-317.66
-352.77
-377.86
-387.75
-379.72
-354.33
-315.33
-267.84
-216.23
-162.84
-108.54
-54.76
-5.25
33.8
55.93
57.66
40.84
12.66
-16.86
-38.56
-47.01
-41.2
-23.38
2.95
34.3
67.33
98.56
124.61
143.34
154.87
161.81
167.82
175.7
185.95
196.74
204.8
206.95
201.21
187.19
166.15
140.35
112.66
85.93
61.9
41.09
22.53
4.58
-13.99
-33.37
-52.49
-69.52
-82.13
-88
-85.22
-73.5
-55.38
-37.01
-27.35
-35.64
-67.72
-123.09
-194.23
-268.43
-331.91
-374.17
-390.86
-384.3
-361.46
-330.81
-299.23
-270.54
-245.45
-223.13
-202.5
-182.82
-163.85
-144.85
-124.53
-101.44
-74.85
-45.56
-15.88
11.09
32.51
46.91
54.67
57.64
58.39
59.22
61.46
65.29
70.05
74.87
79.12
82.84
86.4
90.22
94.38
98.37
101.21
102.12
100.55
96.29
89.57
81.06
71.73
62.53
54.18
46.95
41.14
36.83
33.79
31.6
29.72
27.63
24.77
20.42
13.77
4.81
-6.42
-20.07
-36.35
-55.18
-75.77
-96.78
-116.69
-134.06
-145.25
-147.38
-139.37
-122.11
-97.43
-67.14
-32.89
3.4
39.31
77.05
118.07
161.24
202.94
239.34
268.61
291.07
308.09
321.19
339.35
369.82
414.55
469.67
529.31
589.75
650.7
714.03
781.62
863.11
962.62
1073.5
1179.5
1262.9
1313.3
1330.6
1322.5
1234.7
1041.5
757.04
432.97
127.36
-123.65
-310.12
-438.37
-521.28
-568.81
-587.56
-580.77
-553.98
-517.1
-480.56
-451.06
-430.93
-420.12
-416.76
-411.66
-396.81
-370.01
-335.25
-298.85
-265.35
-236.49
-212.15
-191.67
-170.04
-142.92
-109.82
-74.31
-41.47
-15.11
3.12
13.33
16.65
16.69
17.06
19.32
22.62
24.88
24.33
20.19
12.76
3.14
-6.48
-14.01
-18.77
-21.81
-25.42
-32.1
-43.72
-60.86
-82.71
-107.73
-134.01
-160.26
-186.24
-212.79
-241.46
-274.31
-313.68
-361.73
-419.35
-484.83
-553.07
-615.97
-664.79
-693.08
-699.23
-686.86
-663.03
-635.08
-607.79
-582.42
-557.62
-531.37
-502.53
-471.2
-437.97
-402.99
-365.69
-325.18
-281.31
-235.1
-188.7
-144.78
-105.38
-71.29
-41.75
-14.87
11.56
39.04
67.74
96.45
123.11
145.86
163.95
178.21
190.57
203.35
218.13
235.32
254.33
274.19
294.27
314.49
335.19
356.74
379.41
403.26
427.91
452.05
472.92
486.04
485.93
467.93
430.08
374.53
307.44
237.54
174.08
125.22
96.9
92.34
111.53
150.85
203.19
259.01
308.48
343.81
360.89
359.78
343.65
317.2
285.31
252.12
220.9
193.97
172.66
157.08
146.22
138.36
131.67
124.75
116.98
108.45
99.72
91.56
84.6
79.1
74.88
71.43
68.12
64.48
60.48
56.48
53.16
51.05
50.31
50.48
50.62
49.64
46.67
41.42
34.14
25.34
15.41
4.43
-7.83
-21.7
-37.39
-55.04
-75.01
-98.06
-124.89
-155.27
-186.94
-215.32
-234.12
-237.24
-221.04
-186.12
-137.89
-85.49
-39.57
-9.74
-2.34
-19.38
-58
-111.02
-168.17
-217.77
-248.84
-253.46
-228.71
-177.93
-110.81
-41.8
13.59
43.49
43.57
18.31
-21.17
-61.89
-94.32
-115.57
-128.89
-140.5
-155.29
-174.63
-196.78
-219.65
-243.49
-271.02
-305.29
-346.4
-389.52
-425.82
-445.71
-442.99
-417.19
-373.51
-320.45
-266.28
-216.34
-172.06
-131.83
-92.78
-52.59
-10.18
34.22
79.94
126.19
171.8
214.33
249.44
271.11
273.47
253.6
213.51
160.47
104.6
55.29
18.15
-6.06
-20.15
-27.99
-32.33
-34.25
-33.58
-30.08
-24.13
-16.78
-9.39
-3.46
-0.5
-1.88
-8.52
-20.52
-37.21
-57.59
-80.66
-105.49
-130.44
-152.41
-166.7
-168.19
-153.02
-120.41
-73.22
-17.19
40.68
93.88
137.31
167.55
182.73
182.64
168.97
145.49
117.6
91.14
70.99
59.57
56.32
58.19
61.17
62.19
60.54
57.85
56.61
57.98
60.22
59.07
50.03
31.22
4.93
-23.14
-46.59
-61.3
-66.76
-65.36
-60.32
-53.72
-46.16
-37.58
-28.56
-20.6
-15.56
-14.25
-15.91
-18.52
-20.06
-19.6
-17.42
-14.62
-12.13
-10.13
-8.14
-5.33
-1.14
4.25
9.63
12.91
11.73
4.53
-8.43
-24.89
-41.26
-54.29
-62.58
-67.34
-71.59
-78.55
-89.79
-104.34
-118.99
-129.52
-132.28
-125.14
-107.65
-80.6
-45.51
-4.42
40.06
84.39
124.22
154.74
171.76
173
159.06
133.84
103.78
75.99
56.06
46.36
45.59
49.94
55.03
57.9
58.01
56.93
57.17
60.79
68.58
80.11
94.33
109.91
125.34
138.92
148.77
153.41
152.11
145.13
133.28
117.25
97.34
73.77
47.45
20.43
-4.27
-23.77
-36.67
-43.86
-48.04
-52.42
-59.07
-68.09
-78.03
-86.88
-93.2
-96.58
-97.26
-95.7
-92.21
-87.25
-81.73
-77.07
-74.59
-74.63
-76.12
-76.83
-74.7
-69.27
-62.5
-58.13
-59.9
-69.34
-84.2
-98.9
-106.13
-99.7
-76.6
-37.98
11.47
64.96
115.44
157.13
186.4
202.2
205.73
199.92
188.37
174.39
160.16
146.62
133.89
121.8
110.56
100.58
92.18
85.16
78.81
72.42
65.72
59.26
53.94
50.41
48.35
46.35
42.56
35.52
24.97
11.99
-1.44
-13.38
-22.61
-28.97
-33.31
-36.94
-41.15
-46.72
-53.78
-61.68
-69.44
-76.15
-81.36
-85.19
-88.11
-90.69
-93.32
-96.5
-100.99
-107.88
-117.94
-130.78
-144.67
-157.03
-165.89
-170.83
-173.01
-173.9
-173.65
-170.19
-159.8
-138.97
-106.1
-62.66
-12.59
38.95
87.1
128.13
159.43
179.36
186.98
182.48
167.39
144.73
118.74
93.98
74.4
62.33
57.94
59.32
63.31
66.82
67.95
66.57
63.86
61.24
59.18
57.04
53.47
47.72
40.22
32.44
26.22
22.54
21.23
20.94
19.94
16.87
11.17
3.08
-6.58
-16.69
-26.03
-33.33
-37.57
-38.2
-35.47
-30.36
-24.25
-18.62
-14.69
-13.57
-16.31
-23.6
-35.28
-50.05
-65.67
-79.9
-91.72
-101.75
-111.71
-122.58
-133
-138.63
-133.52
-113.03
-76.54
-28.56
22.83
69.15
104.62
127.59
139.52
142.87
139.27
129.26
113.29
93.22
72.66
55.97
46.23
43.63
45.3
46.93
45.17
39.4
31.92
26.33
25.37
29.3
35.82
41.54
43.9
42.53
38.96
35.34
32.92
31.33
29.01
24.29
16.53
6.23
-5.43
-17.5
-29.7
-42.05
-54.4
-65.96
-75.72
-83.04
-88.11
-91.71
-94.65
-97.15
-98.96
-100.07
-101.21
-103.82
-108.93
-116.2
-123.68
-128.95
-130.94
-130.84
-131.57
-135.42
-141.78
-146.25
-142.3
-124.38
-90.86
-45.07
5.97
54.17
93.24
120.01
134.31
137.9
133.11
122.19
107.03
89.54
71.84
56.2
44.47
37.38
34.16
32.82
31.44
29.37
27.79
28.94
34.73
45.01
57.27
67.47
71.85
68.54
57.93
42.12
23.58
4.33
-14.31
-31.28
-45.33
-55.24
-60.12
-60.26
-57.24
-53.45
-51.06
-51.02
-52.78
-54.67
-54.95
-52.79
-48.76
-44.57
-42.37
-44.16
-51.05
-62.98
-78.33
-93.81
-104.82
-106.59
-95.94
-72.75
-40.41
-4.74
28.19
54.47
73.28
86.28
95.57
101.98
104.58
101.56
92.2
77.86
61.95
48.26
39.11
34.46
32.49
31.16
29.69
29.1
31.16
36.99
45.79
54.84
60.7
60.77
54.29
42.48
27.9
13.27
0.65
-9.13
-16.41
-22.16
-27.44
-32.85
-38.27
-43.06
-46.59
-48.66
-49.99
-52.18
-57.1
-66.17
-79.33
-94.86
-109.95
-121.95
-129.46
-132.68
-132.72
-130.38
-125.19
-115.32
-98.53
-73.41
-40.08
-0.07
44.32
90.31
134.65
173.06
200.7
213.49
210.18
193.86
171.58
151.94
141.52
142.23
150.71
160.36
164.78
160.66
148.98
133.89
120.38
112.15
110.43
113.96
119.88
124.69
125.07
118.44
103.28
79.49
48.54
13.3
-22.75
-56.38
-85.42
-109.08
-127.43
-140.84
-149.39
-152.82
-150.66
-142.83
-129.89
-113.47
-96.53
-83.19
-78.1
-84.93
-104.71
-134.78
-169.22
-200.63
-222.75
-232.39
-229.67
-216.79
-196.03
-168.67
-135.05
-95.62
-51.78
-5.86
39.8
83.58
124.48
161.21
191.11
210.1
214.17
201.55
174.37
138.46
101.42
69.91
47.56
34.72
29.24
28.19
28.7
28.24
24.55
16
2.7
-12.52
-24.18
-25.85
-13
14.33
50.84
87.7
116.02
130.28
130.05
119.33
104.17
90.08
80.19
75.06
73.63
74.47
76.54
79.13
81.4
82.04
79.42
72.29
60.56
45.58
29.71
15.36
3.99
-4.37
-10.86
-17
-23.76
-31.04
-37.74
-42.49
-44.5
-44.4
-44.25
-46.99
-55.12
-69.54
-89.27
-111.94
-135.08
-156.89
-176.18
-191.47
-199.96
-197.6
-180.29
-146.04
-96.49
-37.01
24.88
81.59
127.34
158.71
174.37
174.66
161.42
138.29
110.51
83.87
63.08
50.2
44.02
40.98
37.03
29.7
19.31
8.67
1.65
1.17
7.6
18.55
29.83
37.68
40.54
39.73
38.6
40.49
46.88
56.58
66.58
73.86
77.13
77.36
76.93
78.02
81.49
86.67
92.19
97.12
101.45
105.92
111.25
117.53
124.15
130.16
134.96
138.79
142.75
148.36
156.7
167.61
179.26
188.39
191.3
185.2
169.33
145.39
116.81
87.49
60.53
37.47
18.55
3.2
-9.18
-19.05
-26.76
-32.84
-37.95
-42.78
-47.79
-53.2
-59.02
-65.28
-72.15
-79.92
-88.82
-98.69
-108.9
-118.46
-126.3
-131.77
-135.02
-136.95
-139.03
-142.77
-149.14
-158.4
-170.23
-184.04
-199.42
-216.57
-236.27
-259.78
-288.45
-323.29
-364.35
-410.04
-456.58
-498.25
-528.52
-541.78
-535.4
-510.69
-472.62
-428.05
-383.56
-343.7
-310.41
-283.65
-262.36
-245.41
-231.75
-220.23
-209.32
-197.38
-183.06
-166
-146.91
-127.24
-108.63
-92.08
-77.57
-64.11
-50.2
-34.67
-17.3
0.69
17.06
29.38
36.26
38.27
37.98
39.14
45.34
58.61
78.6
102.77
127.3
148.63
164.89
176.41
185.56
195.51
208.85
226.3
246.64
267.24
285.4
299.7
310.46
319.69
330.27
345.42
367.78
398.48
436.04
475.51
508.99
527.38
523.61
495.15
445.12
380.88
310.97
242.05
177.02
115.4
54.83
-7.02
-71.2
-136.89
-201.38
-260.35
-308.51
-340.85
-354.1
-348.12
-326.08
-293.65
-257.35
-222.96
-194.62
-174.65
-163.84
-161.63
-166.38
-175.4
-185.69
-194.82
-201.89
-207.77
-214.55
-224.2
-237.24
-252.17
-265.8
-274.48
-275.72
-269.06
-256.03
-239.24
-220.91
-201.61
-180.14
-154.02
-120.69
-78.63
-28.19
27.79
83.44
130.16
157.87
158.05
127.31
70.09
-1.48
-71
-123.47
-150.32
-151.63
-134.38
-108.17
-80.83
-56.11
-34.24
-14.01
5.23
22.96
38.44
51.66
63.88
77.19
93.29
112.67
134.49
157.13
179.08
199.8
219.76
240.24
262.55
287.31
314.15
341.82
368.8
394.28
419.06
445.73
477.77
517.44
563.45
609.89
647.31
665.87
659.29
627.52
576.82
516.99
457.55
404.56
359.5
320.48
284.39
248.48
210.93
170.72
127.69
83.05
39.99
3.6
-20.48
-28.06
-18.41
4.92
34.95
63.61
84.26
93.6
92.06
82.8
70.09
57.68
47.93
41.57
38.02
35.88
33.31
28.36
19.25
4.53
-16.55
-43.56
-74.97
-108.58
-142.06
-173.99
-204.65
-236.48
-273.2
-318.22
-371.92
-429.9
-483.06
-519.87
-530.27
-509.04
-457.66
-383.5
-297.5
-211.26
-135.32
-78.31
-46.2
-41.18
-60.25
-94.66
-131.36
-156.59
-159.95
-136.92
-88.85
-20.68
61.02
149.11
235.46
310.6
364.83
391.17
388.44
362.69
325.43
289.03
262.03
246.35
237.97
229.89
215.33
189.95
152.37
104.22
50.19
-1.99
-42.66
-63.18
-59.77
-36.08
-3
25.24
36.63
26.02
-3.73
-44.42
-87.26
-126.93
-163.03
-198.61
-237.2
-280.11
-325.24
-367.71
-401.47
-421.16
-423.48
-407.85
-376.2
-332.42
-281.06
-226.26
-170.88
-116.15
-61.81
-6.42
51.79
113.7
177.97
240.42
294.44
332.92
350.73
346.61
323.46
286.95
243.35
197.6
152.76
110.45
71.82
37.94
9.34
-14.93
-37.72
-63.01
-94.25
-132.5
-175.81
-219.62
-258
-285.4
-297.9
-294.1
-275.42
-245.94
-211.77
-179.97
-156.92
-146.7
-150.06
-164.38
-184.71
-205.53
-222.42
-232.86
-236.09
-232.33
-222.3
-207.45
-190.28
-174.54
-164.35
-162.69
-169.84
-182.63
-195.36
-201.87
-198.04
-183.11
-159.58
-131.66
-103.39
-77.3
-54.07
-33.14
-13.6
5.16
23.31
40.75
57.52
74.03
91.16
109.88
131.1
155.39
183.22
215.19
251.91
293.36
338.04
382.48
421.54
449.8
463.15
459.94
441.06
409.12
367.43
319.5
268.89
219.15
173.57
134.49
102.82
77.81
57.47
39.21
20.54
-0.31
-24.12
-50.41
-77.89
-105.13
-131.59
-158.17
-186.73
-218.78
-253.78
-288.68
-318.66
-339.18
-347.74
-344.47
-331.17
-309.83
-281.52
-246.42
-204.53
-156.59
-104.68
-52.04
-2.56
39.95
72.52
93.52
102.96
102.34
94.3
81.89
68.05
55.34
45.85
41.28
42.68
50.01
61.76
74.97
85.96
91.54
90.09
82
69.07
53.35
36.12
17.63
-2.21
-22.67
-41.48
-55.17
-60.4
-55.66
-42.22
-23.95
-6.05
6.72
11.4
7.77
-1.39
-10.78
-13.68
-4.18
20.48
58.05
100.73
137.19
156.2
151.03
122.75
80.83
40.02
14.71
12.91
33.12
65.38
95.99
113.36
112.12
94.02
65.83
36.09
12.38
-0.29
-0.15
11.3
29.56
48.19
61.08
64.53
58.54
46.1
30.69
14.23
-3.57
-23.29
-42.99
-56.78
-56.19
-34.01
11.11
72.15
135.14
183.99
206.28
197.59
162.4
112.06
60.42
19.4
-4.57
-11.97
-9.26
-5.67
-8.77
-20.73
-36.66
-46.39
-39.06
-8.51
43.38
107.07
169.17
218.21
247.85
258.02
252.25
234.69
207.72
171.87
127.41
76.21
23.26
-24.14
-58.31
-74.14
-71.42
-55.38
-34.9
-19
-13.21
-17.76
-28.18
-38.36
-44.13
-45.61
-47.58
-57.01
-80.18
-119.24
-170.66
-225.57
-272.04
-298.63
-298.18
-270.11
-220.91
-161.59
-104.03
-56.82
-23.49
-3.1
7.5
11.54
11.79
11.12
12.76
19.41
31.32
44.54
51.81
45.54
22.51
-13.62
-52.96
-83.82
-98.18
-94.91
-79.66
-60.92
-46.2
-38.95
-38.51
-41.79
-45.64
-48.55
-50.77
-53.54
-57.51
-61.83
-63.91
-60.05
-46.54
-20.69
17.88
66.54
119.29
168.09
204.96
224.51
225.65
211.52
187.85
160.36
132.52
104.89
75.73
42.83
5.3
-35.64
-77.21
-116.41
-151.13
-180.43
-203.82
-219.94
-225.92
-218.35
-195.42
-159.43
-117.22
-78.01
-48.94
-31.61
-21.91
-13.12
-0.62
15.09
28.72
33.74
26.83
10.42
-8.12
-19.9
-18.88
-4.59
17.55
38.9
51.11
49.14
32.51
4.94
-27.26
-57.25
-79.51
-91.29
-93.07
-88.09
-80.83
-75.11
-72.42
-71.65
-70.35
-66.97
-62.36
-59.39
-60.7
-66.31
-73
-75.98
-72.19
-62.21
-49.72
-38.73
-30.7
-23.59
-13.27
3.34
25.92
50.07
68.95
76.31
69.39
50.19
24.7
0.24
-17.74
-27.84
-32.76
-37.25
-45.22
-57.56
-72.08
-85.42
-95.13
-100.94
-104.09
-105.74
-105.55
-101.37
-90.22
-69.67
-39.25
-0.98
40.7
79.91
110.71
128.69
132.16
122.65
104.5
83.36
64.35
50.26
40.75
32.71
21.92
5.36
-16.91
-41.09
-60.89
-70
-64.78
-45.77
-17.26
14.69
44.66
69.2
86.88
97.79
103.2
105.38
107
109.71
112.56
111.62
101.67
79.52
46.75
10.02
-22.11
-43.18
-51.37
-49.25
-41.63
-33.04
-26.46
-23.64
-25.37
-31.06
-37.96
-40.89
-33.76
-12.01
25.04
73.57
126.65
176.58
217.13
244.42
256.63
253.32
235.33
205
166.24
123.9
82.66
45.68
14.22
-11.87
-32.78
-47.61
-54.46
-51.82
-40.4
-23.71
-7.1
4.43
8.53
5.86
-1.05
-9.61
-18.33
-26.6
-33.77
-38.54
-39.49
-35.99
-29.03
-21.17
-15.58
-15.03
-21.04
-33.75
-51.92
-73.39
-95.72
-116.79
-135.27
-150.2
-160.07
-162.16
-153.07
-130.56
-95.43
-52.04
-6.89
33.99
66.89
90.54
104.85
109.48
104.12
89.92
70.68
52.38
40.69
38.03
42.08
47.21
47.67
40.95
29.21
17.69
11.62
13.32
21.24
31.17
38.77
41.39
38.37
30.6
19.51
6.85
-5.13
-13.84
-17.52
-16.86
-15.89
-20.46
-35.02
-59.18
-86.74
-108.4
-117.1
-112.33
-100.71
-91.89
-92.44
-101.79
-113.04
-117.82
-112.09
-98.77
-85.5
-79.13
-80.67
-84.14
-79.98
-61.05
-26.96
15.5
55.69
84.64
98.56
99.33
92.18
82.63
74.07
67.35
61.36
54.43
45.55
34.89
23.87
14.58
9.01
8.21
11.98
19.3
29.15
41.25
55.76
72.45
89.44
103.06
108.79
103.39
86.58
61.55
33.72
8.48
-10.79
-23.64
-32.03
-38.89
-46.4
-54.99
-63.44
-69.78
-72.6
-71.99
-69.76
-68.79
-71.74
-79.69
-91.43
-103.93
-113.8
-118.94
-119.22
-115.85
-109.83
-100.56
-86.02
-64.18
-34.94
-0.79
34.06
65.79
92.4
113.59
129.64
140.07
143.77
139.98
130.15
118.18
108.78
104.86
105.64
107.52
106.57
101.66
95.22
92.16
97.04
111.35
132.46
154.42
171.17
179.22
179.16
173.95
167.19
161.13
155.85
149.65
139.24
122.69
100.22
74.49
47.13
18.65
-11.2
-42.28
-73.61
-105.62
-137.95
-170.1
-200.83
-233.36
-271.89
-318.52
-369.94
-417.47
-453.17
-468.77
-458.78
-420.43
-361.61
-295.96
-238.56
-201.04
-190.24
-212.06
-265.04
-339.33
-415.4
-478.24
-518.28
-533.54
-527.78
-481.27
-392.7
-278.69
-188.34
-129.03
-96.16
-76.49
-64.08
-54.6
-44.42
-35.36
-28.46
-22.98
-13.2
1.36
19.24
38.73
60.29
85.22
111.05
135.53
157.69
180.7
204.14
226.84
247.75
267.4
286.84
304.71
320.08
333.21
346.9
360.8
372.43
377.91
374.38
361.4
340.59
316.26
293.57
276.72
265.29
256.14
246.44
237.02
232.67
239.3
260.39
293.76
331.35
361.18
372.19
358.59
321.59
268.07
206.92
145.75
89.03
37.85
-8.56
-51.47
-91.88
-130.75
-169.26
-208.34
-247.49
-283.61
-310.87
-322.38
-312.96
-281.67
-232.79
-174.68
-117.48
-70.27
-38.86
-25.12
-27.28
-40.97
-60.5
-80.12
-95.04
-101.94
-99.24
-86.96
-66.96
-42.71
-19.58
-4.14
-2.62
-18.59
-50.8
-92.83
-134.98
-167.9
-185.89
-188.45
-179.63
-165.64
-152.21
-142.68
-137.6
-135.55
-134.18
-131.05
-124.19
-112.44
-95.08
-71.85
-43.03
-9.06
29.37
71.29
115.31
159.35
200.95
237.54
266.86
287.65
300.78
309.68
319.65
335.68
359.69
388.6
415.01
430.29
428.75
410.52
381.32
349.44
321.62
300.39
284.22
269.82
254.87
239.39
225.17
213.73
204.83
196.45
185.5
169.68
148.59
123.95
98.9
76.61
59.07
46.49
37.55
30.21
22.88
15.1
7.74
2.43
0.62
2.81
8.18
14.91
20.97
24.97
26.75
27.32
28.23
30.72
34.86
39.3
41.68
39.41
30.73
15.26
-6.11
-31.8
-60.56
-91.99
-126.62
-165.24
-208.2
-255.03
-304.89
-357.28
-412.23
-469.65
-527.85
-582.4
-626.42
-652.47
-655.43
-634.59
-593.82
-539.55
-477.78
-412.61
-346.93
-284.81
-233.03
-200.02
-191.89
-208.4
-241.19
-276.52
-300.94
-307.05
-295.97
-275.48
-255.03
-240.83
-233.74
-230.56
-227.26
-221.75
-214.56
-207.43
-201.33
-195.26
-186.55
-172.25
-150.8
-123.02
-91.91
-61.43
-34.87
-13.72
2.79
16.99
31.49
47.89
66
84.11
100.03
112.36
121.49
129.55
139.65
154.42
175.03
200.6
228.93
257.49
284.38
308.57
329.89
348.67
365.64
382.09
399.22
417.38
435.03
448.53
453.28
445.96
426.66
399.72
372.27
351.22
340.01
337.06
336.57
331.3
315.77
288.27
250.82
207.74
163.31
120.15
78.73
37.78
-4.62
-50.04
-98.67
-148.52
-195.04
-231.77
-251.79
-250.23
-226.45
-184.49
-132
-77.6
-28.24
12.05
41.87
60.79
68.25
63.39
45.97
17.51
-18.26
-56.15
-90.67
-117.4
-133.56
-138.38
-132.61
-117.47
-94.03
-63.3
-26.7
12.95
51.14
82.43
101.84
105.99
93.82
66.56
27.48
-17.94
-62.24
-97.09
-115.81
-116.16
-102.14
-82.92
-68.44
-64.86
-71.18
-79.71
-80.27
-65.22
-33.04
11.26
58.64
99.79
128.36
142.2
142.73
133.54
118.35
99.52
77.91
53.21
24.58
-8.72
-47.01
-89.86
-135.55
-180.6
-220.15
-248.93
-263.39
-262.73
-249.2
-226.67
-198.57
-166.61
-130.48
-89.4
-43.79
3.64
48.31
84.79
108.43
116.8
110.77
94.77
75.79
60.7
53.1
52.27
54.11
54.36
51.42
47.2
45.58
49.72
60.56
76.95
96.9
118.53
140.05
159.4
173.61
179.8
176.39
163.78
143.71
117.58
85.32
46.06
0.23
-48.63
-93.78
-127.6
-145.16
-146.44
-136.47
-122.71
-111.13
-103.67
-98.55
-92.8
-85.85
-80.92
-83.48
-96.98
-119.27
-142.25
-155.71
-153.3
-136.44
-113.81
-96.59
-92.39
-101.81
-118.92
-135.15
-143.49
-140.82
-127.88
-107.46
-82.38
-53.95
-22.27
12.42
48.01
79.85
102.42
111.93
108.39
95.71
79.37
63.37
48.77
34.57
20.2
7.34
-0.4
-0.17
7.42
17.87
25.06
25.39
19.97
13.75
12.05
17.1
27.29
39.12
50.06
60.18
71.24
84.53
98.64
109.64
112.68
104.84
86.56
61.65
35.49
12.84
-3.72
-13.86
-18.91
-21.49
-24.7
-31.09
-41.2
-52.78
-61.33
-62.66
-55.79
-43.89
-32.65
-26.6
-26.45
-28.74
-28.18
-20.88
-6.36
12.76
32.5
49.21
60.5
65.3
63.8
57.92
51.43
49.14
55.26
71.55
96.74
127.68
160.74
192.27
218.4
234.62
236.58
222.43
194.45
158.52
121.43
87.65
57.8
29.81
1.49
-27.29
-54.57
-77.33
-92.92
-99.56
-96.21
-82.31
-57.98
-25.02
12.61
49.23
78.93
97.64
104.48
101.49
92.85
82.83
74.03
66.51
58.01
45.29
26.07
0.7
-28.28
-57.91
-86.85
-116.26
-148.27
-183.79
-220.5
-253.27
-276.09
-284.34
-275.89
-250.73
-210.24
-157.07
-96.11
-35.17
16.17
49.38
60.21
49.97
24.35
-9.61
-45.89
-79.89
-107.09
-121.85
-118.35
-93.46
-49.65
4.64
57.58
98.69
122.29
128.02
118.8
98.19
69.63
37.02
5.9
-17.13
-26.53
-20.38
-1.2
25.12
51.53
72.26
83.8
84.76
75.49
57.81
35.08
11.68
-8
-20.81
-25.64
-23.3
-15.76
-5.48
5.11
13.6
17.85
16.5
9.37
-2.36
-16.58
-30.82
-42.81
-50.79
-53.92
-52.77
-49.42
-46.94
-48.04
-53.56
-61.94
-70.07
-75.43
-77.78
-79.48
-84
-93.55
-107.62
-123.16
-136.09
-143.1
-142.52
-134.31
-119.59
-99.95
-77.28
-53.51
-30.14
-8.03
12.45
30.66
44.93
52.65
51.38
40.65
23
3.49
-12.67
-22.54
-26.74
-28.55
-31.36
-36.49
-42.12
-44.45
-39.83
-26.7
-6.42
17.52
41.12
61.65
78.56
93.44
109.17
128.46
153.16
183.95
220.68
262.47
307.54
352.75
393.74
425.64
444.61
449.21
440.68
422.15
396.82
366.79
333.1
296.62
259.39
224.66
195.78
174.25
158.75
145.51
130.27
110.5
86.2
59.4
32.51
6.79
-18.09
-43.38
-69.88
-97.31
-124.26
-149.16
-171.33
-191.37
-211.08
-232.88
-259.05
-291.09
-329.07
-370.81
-411.75
-445.62
-466.02
-468.88
-454.16
-426.49
-393.83
-364.52
-343.94
-332.6
-326.41
-319.15
-305.88
-285.12
-259.01
-231.28
-204.44
-178.48
-151.98
-124.48
-98.58
-79.46
-71.94
-77.07
-90.69
-105.27
-114.16
-115.33
-112.13
-110.41
-114.52
-124.01
-133.87
-137.5
-130.34
-112.12
-86.37
-57.89
-30.35
-5.09
18.5
41.52
64.35
86.27
105.94
122.41
135.95
148.2
161.54
178.5
200.91
229.8
264.81
304.05
343.95
379.75
406.54
420.47
420.07
406.61
383.62
355.64
326.9
300.37
277.3
257.55
240
223.39
206.8
189.81
172.28
153.86
133.62
109.98
81.31
46.86
7.41
-35.06
-78.47
-121.83
-165.62
-210.66
-256.45
-299.49
-333.69
-352.11
-350.12
-327.79
-289.77
-243.22
-194.33
-146.08
-98.56
-51.83
-8.93
23.26
36.52
26.25
-4.72
-45.71
-82.23
-102.25
-101.13
-82.58
-55.52
-28.75
-6.85
10.41
25.78
41.59
58.02
73.74
88.06
102.04
118.6
142.03
176.16
222.86
280.83
344.87
406.4
455.52
482.96
483.5
458.39
415.04
363.88
314.04
270.15
231.93
196.98
162.43
127.58
94.81
67.94
49.84
40.55
37.33
36.12
33.99
27.95
15.27
-6.22
-37.65
-78.4
-125.47
-173.25
-220.21
-258.5
-281.23
-288.14
-285.83
-282.35
-282.12
-284.94
-288.17
-289.58
-288.02
-284.93
-282.26
-280.58
-278.53
-274.09
-266.18
-255.42
-243.74
-233.26
-225.5
-221
-219.05
-217.9
-215.75
-211.65
-205.89
-199.61
-193.83
-189.57
-187.06
-185.74
-184.37
-181.68
-176.85
-169.68
-160.29
-148.31
-136.06
-124.54
-114.08
-104.41
-95.14
-86.03
-77.09
-68.53
-60.53
-53.25
-46.37
-39.56
-32.54
-25.22
-17.81
-10.76
-4.59
0.23
3.44
5.33
6.27
6.71
6.92
7.05
7.13
7.18
7.35
7.98
9.77
13.33
19.03
26.74
35.91
45.7
55.35
64.47
73.2
82.31
92.61
104.73
118.71
134.03
149.86
165.51
180.69
195.69
211.19
228.01
246.94
268.69
293.67
321.64
350.96
378.41
399.28
408.75
403.7
384.3
354.03
318.24
281.77
247.2
214.88
183.81
153.07
122.4
91.99
61.66
30.71
-1.74
-35.92
-70.23
-101.85
-127.35
-144.03
-150.73
-148.4
-139.96
-129.5
-121.3
-117.07
-116.48
-117.57
-117.97
-116.05
-111.4
-104.2
-94.41
-81.28
-60.7
-29.31
13.27
63.36
114.3
159.56
195.45
221.98
241.69
262.29
290.09
327.72
372.73
418.59
457.69
484.2
495.63
493.05
486.97
489.94
512.84
560.96
632.75
721.66
819.03
916.13
967.33
937.2
808.46
593.37
329.65
62.15
-174.49
-362.86
-500.74
-595.55
-652.55
-676.58
-672.14
-645.4
-605.2
-561.59
-523.38
-496.26
-482.05
-474.63
-465.92
-449.25
-422.83
-390.12
-357.18
-329.37
-309.15
-295.91
-284.5
-269.79
-248.98
-222.69
-194.02
-166.35
-141.76
-120.89
-103.9
-90.23
-79.92
-72.91
-68.59
-65.17
-59.93
-50.83
-38.09
-24.58
-13.98
-8.65
-8.13
-9.3
-8.44
-3.7
3.37
8.93
9.11
2.43
-9.03
-20.63
-27.8
-28.32
-23.35
-17.13
-14.24
-17.66
-27.71
-42.26
-57.95
-71.73
-81.88
-88.26
-92.8
-97.51
-103.99
-113.35
-126.42
-144.06
-167.22
-196.6
-227.26
-254.55
-273.19
-278.45
-267.6
-240.69
-200.03
-149.26
-92.09
-31.89
27.38
81.82
127.46
160.94
180.32
185.62
178.7
163.08
143.49
124.96
112.65
110.85
121.48
143.44
172.99
204.96
234.76
259.32
277.19
288.1
291.9
288.1
276
255.22
226
189.61
148.22
104.3
60.32
17.93
-22.55
-61.78
-100.44
-137.68
-170.25
-193.21
-202.16
-195.63
-176.43
-150.66
-125.1
-104.59
-90.89
-82.64
-76.99
-70.99
-62.53
-50.72
-35.71
-18.85
-2.02
13.15
26.28
38.48
51.71
67.42
85.02
102.25
116.47
126.45
132.91
137.31
139.9
138.94
131.93
118.14
100.69
86.34
83.13
97.11
130
178.99
238.14
300.31
358.41
405.92
437.3
448.99
440.3
413.93
375.24
330.43
284.73
241.31
201.48
165.44
133
103.77
76.89
51
24.55
-3.59
-33.53
-64.31
-94.29
-122.08
-147.29
-170.85
-194.68
-220.83
-250.45
-283.29
-318.02
-352.62
-385.39
-415.67
-444.11
-472.46
-503.23
-539.1
-582.21
-632.97
-688.4
-741.69
-783.31
-804
-798.18
-766.13
-713.96
-651.25
-587.46
-528.31
-474.78
-424.74
-375.76
-327.26
-280.4
-236.89
-197.6
-161.86
-126.87
-88.9
-45.06
4.95
58.44
111.34
159.82
201.62
236.38
266.56
296.44
330.14
369.42
413.6
461.25
511.72
564.94
613.24
642.1
636.94
593.24
519.04
429.27
339.61
262.28
203.47
162.76
136.11
118.97
108.61
103.76
103.36
105.89
109.01
109.97
106.58
98.88
88.97
80.11
74.29
70.9
67.49
60.9
48.51
29.1
5.19
-19.72
-41.55
-57.43
-66.71
-70.73
-71.9
-72.73
-74.85
-78.25
-81.66
-83.07
-81.1
-75.81
-68.67
-61.88
-57.53
-56.67
-58.81
-62.34
-65.18
-65.62
-63.23
-58.78
-53.81
-50.13
-49.24
-52.36
-59.82
-70.28
-80.28
-84.48
-77.25
-55.05
-19.15
23.71
62.55
86
86.81
64.54
25.42
-20.71
-64.15
-97.89
-118.13
-123.26
-113.01
-88.43
-52.95
-12.73
24.25
50.72
62.56
60.39
48.76
33.82
20.82
12.42
9
9.38
12.11
16.18
20.86
25.6
29.95
33.75
36.67
38.66
39.59
39.26
37.48
33.88
28.12
20.02
9.75
-2.24
-15.12
-27.8
-39.12
-47.89
-53.27
-54.78
-52.22
-45.69
-35.57
-22.34
-6.67
9.94
26.54
42.06
55.45
65.91
72.98
76.58
77.11
75.28
71.87
67.71
63.38
59.11
55.02
51.08
47.21
43.46
39.9
36.61
33.77
31.36
29.22
27.2
25.17
23.06
21.03
19.37
18.4
18.41
19.67
21.46
23.13
24.36
24.49
23.48
21.68
19.57
17.58
15.81
13.77
10.85
6.66
1.22
-4.61
-9.46
-11.93
-11.09
-6.82
-0.14
7.39
14.44
20.17
24.74
28.9
33.53
38.44
44.63
52.45
61.67
70.87
77.04
76.12
64.47
41.02
8.6
-26.39
-56.6
-76.49
-84.52
-83.14
-76.87
-69.79
-63.86
-58.81
-53.44
-47.25
-40.93
-35.79
-32.96
-32.36
-32.88
-32.99
-31.15
-26.7
-20.07
-12.4
-5
1.02
5.28
7.99
9.69
11.01
12.08
12.4
10.82
6.35
-1.55
-12.37
-24.36
-35.85
-45.74
-54.3
-62.69
-71.68
-79.88
-83.69
-78.67
-61.52
-33.1
1.48
34.82
60.53
75.5
80.07
76.18
65.21
47.28
22.11
-8.5
-39.92
-65.69
-80.45
-82.73
-75.66
-64.87
-55.01
-47.28
-38.8
-25.27
-4.27
22.36
48.88
68.2
75.28
69.47
54.31
36
20.15
9.8
4.87
3.37
3.09
2.85
2.96
4.32
7.58
12.43
17.72
21.64
22.77
20.54
15.57
9.48
4.19
1.22
1.16
3.52
6.94
9.81
10.88
9.69
6.77
3.18
-0.12
-2.58
-4.24
-5.49
-6.72
-8.02
-9.03
-9.26
-8.5
-7.32
-6.69
-7.71
-11.11
-16.8
-23.9
-31.03
-37
-39.87
-39.44
-36.63
-33
-30.17
-29.3
-30.87
-34.43
-38.59
-40.93
-38.58
-28.8
-10.06
16.9
48.9
81.08
108.4
127.17
135.98
135.47
127.78
115.55
101.23
86.8
73.84
63.74
57.66
56.37
59.87
67.34
77.23
87.54
96.45
102.86
106.66
108.75
110.51
113.12
117.12
122.24
127.43
131.08
131.5
127.31
118.04
104.37
87.98
70.9
54.6
39.09
22.94
4.07
-19.04
-46.33
-76.12
-105.96
-133.81
-158.71
-180.94
-201.4
-220.84
-239.45
-257.19
-274.37
-291.84
-310.48
-329.64
-346.94
-358.87
-362.18
-355.6
-340.75
-321.92
-304.28
-291.57
-283.51
-277.12
-268.75
-256.05
-238.67
-217.51
-193.71
-167.74
-139.32
-106.45
-68.5
-27.15
14.01
51.42
83.74
112.19
139.62
168.54
201.27
236.75
270.7
297.85
315.46
325.5
333.47
345.16
349.48
335.95
300.01
246.42
184.66
123.5
68.99
23.68
-13.23
-44.15
-69.53
-89.06
-102.44
-109.68
-112.43
-112.06
-110.06
-107.81
-105.86
-102.71
-96.64
-86.65
-72.94
-56.32
-37.13
-14.84
7.6
29.65
53.06
80.3
113.02
150.54
189.29
223.57
247.03
254.89
246.38
225.02
196.88
168.02
142.32
121.03
103.88
90.13
79.06
70.03
61.52
51.18
36.99
18.82
-0.75
-17.2
-26.4
-26.81
-20.29
-11.08
-3.31
1.01
2.38
2.6
3.19
4.43
5.55
5.36
3.75
2.12
2.71
7.06
14.94
24.69
34.64
43.8
51.21
56.92
61.95
67.7
74.98
83.35
91.98
100.91
110.58
120.03
128.23
134.54
138.47
138.63
131.91
115.11
87.41
49.86
3.01
-51.49
-110.74
-171.11
-229.51
-285.09
-337.68
-385.53
-409.32
-393.73
-337.86
-257.43
-173.21
-99.35
-42.9
-9.81
6.86
14.44
16.5
14.63
9.72
1.63
-6.33
-14.87
-26.12
-41.04
-59.84
-83.2
-109.79
-134.38
-149.7
-147.66
-127.29
-95.46
-63.54
-43.7
-45.67
-72.3
-118.63
-175.97
-222.35
-239.52
-224.39
-190.08
-152.96
-121.48
-98.4
-72.79
-37.68
10.11
66.5
124.24
175.85
217.04
247.25
270.33
290.71
296.27
279.75
240.64
185.29
123.7
73.73
38.94
20.66
17.35
23.24
29.68
28.91
15
-13.59
-52.47
-94.26
-129.42
-150.61
-155.18
-142.5
-114.56
-75.47
-29.92
18.12
64.45
106.14
140.18
163.45
175.04
175.97
168.55
155.85
141.01
125.71
110.93
96.45
81.46
66.18
51.81
39.74
30.75
24.73
20.5
16.95
13.27
9.22
5.4
2.66
1.41
1.27
1.17
-0.27
-3.97
-10.12
-18.08
-26.69
-34.61
-40.92
-45.3
-48.02
-49.73
-51.05
-52.33
-53.61
-54.74
-55.64
-56.39
-57.21
-58.35
-59.92
-61.94
-64.38
-67.15
-70.03
-72.37
-73.01
-70.4
-63.17
-50.79
-33.99
-14.61
5
22.77
37.48
48.78
56.79
61.7
63.41
61.74
56.74
49.08
39.99
30.95
23.17
17.22
13.06
10.18
8.13
6.78
6.38
7.27
9.6
13.04
16.81
19.95
21.68
21.66
20.09
17.51
14.6
11.91
9.75
8.17
7.08
6.3
5.7
5.21
4.77
4.3
3.65
2.62
0.97
-1.5
-4.84
-8.82
-12.88
-16.14
-17.48
-15.89
-10.77
-2.17
9.11
21.79
34.39
45.6
54.42
60.27
62.79
61.84
57.47
50.03
40.25
29.24
18.24
8.35
0.24
-6
-10.82
-14.97
-19.15
-23.74
-28.54
-32.74
-35.2
-34.88
-31.38
-25.22
-17.8
-10.94
-6.16
-4.21
-4.94
-7.48
-10.85
-14.33
-17.64
-20.74
-23.65
-26.26
-28.53
-30.55
-32.67
-35.32
-38.72
-42.65
-46.32
-48.67
-48.57
-45.27
-38.4
-28.02
-14.51
1.57
19.36
37.74
55.42
71.13
83.85
92.94
98.16
99.52
97.21
91.58
83.15
72.74
61.38
50.11
39.72
30.42
21.8
13.04
3.3
-7.76
-19.64
-31.06
-40.4
-46.49
-49.2
-49.69
-50.05
-52.35
-57.75
-65.99
-75.64
-84.86
-92.33
-97.85
-102.19
-106.48
-111.51
-117.2
-122.63
-126.49
-127.7
-125.69
-120.57
-112.78
-102.85
-91.25
-78.53
-65.46
-53.03
-42.19
-33.4
-26.29
-19.72
-12.16
-2.45
9.76
23.78
38.19
51.43
62.21
69.81
73.95
74.57
71.65
65.21
55.51
43.26
29.66
16.36
5.08
-2.8
-6.64
-6.63
-3.71
0.9
6.23
11.89
18.17
25.76
35.34
47.26
61.39
77.23
94.03
110.95
127.06
141.29
152.36
158.98
160.03
154.93
143.86
127.85
108.65
88.36
69
52.01
37.75
25.51
13.68
0.42
-15.59
-34.43
-54.66
-73.53
-87.82
-94.91
-93.83
-85.73
-73.39
-60.16
-48.62
-39.65
-32.41
-25.16
-16.4
-5.77
5.6
15.45
20.92
19.2
8.39
-11.37
-36.91
-61.8
-77.65
-76.93
-56.2
-18.17
28.58
72.65
103.93
117.06
112.37
94.42
69.07
40.97
12.65
-14.79
-40.32
-62.22
-78.27
-86.77
-87.7
-83.02
-76.01
-69.88
-66.43
-65.37
-64.88
-62.75
-57.69
-50.03
-41.5
-34.23
-29.59
-27.54
-26.7
-25.18
-21.52
-15.36
-7.41
0.93
8.35
14
17.69
19.72
20.52
20.51
19.99
19.1
17.92
16.5
14.94
13.38
12.1
11.4
11.54
12.59
14.38
16.54
18.68
20.54
22.03
23.26
24.35
25.34
26.12
26.47
26.11
24.8
22.33
18.63
13.74
7.91
1.51
-5.04
-11.36
-17.26
-22.74
-27.95
-33.11
-38.28
-43.28
-47.55
-50.18
-50.12
-46.53
-39.08
-28.21
-15.04
-1.05
12.37
24.25
34.16
42.02
47.84
51.55
53.02
52.24
49.46
45.24
40.31
35.29
30.58
26.31
22.54
19.34
16.89
15.38
14.87
15.2
16.02
16.83
17.2
16.86
15.68
13.7
11.03
7.79
4.11
0.1
-4.13
-8.47
-12.73
-16.76
-20.39
-23.6
-26.55
-29.55
-33.01
-37.26
-42.35
-47.89
-53.05
-56.68
-57.6
-54.99
-48.6
-38.87
-26.76
-13.46
-0.1
12.45
23.7
33.37
41.28
47.18
50.79
51.9
50.53
47.11
42.46
37.62
33.52
30.74
29.36
29.1
29.45
30
30.45
30.62
30.32
29.32
27.37
24.31
20.23
15.38
10.21
5.14
0.54
-3.39
-6.63
-9.34
-11.82
-14.35
-17.17
-20.33
-23.79
-27.44
-31.19
-35.04
-39
-43
-46.73
-49.58
-50.76
-49.53
-45.45
-38.6
-29.56
-19.22
-8.55
1.65
10.91
18.98
25.72
30.95
34.49
36.26
36.5
35.83
35.07
35.05
36.27
38.73
42.03
45.62
49.03
52.09
54.91
57.61
60.18
62.37
63.86
64.42
64.09
63.12
61.81
60.28
58.35
55.6
51.59
46.04
39.01
30.98
22.69
14.91
8.02
1.69
-5.14
-13.85
-25.54
-40.41
-57.48
-74.83
-90.2
-101.64
-107.93
-108.67
-104.12
-95.05
-82.54
-67.83
-52.23
-36.92
-22.74
-10.19
0.45
9
15.34
19.51
21.88
23.15
24.12
25.53
27.73
30.73
34.29
38.15
42.11
46.09
50.01
53.71
56.86
59.04
59.95
59.45
57.7
55.11
52.11
49.04
46
42.81
39.13
34.52
28.61
21.09
11.8
0.78
-11.67
-24.95
-38.3
-51.02
-62.7
-73.29
-83.04
-92.05
-99.99
-105.88
-108.42
-106.49
-99.65
-88.52
-74.6
-59.77
-45.65
-33.19
-22.56
-13.47
-5.61
1.01
5.92
8.5
8.32
5.45
0.61
-5.05
-10.35
-14.44
-17.15
-18.98
-20.84
-23.76
-28.46
-35.23
-43.81
-53.42
-62.98
-71.28
-77.33
-80.58
-81.15
-79.77
-77.51
-75.45
-74.36
-74.58
-76
-78.28
-81.05
-83.94
-86.63
-88.79
-89.96
-89.67
-87.41
-82.77
-75.52
-65.62
-53.25
-38.8
-22.83
-6.02
10.92
27.29
42.55
56.26
68.1
77.8
85.06
89.68
91.63
91.22
89.02
85.8
82.18
78.53
74.94
71.4
68.02
65.14
63.25
62.78
63.87
66.32
69.56
72.85
75.38
76.5
75.85
73.41
69.51
64.66
59.37
53.96
48.46
42.62
36.15
28.87
20.97
13.06
6.14
1.46
0.16
3.1
10.44
21.52
34.93
48.77
61.05
70.21
75.41
76.57
74.17
68.98
61.66
52.71
42.56
31.64
20.62
10.25
1.17
-6.27
-12.12
-16.68
-20.23
-22.85
-24.45
-25.04
-25.13
-25.77
-28.33
-33.89
-42.63
-53.61
-64.95
-74.42
-80.14
-80.96
-76.51
-66.99
-53.07
-35.57
-15.3
6.67
28.95
49.93
68.18
82.99
94.64
103.97
112.16
120.14
128.14
135.55
141.18
143.85
142.9
138.41
130.59
120.22
108.59
97.55
88.99
84.33
84.1
87.67
93.28
97.13
95.83
88.03
75.05
59.67
44.53
30.82
17.85
3.3
-18.77
-52.66
-98
-148.6
-195.2
-229.32
-246
-245.21
-231.48
-217.06
-213.76
-228.63
-261.8
-308.83
-363.33
-417.43
-461.7
-486.27
-489.67
-474.87
-447.67
-414.52
-383.23
-362.52
-358.81
-373.56
-365.08
-305.16
-194.36
-61.54
62.68
163.67
240.88
299.86
346.87
386.24
412.13
418.42
402.41
369.65
330.31
293.04
262.15
237.68
216.4
187.55
141.87
75.38
-6.01
-90.61
-167.24
-229.23
-274.16
-302.9
-299.18
-259.17
-194.58
-124.1
-60.79
-8.06
35.7
73.1
105.59
129.66
139.96
132.4
108.13
72.56
32.32
-7.66
-43.2
-64.44
-64.04
-43.85
-12.89
18.33
41.1
57.45
71.03
85.85
105.12
129.6
154.38
175.88
193.83
211.19
232.43
260.51
297.12
342.58
394.65
447.72
494.67
528.17
542.32
534.27
504.56
458.15
402.85
346.07
292.38
243.61
199.72
160.32
125.75
96.4
72.65
54.18
39.52
26.72
14.53
2.75
-7.88
-16.18
-21.59
-24.35
-25.47
-26.56
-29.38
-35.49
-46.15
-62.32
-84.57
-113
-146.97
-184.95
-224.87
-264.55
-302.26
-337.34
-370.15
-402.02
-435.08
-471.95
-515.17
-565.89
-622.56
-680.05
-730.4
-765.04
-777.92
-767.8
-738.61
-697.59
-652.07
-606.95
-563.71
-521.27
-477.97
-433.24
-388.26
-345.43
-307.17
-274.73
-247.65
-224.03
-201.31
-177.42
-151.77
-125.29
-99.78
-76.8
-56.72
-38.68
-21.26
-3.58
13.96
29.86
42.39
50.61
54.92
56.82
58.14
60.3
63.64
67.47
70.6
71.96
71.2
68.81
66
64.17
64.4
67.07
71.87
77.95
84.39
90.54
96.3
102.06
108.55
116.43
126.05
137.24
149.42
161.78
173.73
185.15
196.49
208.7
222.8
239.37
258.31
278.74
299.45
319.44
338.52
357.39
377.26
399.13
423.26
449
475.05
499.53
519.96
532.91
534.07
519.09
485.23
432.93
366.6
293.67
222.2
158.4
105.11
62.25
28.58
3.38
-12.99
-20.03
-18.7
-12.27
-5.74
-4.08
-10.22
-23.85
-41.78
-59.53
-73.21
-80.91
-82.86
-80.81
-76.98
-73.34
-71.3
-71.87
-75.87
-83.82
-95.46
-109.28
-122.17
-130
-128.68
-115.69
-91.1
-57.83
-20.77
14.72
44.41
66.17
80.13
87.99
91.86
93.31
92.94
90.65
86.26
80.08
73.06
66.38
60.93
56.86
53.62
50.41
46.62
42.21
37.53
33.05
28.89
24.71
19.83
13.5
5.26
-4.86
-16.31
-28.14
-39.21
-48.55
-55.58
-60.31
-63.28
-65.45
-67.93
-71.75
-77.71
-86.18
-96.91
-108.73
-119.49
-126.17
-125.66
-115.61
-95.37
-66.38
-31.79
4.41
38.54
67.99
91.45
108.63
119.83
125.7
127.02
124.84
120.22
114.14
107.22
99.74
91.76
83.46
75.29
67.93
62.16
58.61
57.5
58.54
60.86
63.21
64.07
62.07
56.31
46.83
34.6
21.34
9
-0.93
-7.97
-12.69
-16.37
-20.37
-25.47
-31.59
-37.89
-43.34
-47.28
-49.91
-52.22
-55.51
-60.77
-68.08
-76.58
-84.81
-91.34
-95.42
-97.16
-97.35
-96.98
-96.74
-96.84
-97.01
-96.88
-96.27
-95.32
-94.41
-93.99
-94.51
-96.44
-100.35
-106.76
-115.77
-126.59
-137.15
-144.25
-144.21
-133.98
-112.17
-79.7
-39.72
3.17
44.09
78.96
105.22
122.08
130.29
131.51
127.83
121.19
113.08
104.56
96.22
88.36
81.1
74.42
68.38
63.13
58.9
55.92
54.27
53.79
54.14
54.94
55.88
56.79
57.48
57.67
56.93
54.91
51.54
47.06
41.89
36.24
29.98
22.59
13.62
3.02
-8.54
-19.91
-29.86
-37.64
-43.28
-47.4
-50.88
-54.4
-58.19
-62.17
-66.09
-69.79
-73.27
-76.6
-79.88
-83.15
-86.44
-89.75
-93.1
-96.37
-99.32
-101.62
-102.94
-103.13
-102.32
-100.93
-99.61
-99.06
-99.76
-101.54
-103.36
-103.21
-98.64
-87.47
-68.7
-43
-12.59
19.39
49.88
76.57
98.24
114.58
125.91
132.83
135.98
135.96
133.25
128.34
121.7
113.86
105.45
97.02
89.01
81.66
75.07
69.36
64.69
61.29
59.29
58.61
58.88
59.58
60.22
60.48
60.25
59.58
58.57
57.31
55.81
54.03
51.81
49
45.53
41.51
37.23
33.09
29.34
25.88
22.31
18.03
12.64
6.13
-1.04
-8.17
-14.69
-20.39
-25.49
-30.4
-35.51
-40.91
-46.42
-51.71
-56.51
-60.79
-64.7
-68.56
-72.72
-77.54
-83.29
-90.17
-98.13
-106.67
-114.75
-120.76
-122.77
-119.04
-108.45
-90.95
-67.69
-40.75
-12.73
13.94
37.41
56.67
71.46
81.96
88.46
91.2
90.39
86.39
79.86
71.84
63.51
55.99
50.07
46.14
44.2
44.01
45.15
47.16
49.54
51.78
53.43
54.17
53.89
52.67
50.72
48.24
45.28
41.77
37.54
32.48
26.62
20.17
13.41
6.57
-0.19
-6.8
-13.17
-19.13
-24.47
-28.97
-32.57
-35.45
-38.07
-41
-44.79
-49.81
-56.12
-63.51
-71.56
-79.76
-87.6
-94.68
-100.87
-106.34
-111.52
-116.92
-122.83
-129
-134.41
-137.39
-135.97
-128.52
-114.29
-93.8
-68.72
-41.42
-14.32
10.68
32.36
50.23
64.16
74.18
80.32
82.72
81.72
77.95
72.26
65.54
58.63
52.19
46.73
42.64
40.15
39.29
39.86
41.47
43.59
45.71
47.41
48.38
48.42
47.45
45.49
42.62
39.01
34.87
30.39
25.67
20.75
15.58
10.06
4.11
-2.25
-8.9
-15.72
-22.54
-29.25
-35.8
-42.15
-48.26
-54.01
-59.3
-64.07
-68.45
-72.83
-77.69
-83.47
-90.3
-97.76
-104.86
-110.1
-111.76
-108.26
-98.62
-82.76
-61.62
-36.98
-11.11
13.87
36.31
55.28
70.51
82.01
89.91
94.31
95.38
93.5
89.36
83.86
77.87
72.04
66.66
61.74
57.2
52.97
49.07
45.61
42.68
40.27
38.24
36.33
34.22
31.69
28.67
25.27
21.7
18.1
14.42
10.4
5.71
0.15
-6.23
-13.09
-19.95
-26.39
-32.19
-37.33
-41.99
-46.41
-50.88
-55.64
-60.83
-66.42
-72.17
-77.65
-82.44
-86.37
-89.67
-93.04
-97.42
-103.51
-111.39
-120.14
-127.92
-132.27
-130.82
-121.96
-105.41
-82.29
-54.84
-25.77
2.47
28.14
50.38
68.97
83.96
95.35
102.98
106.71
106.6
103.26
97.68
91.19
84.99
79.93
76.38
74.22
73.03
72.29
71.52
70.37
68.65
66.31
63.38
59.92
55.98
51.56
46.71
41.48
35.94
30.16
24.18
18.05
11.89
5.84
0.15
-5.06
-9.81
-14.34
-19.03
-24.1
-29.55
-35.06
-40.26
-44.91
-49.09
-53.17
-57.6
-62.6
-68.07
-73.62
-78.77
-83.22
-87.01
-90.52
-94.37
-99.23
-105.51
-113.15
-121.37
-128.65
-132.87
-131.8
-123.74
-108.11
-85.77
-58.82
-30.02
-2.06
23.09
44.37
61.46
74.4
83.36
88.44
89.88
88.12
83.95
78.34
72.24
66.37
61.15
56.71
53.11
50.38
48.55
47.65
47.57
48.03
48.67
49.06
48.96
48.26
47.04
45.52
43.97
42.63
41.7
41.31
41.43
41.89
42.38
42.44
41.61
39.56
36.11
31.3
25.25
18.11
10.07
1.39
-7.47
-15.9
-23.28
-29.17
-33.59
-37.04
-40.35
-44.28
-49.2
-54.86
-60.55
-65.47
-69.16
-71.71
-73.83
-76.46
-80.54
-86.53
-94.27
-102.86
-110.75
-115.91
-116.11
-109.51
-95.19
-73.62
-46.73
-17.48
10.87
35.74
55.68
70.54
80.99
88
92.3
94.29
94.17
92.23
89.02
85.27
81.67
78.64
76.24
74.28
72.48
70.74
69.12
67.82
66.98
66.49
66.01
65
62.99
59.77
55.5
50.59
45.57
40.83
36.46
32.26
27.9
23.08
17.73
12.03
6.36
1.04
-3.74
-8.06
-12.18
-16.4
-20.93
-25.74
-30.59
-35.14
-39.11
-42.46
-45.39
-48.25
-51.41
-55.04
-59.06
-63.18
-67.11
-70.7
-74.06
-77.54
-81.64
-86.86
-93.51
-101.47
-110.07
-117.89
-122.83
-122.59
-115.27
-100.15
-78.07
-51.35
-23.12
3.61
26.68
45.14
59.01
68.85
75.22
78.53
79.07
77.25
73.65
69.09
64.39
60.24
56.99
54.69
53.12
51.94
50.91
49.93
49.08
48.48
48.18
47.95
47.36
45.94
43.36
39.61
35.01
30.1
25.37
21.05
17.11
13.27
9.2
4.64
-0.45
-5.86
-11.25
-16.24
-20.55
-24.12
-27.14
-29.96
-32.96
-36.37
-40.21
-44.29
-48.3
-51.96
-55.1
-57.78
-60.24
-62.93
-66.34
-70.86
-76.52
-82.8
-88.49
-91.86
-91.02
-84.51
-71.8
-53.59
-31.62
-8.26
14.15
33.86
49.9
62.03
70.43
75.37
77.14
76
72.42
67.1
60.97
54.97
49.84
45.96
43.31
41.63
40.56
39.86
39.45
39.37
39.64
40.08
40.26
39.63
37.68
34.29
29.72
24.58
19.54
15
10.96
7.05
2.78
-2.2
-7.92
-14.07
-20.16
-25.73
-30.54
-34.64
-38.33
-42.09
-46.33
-51.24
-56.74
-62.51
-68.14
-73.29
-77.85
-81.93
-85.82
-89.99
-94.93
-101.05
-108.4
-116.35
-123.43
-127.42
-125.87
-116.94
-100.07
-76.38
-48.41
-19.34
7.95
31.56
50.71
65.57
76.65
84.43
89.19
91.12
90.58
88.22
84.9
81.49
78.55
76.24
74.36
72.56
70.62
68.61
66.81
65.56
64.95
64.73
64.33
63.14
60.77
57.21
52.86
48.27
43.94
40.14
36.9
34.04
31.38
28.79
26.21
23.65
21.11
18.65
16.33
14.26
12.54
11.21
10.18
9.24
8.1
6.47
4.12
0.98
-2.82
-7
-11.17
-14.91
-17.96
-20.28
-22.07
-23.69
-25.51
-27.74
-30.35
-33.08
-35.65
-37.9
-39.92
-42.12
-45.02
-49.06
-54.41
-60.82
-67.71
-74.37
-80.23
-85.02
-88.94
-92.55
-96.66
-102.08
-109.32
-118.33
-128.14
-136.84
-141.75
-140.15
-130.1
-111.24
-85.09
-54.61
-23.31
5.77
30.81
51.25
67.32
79.54
88.25
93.61
95.82
95.39
93.18
90.21
87.32
84.94
83.1
81.63
80.31
79.08
78
77.15
76.5
75.86
74.95
73.5
71.32
68.37
64.74
60.65
56.32
52
47.87
44.01
40.39
36.91
33.52
30.21
27.03
24.04
21.17
18.28
15.16
11.71
8.01
4.33
1.06
-1.53
-3.39
-4.71
-5.88
-7.24
-8.95
-10.88
-12.7
-14.02
-14.6
-14.51
-14.12
-14
-14.72
-16.57
-19.54
-23.28
-27.32
-31.27
-35.02
-38.74
-42.79
-47.44
-52.77
-58.56
-64.47
-70.12
-75.33
-80.13
-84.76
-89.55
-94.87
-101.06
-108.3
-116.43
-124.73
-131.67
-135.14
-132.82
-123.02
-105.39
-81.2
-53.03
-24
3.14
26.63
45.8
60.78
71.97
79.73
84.33
86.08
85.51
83.41
80.66
78.02
75.96
74.58
73.73
73.13
72.53
71.84
71.1
70.38
69.68
68.81
67.5
65.46
62.56
58.9
54.75
50.48
46.33
42.38
38.49
34.45
30.06
25.32
20.42
15.73
11.57
8.15
5.44
3.2
1.13
-1.04
-3.37
-5.78
-8.11
-10.25
-12.19
-14.07
-16.09
-18.41
-21.08
-24.05
-27.21
-30.43
-33.67
-36.95
-40.38
-44.05
-48.02
-52.2
-56.44
-60.52
-64.24
-67.55
-70.54
-73.51
-76.86
-80.99
-86.2
-92.54
-99.58
-106.32
-111.09
-111.89
-106.85
-94.92
-76.34
-52.73
-26.7
-1.07
21.86
40.78
55.35
65.82
72.63
76.14
76.61
74.43
70.23
64.89
59.35
54.43
50.63
48.12
46.79
46.41
46.69
47.4
48.3
49.21
49.91
50.22
49.98
49.13
47.67
45.69
43.3
40.6
37.64
34.47
31.16
27.81
24.51
21.36
18.41
15.72
13.3
11.13
9.14
7.19
5.1
2.64
-0.36
-4.01
-8.3
-13.07
-18.04
-22.89
-27.36
-31.35
-34.99
-38.64
-42.73
-47.59
-53.3
-59.6
-66.05
-72.14
-77.6
-82.42
-86.92
-91.62
-97.06
-103.62
-111.38
-119.91
-128.11
-134.16
-135.78
-130.78
-117.85
-97.14
-70.46
-40.85
-11.63
14.51
36.13
53.05
65.86
75.36
82.11
86.36
88.29
88.18
86.52
83.89
80.82
77.74
74.87
72.38
70.35
68.89
68.06
67.87
68.2
68.82
69.38
69.48
68.77
67.01
64.17
60.45
56.21
51.8
47.49
43.38
39.44
35.55
31.63
27.71
23.91
20.44
17.52
15.26
13.63
12.39
11.18
9.63
7.56
4.98
2.16
-0.58
-3.03
-5.2
-7.33
-9.78
-12.8
-16.5
-20.71
-25.15
-29.49
-33.52
-37.27
-40.99
-45.08
-49.93
-55.75
-62.44
-69.55
-76.45
-82.58
-87.65
-91.78
-95.5
-99.53
-104.51
-110.75
-118
-125.3
-131.02
-133.07
-129.32
-118.36
-99.93
-75.26
-46.76
-17.4
10.04
33.64
52.56
66.82
77
83.78
87.75
89.42
89.26
87.82
85.73
83.58
81.81
80.63
79.97
79.59
79.25
78.85
78.4
78.02
77.69
77.21
76.18
74.2
71
66.6
61.32
55.63
50.02
44.82
40.16
36
32.22
28.63
25.17
21.84
18.73
16.01
13.77
11.95
10.39
8.79
6.91
4.66
2.15
-0.37
-2.61
-4.41
-5.85
-7.24
-8.99
-11.5
-14.92
-19.08
-23.59
-27.92
-31.64
-34.62
-37.05
-39.44
-42.36
-46.26
-51.22
-56.98
-63
-68.75
-73.93
-78.54
-82.89
-87.45
-92.7
-98.99
-106.34
-114.31
-121.74
-126.83
-127.38
-121.45
-108.09
-87.87
-62.84
-35.96
-10.18
12.36
30.71
44.9
55.48
63.03
67.9
70.29
70.43
68.75
65.89
62.59
59.48
57
55.3
54.37
54.08
54.32
55.02
56.15
57.59
59.1
60.29
60.72
60.03
58.1
55.05
51.24
47.13
43.17
39.61
36.5
33.64
30.73
27.52
23.92
20.06
16.23
12.73
9.73
7.15
4.7
1.98
-1.35
-5.42
-10.11
-15.07
-19.85
-24.08
-27.7
-30.96
-34.36
-38.4
-43.37
-49.16
-55.3
-61.21
-66.43
-70.87
-74.75
-78.57
-82.91
-88.23
-94.71
-102.05
-109.22
-114.5
-115.7
-110.83
-98.81
-80.05
-56.4
-30.65
-5.67
16.42
34.55
48.59
58.85
65.77
69.7
71
70.18
67.92
65.04
62.24
59.99
58.47
57.67
57.45
57.64
58.11
58.79
59.59
60.42
61.12
61.43
61.04
59.76
57.53
54.54
51.16
47.8
44.75
42.07
39.6
37.02
34.05
30.61
26.82
22.98
19.48
16.55
14.2
12.2
10.17
7.75
4.76
1.25
-2.5
-6.13
-9.37
-12.22
-14.86
-17.69
-21.04
-25.08
-29.69
-34.52
-39.11
-43.06
-46.2
-48.71
-51
-53.56
-56.78
-60.76
-65.33
-70.23
-75.21
-80.25
-85.5
-91.25
-97.77
-105.12
-113.13
-121.24
-128.42
-133.14
-133.5
-127.72
-114.78
-94.94
-69.94
-42.56
-15.83
7.84
27.17
41.96
52.74
60.21
64.93
67.3
67.77
66.96
65.66
64.6
64.25
64.69
65.75
67.14
68.7
70.45
72.54
75
77.6
79.85
81.1
80.84
78.85
75.37
70.93
66.17
61.59
57.48
53.84
50.52
47.34
44.18
41.02
37.89
34.84
31.91
29.09
26.36
23.73
21.24
18.88
16.64
14.4
12.08
9.63
7.1
4.61
2.3
0.21
-1.68
-3.52
-5.47
-7.67
-10.24
-13.22
-16.61
-20.37
-24.34
-28.3
-32.01
-35.31
-38.25
-41.12
-44.33
-48.27
-53.13
-58.77
-64.71
-70.41
-75.39
-79.53
-83.11
-86.74
-91.19
-97.07
-104.61
-113.34
-122.01
-128.56
-130.59
-125.99
-113.67
-94.12
-69.33
-42.29
-16
7.25
26.37
41.29
52.51
60.59
65.92
68.76
69.42
68.47
66.65
64.77
63.4
62.78
62.77
63.1
63.45
63.65
63.77
63.89
64.08
64.23
64.1
63.34
61.72
59.17
55.81
51.96
47.92
43.95
40.18
36.6
33.11
29.58
25.98
22.34
18.76
15.37
12.28
9.53
7.11
4.97
3.02
1.12
-0.94
-3.43
-6.63
-10.66
-15.47
-20.75
-26.06
-30.91
-35
-38.31
-41.05
-43.64
-46.44
-49.6
-52.99
-56.24
-58.91
-60.76
-61.89
-62.78
-64.1
-66.55
-70.52
-75.97
-82.31
-88.4
-92.61
-93.15
-88.46
-77.79
-61.52
-41.21
-19.2
2.09
20.83
36.16
48.09
57.13
63.71
67.96
69.67
68.52
64.55
58.34
51.06
44.15
38.94
36.21
36.01
37.79
40.69
43.9
46.9
49.47
51.51
52.86
53.24
52.37
50.13
46.67
42.42
37.96
33.8
30.22
27.17
24.35
21.37
17.95
14.03
9.84
5.81
2.39
-0.13
-1.8
-2.98
-4.22
-6.01
-8.64
-12.09
-16.02
-20
-23.67
-26.91
-29.85
-32.85
-36.32
-40.52
-45.46
-50.89
-56.39
-61.58
-66.27
-70.55
-74.76
-79.37
-84.86
-91.58
-99.53
-108.18
-116.22
-121.63
-122.09
-115.64
-101.53
-80.64
-55.39
-28.96
-4.31
16.64
33.23
45.82
55.18
61.91
66.38
68.71
69.13
68.1
66.32
64.53
63.24
62.61
62.47
62.46
62.3
61.94
61.58
61.51
61.91
62.65
63.28
63.2
61.93
59.36
55.79
51.79
47.98
44.78
42.3
40.37
38.64
36.8
34.67
32.28
29.89
27.82
26.33
25.55
25.37
25.51
25.64
25.51
24.98
24
22.57
20.6
17.99
14.61
10.48
5.78
0.85
-3.95
-8.3
-12.09
-15.39
-18.45
-21.62
-25.18
-29.27
-33.83
-38.61
-43.24
-47.44
-51.17
-54.64
-58.27
-62.45
-67.33
-72.74
-78.25
-83.4
-87.88
-91.69
-95.17
-98.84
-103.24
-108.76
-115.41
-122.62
-129.1
-132.88
-131.7
-123.72
-108.19
-85.95
-59.31
-31.39
-5.14
17.36
35.32
48.94
58.94
66.07
70.83
73.57
74.59
74.39
73.57
72.73
72.3
72.39
72.84
73.32
73.53
73.33
72.84
72.29
71.87
71.53
70.93
69.63
67.3
63.97
60.01
56.01
52.48
49.66
47.38
45.27
42.94
40.22
37.17
34.07
31.2
28.76
26.75
25.06
23.54
22.07
20.62
19.23
17.95
16.77
15.6
14.3
12.67
10.64
8.22
5.55
2.82
0.24
-2.12
-4.31
-6.49
-8.87
-11.61
-14.74
-18.21
-21.82
-25.35
-28.66
-31.78
-34.89
-38.35
-42.45
-47.37
-53.06
-59.19
-65.37
-71.22
-76.57
-81.47
-86.22
-91.21
-96.88
-103.54
-111.11
-118.88
-125.34
-128.38
-125.82
-116.22
-99.5
-77.16
-51.91
-26.72
-4.02
14.91
29.86
41.31
49.89
56.01
59.88
61.67
61.74
60.65
59.13
57.76
56.89
56.54
56.5
56.49
56.32
55.99
55.64
55.44
55.46
55.55
55.38
54.57
52.84
50.15
46.73
42.95
39.22
35.77
32.64
29.69
26.72
23.65
20.51
17.43
14.55
11.93
9.57
7.38
5.33
3.38
1.51
-0.39
-2.46
-4.88
-7.76
-11.05
-14.57
-18.03
-21.2
-24.03
-26.71
-29.6
-33.09
-37.41
-42.49
-47.88
-52.97
-57.18
-60.23
-62.24
-63.67
-65.23
-67.58
-71.17
-76.02
-81.62
-86.81
-89.93
-89.16
-83.09
-71.21
-54.21
-33.88
-12.56
7.52
24.79
38.57
48.88
56.1
60.65
62.8
62.78
60.94
57.84
54.23
50.86
48.26
46.64
45.87
45.65
45.74
46.06
46.63
47.52
48.61
49.58
50
49.49
47.89
45.3
42.02
38.4
34.74
31.19
27.79
24.54
21.45
18.53
15.83
13.31
10.93
8.56
6.1
3.53
0.89
-1.65
-3.92
-5.85
-7.52
-9.17
-11.12
-13.62
-16.72
-20.26
-23.92
-27.4
-30.58
-33.58
-36.73
-40.36
-44.69
-49.66
-54.97
-60.23
-65.08
-69.39
-73.25
-76.99
-81.07
-85.98
-92.06
-99.26
-106.94
-113.71
-117.56
-116.36
-108.51
-93.61
-72.73
-48.15
-22.75
0.9
21.05
37.02
48.99
57.56
63.4
67.04
68.9
69.36
68.82
67.78
66.67
65.85
65.46
65.47
65.69
65.89
65.95
65.86
65.76
65.71
65.65
65.3
64.28
62.23
59.07
55.01
50.49
46.02
41.97
38.46
35.36
32.45
29.55
26.64
23.84
21.3
19.12
17.29
15.73
14.34
13.03
11.76
10.51
9.18
7.67
5.87
3.72
1.29
-1.26
-3.67
-5.77
-7.52
-9.08
-10.77
-12.9
-15.69
-19.07
-22.78
-26.47
-29.87
-32.96
-35.97
-39.25
-43.15
-47.78
-53.02
-58.53
-63.91
-68.82
-73.09
-76.78
-80.1
-83.41
-87.08
-91.4
-96.46
-101.97
-107.04
-110.2
-109.63
-103.7
-91.58
-73.67
-51.6
-27.8
-4.78
15.52
32.11
44.92
54.45
61.33
66.05
68.91
70.1
69.91
68.78
67.28
65.88
64.89
64.31
63.94
63.59
63.22
62.96
62.98
63.27
63.55
63.32
62.1
59.69
56.3
52.45
48.73
45.6
43.19
41.37
39.83
38.26
36.45
34.34
32.01
29.6
27.26
25.1
23.19
21.49
19.92
18.38
16.8
15.12
13.35
11.49
9.52
7.39
5.06
2.48
-0.38
-3.48
-6.7
-9.89
-12.89
-15.6
-18.04
-20.39
-22.89
-25.71
-28.86
-32.18
-35.42
-38.43
-41.29
-44.27
-47.67
-51.68
-56.19
-60.85
-65.27
-69.18
-72.57
-75.72
-79.02
-82.87
-87.53
-93.01
-99.03
-104.86
-109.33
-110.89
-107.98
-99.48
-85.2
-66.12
-44.18
-21.79
-1.11
16.42
30.27
40.63
48.04
53.01
55.89
56.98
56.62
55.34
53.74
52.4
51.66
51.55
51.87
52.33
52.7
52.92
53.03
53.13
53.2
53.11
52.64
51.59
49.86
47.53
44.78
41.85
38.94
36.16
33.56
31.13
28.85
26.69
24.6
22.48
20.2
17.67
14.9
11.96
9
6.13
3.38
0.65
-2.21
-5.36
-8.87
-12.68
-16.66
-20.64
-24.52
-28.27
-31.99
-35.86
-40.09
-44.8
-49.97
-55.4
-60.75
-65.72
-70.15
-74.12
-77.9
-81.91
-86.52
-92
-98.32
-105.03
-111.06
-114.8
-114.33
-108.02
-95.17
-76.4
-53.62
-29.43
-6.42
13.6
29.86
42.42
51.81
58.59
63.22
66.03
67.42
67.87
67.87
67.8
67.81
67.83
67.69
67.31
66.76
66.26
66.05
66.22
66.63
66.94
66.76
65.77
63.9
61.27
58.15
54.83
51.56
48.48
45.63
42.96
40.36
37.69
34.88
31.95
29.02
26.26
23.76
21.52
19.45
17.42
15.4
13.39
11.42
9.45
7.37
5.05
2.4
-0.54
-3.58
-6.45
-8.95
-10.99
-12.73
-14.46
-16.52
-19.2
-22.58
-26.53
-30.73
-34.8
-38.49
-41.78
-44.92
-48.34
-52.42
-57.35
-62.95
-68.81
-74.37
-79.23
-83.29
-86.78
-90.21
-94.25
-99.43
-106.03
-113.68
-121.19
-126.61
-127.63
-122.3
-109.71
-90.48
-66.6
-40.86
-15.96
6.14
24.46
38.91
49.85
57.8
63.22
66.56
68.29
68.93
69.04
69.04
69.2
69.5
69.74
69.65
69.01
67.86
66.45
65.19
64.36
64
63.81
63.34
62.16
60.1
57.31
54.11
50.9
47.93
45.3
42.93
40.72
38.58
36.49
34.47
32.55
30.74
29.02
27.42
25.93
24.51
23.06
21.42
19.49
17.23
14.72
12.12
9.59
7.24
5.07
3.03
1
-1.14
-3.56
-6.43
-9.9
-14.01
-18.6
-23.37
-27.95
-32.08
-35.74
-39.12
-42.64
-46.69
-51.44
-56.79
-62.34
-67.57
-72.03
-75.56
-78.35
-80.91
-83.92
-87.98
-93.4
-99.96
-106.77
-112.26
-114.5
-111.66
-102.64
-87.52
-67.65
-45.3
-22.95
-2.63
14.46
28.02
38.29
45.74
50.84
53.97
55.54
56
55.86
55.58
55.45
55.61
56.01
56.5
56.94
57.19
57.22
57.08
56.85
56.58
56.16
55.35
53.86
51.46
48.18
44.29
40.21
36.36
32.98
30.06
27.38
24.67
21.77
18.74
15.79
13.21
11.16
9.55
8.08
6.37
4.09
1.16
-2.24
-5.78
-9.13
-12.2
-15.12
-18.22
-21.85
-26.18
-31.11
-36.3
-41.28
-45.71
-49.47
-52.71
-55.85
-59.4
-63.85
-69.52
-76.33
-83.66
-90.23
-94.22
-93.76
-87.45
-75.01
-57.42
-36.72
-15.37
4.44
21.3
34.7
44.78
51.93
56.54
58.88
59.23
57.99
55.79
53.34
51.34
50.22
50.04
50.51
51.17
51.6
51.67
51.5
51.37
51.48
51.76
51.88
51.44
50.11
47.9
45.12
42.23
39.6
37.39
35.49
33.6
31.45
28.9
26.01
22.98
20.02
17.27
14.75
12.39
10.12
7.85
5.51
2.98
0.1
-3.28
-7.26
-11.74
-16.46
-21.07
-25.22
-28.71
-31.59
-34.17
-36.89
-40.26
-44.6
-50
-56.18
-62.61
-68.66
-73.85
-78.01
-81.34
-84.32
-87.58
-91.72
-97.17
-103.95
-111.47
-118.41
-122.73
-122.22
-115.12
-100.91
-80.62
-56.61
-31.86
-8.97
10.44
25.95
37.95
47.14
54.06
58.99
62.05
63.51
63.86
63.74
63.73
64.09
64.74
65.37
65.64
65.36
64.6
63.61
62.66
61.86
61.12
60.15
58.66
56.51
53.74
50.61
47.49
44.65
42.21
40.07
38.03
35.87
33.49
30.96
28.46
26.18
24.26
22.69
21.37
20.16
18.9
17.49
15.91
14.21
12.46
10.73
9.05
7.38
5.65
3.82
1.94
0.14
-1.49
-2.98
-4.54
-6.44
-8.93
-12.09
-15.76
-19.63
-23.38
-26.82
-30.04
-33.27
-36.85
-41.01
-45.86
-51.28
-57.05
-62.85
-68.38
-73.43
-77.97
-82.18
-86.43
-91.26
-97.17
-104.4
-112.51
-120.2
-125.38
-125.69
-119.28
-105.57
-85.62
-61.85
-37.32
-14.76
4.14
18.89
29.99
38.37
45
50.59
55.63
60.41
65.03
69.5
73.66
77.24
79.92
81.45
81.66
80.61
78.52
75.79
72.85
70.12
67.82
65.95
64.31
62.61
60.57
57.99
54.86
51.29
47.46
43.57
39.73
35.96
32.25
28.56
24.91
21.4
18.2
15.46
13.28
11.65
10.43
9.39
8.31
6.97
5.26
3.22
1.03
-1.1
-3
-4.6
-5.95
-7.2
-8.52
-10.12
-12.14
-14.66
-17.67
-21.05
-24.59
-28.05
-31.29
-34.35
-37.42
-40.78
-44.6
-48.84
-53.28
-57.57
-61.44
-64.81
-67.8
-70.67
-73.77
-77.46
-82.06
-87.69
-94
-100.01
-104.07
-104.21
-98.77
-87.08
-69.84
-48.92
-26.81
-5.8
12.57
27.63
39.37
48.06
53.96
57.34
58.51
57.92
56.17
53.86
51.48
49.32
47.56
46.2
45.24
44.65
44.38
44.4
44.63
44.97
45.23
45.21
44.68
43.48
41.58
39.09
36.2
33.1
29.95
26.79
23.62
20.4
17.17
13.97
10.87
7.89
4.97
2.02
-1.05
-4.23
-7.4
-10.43
-13.25
-16
-18.95
-22.42
-26.58
-31.33
-36.31
-41.07
-45.2
-48.57
-51.3
-53.7
-56.24
-59.39
-63.5
-68.69
-74.62
-80.35
-84.38
-84.98
-80.7
-70.97
-56.31
-38.27
-18.88
-0.1
16.68
30.76
41.97
50.39
56.22
59.63
60.92
60.49
58.83
56.51
54
51.66
49.71
48.22
47.15
46.44
46.03
45.92
46.11
46.55
47.07
47.37
47.14
46.13
44.31
41.85
39.05
36.17
33.42
30.83
28.35
25.91
23.48
21.02
18.51
15.93
13.28
10.65
8.17
5.98
4.13
2.53
0.93
-0.94
-3.3
-6.2
-9.48
-12.9
-16.25
-19.44
-22.57
-25.83
-29.47
-33.63
-38.3
-43.31
-48.38
-53.17
-57.47
-61.21
-64.57
-67.92
-71.76
-76.59
-82.69
-89.95
-97.7
-104.59
-108.81
-108.42
-102
-89.24
-71.1
-49.7
-27.64
-7.21
10.16
24.08
34.91
43.24
49.54
53.96
56.51
57.39
57.02
56.14
55.44
55.37
55.97
56.92
57.77
58.13
57.91
57.2
56.28
55.32
54.31
53.06
51.27
48.7
45.33
41.39
37.26
33.35
29.94
27.17
24.98
23.26
21.88
20.77
19.9
19.21
18.58
17.88
16.93
15.63
13.94
11.95
9.8
7.7
5.78
4.08
2.5
0.88
-0.92
-2.92
-5.01
-7.02
-8.82
-10.43
-12
-13.78
-15.93
-18.5
-21.35
-24.29
-27.1
-29.68
-32.1
-34.55
-37.32
-40.65
-44.61
-49.08
-53.74
-58.18
-62.12
-65.44
-68.31
-71.1
-74.37
-78.59
-84.06
-90.56
-97.25
-102.59
-104.6
-101.49
-92.21
-77
-57.35
-35.57
-14.05
5.39
21.85
35.17
45.62
53.51
59.06
62.46
64.02
64.25
63.74
63.01
62.38
61.9
61.48
61
60.46
59.92
59.47
59.17
59
58.83
58.48
57.73
56.36
54.26
51.42
48.01
44.32
40.66
37.25
34.15
31.27
28.46
25.63
22.82
20.11
17.66
15.54
13.77
12.29
11.04
9.87
8.63
7.14
5.29
3.1
0.72
-1.57
-3.54
-5.09
-6.32
-7.52
-8.99
-10.94
-13.39
-16.21
-19.14
-21.92
-24.43
-26.68
-28.87
-31.26
-34.12
-37.56
-41.5
-45.71
-49.86
-53.74
-57.23
-60.36
-63.31
-66.36
-69.87
-74.2
-79.46
-85.34
-90.86
-94.42
-94.25
-88.99
-78.24
-62.78
-44.38
-25.16
-6.99
8.99
22.32
33.01
41.19
46.95
50.37
51.64
51.18
49.63
47.64
45.73
44.18
43.06
42.28
41.76
41.43
41.33
41.5
41.97
42.61
43.19
43.38
42.91
41.62
39.57
36.97
34.17
31.49
29.15
27.18
25.41
23.56
21.35
18.66
15.54
12.24
9.06
6.28
3.97
2
0.11
-2.03
-4.59
-7.59
-10.81
-13.96
-16.77
-19.22
-21.53
-24.08
-27.25
-31.18
-35.68
-40.34
-44.71
-48.5
-51.71
-54.57
-57.44
-60.68
-64.54
-69.22
-74.67
-80.48
-85.72
-88.95
-88.55
-83.24
-72.6
-57.32
-39.03
-19.8
-1.49
14.67
28.15
38.97
47.39
53.65
57.88
60.24
60.91
60.23
58.68
56.76
54.91
53.41
52.3
51.45
50.7
49.96
49.3
48.85
48.71
48.76
48.67
48.05
46.59
44.32
41.5
38.58
35.95
33.76
31.94
30.25
28.42
26.33
24.03
21.7
19.55
17.75
16.33
15.22
14.3
13.47
12.66
11.81
10.87
9.73
8.27
6.42
4.24
1.88
-0.46
-2.59
-4.48
-6.22
-7.99
-10.02
-12.44
-15.29
-18.46
-21.75
-24.94
-27.92
-30.76
-33.7
-37.09
-41.2
-46.07
-51.47
-56.96
-62.05
-66.4
-69.89
-72.74
-75.38
-78.37
-82.28
-87.46
-93.79
-100.49
-106.05
-108.46
-105.8
-96.91
-81.87
-62.03
-39.69
-17.32
3.1
20.44
34.41
45.24
53.38
59.18
62.96
64.97
65.61
65.35
64.69
64.02
63.5
63.06
62.49
61.61
60.39
59
57.74
56.85
56.38
56.12
55.72
54.79
53.12
50.72
47.81
44.74
41.78
39.15
36.86
34.81
32.83
30.73
28.44
25.99
23.52
21.14
18.95
16.91
14.95
13.01
11.05
9.11
7.19
5.3
3.35
1.29
-0.91
-3.18
-5.42
-7.59
-9.74
-11.96
-14.33
-16.74
-19
-20.85
-22.17
-23.01
-23.65
-24.4
-25.52
-27.12
-29.1
-31.3
-33.61
-36.03
-38.7
-41.83
-45.56
-49.88
-54.57
-59.23
-63.43
-66.86
-69.53
-71.77
-74.2
-77.49
-82.1
-88.01
-94.52
-100.23
-103.32
-101.96
-94.92
-81.98
-64.08
-43.11
-21.3
-0.69
17.35
32.21
43.86
52.57
58.67
62.5
64.43
64.92
64.5
63.64
62.71
61.85
61.05
60.23
59.37
58.49
57.69
57.06
56.62
56.3
55.95
55.36
54.3
52.65
50.37
47.51
44.31
41.05
37.99
35.29
32.9
30.62
28.17
25.41
22.37
19.3
16.54
14.31
12.65
11.36
10.11
8.64
6.8
4.68
2.43
0.26
-1.72
-3.53
-5.32
-7.27
-9.56
-12.28
-15.33
-18.53
-21.61
-24.44
-27.06
-29.7
-32.67
-36.18
-40.24
-44.64
-49.01
-53
-56.43
-59.34
-61.94
-64.61
-67.76
-71.8
-76.92
-82.9
-88.86
-93.35
-94.61
-91.11
-82.18
-68.19
-50.58
-31.32
-12.36
4.86
19.54
31.44
40.65
47.34
51.79
54.29
55.21
54.98
53.96
52.49
50.75
48.93
47.09
45.38
43.87
42.69
41.93
41.61
41.67
41.95
42.17
42
41.15
39.45
36.89
33.66
30.11
26.62
23.51
20.92
18.8
16.93
15.06
13.04
10.87
8.72
6.78
5.14
3.69
2.2
0.44
-1.73
-4.26
-6.96
-9.62
-12.11
-14.39
-16.57
-18.86
-21.48
-24.6
-28.28
-32.41
-36.75
-40.99
-44.85
-48.2
-51.11
-53.82
-56.65
-59.96
-64.01
-68.79
-73.85
-78.24
-80.56
-79.33
-73.43
-62.57
-47.47
-29.67
-11.06
6.63
22.29
35.41
45.98
54.13
59.98
63.61
65.16
64.94
63.48
61.44
59.39
57.71
56.49
55.61
54.89
54.27
53.78
53.55
53.64
53.93
54.13
53.85
52.77
50.7
47.65
43.69
38.92
33.48
27.51
21.3
15.25
9.8
5.3
1.93
-0.38
-1.86
-2.81
-3.55
-4.4
-5.7
-7.73
-10.71
-14.67
-19.44
-24.73
-30.15
-35.33
-39.95
-43.8
-46.84
-49.11
-50.77
-51.97
-52.75
-53.06
-52.78
-51.91
-50.61
-49.26
-48.27
-47.95
-48.34
-49.32
-50.71
-52.47
-54.72
-57.71
-61.74
-66.91
-73.01
-79.29
-84.46
-86.85
-84.93
-77.72
-65.26
-48.68
-29.85
-10.76
7.04
22.68
35.91
46.79
55.38
61.68
65.68
67.52
67.58
66.46
64.77
63.05
61.51
60.18
58.91
57.57
56.18
54.89
53.92
53.4
53.23
53.1
52.61
51.42
49.48
46.96
44.22
41.54
39.05
36.69
34.3
31.8
29.18
26.52
23.93
21.48
19.13
16.8
14.42
11.99
9.56
7.19
4.95
2.87
0.91
-0.97
-2.88
-4.92
-7.21
-9.8
-12.7
-15.81
-19
-22.13
-25.14
-28.09
-31.11
-34.37
-37.97
-41.9
-46.02
-50.16
-54.11
-57.72
-61.01
-64.12
-67.38
-71.27
-76.16
-82.1
-88.56
-94.22
-97.27
-95.86
-88.82
-76.05
-58.72
-38.81
-18.46
0.56
17.23
31.14
42.3
50.82
56.89
60.73
62.72
63.35
63.09
62.28
61.12
59.65
57.94
56.12
54.38
52.9
51.8
51.09
50.67
50.37
49.97
49.22
47.89
45.9
43.29
40.32
37.28
34.42
31.81
29.31
26.72
23.93
20.98
18.05
15.41
13.18
11.32
9.64
7.94
6.12
4.19
2.24
0.36
-1.45
-3.27
-5.2
-7.32
-9.65
-12.13
-14.67
-17.17
-19.55
-21.85
-24.17
-26.72
-29.71
-33.25
-37.29
-41.59
-45.82
-49.68
-53
-55.85
-58.45
-61.16
-64.35
-68.34
-73.29
-79.01
-84.79
-89.37
-91.1
-88.45
-80.58
-67.7
-51.06
-32.61
-14.28
2.44
16.8
28.59
37.91
44.96
49.9
52.92
54.27
54.32
53.49
52.19
50.79
49.57
48.74
48.42
48.63
49.33
50.47
51.91
53.45
54.75
55.32
54.65
52.31
48.22
42.7
36.37
29.99
24.2
19.37
15.55
12.61
10.31
8.47
7.01
5.86
4.96
4.2
3.43
2.54
1.53
0.47
-0.56
-1.58
-2.75
-4.32
-6.49
-9.27
-12.45
-15.64
-18.5
-20.92
-23.09
-25.41
-28.27
-31.88
-36.19
-40.96
-45.85
-50.6
-55.06
-59.18
-63.01
-66.7
-70.47
-74.59
-79.24
-84.21
-88.74
-91.5
-90.9
-85.57
-74.91
-59.4
-40.42
-19.87
0.47
19.3
35.9
49.89
61
68.94
73.45
74.49
72.43
67.96
61.98
55.36
48.83
42.91
37.95
34.14
31.58
30.26
30.09
30.88
32.35
34.17
35.96
37.36
38.1
38.08
37.41
36.28
34.93
33.53
32.12
30.59
28.82
26.7
24.25
21.65
19.16
17.05
15.45
14.35
13.59
12.9
12.09
11.04
9.72
8.23
6.64
5.04
3.45
1.84
0.14
-1.74
-3.9
-6.38
-9.18
-12.18
-15.27
-18.32
-21.29
-24.23
-27.28
-30.65
-34.46
-38.76
-43.37
-48.03
-52.39
-56.23
-59.45
-62.23
-64.93
-68.05
-72.09
-77.36
-83.77
-90.57
-96.37
-99.29
-97.5
-89.81
-76.17
-57.75
-36.59
-14.98
5.2
22.82
37.42
48.97
57.59
63.43
66.66
67.67
67.04
65.48
63.61
61.85
60.32
58.92
57.5
55.95
54.26
52.6
51.18
50.15
49.54
49.16
48.69
47.74
46.01
43.37
39.96
36.05
32.01
28.19
24.84
22.1
19.95
18.29
16.85
15.36
13.54
11.24
8.46
5.37
2.23
-0.77
-3.51
-6.04
-8.44
-10.79
-13.1
-15.33
-17.38
-19.17
-20.68
-21.99
-23.25
-24.59
-26.03
-27.5
-28.85
-29.91
-30.67
-31.25
-31.95
-33.12
-35.02
-37.69
-40.99
-44.63
-48.31
-51.76
-54.88
-57.69
-60.39
-63.27
-66.7
-71
-76.26
-82.17
-87.87
-91.97
-92.9
-89.36
-80.77
-67.51
-50.79
-32.3
-13.68
3.81
19.41
32.72
43.55
51.78
57.42
60.69
62.02
62.01
61.25
60.14
58.88
57.5
55.99
54.43
53.01
51.95
51.43
51.46
51.86
52.33
52.53
52.19
51.18
49.51
47.27
44.62
41.72
38.7
35.64
32.62
29.72
26.94
24.32
21.82
19.38
16.94
14.45
11.94
9.45
7.09
4.94
3.01
1.22
-0.6
-2.64
-5.01
-7.71
-10.6
-13.49
-16.21
-18.69
-21.02
-23.39
-26.06
-29.21
-32.91
-37.04
-41.37
-45.62
-49.55
-53.09
-56.28
-59.33
-62.56
-66.3
-70.84
-76.27
-82.22
-87.72
-91.33
-91.45
-86.85
-77.18
-63.13
-46.24
-28.37
-11.13
4.46
17.96
29.28
38.4
45.24
49.7
51.87
52.1
50.93
49
46.83
44.73
42.81
41.09
39.6
38.4
37.65
37.44
37.73
38.35
39
39.33
39.08
38.13
36.48
34.24
31.57
28.63
25.55
22.42
19.28
16.1
12.81
9.35
5.68
1.89
-1.83
-5.31
-8.43
-11.26
-14
-16.92
-20.23
-24
-28.14
-32.38
-36.48
-40.25
-43.64
-46.75
-49.81
-53.08
-56.87
-61.4
-66.65
-72.23
-77.21
-80.26
-79.91
-75.04
-65.29
-51.27
-34.35
-16.31
1.19
16.95
30.31
41.02
49.07
54.59
57.73
58.79
58.14
56.29
53.72
50.89
48.14
45.7
43.7
42.21
41.26
40.83
40.85
41.2
41.66
41.98
41.9
41.23
39.88
37.91
35.46
32.71
29.82
26.88
23.92
20.88
17.75
14.5
11.18
7.86
4.63
1.52
-1.45
-4.31
-7.11
-9.84
-12.47
-14.94
-17.24
-19.46
-21.82
-24.58
-27.93
-31.83
-36.06
-40.22
-43.97
-47.09
-49.67
-51.99
-54.49
-57.63
-61.76
-66.95
-72.78
-78.24
-81.77
-81.65
-76.46
-65.65
-49.81
-30.5
-9.78
10.4
28.58
44.04
56.55
66.21
73.17
77.56
79.5
79.23
