-18.53
-23.26
-29.36
-36.59
-43.94
-49.79
-52.35
-50.32
-43.36
-32.24
-18.55
-4.19
9.18
20.47
29.08
34.89
37.97
38.58
37.15
34.23
30.48
26.43
22.44
18.61
14.92
11.28
7.67
4.18
0.88
-2.17
-5.04
-7.89
-11.04
-14.88
-19.77
-25.88
-32.96
-40.16
-46.06
-49.01
-47.63
-41.33
-30.63
-17.01
-2.46
11.16
22.5
31
36.69
39.87
40.93
40.16
37.87
34.39
30.2
25.69
21.25
17.09
13.24
9.67
6.3
3.08
-0.04
-3.06
-6.13
-9.53
-13.7
-19.07
-25.83
-33.66
-41.56
-48
-51.24
-49.93
-43.62
-32.9
-19.27
-4.64
9.22
21.04
30.15
36.37
39.77
40.58
39.18
36.06
31.87
27.26
22.75
18.58
14.72
11
7.21
3.31
-0.58
-4.22
-7.44
-10.22
-12.82
-15.75
-19.62
-24.94
-31.81
-39.66
-47.27
-52.96
-55.07
-52.51
-45.13
-33.78
-19.98
-5.45
8.37
20.57
30.64
38.34
43.5
46.02
46.01
43.86
40.28
36.07
31.89
28.04
24.41
20.67
16.53
11.94
7.16
2.67
-1.17
-4.32
-7.15
-10.39
-14.82
-20.96
-28.74
-37.44
-45.66
-51.7
-53.99
-51.56
-44.37
-33.29
-19.82
-5.61
7.95
19.95
29.9
37.51
42.58
44.99
44.82
42.54
38.94
34.9
31.06
27.65
24.46
21.07
17.18
12.81
8.33
4.21
0.79
-1.98
-4.48
-7.35
-11.17
-16.4
-23.12
-31.03
-39.33
-46.84
-52.17
-53.98
-51.43
-44.39
-33.54
-20.18
-5.85
8.03
20.36
30.36
37.6
41.87
43.28
42.23
39.41
35.67
31.72
28.02
24.67
21.55
18.47
15.32
12.14
9.07
6.25
3.7
1.34
-1.1
-3.9
-7.47
-12.12
-18.04
-25.13
-32.77
-39.9
-45.08
-46.92
-44.49
-37.66
-27.17
-14.4
-1.02
11.52
22.17
30.39
36
39
39.52
37.81
34.31
29.65
24.62
19.88
15.84
12.51
9.61
6.79
3.81
0.73
-2.23
-4.78
-6.87
-8.76
-10.99
-14.23
-19.01
-25.53
-33.31
-41.33
-48.03
-51.76
-51.25
-46.02
-36.54
-24.08
-10.34
3.13
15.15
25.03
32.42
37.17
39.24
38.74
36.07
31.92
27.12
22.38
18.11
14.32
10.76
7.21
3.56
0.01
-3.17
-5.73
-7.75
-9.61
-11.93
-15.4
-20.46
-27.17
-34.98
-42.75
-48.95
-51.97
-50.63
-44.54
-34.31
-21.3
-7.27
6.15
17.8
27.03
33.6
37.5
38.85
37.87
35.06
31.02
26.42
21.78
17.35
13.17
9.13
5.16
1.3
-2.24
-5.31
-7.83
-9.94
-12
-14.5
-18
-22.87
-29.12
-36.18
-42.87
-47.67
-49.09
-46.2
-38.92
-28.12
-15.25
-1.91
10.53
21.15
29.42
35.12
38.14
38.56
36.69
33.16
28.77
24.28
20.21
16.65
13.35
9.96
6.26
2.26
-1.73
-5.32
-8.34
-10.87
-13.36
-16.42
-20.69
-26.41
-33.32
-40.59
-46.9
-50.78
-51
-46.9
-38.62
-27.06
-13.63
0.09
12.69
23.16
30.9
35.75
37.79
37.35
35
31.45
27.45
23.56
20.01
16.73
13.44
9.89
6.02
2.02
-1.86
-5.42
-8.7
-11.94
-15.57
-19.98
-25.44
-31.97
-39.17
-46.23
-51.92
-54.83
-53.75
-48.1
-38.14
-24.94
-10.14
4.59
17.78
28.47
36.1
40.55
41.97
40.84
37.87
33.88
29.62
25.56
21.85
18.34
14.77
11.01
7.06
3.08
-0.73
-4.27
-7.55
-10.82
-14.44
-18.9
-24.6
-31.6
-39.4
-46.86
-52.37
-54.29
-51.49
-43.8
-32.02
-17.73
-2.75
11.3
23.29
32.61
39.04
42.55
43.36
41.81
38.47
34
29.02
23.97
19.09
14.39
9.84
5.48
1.42
-2.21
-5.42
-8.39
-11.47
-15.1
-19.66
-25.41
-32.32
-39.98
-47.46
-53.4
-56.23
-54.68
-48.16
-37.1
-22.84
-7.24
7.78
20.81
31.01
38.16
42.45
44.22
43.93
42.01
38.88
34.91
30.44
25.76
21.12
16.69
12.56
8.72
5.09
1.53
-2.05
-5.77
-9.83
-14.51
-20.14
-27
-34.91
-43.11
-50.16
-54.3
-53.96
-48.33
-37.71
-23.45
-7.55
8
21.64
32.55
40.5
45.6
48.1
48.2
46.21
42.51
37.65
32.25
26.88
21.89
17.37
13.24
9.35
5.59
1.93
-1.59
-5.07
-8.78
-13.21
-18.93
-26.25
-34.91
-43.84
-51.27
-55.18
-53.93
-46.93
-34.86
-19.44
-2.83
12.98
26.62
37.43
45.27
50.17
52.24
51.66
48.75
44.12
38.44
32.45
26.65
21.3
16.46
12.04
7.98
4.15
0.53
-3.01
-6.63
-10.65
-15.5
-21.58
-29
-37.22
-45.03
-50.64
-52.23
-48.58
-39.55
-26.22
-10.47
5.58
20.2
32.3
41.44
47.57
50.81
51.34
49.49
45.74
40.75
35.25
29.82
24.83
20.31
16.12
12.04
7.88
3.6
-0.8
-5.28
-9.95
-15.1
-21.12
-28.34
-36.62
-45.19
-52.52
-56.78
-56.3
-50.32
-39.24
-24.58
-8.42
7.24
20.94
32.04
40.39
46.1
49.33
50.18
48.86
45.69
41.19
35.94
30.47
25.12
20.07
15.33
10.86
6.6
2.47
-1.59
-5.79
-10.42
-15.93
-22.71
-30.86
-39.86
-48.48
-54.94
-57.35
-54.39
-45.78
-32.46
-16.29
0.6
16.26
29.47
39.66
46.76
50.93
52.4
51.46
48.53
44.2
39.11
33.89
28.91
24.26
19.76
15.15
10.31
5.34
0.57
-3.74
-7.62
-11.52
-16.19
-22.38
-30.34
-39.42
-48.18
-54.63
-56.9
-53.86
-45.43
-32.64
-17.16
-0.91
14.45
27.67
37.95
44.86
48.31
48.48
45.9
41.36
35.78
29.95
24.44
19.4
14.76
10.29
5.84
1.4
-2.93
-6.98
-10.66
-14.13
-17.8
-22.28
-28.14
-35.44
-43.5
-50.88
-55.68
-56.16
-51.34
-41.46
-27.75
-12.14
3.42
17.35
28.73
37.1
42.4
44.79
44.55
42.16
38.19
33.23
27.84
22.35
17.02
11.94
7.2
2.89
-0.89
-4.15
-6.97
-9.61
-12.54
-16.27
-21.31
-27.82
-35.45
-43.15
-49.33
-52.27
-50.64
-44.03
-33.1
-19.38
-4.69
9.3
21.51
31.45
38.96
44.06
46.74
47.04
45.17
41.58
36.87
31.65
26.4
21.29
16.36
11.53
6.79
2.2
-2.07
-5.93
-9.46
-13.09
-17.51
-23.38
-30.98
-39.78
-48.4
-54.85
-57.17
-54.14
-45.66
-32.84
-17.55
-1.81
12.78
25.2
34.96
41.87
45.84
46.92
45.34
41.7
36.81
31.52
26.46
21.85
17.57
13.33
8.94
4.46
0.16
-3.69
-7.04
-10.16
-13.68
-18.25
-24.4
-32.09
-40.63
-48.64
-54.32
-56
-52.59
-44.02
-31.2
-15.85
0.15
15.09
27.81
37.68
44.43
48.04
48.66
46.67
42.69
37.56
32.1
26.92
22.27
18.04
14
9.91
5.79
1.76
-1.94
-5.25
-8.38
-11.79
-16.13
-21.9
-29.27
-37.76
-46.2
-52.95
-56.28
-54.93
-48.52
-37.7
-23.92
-8.97
5.57
18.55
29.25
37.3
42.46
44.69
44.17
41.44
37.32
32.64
28.01
23.66
19.53
15.4
11.2
7.01
3.05
-0.51
-3.69
-6.72
-10.04
-14.06
-19.2
-25.59
-33.07
-40.96
-48.13
-53.13
-54.55
-51.43
-43.59
-31.81
-17.57
-2.69
11.1
22.55
30.96
36.18
38.41
38.1
35.81
32.12
27.61
22.75
17.88
13.19
8.73
4.5
0.47
-3.31
-6.79
-9.92
-12.78
-15.66
-19.09
-23.66
-29.8
-37.39
-45.6
-52.88
-57.4
-57.57
-52.61
-42.8
-29.33
-14
1.39
15.36
26.91
35.55
41.09
43.64
43.49
41.13
37.21
32.36
27.16
21.98
16.99
12.22
7.67
3.37
-0.66
-4.4
-8.01
-11.79
-16.24
-21.88
-29.01
-37.51
-46.62
-55.05
-61.16
-63.43
-60.86
-53.32
-41.56
-27.04
-11.59
3.13
15.76
25.52
32.08
35.52
36.21
34.71
31.69
27.72
23.26
18.53
13.7
8.86
4.21
-0.03
-3.67
-6.7
-9.41
-12.23
-15.76
-20.53
-26.88
-34.71
-43.33
-51.47
-57.39
-59.36
-56.17
-47.6
-34.54
-18.74
-2.19
13.36
26.72
37.32
44.93
49.57
51.3
50.37
47.19
42.41
36.7
30.6
24.49
18.52
12.78
7.38
2.5
-1.75
-5.46
-9.01
-13.05
-18.31
-25.31
-33.92
-43.24
-51.65
-57.16
-57.95
-53.02
-42.47
-27.48
-9.98
7.96
24.61
38.82
50.04
58.07
62.94
64.67
63.45
59.54
53.45
45.84
37.41
28.84
20.62
13.01
6.15
-0
-5.53
-10.59
-15.46
-20.61
-26.57
-33.85
-42.48
-51.71
-59.99
-65.2
-65.42
-59.48
-47.6
-31.21
-12.54
6.09
22.87
36.71
47.22
54.37
58.36
59.39
57.81
54.07
48.77
42.6
36.14
29.86
23.95
18.46
13.32
8.48
3.96
-0.25
-4.3
-8.62
-13.9
-20.78
-29.42
-39.13
-48.26
-54.57
-56.03
-51.51
-41.26
-26.73
-10.15
6.36
21.2
33.52
43.03
49.69
53.54
54.65
53.26
49.84
45.07
39.69
34.2
28.84
23.52
18.09
12.51
7.01
1.98
-2.25
-5.66
-8.81
-12.65
-18.22
-26.05
-35.76
-45.95
-54.46
-59.04
-58.05
-50.99
-38.57
-22.49
-4.82
12.4
27.63
39.87
48.62
53.79
55.56
54.4
50.92
45.88
40
33.84
27.79
22.02
16.58
11.51
6.84
2.57
-1.35
-5.09
-8.99
-13.47
-19.05
-26.05
-34.39
-43.27
-51.22
-56.28
-56.65
-51.3
-40.39
-25.28
-8.06
9.1
24.53
37.21
46.67
52.85
55.8
55.79
53.23
48.8
43.25
37.21
31.16
25.27
19.61
14.19
9.09
4.39
0.15
-3.7
-7.46
-11.58
-16.69
-23.25
-31.37
-40.45
-49.18
-55.7
-58.15
-55.29
-46.86
-33.73
-17.58
-0.4
15.99
30.35
41.9
50.31
55.46
57.47
56.69
53.74
49.42
44.53
39.62
34.85
30.15
25.35
20.38
15.41
10.75
6.63
3.06
-0.26
-3.9
-8.51
-14.63
-22.4
-31.43
-40.63
-48.35
-52.78
-52.51
-46.99
-36.79
-23.41
-8.7
5.66
18.51
29.2
37.35
42.69
45
44.27
40.9
35.72
29.74
23.84
18.48
13.63
8.98
4.22
-0.69
-5.5
-9.8
-13.29
-16.01
-18.37
-21.09
-24.94
-30.5
-37.91
-46.72
-55.9
-63.89
-68.98
-69.68
-65.11
-55.31
-41.21
-24.42
-6.83
9.81
24.16
35.42
43.29
47.84
49.45
48.7
46.25
42.76
38.75
34.53
30.18
25.67
20.96
16.09
11.23
6.56
2.28
-1.56
-5.03
-8.37
-11.96
-16.27
-21.81
-28.85
-37.19
-45.9
-53.41
-57.8
-57.46
-51.62
-40.75
-26.37
-10.53
4.84
18.37
29.31
37.4
42.59
44.9
44.51
41.82
37.56
32.52
27.39
22.51
17.88
13.3
8.57
3.72
-1.05
-5.38
-9.04
-11.96
-14.38
-16.86
-20.11
-24.86
-31.46
-39.62
-48.29
-55.73
-60.07
-59.8
-54.31
-44.09
-30.5
-15.34
-0.34
13.14
24.27
32.62
38.03
40.54
40.39
38.06
34.25
29.7
25.03
20.53
16.21
11.88
7.35
2.64
-2.06
-6.43
-10.26
-13.54
-16.57
-19.92
-24.18
-29.82
-36.89
-44.78
-52.28
-57.69
-59.38
-56.26
-48.2
-36.08
-21.53
-6.36
7.94
20.38
30.5
38.06
42.9
44.97
44.42
41.7
37.58
32.85
28.12
23.62
19.24
14.79
10.15
5.47
1.01
-3.02
-6.58
-10
-13.78
-18.51
-24.62
-32.19
-40.74
-49.15
-55.87
-59.21
-57.89
-51.41
-40.31
-25.97
-10.22
5.16
18.81
29.85
37.92
42.91
45.01
44.6
42.27
38.72
34.62
30.42
26.25
22.06
17.66
13.04
8.33
3.84
-0.19
-3.72
-6.97
-10.44
-14.72
-20.32
-27.4
-35.67
-44.17
-51.48
-55.94
-56.09
-51.19
-41.41
-27.9
-12.35
3.35
17.6
29.31
37.86
43.12
45.24
44.71
42.18
38.42
34.09
29.6
25.04
20.34
15.39
10.23
5.07
0.21
-4.1
-7.81
-11.08
-14.25
-17.78
-22.14
-27.66
-34.3
-41.44
-47.87
-51.98
-52.22
-47.67
-38.41
-25.51
-10.73
4.03
17.19
27.76
35.35
39.93
41.75
41.19
38.74
34.97
30.4
25.5
20.57
15.8
11.29
7.11
3.28
-0.26
-3.6
-6.94
-10.48
-14.43
-19.02
-24.49
-30.94
-38.14
-45.34
-51.2
-54.06
-52.45
-45.67
-34.14
-19.31
-3.28
11.88
24.63
34.14
40.25
43.2
43.44
41.45
37.83
33.12
27.88
22.54
17.4
12.61
8.23
4.26
0.7
-2.49
-5.42
-8.29
-11.41
-15.16
-19.96
-26.03
-33.15
-40.48
-46.59
-49.79
-48.67
-42.63
-32.14
-18.6
-3.96
9.94
21.74
30.73
36.73
39.95
40.75
39.55
36.82
33.02
28.56
23.8
19.02
14.42
10.14
6.28
2.83
-0.29
-3.3
-6.52
-10.36
-15.25
-21.43
-28.78
-36.59
-43.67
-48.43
-49.44
-45.81
-37.58
-25.64
-11.56
2.89
16.17
27.13
35.16
40.09
42.09
41.54
39.05
35.25
30.77
26.11
21.52
17.13
12.89
8.76
4.77
0.99
-2.54
-5.92
-9.37
-13.35
-18.31
-24.52
-31.7
-38.96
-44.85
-47.72
-46.36
-40.27
-30.06
-17.06
-3.04
10.35
21.9
30.87
36.99
40.23
40.76
38.86
35.06
30.05
24.56
19.25
14.47
10.38
6.86
3.78
0.97
-1.67
-4.3
-7.15
-10.6
-15.11
-20.99
-28.14
-35.84
-42.75
-47.24
-47.85
-43.82
-35.32
-23.46
-9.84
3.8
16.07
26.02
33.17
37.39
38.76
37.65
34.53
30.06
24.93
19.7
14.72
10.12
5.9
1.97
-1.69
-5.08
-8.19
-11.11
-14.09
-17.56
-22.03
-27.74
-34.48
-41.31
-46.72
-49.04
-46.95
-40.07
-29.07
-15.47
-1.11
12.29
23.61
32.24
38.03
41.09
41.62
40.03
36.82
32.59
27.93
23.27
18.83
14.63
10.63
6.71
2.83
-1.02
-4.84
-8.68
-12.71
-17.26
-22.67
-29.05
-36.03
-42.51
-46.97
-47.74
-43.73
-34.87
-22.17
-7.44
7.31
20.41
30.91
38.48
43.21
45.36
45.2
43.09
39.39
34.64
29.34
23.96
18.77
13.84
9.16
4.65
0.37
-3.59
-7.09
-10.23
-13.32
-16.94
-21.71
-27.97
-35.41
-42.96
-48.96
-51.6
-49.54
-42.41
-30.92
-16.65
-1.53
12.69
24.76
34.07
40.43
43.98
44.95
43.73
40.8
36.76
32.2
27.6
23.27
19.3
15.61
12.08
8.59
5.1
1.65
-1.7
-5.01
-8.53
-12.78
-18.29
-25.35
-33.59
-41.88
-48.41
-51.3
-49.24
-41.97
-30.43
-16.35
-1.68
11.94
23.43
32.27
38.3
41.53
42.19
40.65
37.53
33.57
29.45
25.58
22.08
18.77
15.35
11.65
7.65
3.57
-0.27
-3.61
-6.47
-9.12
-12.13
-16.19
-21.73
-28.75
-36.49
-43.57
-48.31
-49.2
-45.54
-37.54
-26.34
-13.45
-0.34
11.95
22.8
31.83
38.66
42.9
44.3
42.96
39.53
34.99
30.36
26.29
22.92
19.94
16.88
13.44
9.6
5.64
1.94
-1.21
-3.81
-6.14
-8.71
-12.16
-16.99
-23.36
-30.98
-38.96
-45.98
-50.46
-51.09
-47.13
-38.74
-26.88
-13.1
0.87
13.51
23.75
31.04
35.23
36.51
35.32
32.25
28.03
23.39
18.92
14.94
11.48
8.27
5.03
1.55
-2.16
-5.9
-9.43
-12.58
-15.44
-18.29
-21.64
-25.95
-31.44
-37.89
-44.5
-50.01
-52.94
-52.11
-46.9
-37.57
-25.15
-11.15
2.85
15.49
25.86
33.47
38.15
39.98
39.29
36.6
32.63
28.04
23.34
18.77
14.3
9.78
5.14
0.43
-4.16
-8.37
-12.1
-15.39
-18.54
-22.03
-26.42
-32.18
-39.44
-47.81
-56.22
-63.13
-66.83
-65.98
-60.03
-49.44
-35.49
-19.9
-4.38
9.7
21.44
30.33
36.21
39.15
39.49
37.75
34.63
30.79
26.8
22.98
19.42
15.97
12.37
8.45
4.14
-0.39
-4.87
-9.04
-12.9
-16.81
-21.41
-27.45
-35.34
-44.84
-54.82
-63.49
-68.83
-69.24
-64.08
-53.8
-39.79
-23.84
-7.67
7.43
20.6
31.32
39.22
44.03
45.77
44.77
41.83
37.82
33.56
29.49
25.6
21.64
17.33
12.62
7.65
2.73
-1.86
-6.03
-9.91
-13.93
-18.67
-24.76
-32.6
-42.07
-52.29
-61.68
-68.3
-70.37
-66.83
-57.65
-43.83
-27.01
-9.02
8.46
24.14
37.08
46.7
52.69
55.1
54.39
51.38
47.02
42.19
37.47
32.99
28.66
24.27
19.74
15.15
10.77
6.83
3.36
0.14
-3.35
-7.71
-13.56
-21.23
-30.61
-41.02
-51.14
-59.28
-63.58
-62.64
-55.86
-43.7
-27.54
-9.37
8.67
24.8
37.79
47.03
52.45
54.36
53.35
50.14
45.54
40.22
34.69
29.19
23.79
18.49
13.32
8.39
3.8
-0.4
-4.32
-8.21
-12.52
-17.73
-24.32
-32.51
-42.05
-52.08
-61.02
-66.91
-67.84
-62.6
-51.12
-34.6
-15.18
4.68
22.76
37.56
48.37
55.16
58.32
58.44
56.13
51.97
46.52
40.3
33.85
27.55
21.69
16.28
11.19
6.27
1.38
-3.52
-8.52
-13.85
-19.93
-27.35
-36.52
-47.34
-58.86
-69.34
-76.52
-78.34
-73.47
-61.84
-44.7
-24.21
-2.93
16.88
33.59
46.42
55.26
60.41
62.34
61.51
58.44
53.67
47.83
41.5
35.22
29.25
23.61
18.2
12.79
7.28
1.65
-4.1
-10.12
-16.75
-24.49
-33.74
-44.3
-55.17
-64.43
-69.75
-69.06
-61.29
-46.85
-27.52
-5.96
15.17
33.75
48.65
59.5
66.46
69.9
70.14
67.57
62.65
56
48.31
40.27
32.43
25.09
18.39
12.34
6.89
1.94
-2.65
-7.2
-12.27
-18.56
-26.69
-36.78
-48.13
-59.05
-67.19
-70.08
-66.06
-54.85
-37.63
-16.71
5.26
25.98
43.91
58.24
68.68
75.21
77.91
77.1
73.36
67.54
60.48
52.95
45.39
38.02
30.88
23.96
17.33
11.12
5.41
0.19
-4.75
-9.9
-15.99
-23.74
-33.58
-45.14
-57.1
-67.24
-73.01
-72.38
-64.51
-50.11
-31.12
-10.04
10.84
29.88
46.14
59.12
68.46
73.9
75.37
73.28
68.54
62.36
55.92
49.98
44.67
39.64
34.4
28.61
22.31
15.8
9.52
3.67
-1.88
-7.63
-14.31
-22.62
-32.91
-44.91
-57.5
-68.81
-76.53
-78.61
-73.83
-62.3
-45.33
-25.1
-3.89
16.39
34.42
49.4
60.73
67.97
70.9
69.76
65.46
59.35
52.92
47.18
42.48
38.43
34.33
29.56
23.98
17.92
11.95
6.55
1.8
-2.6
-7.27
-12.9
-20.04
-29
-39.61
-51.22
-62.44
-71.42
-76.06
-74.7
-66.53
-52.04
-32.86
-11.31
10.13
29.47
45.38
57.23
64.93
68.7
68.97
66.36
61.7
55.89
49.83
44.18
39.24
34.87
30.71
26.38
21.74
16.99
12.45
8.41
4.72
0.81
-4.24
-11.41
-21.28
-33.8
-48.08
-62.48
-74.82
-82.94
-85.13
-80.65
-69.91
-54.31
-35.81
-16.4
2.22
18.85
32.65
43
49.56
52.26
51.52
48.19
43.39
38.18
33.25
28.79
24.55
20.09
15.06
9.46
3.62
-1.85
-6.44
-10
-12.86
-15.91
-20.26
-26.85
-35.97
-47
-58.39
-67.9
-73.26
-72.75
-65.77
-52.89
-35.73
-16.33
3.27
21.39
36.84
48.76
56.65
60.29
59.97
56.49
51.08
45.08
39.54
34.89
30.92
27.02
22.53
17.17
11.09
4.79
-1.16
-6.44
-11.01
-15.29
-19.84
-25.37
-32.52
-41.64
-52.54
-64.25
-74.98
-82.39
-84.31
-79.41
-67.79
-50.85
-30.89
-10.33
8.94
25.69
39.33
49.58
56.3
59.46
59.32
56.52
52.03
46.92
42.03
37.74
33.91
30.02
25.54
20.17
14.06
7.68
1.68
-3.52
-7.89
-11.88
-16.3
-22.02
-29.75
-39.65
-51.19
-62.99
-73.06
-79.2
-79.63
-73.58
-61.53
-45.01
-26.1
-6.77
11.46
27.65
41.17
51.52
58.22
61.01
60.09
56.24
50.67
44.64
39.09
34.32
30.08
25.77
20.88
15.2
8.97
2.72
-3.01
-7.87
-11.9
-15.47
-19.2
-23.77
-29.77
-37.53
-46.92
-57.19
-66.9
-74.13
-76.89
-73.8
-64.53
-49.95
-31.9
-12.58
5.99
22.37
35.71
45.68
52.11
55.05
54.74
51.74
46.94
41.36
35.93
31.11
26.93
22.98
18.69
13.74
8.13
2.3
-3.17
-7.79
-11.49
-14.67
-18.11
-22.76
-29.34
-38.14
-48.69
-59.8
-69.6
-75.99
-77.15
-72.07
-60.93
-44.92
-25.93
-5.95
13.31
30.53
44.72
55.08
61.07
62.52
59.98
54.65
48.1
41.78
36.5
32.23
28.33
23.99
18.73
12.62
6.23
0.24
-4.84
-8.99
-12.58
-16.26
-20.75
-26.69
-34.4
-43.73
-53.85
-63.16
-69.7
-71.52
-67.41
-57.31
-42.33
-24.38
-5.57
12.24
27.75
40.15
48.99
54.13
55.7
54.21
50.47
45.52
40.29
35.4
31.03
26.98
22.85
18.3
13.22
7.75
2.28
-2.86
-7.45
-11.68
-16.06
-21.33
-28.25
-37.18
-47.79
-58.82
-68.25
-73.75
-73.4
-66.4
-53.33
-36.01
-16.84
1.91
18.66
32.56
43.32
50.91
55.29
56.59
55.11
51.54
46.79
41.71
36.88
32.43
28.16
23.68
18.8
13.51
8.16
3.12
-1.29
-5.08
-8.66
-12.78
-18.36
-26.02
-35.8
-46.81
-57.38
-65.28
-68.46
-65.64
-56.72
-42.8
-25.7
-7.5
10.07
25.84
39.13
49.54
56.78
60.68
61.24
58.85
54.27
48.47
42.4
36.6
31.18
25.82
20.14
13.94
7.4
1.03
-4.62
-9.25
-13.07
-16.71
-21.07
-26.89
-34.55
-43.81
-53.78
-62.98
-69.57
-71.87
-68.71
-59.95
-46.42
-29.81
-12.08
5.01
20.14
32.54
41.74
47.54
49.9
49.11
45.88
41.13
35.82
30.61
25.72
21.01
16.28
11.42
6.61
2.17
-1.64
-4.79
-7.54
-10.39
-13.96
-18.77
-25.22
-33.36
-42.77
-52.5
-60.95
-66.31
-66.9
-61.73
-50.93
-35.68
-17.98
0.05
16.51
30.14
40.29
46.83
49.95
50.02
47.62
43.4
38.1
32.35
26.66
21.26
16.18
11.32
6.58
1.94
-2.51
-6.62
-10.28
-13.59
-16.87
-20.7
-25.72
-32.4
-40.69
-49.85
-58.34
-64.21
-65.57
-61.2
-51.08
-36.31
-18.88
-0.93
15.66
29.72
40.65
48.28
52.6
53.7
51.9
47.76
42.12
35.9
29.87
24.42
19.54
14.99
10.48
5.89
1.27
-3.22
-7.47
-11.57
-15.87
-20.91
-27.27
-35.32
-44.88
-55.03
-64.11
-70.11
-71.24
-66.5
-56.09
-41.29
-24.06
-6.42
9.98
24.07
35.27
43.26
47.97
49.5
48.32
45.19
41.07
36.74
32.65
28.73
24.65
20.04
14.8
9.22
3.82
-0.94
-4.84
-8.17
-11.57
-15.93
-22.01
-30.2
-40.27
-51.24
-61.52
-69.16
-72.37
-69.99
-61.88
-48.89
-32.67
-15.11
2.05
17.51
30.46
40.42
47.16
50.6
50.94
48.73
44.78
39.99
35.08
30.43
26
21.59
17.02
12.29
7.65
3.35
-0.42
-3.79
-7.12
-10.93
-15.75
-22.01
-29.93
-39.35
-49.59
-59.29
-66.65
-69.72
-67.09
-58.34
-44.26
-26.64
-7.68
10.58
26.64
39.61
49.08
54.9
57.19
56.35
53.11
48.47
43.47
38.85
34.89
31.41
27.93
23.96
19.26
13.93
8.36
3.04
-1.69
-5.83
-9.79
-14.31
-20.2
-27.98
-37.57
-48.06
-57.8
-64.77
-67.13
-63.79
-54.71
-40.94
-24.22
-6.52
10.39
25.18
36.99
45.34
50.04
51.23
49.43
45.54
40.64
35.73
31.48
28
24.98
21.85
18.17
13.8
9.05
4.37
0.15
-3.5
-6.94
-10.84
-16.01
-23.06
-32.1
-42.49
-52.88
-61.37
-65.95
-65.2
-58.58
-46.71
-31.05
-13.53
4.04
20.2
33.93
44.55
51.58
54.89
54.72
51.79
47.21
42.12
37.35
33.18
29.37
25.42
20.97
15.98
10.75
5.74
1.26
-2.77
-6.79
-11.45
-17.45
-25.17
-34.57
-45.02
-55.25
-63.61
-68.3
-67.89
-61.7
-50.1
-34.37
-16.33
2.09
19.25
33.95
45.41
53.21
57.27
57.86
55.65
51.59
46.64
41.59
36.79
32.26
27.75
23.04
18.08
13.01
8.11
3.58
-0.51
-4.31
-8.17
-12.62
-18.24
-25.5
-34.51
-44.72
-54.8
-62.77
-66.55
-64.54
-56.28
-42.66
-25.52
-7.19
10.32
25.66
38.17
47.61
53.93
57.14
57.36
55.01
50.81
45.63
40.28
35.24
30.58
26.06
21.36
16.32
11.02
5.75
0.83
-3.61
-7.69
-11.86
-16.77
-23.02
-30.97
-40.41
-50.47
-59.59
-65.9
-67.68
-63.9
-54.58
-40.78
-24.25
-6.93
9.56
24.09
35.94
44.66
49.97
51.78
50.4
46.59
41.42
36
31.08
26.88
23.06
19.08
14.52
9.32
3.85
-1.35
-5.83
-9.5
-12.72
-16.21
-20.76
-27.01
-35.11
-44.63
-54.45
-62.97
-68.41
-69.22
-64.59
-54.58
-40.25
-23.2
-5.27
11.91
27.11
39.44
48.37
53.63
55.32
53.93
50.27
45.35
40.03
34.88
30.09
25.57
21.09
16.57
12.06
7.69
3.63
-0.12
-3.68
-7.4
-11.71
-17.17
-24.2
-32.94
-42.98
-53.19
-61.9
-67.17
-67.4
-61.79
-50.68
-35.39
-17.87
-0.14
16.13
29.8
40.27
47.23
50.71
50.9
48.33
43.77
38.13
32.27
26.71
21.64
16.88
12.17
7.36
2.44
-2.35
-6.84
-10.94
-14.85
-18.99
-23.95
-30.3
-38.4
-48.19
-58.93
-69.16
-76.87
-80.07
-77.31
-68.26
-53.78
-35.66
-16.05
3.15
20.53
35.22
46.67
54.49
58.48
58.77
55.98
51.14
45.49
40.01
35.18
30.89
26.67
22.04
16.79
11.14
5.57
0.57
-3.62
-7.18
-10.69
-14.97
-20.84
-28.88
-39.1
-50.78
-62.38
-71.75
-76.69
-75.57
-67.89
-54.44
-36.98
-17.63
1.73
19.78
35.66
48.74
58.46
64.31
66.19
64.57
60.52
55.39
50.34
45.95
42.14
38.36
33.99
28.73
22.73
16.5
10.66
5.61
1.34
-2.59
-6.89
-12.34
-19.56
-28.79
-39.76
-51.53
-62.57
-70.87
-74.49
-72.06
-63.23
-48.84
-30.7
-10.98
8.28
25.58
39.99
50.96
58.19
61.58
61.37
58.23
53.19
47.47
42.03
37.38
33.4
29.61
25.49
20.7
15.32
9.76
4.53
-0.01
-3.86
-7.4
-11.35
-16.53
-23.64
-32.87
-43.68
-54.73
-64.01
-69.35
-69.06
-62.45
-50.07
-33.52
-14.87
3.8
20.9
35.39
46.64
54.34
58.34
58.81
56.21
51.37
45.29
38.88
32.73
27.01
21.55
16.04
10.29
4.37
-1.35
-6.42
-10.61
-14.08
-17.49
-21.8
-27.95
-36.45
-47.1
-58.79
-69.7
-77.65
-80.66
-77.51
-68.04
-53.21
-34.77
-14.82
4.76
22.51
37.39
48.8
56.32
59.87
59.73
56.64
51.68
45.98
40.44
35.43
30.84
26.26
21.33
15.95
10.36
4.96
0.04
-4.45
-8.92
-14.04
-20.49
-28.68
-38.55
-49.37
-59.78
-67.96
-71.96
-70.35
-62.56
-49.22
-31.93
-12.83
5.96
22.84
36.8
47.35
54.3
57.69
57.79
55.14
50.6
45.07
39.32
33.74
28.34
22.89
17.21
11.27
5.33
-0.24
-5.22
-9.57
-13.64
-18
-23.31
-30.14
-38.63
-48.38
-58.27
-66.62
-71.46
-71.14
-64.75
-52.5
-35.67
-16.25
3.58
21.99
37.62
49.71
57.93
62.25
62.9
60.42
55.64
49.54
43.14
37.11
31.74
26.86
22.05
16.93
11.33
5.42
-0.45
-5.91
-10.9
-15.69
-20.93
-27.39
-35.64
-45.72
-56.88
-67.58
-75.71
-79.16
-76.47
-67.29
-52.56
-34.14
-14.3
4.95
22.12
36.36
47.17
54.26
57.51
57.14
53.85
48.79
43.28
38.38
34.54
31.56
28.71
25.3
20.93
15.8
10.42
5.38
0.97
-3.05
-7.32
-12.69
-19.84
-29.06
-40.05
-51.8
-62.75
-70.97
-74.6
-72.33
-63.79
-49.66
-31.54
-11.52
8.32
26.14
40.61
50.81
56.33
57.3
54.5
49.18
42.82
36.69
31.44
27.07
23.05
18.79
13.88
8.36
2.56
-3.07
-8.22
-12.85
-17.19
-21.71
-26.95
-33.46
-41.53
-50.95
-60.85
-69.55
-74.99
-75.24
-69.14
-56.75
-39.36
-19.08
1.73
21.03
37.4
50
58.5
62.91
63.57
61.14
56.55
50.83
44.8
38.97
33.34
27.67
21.68
15.28
8.68
2.32
-3.42
-8.44
-13.02
-17.8
-23.6
-31.15
-40.77
-52.18
-64.33
-75.44
-83.31
-85.83
-81.61
-70.49
-53.58
-33.06
-11.41
9.1
26.98
41.4
52.12
59.1
62.43
62.38
59.48
54.59
48.7
42.62
36.8
31.22
25.64
19.86
13.93
8.07
2.62
-2.34
-7.06
-12.07
-18.1
-25.79
-35.55
-47.2
-59.85
-71.74
-80.56
-83.93
-80.17
-68.95
-51.47
-30.13
-7.7
13.38
31.53
46.05
56.75
63.7
67
66.93
64.04
59.24
53.53
47.74
42.29
37.07
31.69
25.82
19.45
12.9
6.75
1.42
-3.1
-7.34
-12.34
-19.2
-28.68
-40.68
-54.07
-66.78
-76.28
-80.24
-77.21
-67.04
-50.83
-30.59
-8.59
13.03
32.64
49.13
61.77
70.15
74.13
74.06
70.69
65.17
58.74
52.38
46.52
41.03
35.46
29.35
22.6
15.53
8.7
2.55
-2.81
-7.78
-13.13
-19.68
-28.06
-38.37
-50.08
-61.97
-72.32
-79.17
-80.74
-75.99
-64.83
-48.32
-28.28
-6.88
13.83
32.27
47.28
58.19
64.61
66.61
64.71
59.92
53.58
46.99
41.09
36.26
32.34
28.88
25.44
21.76
17.82
13.73
9.6
5.39
0.88
-4.33
-10.81
-19.08
-29.39
-41.46
-54.22
-65.85
-74.06
-76.74
-72.57
-61.54
-44.91
-24.78
-3.58
16.64
34.37
48.69
59.09
65.32
67.43
65.86
61.54
55.69
49.5
43.78
38.74
34.08
29.3
24.03
18.22
12.23
6.46
1.24
-3.45
-7.99
-13.04
-19.37
-27.57
-37.82
-49.62
-61.62
-71.8
-77.88
-77.97
-71.22
-58.11
-40.24
-19.87
0.79
19.96
36.46
49.58
58.89
64.25
65.75
64.01
59.99
54.85
49.56
44.62
39.96
35.1
29.58
23.14
15.98
8.59
1.56
-4.75
-10.4
-15.83
-21.8
-29.06
-38.17
-49.05
-60.84
-71.85
-79.89
-82.86
-79.36
-69.23
-53.49
-34.1
-13.3
6.92
25.03
40.04
51.33
58.57
61.79
61.46
58.51
54.12
49.39
45.01
41.11
37.26
32.93
27.71
21.61
15.11
8.76
3.04
-2.03
-6.87
-12.21
-18.82
-27.27
-37.73
-49.78
-62.32
-73.59
-81.42
-83.72
-79.21
-67.89
-51.08
-31.1
-10.42
8.94
25.8
39.61
50.17
57.32
60.9
61.01
58.16
53.32
47.66
42.16
37.3
32.98
28.73
24.05
18.71
12.82
6.81
1.17
-3.84
-8.29
-12.66
-17.67
-24.09
-32.48
-42.9
-54.69
-66.49
-76.31
-82.08
-82.15
-75.84
-63.66
-47.11
-28.24
-8.95
9.29
25.6
39.45
50.36
57.87
61.61
61.62
58.52
53.46
47.75
42.45
37.99
34.12
30.18
25.56
20.04
13.92
7.88
2.58
-1.68
-5.11
-8.39
-12.41
-18
-25.65
-35.4
-46.74
-58.54
-69.2
-76.77
-79.46
-76.12
-66.58
-51.83
-33.65
-14.15
4.78
21.8
36.13
47.33
55.17
59.51
60.46
58.47
54.41
49.36
44.34
39.97
36.29
32.87
29.08
24.42
18.83
12.64
6.43
0.64
-4.64
-9.75
-15.31
-22.03
-30.42
-40.63
-52.28
-64.36
-75.29
-83.1
-85.94
-82.59
-72.97
-58.17
-40.08
-20.84
-2.16
14.84
29.53
41.53
50.4
55.77
57.5
56.01
52.22
47.34
42.44
38.05
34.1
30.13
25.58
20.25
14.4
8.63
3.54
-0.59
-4.05
-7.62
-12.36
-19.14
-28.43
-39.97
-52.78
-65.23
-75.33
-81.17
-81.34
-75.34
-63.62
-47.5
-28.73
-9.13
9.7
26.55
40.48
50.86
57.33
59.97
59.34
56.37
52.2
47.78
43.67
39.88
36.09
31.85
26.91
21.31
15.35
9.48
3.98
-1.08
-5.94
-11.09
-17.13
-24.66
-34.01
-45.06
-56.95
-68.1
-76.4
-79.82
-76.97
-67.61
-52.7
-34.07
-13.91
5.89
23.91
39.31
51.57
60.33
65.43
66.93
65.34
61.55
56.68
51.68
47.14
43.07
39.06
34.55
29.17
22.96
16.31
9.86
4.1
-0.79
-5.09
-9.42
-14.61
-21.4
-30.24
-41.12
-53.38
-65.64
-75.94
-82.13
-82.42
-76.01
-63.33
-45.93
-26.01
-5.71
13.38
30.25
44.42
55.57
63.4
67.71
68.59
66.57
62.61
57.83
53.12
48.97
45.25
41.45
37.01
31.61
25.36
18.67
12.09
6.03
0.6
-4.44
-9.48
-15.01
-21.49
-29.31
-38.73
-49.7
-61.61
-73.12
-82.35
-87.23
-86.18
-78.6
-65.1
-47.31
-27.34
-7.23
11.51
27.93
41.5
51.92
58.94
62.48
62.73
60.27
56.01
50.94
45.86
41.16
36.81
32.43
27.67
22.31
16.48
10.52
4.83
-0.32
-4.94
-9.24
-13.63
-18.59
-24.57
-31.93
-40.78
-50.78
-60.99
-69.89
-75.63
-76.54
-71.69
-61.16
-46.08
-28.18
-9.37
8.77
25.03
38.65
49.04
55.88
59.01
58.65
55.45
50.4
44.61
39.03
34.17
30.03
26.14
21.91
16.86
11.01
4.79
-1.08
-5.95
-9.64
-12.49
-15.38
-19.31
-25.19
-33.43
-43.85
-55.52
-66.9
-75.99
-80.79
-79.82
-72.58
-59.74
-42.85
-23.97
-4.96
12.75
28.24
40.86
50.11
55.61
57.31
55.67
51.68
46.59
41.47
36.88
32.82
28.8
24.33
19.14
13.38
7.51
2.09
-2.48
-6.2
-9.43
-12.86
-17.26
-23.32
-31.43
-41.48
-52.74
-63.86
-73.01
-78.28
-78.13
-71.88
-59.92
-43.64
-24.94
-5.8
12.21
27.97
40.81
50.29
56.14
58.34
57.24
53.64
48.6
43.2
38.09
33.37
28.68
23.45
17.36
10.49
3.4
-3.26
-8.96
-13.58
-17.53
-21.51
-26.43
-33.07
-41.9
-52.74
-64.72
-76.15
-84.86
-88.82
-86.66
-78.2
-64.41
-47.06
-28.07
-9.03
8.99
25.3
39.28
50.26
57.57
60.89
60.45
57.08
52.07
46.65
41.71
37.5
33.75
29.9
25.46
20.22
14.34
8.23
2.3
-3.17
-8.25
-13.27
-18.73
-25.17
-33.07
-42.67
-53.8
-65.71
-76.97
-85.59
-89.46
-87.04
-77.82
-62.61
-43.28
-22.11
-1.19
17.99
34.56
48.03
58.04
64.28
66.69
65.57
61.76
56.37
50.52
45
40.05
35.44
30.71
25.47
19.59
13.32
7.1
1.38
-3.59
-7.94
-12.17
-16.98
-23.1
-31.04
-40.95
-52.44
-64.46
-75.36
-83.21
-86.19
-83.12
-73.85
-59.24
-40.89
-20.65
-0.29
18.8
35.45
48.78
58.08
63.01
63.75
61.09
56.22
50.41
44.65
39.37
34.5
29.65
24.44
18.7
12.58
6.47
0.77
-4.24
-8.66
-12.83
-17.38
-22.98
-30.17
-39.25
-50.01
-61.68
-72.8
-81.48
-85.72
-83.93
-75.48
-60.81
-41.54
-19.87
1.88
21.82
38.7
51.85
60.99
66.12
67.41
65.32
60.64
54.4
47.65
41.16
35.25
29.79
24.36
18.67
12.61
6.45
0.59
-4.7
-9.42
-13.97
-19.07
-25.57
-34.13
-44.87
-57.13
-69.37
-79.39
-84.87
-84
-76.05
-61.58
-42.24
-20.25
2.17
23.2
41.47
56.07
66.35
72.06
73.35
70.93
65.91
59.51
52.75
46.15
39.81
33.53
27.11
20.55
14.06
7.94
2.43
-2.52
-7.26
-12.34
-18.51
-26.39
-36.34
-48.05
-60.41
-71.51
-79.01
-80.77
-75.49
-63.18
-45.13
-23.53
-0.83
20.84
39.87
55.25
66.37
73
75.25
73.68
69.27
63.19
56.58
50.14
44.09
38.21
32.14
25.63
18.74
11.84
5.31
-0.58
-5.96
-11.27
-17.23
-24.55
-33.67
-44.51
-56.2
-67.12
-75.14
-78.11
-74.51
-63.98
-47.4
-26.75
-4.45
17.17
36.32
51.91
63.4
70.67
73.88
73.43
69.97
64.32
57.37
49.91
42.5
35.41
28.67
22.19
15.85
9.68
3.8
-1.63
-6.56
-11.23
-16.18
-22.24
-30.19
-40.47
-52.65
-65.34
-76.21
-82.6
-82.3
-74.32
-59.23
-38.91
-16.02
6.87
27.74
45.32
58.93
68.18
72.94
73.35
70.02
64.02
56.69
49.25
42.43
36.34
30.63
24.75
18.39
11.64
4.88
-1.36
-6.76
-11.45
-15.97
-21.2
-28.05
-37.07
-48.07
-59.96
-70.8
-78.22
-80.09
-75.14
-63.38
-46.01
-25.08
-2.88
18.51
37.45
52.77
63.69
69.85
71.38
68.9
63.51
56.51
49.05
41.89
35.31
29.14
23.13
17.07
10.98
5.12
-0.25
-4.97
-9.25
-13.58
-18.73
-25.44
-34.23
-45.02
-56.96
-68.42
-77.19
-81.05
-78.36
-68.57
-52.45
-31.82
-9.1
13.3
33.37
49.73
61.58
68.68
71.19
69.71
65.13
58.48
50.73
42.6
34.5
26.63
19.02
11.78
5.02
-1.12
-6.62
-11.6
-16.41
-21.49
-27.39
-34.6
-43.44
-53.82
-64.98
-75.49
-83.26
-86.14
-82.49
-71.75
-54.76
-33.46
-10.43
11.86
31.49
47.31
58.82
65.96
68.98
68.32
64.7
58.96
52.05
44.74
37.55
30.69
24.13
17.78
11.62
5.76
0.31
-4.66
-9.34
-14.13
-19.66
-26.63
-35.47
-46.03
-57.26
-67.3
-73.76
-74.49
-68.27
-55.22
-36.83
-15.39
6.63
27.23
45.02
59.2
69.32
75.16
76.81
74.7
69.74
63.02
55.67
48.49
41.78
35.47
29.22
22.78
16.06
9.27
2.74
-3.22
-8.54
-13.55
-18.89
-25.45
-33.99
-44.82
-57.34
-70.02
-80.61
-86.65
-86.27
-78.7
-64.58
-45.62
-24.08
-2.07
18.77
37.34
52.87
64.65
72.09
74.85
73.21
68.12
61.08
53.63
46.91
41.28
36.4
31.58
26.16
19.97
13.25
6.53
0.29
-5.3
-10.41
-15.53
-21.18
-27.88
-36.04
-45.79
-56.88
-68.42
-78.79
-85.86
-87.53
-82.38
-70.24
-52.3
-30.74
-8.08
13.54
32.65
48.48
60.68
69.09
73.61
74.34
71.77
66.75
60.45
53.97
48.16
43.25
38.98
34.77
30
24.4
18.1
11.61
5.5
0.15
-4.45
-8.76
-13.47
-19.36
-27.03
-36.74
-48.21
-60.48
-71.91
-80.41
-83.99
-81.31
-72.14
-57.39
-38.84
-18.58
1.54
20.08
36.1
48.87
57.93
62.95
64.02
61.66
56.88
50.85
44.68
39.13
34.47
30.52
26.8
22.82
18.26
13.08
7.59
2.22
-2.63
-6.92
-10.93
-15.3
-20.72
-27.75
-36.57
-46.84
-57.69
-67.69
-75.14
-78.31
-75.93
-67.57
-53.77
-35.98
-16.12
3.8
22.13
37.64
49.54
57.4
61.14
61.07
57.85
52.54
46.26
39.98
34.32
29.4
25
20.66
16.03
11.05
5.99
1.32
-2.53
-5.47
-7.85
-10.45
-14.28
-20.18
-28.6
-39.31
-51.27
-62.77
-71.72
-76.19
-74.88
-67.59
-55.12
-39.09
-21.37
-3.69
12.55
26.39
37.09
44.16
47.36
46.92
43.58
38.42
32.62
27.03
22.09
17.68
13.48
9.15
4.61
0.04
-4.22
-7.94
-11.16
-14.28
-17.95
-22.9
-29.68
-38.45
-48.82
-59.7
-69.42
-76.03
-77.74
-73.51
-63.33
-48.29
-30.16
-10.93
7.68
24.4
38.38
49.03
55.94
58.95
58.32
54.78
49.46
43.57
38.04
33.3
29.25
25.43
21.3
16.53
11.12
5.34
-0.35
-5.59
-10.27
-14.6
-19.13
-24.57
-31.55
-40.43
-50.91
-62
-71.98
-78.77
-80.45
-75.91
-65.22
-49.6
-31.06
-11.75
6.57
22.83
36.46
47.13
54.58
58.5
58.89
56.12
51.16
45.2
39.36
34.28
29.94
25.87
21.46
16.35
10.63
4.79
-0.62
-5.26
-9.2
-12.98
-17.28
-22.83
-30.1
-39.21
-49.81
-61.03
-71.46
-79.34
-82.92
-80.92
-73
-59.82
-42.89
-24.11
-5.27
12.23
27.49
39.9
49.09
54.81
57.03
56.05
52.54
47.46
41.81
36.42
31.73
27.71
23.96
19.96
15.34
10.02
4.34
-1.21
-6.18
-10.43
-14.24
-18.23
-23.2
-29.81
-38.49
-49.14
-61.05
-72.84
-82.64
-88.38
-88.34
-81.74
-68.95
-51.44
-31.27
-10.58
8.92
26.11
40.28
50.98
57.86
60.82
60.13
56.6
51.41
45.83
40.84
36.77
33.45
30.27
26.62
22.14
16.91
11.31
5.81
0.79
-3.68
-7.85
-12.23
-17.43
-24.06
-32.51
-42.72
-54.05
-65.16
-74.2
-79.23
-78.7
-71.95
-59.38
-42.35
-22.72
-2.49
16.69
33.46
46.89
56.32
61.45
62.48
60.1
55.38
49.53
43.57
38.08
33.2
28.69
24.16
19.34
14.14
8.76
3.49
-1.39
-5.8
-9.98
-14.41
-19.84
-26.91
-36.01
-46.91
-58.64
-69.47
-77.32
-80.23
-76.92
-67.25
-52.17
-33.43
-13.01
7.29
26.08
42.33
55.16
63.95
68.32
68.47
65.21
59.82
53.72
47.92
42.88
38.39
33.89
28.84
23.07
16.81
10.6
4.98
0.18
-3.96
-8.05
-12.92
-19.39
-27.98
-38.62
-50.54
-62.17
-71.43
-76.16
-74.77
-66.66
-52.54
-34.1
-13.54
7.03
26.05
42.47
55.7
65.29
70.99
72.75
70.97
66.49
60.49
54.11
48.1
42.66
37.46
31.98
25.83
18.98
11.8
4.84
-1.38
-6.7
-11.37
-16.06
-21.64
-28.95
-38.47
-49.94
-62.21
-73.3
-80.85
-82.72
-77.64
-65.73
-48.31
-27.59
-5.89
14.84
33.28
48.68
60.53
68.46
72.18
71.81
67.98
61.86
54.82
48.01
42.05
36.8
31.74
26.24
20
13.19
6.39
0.22
-4.91
-9.06
-12.83
-17.05
-22.65
-30.25
-39.94
-51.05
-62.15
-71.29
-76.4
-75.92
-69.13
-56.49
-39.36
-19.69
0.54
19.67
36.46
50.05
59.84
65.48
66.96
64.75
59.79
53.29
46.43
40.04
34.43
29.4
24.53
19.43
14.03
8.53
3.32
-1.25
-5.13
-8.61
-12.3
-16.95
-23.28
-31.75
-42.19
-53.8
-64.99
-73.7
-77.85
-75.97
-67.61
-53.52
-35.41
-15.39
4.5
22.69
38.11
50.1
58.25
62.41
62.73
59.8
54.62
48.36
42.07
36.33
31.23
26.44
21.51
16.2
10.62
5.13
0.17
-4.02
-7.58
-11.03
-15.12
-20.69
-28.28
-38
-49.22
-60.62
-70.24
-75.96
-76.1
-69.84
-57.58
-40.75
-21.4
-1.63
16.81
32.67
45.18
53.84
58.43
59.02
56.16
50.81
44.22
37.5
31.35
25.92
20.9
15.94
10.81
5.63
0.73
-3.59
-7.31
-10.75
-14.5
-19.27
-25.64
-33.93
-43.93
-54.81
-65.09
-72.78
-75.93
-73.1
-63.9
-49.13
-30.56
-10.42
9.2
26.67
41.02
51.72
58.62
61.8
61.62
58.74
54.05
48.47
42.73
37.24
32.04
26.96
21.8
16.5
11.15
5.93
1.02
-3.63
-8.19
-13.07
-18.79
-25.84
-34.55
-44.73
-55.53
-65.32
-72.06
-73.73
-69.09
-58.05
-41.81
-22.44
-2.24
16.76
33.2
46.27
55.6
61.07
62.81
61.3
57.33
51.94
46.09
40.52
35.44
30.75
26.11
21.23
16.04
10.71
5.54
0.75
-3.64
-7.94
-12.75
-18.82
-26.83
-36.94
-48.63
-60.44
-70.24
-75.74
-75.21
-68.08
-55.07
-38.01
-19.1
-0.38
16.7
31.3
42.96
51.3
55.97
56.87
54.31
49.2
42.82
36.43
30.86
26.27
22.29
18.29
13.85
8.95
3.93
-0.73
-4.72
-8.09
-11.34
-15.18
-20.4
-27.58
-36.82
-47.54
-58.36
-67.35
-72.4
-71.88
-65.13
-52.69
-36.07
-17.26
1.77
19.46
34.68
46.68
54.92
59.16
59.54
56.72
51.84
46.16
40.79
36.24
32.48
28.98
25.18
20.75
15.73
10.54
5.64
1.32
-2.48
-6.14
-10.25
-15.39
-22
-30.26
-39.96
-50.28
-59.84
-66.8
-69.29
-65.98
-56.6
-42.12
-24.46
-5.91
11.45
26.23
37.73
45.77
50.35
51.6
49.87
45.72
40.05
33.9
28.15
23.27
19.28
15.8
12.31
8.45
4.13
-0.44
-4.91
-8.98
-12.63
-16.25
-20.51
-26.24
-33.94
-43.45
-53.73
-62.93
-68.87
-69.7
-64.46
-53.41
-37.9
-19.89
-1.4
15.97
31.13
43.36
52.17
57.2
58.39
56.13
51.39
45.47
39.58
34.48
30.26
26.47
22.49
17.95
12.86
7.62
2.74
-1.54
-5.26
-8.89
-13.11
-18.59
-25.81
-34.79
-44.94
-54.96
-63.01
-67.14
-65.86
-58.64
-46.14
-29.93
-12.05
5.63
21.66
35.09
45.35
51.99
54.84
54.12
50.54
45.29
39.7
34.75
30.8
27.59
24.42
20.7
16.14
10.94
5.59
0.53
-4.01
-8.21
-12.55
-17.64
-24.04
-32.02
-41.42
-51.5
-60.91
-67.87
-70.59
-67.78
-59.15
-45.52
-28.64
-10.65
6.59
21.78
34.3
43.92
50.56
54.13
54.66
52.5
48.36
43.28
38.16
33.61
29.67
25.95
21.94
17.33
12.18
6.85
1.82
-2.66
-6.63
-10.54
-15.06
-20.85
-28.41
-37.81
-48.6
-59.63
-69.24
-75.42
-76.4
-71.27
-60.23
-44.73
-26.88
-8.83
7.85
22.39
34.58
44.35
51.49
55.6
56.43
54.25
49.94
44.76
39.95
36.16
33.35
30.9
28.02
24.19
19.35
13.92
8.43
3.32
-1.27
-5.54
-9.84
-14.5
-19.85
-26.14
-33.61
-42.43
-52.41
-62.75
-71.91
-77.91
-78.86
-73.63
-62.35
-46.38
-27.87
-9.02
8.45
23.6
36.07
45.76
52.6
56.43
57.21
55.25
51.26
46.27
41.29
37.04
33.69
30.96
28.28
25.19
21.47
17.28
12.97
8.88
5.14
1.62
-2.03
-6.27
-11.47
-17.93
-25.82
-35.12
-45.5
-56.12
-65.61
-72.14
-73.96
-69.94
-59.96
-45.08
-27.15
-8.3
9.67
25.5
38.46
48.15
54.35
57.02
56.44
53.26
48.44
43.1
38.12
34.01
30.8
28.13
25.46
22.3
18.41
13.84
8.94
4.1
-0.34
-4.38
-8.33
-12.73
-18.24
-25.36
-34.32
-44.85
-56.11
-66.63
-74.57
-78.08
-75.85
-67.62
-54.19
-37.27
-18.88
-0.8
15.71
29.95
41.49
49.98
55.14
56.86
55.44
51.71
46.78
41.75
37.36
33.79
30.75
27.71
24.19
20.04
15.36
10.52
5.86
1.59
-2.33
-6.17
-10.34
-15.34
-21.64
-29.56
-39.04
-49.48
-59.55
-67.39
-70.98
-68.79
-60.31
-46.28
-28.44
-9.02
9.95
27.03
41.48
53.1
61.78
67.37
69.73
68.82
65.04
59.22
52.51
46.03
40.52
36.13
32.48
28.89
24.76
19.86
14.4
8.83
3.66
-0.9
-4.89
-8.72
-12.87
-17.91
-24.3
-32.31
-41.89
-52.42
-62.67
-70.86
-75.04
-73.68
-66.2
-53.16
-36.14
-17.21
1.67
18.99
33.85
45.77
54.5
59.94
62.14
61.44
58.42
53.98
48.97
44.17
39.95
36.3
32.9
29.26
25.01
20
14.46
8.85
3.67
-0.81
-4.69
-8.45
-12.8
-18.41
-25.77
-34.91
-45.37
-56.02
-65.28
-71.28
-72.42
-67.86
-57.75
-43.27
-26.21
-8.47
8.46
23.56
36.23
46.08
52.76
56.07
56.1
53.42
48.98
43.91
39.17
35.23
32.1
29.34
26.47
23.15
19.31
15.14
10.92
6.92
3.26
-0.09
-3.31
-6.71
-10.65
-15.59
-21.87
-29.63
-38.49
-47.5
-55.12
-59.62
-59.53
-54.15
-43.91
-30.16
-14.83
0.25
13.74
25.02
33.9
40.3
44.07
44.96
42.99
38.59
32.74
26.64
21.36
17.4
14.57
12.24
9.7
6.5
2.7
-1.31
-5.04
-8.23
-10.96
-13.71
-17.07
-21.69
-27.95
-36.01
-45.53
-55.7
-65.18
-72.28
-75.37
-73.28
-65.79
-53.6
-38.2
-21.39
-4.85
10.15
22.79
32.54
39.12
42.45
42.72
40.49
36.55
31.83
27.11
22.85
19.1
15.61
12.03
8.08
3.73
-0.89
-5.43
-9.7
-13.6
-17.39
-21.49
-26.47
-32.84
-40.82
-50.12
-59.76
-68.21
-73.67
-74.58
-70.12
-60.49
-46.84
-30.79
-14.04
2.13
16.78
29.28
39.12
45.8
49.03
48.93
46.14
41.71
36.75
32.16
28.23
24.76
21.24
17.17
12.41
7.2
2.05
-2.52
-6.29
-9.49
-12.7
-16.72
-22.28
-29.79
-39.13
-49.55
-59.67
-67.69
-71.81
-70.7
-63.95
-52.19
-36.93
-20.05
-3.29
12.1
25.36
36.11
44.09
49.08
51.01
50.1
46.96
42.47
37.59
32.99
28.88
25.04
21
16.44
11.32
5.95
0.79
-3.8
-7.79
-11.51
-15.53
-20.51
-26.96
-35.12
-44.81
-55.25
-65.02
-72.24
-75.02
-72.06
-63.08
-49.05
-31.8
-13.44
4.22
19.96
33.14
43.38
50.41
54
54.22
51.62
47.2
42.16
37.5
33.72
30.69
27.84
24.56
20.47
15.62
10.43
5.48
1.14
-2.53
-5.88
-9.63
-14.59
-21.43
-30.41
-41.08
-52.28
-62.15
-68.64
-70
-65.32
-54.87
-39.91
-22.33
-4.06
13.34
28.75
41.38
50.67
56.18
57.83
55.97
51.57
45.92
40.24
35.35
31.4
27.99
24.45
20.33
15.52
10.36
5.35
0.88
-2.98
-6.56
-10.43
-15.28
-21.64
-29.73
-39.36
-49.71
-59.42
-66.68
-69.71
-67.17
-58.72
-45.05
-27.73
-8.79
9.84
26.57
40.39
50.67
57.2
60.07
59.69
56.85
52.5
47.61
42.86
38.54
34.56
30.62
26.41
21.79
16.9
11.95
7.21
2.73
-1.62
-6.25
-11.69
-18.52
-27.11
-37.28
-48.19
-58.15
-65.12
-67.14
-63.08
-53.06
-38.31
-20.82
-2.58
14.84
30.49
43.8
54.35
61.69
65.47
65.69
62.89
58.16
52.68
47.46
42.87
38.69
34.4
29.44
23.66
17.33
11.04
5.4
0.73
-3.13
-6.8
-11.17
-17.16
-25.3
-35.49
-46.84
-57.7
-66.01
-69.8
-67.8
-59.76
-46.53
-29.72
-11.21
7.29
24.49
39.48
51.62
60.34
65.37
66.72
64.96
61.06
56.15
51.15
46.52
42.28
38.09
33.64
28.77
23.62
18.48
13.63
9.24
5.25
1.46
-2.43
-6.81
-12.17
-18.95
-27.44
-37.43
-47.96
-57.3
-63.32
-64.15
-58.87
-47.84
-32.64
-15.4
1.82
17.63
31.26
42.45
50.98
56.54
58.89
58.04
54.51
49.24
43.37
37.8
33
28.89
25.04
20.96
16.35
11.28
6.12
1.36
-2.67
-5.99
-8.95
-12.18
-16.37
-22.01
-29.29
-38.03
-47.63
-57.08
-65.03
-69.96
-70.58
-66.13
-56.7
-43.21
-27.23
-10.45
5.64
19.99
31.97
41.17
47.36
50.39
50.45
48.05
44.05
39.45
35.12
31.51
28.54
25.78
22.64
18.7
13.98
8.86
3.91
-0.4
-3.93
-6.99
-10.15
-14.05
-19.26
-26.08
-34.5
-44.07
-53.87
-62.42
-67.99
-69.01
-64.58
-54.88
-41.06
-24.98
-8.49
6.94
20.54
31.92
40.86
47.11
50.38
50.6
48.17
43.97
39.12
34.59
30.88
27.82
24.88
21.51
17.46
12.94
8.44
4.44
1.13
-1.71
-4.66
-8.41
-13.58
-20.56
-29.37
-39.54
-50.1
-59.63
-66.39
-68.87
-66.13
-58.15
-45.85
-30.78
-14.69
0.91
14.94
26.66
35.56
41.27
43.61
42.82
39.59
35
30.15
25.84
22.33
19.33
16.35
13.02
9.28
5.46
1.95
-0.98
-3.36
-5.55
-8.03
-11.32
-15.82
-21.86
-29.49
-38.47
-48.02
-56.78
-63.03
-65.13
-62.07
-53.83
-41.43
-26.52
-10.88
4.12
17.58
29.08
38.29
44.86
48.45
48.97
46.81
42.81
38.09
33.65
29.98
27.07
24.42
21.44
17.75
13.35
8.58
3.96
-0.12
-3.52
-6.46
-9.46
-13.14
-18.1
-24.71
-32.92
-42.11
-51.09
-58.3
-62.06
-61.1
-54.94
-44.09
-29.86
-14.01
1.76
16.18
28.49
38.33
45.54
50.05
51.9
51.3
48.77
45.03
40.91
37.02
33.7
30.95
28.53
26.13
23.51
20.61
17.47
14.23
11.07
8.07
5.23
2.43
-0.48
-3.59
-6.9
-10.26
-13.43
-16.23
-18.53
-20.43
-22.12
-23.88
-26.07
-29.04
-33.15
-38.59
-45.21
-52.28
-58.47
-62.15
-61.82
-56.68
-46.91
-33.71
-18.81
-3.96
9.5
20.83
29.73
36.1
39.81
40.8
39.2
35.55
30.73
25.77
21.42
17.96
15.12
12.31
9.01
5.02
0.59
-3.81
-7.72
-10.96
-13.78
-16.7
-20.4
-25.43
-32.05
-40.03
-48.62
-56.62
-62.52
-64.92
-62.87
-56.2
-45.52
-32.05
-17.27
-2.6
10.76
21.92
30.23
35.35
37.25
36.33
33.35
29.23
24.85
20.73
17.07
13.7
10.34
6.76
2.9
-1.07
-4.88
-8.26
-11.12
-13.6
-16.13
-19.25
-23.49
-29.16
-36.16
-43.88
-51.15
-56.51
-58.47
-56.01
-48.84
-37.56
-23.53
-8.43
6.08
18.72
28.72
35.7
39.56
40.46
38.82
35.31
30.79
26.08
21.73
17.9
14.39
10.88
7.13
3.16
-0.84
-4.58
-7.92
-10.93
-13.92
-17.38
-21.85
-27.79
-35.33
-44.02
-52.68
-59.58
-62.9
-61.29
-54.44
-43.14
-29.03
-13.94
0.61
13.69
24.87
33.88
40.46
44.25
45.09
43.21
39.35
34.53
29.72
25.44
21.67
17.99
13.92
9.26
4.19
-0.77
-5.12
-8.72
-11.82
-15.14
-19.49
-25.62
-33.73
-43.41
-53.47
-62.2
-67.73
-68.54
-63.98
-54.36
-40.91
-25.28
-9.07
6.38
20.16
31.56
40.05
45.21
46.94
45.62
42.12
37.6
33.09
29.23
26.05
23.11
19.82
15.79
11.03
5.91
0.98
-3.36
-7.13
-10.71
-14.75
-20.03
-27.08
-36.07
-46.55
-57.43
-67.03
-73.39
-74.83
-70.34
-60.03
-45.01
-27.09
-8.31
9.66
25.58
38.73
48.7
55.32
58.6
58.76
56.4
52.31
47.42
42.51
38.09
34.23
30.68
27.02
22.9
18.25
13.26
8.34
3.79
-0.33
-4.38
-9.04
-15.06
-23.03
-32.96
-44.28
-55.65
-65.29
-71.24
-71.94
-66.64
-55.56
-39.92
-21.47
-2.11
16.56
33.33
47.36
58.04
64.91
67.81
66.99
63.29
57.94
52.22
47.06
42.76
39.01
35.15
30.63
25.22
19.26
13.31
7.95
3.38
-0.68
-4.88
-10.04
-16.78
-25.44
-35.81
-47.12
-58.06
-66.85
-71.67
-71.01
-64.18
-51.56
-34.48
-14.85
5.33
24.34
40.9
54.16
63.53
68.8
70.1
68.06
63.69
58.07
52.12
46.32
40.75
35.24
29.63
23.9
18.2
12.76
7.77
3.23
-1.03
-5.39
-10.32
-16.3
-23.83
-33.02
-43.52
-54.23
-63.4
-68.93
-69.03
-62.78
-50.53
-33.81
-14.78
4.41
22.13
37.46
49.91
59.18
65.01
67.26
66.19
62.55
57.47
52.05
47.02
42.5
38.14
33.39
27.99
22.07
16.15
10.84
6.51
3.07
-0.07
-3.83
-9.18
-16.83
-26.94
-38.86
-51.14
-61.68
-68.2
-68.87
-62.85
-50.57
-33.56
-13.94
6.15
25.06
41.63
55.13
65.04
71.01
72.96
71.3
67.02
61.44
55.81
50.9
46.82
43.04
38.87
33.81
27.83
21.35
15.01
9.33
4.42
0.03
-4.4
-9.54
-16.01
-24.18
-34.08
-45.16
-56.19
-65.37
-70.66
-70.42
-63.86
-51.47
-34.75
-15.81
3.28
20.98
36.28
48.64
57.7
63.19
65.09
63.69
59.79
54.44
48.76
43.5
38.93
34.81
30.65
26.02
20.76
15.09
9.42
4.24
-0.2
-4.03
-7.75
-12.17
-18.04
-25.93
-35.82
-47.01
-58.1
-67.19
-72.38
-72.18
-66.05
-54.47
-38.8
-20.84
-2.34
15.19
30.7
43.39
52.7
58.28
60.12
58.67
54.84
49.77
44.48
39.6
35.23
31.06
26.65
21.8
16.64
11.58
7.09
3.37
0.24
-2.86
-6.62
-11.65
-18.34
-26.72
-36.44
-46.71
-56.31
-63.67
-67.17
-65.68
-58.85
-47.33
-32.52
-16.19
0.02
14.83
27.36
37.01
43.4
46.36
46.05
43.1
38.47
33.3
28.47
24.43
21.12
18.12
14.95
11.36
7.41
3.37
-0.46
-4.01
-7.46
-11.26
-15.9
-21.81
-29.21
-37.95
-47.43
-56.41
-63.26
-66.23
-64.04
-56.37
-44.01
-28.67
-12.39
3.03
16.46
27.31
35.38
40.52
42.62
41.77
38.43
33.51
28.08
23.06
18.89
15.43
12.24
8.79
4.9
0.69
-3.42
-7.08
-10.2
-13.03
-16.22
-20.44
-26.3
-33.98
-43.07
-52.48
-60.57
-65.48
-65.63
-60.24
-49.6
-35.06
-18.54
-1.99
13.04
25.66
35.36
41.96
45.32
45.57
43.1
38.76
33.61
28.61
24.34
20.74
17.37
13.66
9.37
4.62
-0.12
-4.34
-7.8
-10.71
-13.63
-17.29
-22.32
-29.01
-37.1
-45.73
-53.54
-58.92
-60.35
-56.89
-48.43
-35.77
-20.42
-4.17
11.27
24.62
35.06
42.25
46.14
47.04
45.47
42.14
37.81
33.13
28.51
24.09
19.83
15.62
11.37
7.11
2.91
-1.14
-5.02
-8.81
-12.78
-17.28
-22.8
-29.69
-37.99
-47.2
-56.17
-63.22
-66.59
-64.93
-57.81
-45.84
-30.61
-14.02
2.07
16.35
28.05
36.82
42.56
45.25
45.11
42.6
38.52
33.78
29.21
25.28
22.01
19.12
16.16
12.86
9.16
5.24
1.37
-2.29
-5.78
-9.46
-13.85
-19.56
-26.94
-35.89
-45.61
-54.64
-61.15
-63.41
-60.4
-52.13
-39.63
-24.58
-8.79
6.27
19.67
30.86
39.48
45.18
47.75
47.25
44.28
39.81
34.97
30.58
26.94
23.76
20.45
16.54
11.95
7.02
2.34
-1.69
-4.98
-7.92
-11.16
-15.43
-21.2
-28.62
-37.32
-46.37
-54.44
-59.91
-61.32
-57.72
-49.1
-36.33
-21.05
-5.12
9.83
22.64
32.66
39.59
43.39
44.2
42.39
38.61
33.66
28.39
23.36
18.82
14.66
10.61
6.51
2.36
-1.65
-5.29
-8.45
-11.26
-14.05
-17.36
-21.75
-27.66
-35.18
-43.85
-52.55
-59.61
-63.27
-62.11
-55.61
-44.34
-29.74
-13.73
1.91
15.81
27.14
35.49
40.72
42.92
42.4
39.8
35.92
31.63
27.54
23.9
20.62
17.4
14
10.31
6.44
2.54
-1.23
-4.9
-8.61
-12.69
-17.57
-23.66
-31.21
-39.93
-48.86
-56.31
-60.28
-59.12
-52.12
-39.92
-24.22
-7.27
8.87
22.83
33.95
42.15
47.46
49.96
49.76
47.22
43.02
38.04
33.13
28.79
25.05
21.52
17.77
13.52
8.94
4.46
0.56
-2.55
-5.2
-8.11
-12.24
-18.26
-26.38
-36.02
-45.93
-54.38
-59.54
-60.01
-55.16
-45.31
-31.64
-15.8
0.52
15.94
29.48
40.5
48.51
53.23
54.6
53
49.22
44.28
39.16
34.45
30.26
26.36
22.41
18.21
13.85
9.58
5.67
2.25
-0.86
-4.05
-7.84
-12.76
-19.17
-27.14
-36.28
-45.71
-54.01
-59.53
-60.7
-56.6
-47.26
-33.71
-17.75
-1.32
13.89
26.8
36.9
44.08
48.38
49.92
48.98
46.03
41.84
37.21
32.88
29.19
26.08
23.17
20.02
16.37
12.27
8.1
4.29
1.14
-1.47
-4.07
-7.5
-12.59
-19.77
-28.84
-38.8
-48.02
-54.63
-57.01
-54.28
-46.55
-34.86
-20.78
-6.04
7.99
20.37
30.54
38.15
42.89
44.62
43.48
40.08
35.37
30.44
26.12
22.72
19.96
17.27
14.13
10.38
6.29
2.35
-1.03
-3.8
-6.36
-9.38
-13.52
-19.24
-26.58
-35.07
-43.83
-51.56
-56.82
-58.29
-55.05
-46.99
-34.84
-19.99
-4.21
10.89
24.05
34.52
41.95
46.24
47.54
46.24
43.03
38.69
34.02
29.51
25.28
21.15
16.86
12.29
7.56
2.98
-1.17
-4.75
-7.87
-10.84
-14.13
-18.21
-23.53
-30.29
-38.24
-46.59
-53.91
-58.48
-58.73
-53.81
-43.95
-30.33
-14.8
0.78
14.89
26.65
35.65
41.81
45.16
45.8
44.04
40.41
35.7
30.73
26.15
22.18
18.63
15.08
11.15
6.79
2.27
-1.94
-5.54
-8.58
-11.53
-15.21
-20.4
-27.58
-36.55
-46.39
-55.45
-61.77
-63.62
-59.96
-50.92
-37.62
-21.94
-5.86
9.03
21.79
32
39.54
44.39
46.49
45.95
43.17
38.88
33.97
29.21
25.07
21.49
18.1
14.43
10.27
5.71
1.17
-2.92
-6.36
-9.32
-12.39
-16.31
-21.82
-29.26
-38.42
-48.4
-57.7
-64.56
-67.33
-65.04
-57.61
-45.93
-31.48
-15.92
-0.73
13.07
24.79
34.02
40.44
43.93
44.58
42.85
39.47
35.31
31.16
27.41
24.15
21.04
17.73
13.94
9.67
5.24
1.05
-2.59
-5.69
-8.59
-11.94
-16.43
-22.58
-30.66
-40.37
-50.9
-60.87
-68.57
-72.28
-70.76
-63.68
-51.72
-36.43
-19.71
-3.29
11.6
24.26
34.3
41.49
45.61
46.62
44.87
41.18
36.67
32.44
29.14
26.75
24.73
22.28
18.85
14.38
9.37
4.52
0.4
-2.85
-5.63
-8.71
-12.94
-18.94
-26.93
-36.52
-46.7
-56.02
-62.77
-65.43
-63.05
-55.53
-43.58
-28.57
-12.08
4.36
19.48
32.27
41.98
48.16
50.7
50
46.87
42.45
37.74
33.43
29.75
26.47
23.21
19.66
15.72
11.55
7.4
3.48
-0.25
-3.95
-7.98
-12.7
-18.48
-25.61
-34.23
-44.06
-54.2
-63.15
-68.98
-69.88
-64.83
-53.89
-38.33
-20.11
-1.36
16.13
31.13
42.86
50.89
55.03
55.4
52.58
47.59
41.7
36.13
31.57
28.13
25.38
22.67
19.52
15.8
11.68
7.45
3.28
-0.91
-5.45
-10.78
-17.3
-25.28
-34.71
-45.14
-55.59
-64.48
-69.98
-70.48
-65.07
-53.96
-38.31
-19.9
-0.53
18.27
35.32
49.75
60.78
67.85
70.76
69.98
66.51
61.65
56.56
51.81
47.4
42.85
37.66
31.59
24.88
18.02
11.58
5.88
0.88
-3.8
-8.81
-14.79
-22.31
-31.64
-42.52
-54.06
-64.7
-72.47
-75.43
-72.3
-62.84
-47.96
-29.46
-9.5
9.93
27.35
41.76
52.62
59.62
62.74
62.3
59
53.89
48.12
42.65
37.95
33.99
30.33
26.47
22.15
17.43
12.68
8.29
4.44
0.92
-2.71
-7.15
-13.08
-20.98
-31.01
-42.72
-54.95
-65.78
-72.95
-74.38
-68.99
-57.07
-40.22
-20.84
-1.25
16.81
32.45
45.3
55.11
61.58
64.38
63.55
59.77
54.28
48.54
43.65
39.93
36.94
33.82
29.77
24.54
18.49
12.36
6.9
2.44
-1.2
-4.67
-8.83
-14.49
-22.16
-31.93
-43.3
-55.08
-65.5
-72.5
-74.23
-69.6
-58.75
-42.93
-24.14
-4.57
14.01
30.36
43.78
53.83
60.24
62.9
62.08
58.49
53.21
47.39
41.94
37.26
33.25
29.48
25.49
21
16.08
10.98
6.04
1.48
-2.74
-6.92
-11.56
-17.19
-24.22
-32.79
-42.62
-52.84
-62.07
-68.55
-70.57
-67
-57.6
-43.27
-25.73
-7.09
10.73
26.28
38.73
47.7
53.05
54.92
53.68
50.03
44.91
39.31
33.99
29.31
25.25
21.46
17.49
13.08
8.22
3.21
-1.53
-5.7
-9.34
-12.93
-17.3
-23.29
-31.42
-41.49
-52.5
-62.8
-70.42
-73.66
-71.43
-63.57
-50.82
-34.58
-16.52
1.66
18.52
32.94
44.06
51.39
54.8
54.63
51.66
46.95
41.59
36.37
31.66
27.41
23.31
19.09
14.63
10.08
5.74
1.83
-1.65
-4.99
-8.82
-13.77
-20.4
-28.91
-39
-49.74
-59.68
-67.04
-70.1
-67.69
-59.54
-46.41
-29.89
-11.91
5.63
21.29
34.11
43.57
49.49
51.98
51.48
48.68
44.48
39.68
34.83
30.12
25.48
20.72
15.75
10.67
5.72
1.14
-2.93
-6.57
-10.08
-13.96
-18.78
-25.06
-33.06
-42.46
-52.22
-60.65
-65.73
-65.78
-60
-48.73
-33.45
-16.14
1.19
17.03
30.43
40.92
48.3
52.45
53.45
51.63
47.64
42.37
36.73
31.42
26.74
22.65
18.8
14.86
10.63
6.2
1.83
-2.21
-5.82
-9.3
-13.26
-18.5
-25.6
-34.62
-44.82
-54.68
-62.24
-65.62
-63.61
-55.99
-43.59
-28
-11.11
5.39
20.27
32.77
42.46
49.1
52.57
52.91
50.62
46.49
41.56
36.75
32.5
28.79
25.13
21.06
16.37
11.29
6.37
2.1
-1.37
-4.38
-7.64
-11.96
-17.96
-25.82
-35.16
-45.08
-54.19
-60.85
-63.55
-61.25
-53.75
-41.73
-26.63
-10.27
5.59
19.55
30.7
38.56
43.07
44.49
43.33
40.36
36.44
32.29
28.35
24.71
21.16
17.45
13.45
9.22
5.01
1.05
-2.53
-5.87
-9.28
-13.22
-18.21
-24.62
-32.57
-41.68
-50.98
-58.9
-63.7
-63.8
-58.41
-47.82
-33.26
-16.66
0.04
15.21
27.8
37.25
43.39
46.31
46.32
44.04
40.26
35.89
31.62
27.82
24.46
21.27
17.93
14.29
10.35
6.24
2.07
-2.13
-6.54
-11.39
-17.13
-24.16
-32.76
-42.73
-53.2
-62.55
-68.79
-70.09
-65.45
-55.11
-40.41
-23.35
-5.96
10.21
24.21
35.52
43.8
48.82
50.48
49.07
45.3
40.29
35.11
30.51
26.66
23.21
19.62
15.48
10.74
5.71
0.82
-3.63
-7.66
-11.61
-16.05
-21.56
-28.51
-36.9
-46.13
-55.03
-62
-65.37
-63.96
-57.44
-46.43
-32.28
-16.59
-0.79
14.07
27.23
38.08
46.05
50.7
52.04
50.57
47.27
43.27
39.43
36.07
32.96
29.59
25.48
20.51
14.98
9.45
4.47
0.28
-3.28
-6.72
-10.71
-15.85
-22.57
-30.97
-40.78
-51.23
-60.98
-68.3
-71.4
-69
-60.85
-47.84
-31.75
-14.67
1.63
16.07
28.2
37.86
44.9
49.08
50.22
48.57
44.82
40.13
35.63
32.05
29.49
27.44
25.11
21.83
17.42
12.19
6.78
1.85
-2.31
-5.85
-9.3
-13.39
-18.79
-25.87
-34.69
-44.74
-55.03
-64.05
-70.1
-71.57
-67.55
-58.1
-44.28
-27.88
-10.78
5.41
19.69
31.53
40.65
46.89
50.08
50.29
47.93
43.82
39.01
34.39
30.51
27.37
24.62
21.76
18.45
14.66
10.61
6.58
2.78
-0.8
-4.37
-8.22
-12.67
-18.04
-24.61
-32.6
-41.96
-52.2
-62.16
-70.19
-74.4
-73.32
-66.44
-54.33
-38.58
-21.19
-4.01
11.67
25.13
36.01
44.08
49.08
50.92
49.8
46.42
41.82
37.09
33.02
29.82
27.12
24.25
20.63
16.04
10.75
5.3
0.29
-4.05
-7.92
-11.86
-16.66
-22.93
-31.05
-40.83
-51.51
-61.77
-69.86
-73.99
-72.79
-65.77
-53.46
-37.33
-19.28
-1.09
15.84
30.66
42.88
52.17
58.27
61.15
61.06
58.68
54.95
50.79
46.85
43.28
39.87
36.18
31.91
26.99
21.65
16.22
11
6.09
1.4
-3.32
-8.44
-14.41
-21.71
-30.75
-41.53
-53.4
-64.85
-73.77
-77.99
-76.03
-67.62
-53.81
-36.56
-18.07
-0.11
16.23
30.41
42.2
51.32
57.42
60.26
59.94
57.08
52.67
47.82
43.38
39.7
36.6
33.58
30.11
25.91
21.07
15.93
10.92
6.27
1.97
-2.28
-6.9
-12.27
-18.73
-26.47
-35.58
-45.88
-56.77
-67.06
-75.07
-79
-77.38
-69.7
-56.58
-39.57
-20.74
-2
15.19
30.05
42.15
51.34
57.49
60.59
60.89
58.95
55.58
51.68
47.99
44.87
42.29
39.85
37.05
33.52
29.15
24.22
19.17
14.43
10.19
6.3
2.35
-2.18
-7.76
-14.77
-23.35
-33.45
-44.55
-55.62
-65.12
-71.22
-72.33
-67.6
-57.29
-42.62
-25.4
-7.54
9.44
24.51
37.06
46.71
53.23
56.53
56.88
54.91
51.5
47.57
43.76
40.34
37.13
33.79
30
25.6
20.69
15.45
10.13
4.94
0.01
-4.6
-8.98
-13.34
-18.14
-23.93
-31.2
-40.08
-50.11
-60.11
-68.36
-73.01
-72.63
-66.64
-55.49
-40.53
-23.52
-6.21
10.11
24.57
36.65
45.95
52.11
54.98
54.75
52.09
48.02
43.61
39.67
36.47
33.78
31.05
27.75
23.61
18.73
13.5
8.37
3.7
-0.48
-4.4
-8.5
-13.32
-19.34
-26.9
-36.06
-46.47
-57.15
-66.57
-72.82
-74.2
-69.74
-59.6
-45.08
-28.17
-10.9
5.23
19.38
31.29
40.87
47.94
52.25
53.63
52.26
48.74
44.04
39.15
34.8
31.21
28.1
24.89
21.02
16.29
10.93
5.55
0.79
-3.07
-6.19
-9.22
-13
-18.24
-25.33
-34.21
-44.34
-54.7
-63.85
-70.11
-71.97
-68.43
-59.46
-45.96
-29.56
-12.09
4.87
20.21
33.28
43.65
51.03
55.19
56.2
54.47
50.81
46.23
41.6
37.49
34
30.93
27.84
24.44
20.55
16.23
11.7
7.21
2.92
-1.18
-5.27
-9.7
-14.87
-21.15
-28.89
-38.13
-48.51
-59.06
-68.25
-74.25
-75.44
-71.01
-61.18
-47.27
-31.11
-14.5
1.29
15.55
27.93
38.11
45.61
49.97
51.02
49.21
45.5
41.15
37.15
33.9
31.18
28.33
24.8
20.35
15.27
10.1
5.39
1.38
-2.1
-5.44
-9.15
-13.61
-19.06
-25.63
-33.39
-42.32
-52.01
-61.61
-69.71
-74.61
-74.76
-69.33
-58.55
-43.67
-26.56
-9.12
7.15
21.37
33.12
42.17
48.3
51.36
51.38
48.78
44.38
39.24
34.34
30.24
26.99
24.14
21.08
17.28
12.6
7.31
1.94
-2.94
-7.02
-10.37
-13.44
-16.87
-21.28
-27.15
-34.62
-43.46
-52.88
-61.6
-68.06
-70.69
-68.4
-60.91
-48.89
-33.76
-17.23
-0.96
13.83
26.3
35.98
42.54
45.82
45.96
43.5
39.31
34.42
29.71
25.6
22.04
18.58
14.75
10.31
5.4
0.44
-4.16
-8.08
-11.41
-14.47
-17.78
-21.9
-27.33
-34.4
-43.1
-52.94
-62.83
-71.14
-76.03
-75.99
-70.35
-59.48
-44.71
-27.83
-10.64
5.49
19.64
31.23
39.89
45.28
47.34
46.34
43.01
38.39
33.56
29.26
25.75
22.77
19.75
16.21
11.94
7.1
2.14
-2.53
-6.72
-10.58
-14.57
-19.28
-25.28
-32.91
-42.1
-52.2
-61.95
-69.7
-73.74
-72.84
-66.64
-55.71
-41.4
-25.28
-8.8
6.92
21.08
32.99
42.05
47.76
50.01
49.18
46.16
42.04
37.77
33.89
30.38
26.92
23.07
18.62
13.65
8.51
3.6
-0.82
-4.79
-8.61
-12.8
-17.91
-24.37
-32.41
-41.93
-52.35
-62.55
-70.96
-75.84
-75.72
-69.86
-58.53
-42.97
-25.01
-6.54
10.88
26.3
39.14
49.12
55.98
59.55
59.95
57.67
53.62
48.9
44.46
40.75
37.67
34.65
31.06
26.52
21.05
15.11
9.25
3.94
-0.76
-5.14
-9.8
-15.47
-22.72
-31.88
-42.7
-54.27
-65.05
-73.07
-76.45
-73.93
-65.27
-51.34
-33.79
-14.56
4.7
22.7
38.63
51.86
61.84
68.17
70.73
69.87
66.42
61.52
56.21
51.31
47.06
43.28
39.55
35.48
30.87
25.75
20.38
14.98
9.75
4.64
-0.54
-6.07
-12.35
-19.74
-28.55
-38.78
-49.99
-61.01
-70.09
-75.21
-74.71
-67.85
-55.1
-37.97
-18.49
1.33
19.98
36.45
50.1
60.41
66.94
69.51
68.42
64.57
59.25
53.78
49.06
45.3
42.12
38.8
34.74
29.72
24.02
18.17
12.72
7.93
3.64
-0.62
-5.52
-11.67
-19.52
-29.2
-40.44
-52.49
-64.02
-73.36
-78.71
-78.66
-72.58
-60.8
-44.53
-25.51
-5.56
13.69
30.95
45.23
55.82
62.32
64.77
63.72
60.17
55.29
50.21
45.58
41.6
37.95
34.13
29.71
24.5
18.66
12.58
6.75
1.44
-3.32
-7.85
-12.75
-18.69
-26.26
-35.68
-46.57
-57.8
-67.61
-73.93
-74.94
-69.68
-58.31
-42.14
-23.13
-3.35
15.56
32.46
46.68
57.74
65.26
69.04
69.19
66.32
61.45
55.8
50.35
45.59
41.46
37.41
32.86
27.43
21.24
14.72
8.47
2.93
-1.83
-6.12
-10.47
-15.5
-21.75
-29.62
-39.23
-50.21
-61.57
-71.65
-78.39
-79.85
-74.85
-63.4
-46.75
-26.96
-6.32
13.23
30.42
44.61
55.56
63.22
67.6
68.79
67.12
63.17
57.78
51.82
46.05
40.88
36.26
31.91
27.4
22.44
17.02
11.39
5.91
0.9
-3.56
-7.67
-11.86
-16.67
-22.63
-30.17
-39.31
-49.67
-60.25
-69.51
-75.68
-77.16
-73.07
-63.43
-49.25
-32.12
-13.81
4.14
20.59
34.74
46.06
54.16
58.86
60.23
58.72
55.15
50.48
45.67
41.3
37.58
34.29
31.04
27.43
23.24
18.46
13.26
7.89
2.56
-2.58
-7.56
-12.51
-17.7
-23.5
-30.37
-38.67
-48.43
-59.08
-69.34
-77.35
-81.21
-79.51
-71.92
-59.22
-43.1
-25.45
-7.97
8.24
22.57
34.59
43.88
50.04
52.86
52.59
49.98
46.11
41.98
38.3
35.27
32.68
30.09
27.16
23.65
19.65
15.33
10.95
6.79
2.9
-0.82
-4.7
-9.19
-14.77
-21.79
-30.32
-40.03
-50.08
-59.16
-65.65
-67.99
-65.12
-56.89
-44.16
-28.57
-12.08
3.6
17.31
28.47
36.83
42.27
44.74
44.37
41.62
37.33
32.53
28.11
24.6
21.93
19.63
17.08
13.8
9.68
4.99
0.25
-4.12
-7.91
-11.31
-14.79
-18.96
-24.38
-31.37
-39.98
-49.77
-59.83
-68.78
-74.96
-76.87
-73.57
-65.06
-52.21
-36.55
-19.8
-3.41
11.54
24.33
34.43
41.48
45.24
45.87
43.93
40.28
35.88
31.47
27.41
23.64
19.87
15.79
11.32
6.65
2.11
-1.92
-5.34
-8.31
-11.33
-15.02
-20
-26.66
-35.06
-44.74
-54.68
-63.39
-69.18
-70.58
-66.75
-57.76
-44.6
-28.82
-12.18
3.81
18.03
29.76
38.56
44.21
46.72
46.35
43.73
39.71
35.18
30.85
27.07
23.76
20.55
17
12.84
8.11
3.1
-1.79
-6.28
-10.35
-14.34
-18.85
-24.54
-31.9
-40.97
-51.19
-61.35
-69.71
-74.5
-74.31
-68.62
-57.91
-43.48
-27.01
-10.09
6.12
20.8
33.33
43.15
49.71
52.74
52.44
49.58
45.3
40.72
36.59
33.05
29.75
26.08
21.65
16.37
10.62
4.94
-0.18
-4.61
-8.55
-12.47
-16.93
-22.42
-29.26
-37.6
-47.2
-57.39
-66.83
-73.78
-76.35
-73.18
-63.94
-49.51
-31.73
-12.79
5.38
21.54
35.04
45.62
53.07
57.22
58.04
55.95
51.83
46.86
42.13
38.21
35.08
32.21
28.96
24.95
20.17
14.98
9.79
4.84
0.08
-4.78
-10.16
-16.53
-24.22
-33.43
-43.98
-55.2
-65.85
-74.22
-78.53
-77.44
-70.52
-58.37
-42.4
-24.33
-5.81
11.89
27.8
41.07
50.98
56.95
58.87
57.26
53.18
48.02
42.96
38.66
35.12
31.87
28.32
24.15
19.39
14.44
9.73
5.53
1.77
-1.93
-6.04
-11.1
-17.46
-25.33
-34.71
-45.21
-55.97
-65.55
-72.16
-74.07
-70.09
-60.04
-44.79
-26.09
-5.97
13.64
31.27
45.97
57.18
64.66
68.37
68.61
65.93
61.17
55.16
48.67
42.11
35.61
29.05
22.33
15.42
8.45
1.74
-4.43
-9.86
-14.56
-18.83
-23.27
-28.65
-35.64
-44.52
-54.84
-65.31
-73.99
-78.76
-78.02
-71.13
-58.6
-41.86
-22.79
-3.17
15.56
32.35
46.43
57.12
63.96
66.73
65.79
62.02
56.65
50.9
45.57
40.9
36.53
31.91
26.66
20.84
14.91
9.48
4.96
1.27
-2.11
-6.02
-11.23
-18.31
-27.39
-38.15
-49.72
-60.64
-69.13
-73.3
-71.79
-64.11
-50.85
-33.49
-13.96
5.88
24.62
41.29
55.24
65.94
72.97
76.12
75.55
71.94
66.31
59.77
53.22
47.15
41.57
36.2
30.77
25.08
19.23
13.41
7.92
2.85
-1.89
-6.6
-11.79
-18
-25.73
-35.22
-46.28
-58.03
-68.98
-77.16
-80.67
-78.24
-69.57
-55.47
-37.56
-17.74
2.24
21.07
37.81
51.8
62.39
69.11
71.76
70.67
66.69
61.01
54.88
49.16
44.24
39.94
35.84
31.53
26.78
21.65
16.36
11.21
6.4
1.98
-2.19
-6.39
-11.05
-16.68
-23.72
-32.49
-42.78
-53.79
-63.99
-71.45
-74.26
-71.15
-61.95
-47.6
-29.89
-10.93
7.41
23.84
37.64
48.5
56.31
60.95
62.42
60.92
56.98
51.47
45.39
39.69
34.91
31.09
27.82
24.52
20.67
16.13
11.1
6.02
1.31
-2.89
-6.75
-10.76
-15.52
-21.62
-29.4
-38.91
-49.65
-60.53
-70
-76.25
-77.76
-73.67
-64.07
-49.97
-32.95
-14.82
2.81
18.66
31.79
41.59
47.8
50.45
49.97
47.12
42.87
38.15
33.65
29.71
26.31
23.19
20
16.51
12.68
8.61
4.55
0.77
-2.61
-5.63
-8.65
-12.26
-17.19
-24.06
-33.08
-43.73
-54.71
-64.08
-69.78
-70.2
-64.71
-53.79
-38.87
-21.82
-4.44
11.87
26.19
38.01
46.94
52.7
55.16
54.52
51.37
46.66
41.45
36.58
32.42
28.82
25.29
21.3
16.59
11.28
5.81
0.7
-3.74
-7.54
-11.14
-15.16
-20.27
-26.94
-35.26
-44.79
-54.48
-62.84
-68.15
-68.96
-64.48
-54.87
-41.15
-24.89
-7.77
8.81
23.74
36.27
45.82
52.07
54.93
54.72
52.13
48.09
43.51
39.03
34.93
31.11
27.27
23.07
18.32
13.08
7.58
2.18
-2.84
-7.34
-11.45
-15.52
-20.08
-25.68
-32.75
-41.37
-50.98
-60.41
-67.91
-71.6
-70.08
-62.87
-50.66
-35
-17.85
-0.9
14.66
28.2
39.35
47.75
53.08
55.1
54
50.44
45.48
40.21
35.45
31.5
28.1
24.72
20.82
16.18
10.98
5.65
0.67
-3.71
-7.54
-11.18
-15.09
-19.76
-25.55
-32.69
-41.14
-50.45
-59.66
-67.3
-71.7
-71.44
-65.89
-55.39
-41.13
-24.83
-8.18
7.5
21.31
32.69
41.3
46.9
49.47
49.28
46.88
43.1
38.78
34.6
30.91
27.7
24.67
21.44
17.77
13.65
9.33
5.16
1.46
-1.69
-4.54
-7.53
-11.24
-16.15
-22.56
-30.5
-39.58
-48.96
-57.33
-63.15
-64.97
-61.9
-53.87
-41.74
-27.03
-11.43
3.49
16.63
27.28
35.04
39.67
41.18
39.82
36.26
31.46
26.53
22.29
19.03
16.55
14.2
11.42
7.9
3.79
-0.43
-4.3
-7.51
-10.13
-12.53
-15.32
-19.08
-24.32
-31.23
-39.53
-48.41
-56.44
-61.93
-63.3
-59.67
-51.06
-38.41
-23.29
-7.34
8.01
21.73
33.11
41.69
47.15
49.45
48.88
46.12
42.12
37.79
33.8
30.32
27.2
24.06
20.51
16.41
11.77
6.79
1.67
-3.41
-8.43
-13.49
-18.91
-25.11
-32.51
-41.25
-50.91
-60.34
-67.79
-71.4
-69.81
-62.66
-50.75
-35.68
-19.36
-3.34
11.37
24.25
34.98
43.15
48.31
50.1
48.68
44.76
39.52
34.2
29.63
26.03
23
19.89
16.12
11.54
6.42
1.37
-3.03
-6.5
-9.17
-11.56
-14.42
-18.48
-24.24
-31.8
-40.71
-49.99
-58.17
-63.55
-64.67
-60.68
-51.69
-38.65
-23.15
-6.89
8.71
22.63
34.29
43.3
49.41
52.52
52.75
50.58
46.78
42.25
37.77
33.83
30.46
27.36
24.09
20.23
15.7
10.73
5.82
1.48
-2.01
-4.75
-7.25
-10.24
-14.48
-20.51
-28.51
-38.05
-48.13
-57.17
-63.32
-64.93
-61.05
-51.8
-38.27
-22.3
-5.81
9.64
23.06
33.99
42.21
47.62
50.11
49.78
47.01
42.57
37.46
32.64
28.74
25.86
23.66
21.52
18.91
15.59
11.7
7.62
3.76
0.31
-2.84
-6.02
-9.71
-14.35
-20.27
-27.62
-36.29
-45.79
-55.08
-62.7
-66.97
-66.5
-60.61
-49.66
-34.99
-18.46
-1.98
13
25.6
35.43
42.4
46.52
47.87
46.66
43.46
39.06
34.38
30.22
27.01
24.71
22.89
20.96
18.45
15.25
11.56
7.88
4.62
1.96
-0.35
-2.89
-6.32
-11.26
-17.97
-26.36
-35.87
-45.54
-54.1
-60.12
-62.32
-59.85
-52.61
-41.21
-26.9
-11.26
4.22
18.22
29.85
38.5
43.96
46.28
45.84
43.25
39.27
34.66
30.05
25.84
22.19
19.03
16.16
13.33
10.33
7.08
3.63
0.13
-3.27
-6.53
-9.81
-13.5
-18.16
-24.33
-32.33
-41.89
-52.1
-61.36
-67.79
-69.73
-66.22
-57.4
-44.34
-28.77
-12.49
3.01
16.73
28.1
36.75
42.44
45.01
44.58
41.69
37.28
32.46
28.21
24.99
22.67
20.68
18.22
14.8
10.34
5.27
0.26
-4.15
-7.79
-11.04
-14.61
-19.36
-25.85
-34.19
-43.83
-53.6
-61.95
-67.19
-67.98
-63.61
-54.29
-41
-25.3
-8.89
6.75
20.5
31.65
39.82
44.84
46.8
46.1
43.4
39.56
35.4
31.51
28.07
24.9
21.62
17.85
13.47
8.67
3.86
-0.54
-4.37
-7.85
-11.51
-16.07
-22.14
-30.02
-39.49
-49.72
-59.33
-66.57
-69.79
-67.83
-60.45
-48.38
-33.18
-16.69
-0.62
13.79
25.81
35.11
41.55
45.05
45.79
44.16
40.89
36.82
32.71
28.97
25.67
22.54
19.25
15.63
11.66
7.61
3.74
0.25
-2.89
-6.05
-9.77
-14.78
-21.62
-30.42
-40.58
-50.77
-59.12
-63.71
-63.17
-57.06
-46.02
-31.44
-15.11
1.37
16.68
29.94
40.51
47.92
51.95
52.59
50.35
46.04
40.73
35.36
30.51
26.27
22.35
18.34
13.98
9.36
4.84
0.8
-2.54
-5.36
-8.2
-11.77
-16.75
-23.58
-32.23
-42.13
-52.15
-60.68
-66.02
-66.66
-61.84
-51.68
-37.24
-20.18
-2.33
14.62
29.42
41.18
49.42
53.97
55.07
53.27
49.45
44.63
39.67
35.09
30.99
27.13
23.13
18.78
14.07
9.23
4.55
0.19
-3.9
-8.05
-12.71
-18.42
-25.62
-34.47
-44.72
-55.41
-64.95
-71.34
-72.73
-68
-57.18
-41.51
-22.97
-3.75
14.32
29.96
42.49
51.55
56.97
58.83
57.49
53.71
48.52
43
37.93
33.6
29.82
26.07
21.89
17.08
11.82
6.56
1.77
-2.35
-6.05
-10.01
-15.19
-22.39
-31.88
-43
-54.22
-63.37
-68.25
-67.31
-60.09
-47.38
-30.77
-12.22
6.53
24.16
39.77
52.63
62.06
67.54
68.94
66.77
62.14
56.49
51.04
46.38
42.39
38.44
33.84
28.26
21.89
15.32
9.19
3.85
-0.84
-5.38
-10.53
-17
-25.24
-35.25
-46.41
-57.45
-66.54
-71.71
-71.31
-64.59
-51.93
-34.76
-15.11
4.98
23.84
40.39
53.97
64.19
70.76
73.58
72.89
69.32
63.9
57.71
51.69
46.35
41.66
37.24
32.56
27.25
21.23
14.77
8.34
2.43
-2.71
-7.2
-11.51
-16.41
-22.67
-30.91
-41.22
-52.99
-64.8
-74.62
-80.23
-79.81
-72.59
-59.03
-40.79
-20.09
0.86
20.35
37.36
51.36
62.05
69.17
72.58
72.41
69.25
64.07
58.03
52.1
46.81
42.25
38.11
34.03
29.7
25.03
20.09
15.04
10.04
5.12
0.22
-4.89
-10.5
-17.02
-24.83
-34.15
-44.85
-56.19
-66.81
-74.87
-78.5
-76.31
-67.9
-53.97
-36.13
-16.46
3.08
21.01
36.38
48.66
57.52
62.76
64.32
62.57
58.28
52.64
46.84
41.86
38.01
35.06
32.32
29.08
24.97
19.98
14.55
9.18
4.31
0.04
-3.88
-7.92
-12.69
-18.74
-26.43
-35.71
-45.98
-56.03
-64.2
-68.76
-68.34
-62.46
-51.56
-36.96
-20.39
-3.51
12.4
26.44
37.98
46.49
51.52
52.89
50.87
46.35
40.57
34.8
29.88
26.01
22.79
19.51
15.65
11.09
6.12
1.28
-3.06
-6.76
-10.14
-13.71
-18.04
-23.57
-30.57
-38.99
-48.37
-57.81
-65.94
-71.11
-71.79
-67.03
-56.85
-42.25
-24.95
-6.93
10.04
24.72
36.33
44.56
49.36
50.88
49.51
45.9
40.91
35.39
30.08
25.31
21.03
16.92
12.6
7.9
2.91
-1.96
-6.31
-9.86
-12.82
-15.78
-19.58
-25.04
-32.58
-41.95
-52.22
-61.82
-68.91
-71.84
-69.59
-62.06
-50.11
-35.23
-19.17
-3.38
11.13
23.78
34.18
41.89
46.52
47.74
45.67
40.88
34.48
27.86
22.39
19.12
18.42
19.98
22.77
25.52
27.04
26.73
24.66
21.44
17.83
14.3
10.89
7.35
3.41
-0.91
-5.28
-9.25
-12.56
-15.28
-17.86
-20.82
-24.67
-29.72
-36.13
-43.86
-52.67
-61.99
-70.73
-77.44
-80.49
-78.6
-71.22
-58.78
-42.55
-24.29
-5.83
11.31
26.04
37.68
45.85
50.48
51.77
50.19
46.54
41.68
36.52
31.65
27.31
23.37
19.44
15.22
10.56
5.67
0.88
-3.46
-7.3
-10.87
-14.69
-19.35
-25.34
-32.87
-41.78
-51.5
-60.98
-68.77
-73.27
-73.07
-67.47
-56.69
-41.95
-24.99
-7.65
8.62
22.93
34.77
43.79
49.62
52.04
51.18
47.76
42.93
37.96
33.74
30.43
27.6
24.48
20.5
15.59
10.2
5.02
0.59
-2.97
-6.02
-9.24
-13.39
-19.04
-26.5
-35.69
-46.09
-56.71
-66.12
-72.62
-74.63
-71.16
-62.12
-48.35
-31.46
-13.26
4.55
20.67
34.18
44.45
51.05
53.86
53.16
49.7
44.6
39.06
34
29.85
26.53
23.62
20.54
16.93
12.62
7.72
2.53
-2.65
-7.62
-12.37
-17.18
-22.57
-29.15
-37.41
-47.33
-58.19
-68.46
-76.18
-79.38
-76.76
-68.04
-54.05
-36.44
-17.13
2.06
19.71
34.82
46.63
54.66
58.67
58.88
55.97
51.05
45.38
39.93
35.18
31.06
27.05
22.63
17.58
12.12
6.79
2.12
-1.73
-5.05
-8.62
-13.33
-19.98
-28.88
-39.78
-51.72
-63.1
-71.99
-76.46
-75.13
-67.52
-54.28
-36.92
-17.39
2.35
20.74
36.58
49.09
57.73
62.3
63.04
60.65
56.19
50.73
45.12
39.75
34.6
29.45
24.17
18.81
13.62
8.86
4.61
0.68
-3.31
-7.87
-13.52
-20.66
-29.48
-39.74
-50.63
-60.66
-67.89
-70.37
-66.77
-56.85
-41.55
-22.7
-2.49
17.11
34.61
49.09
60.02
67.12
70.4
70.19
67.19
62.35
56.64
50.78
45.11
39.62
34.12
28.48
22.73
17.11
11.89
7.23
3.02
-1.11
-5.77
-11.64
-19.31
-29.04
-40.51
-52.7
-63.84
-71.77
-74.48
-70.7
-60.4
-44.67
-25.52
-5.1
14.66
32.44
47.36
58.85
66.45
69.89
69.31
65.42
59.44
52.79
46.61
41.44
37
32.61
27.52
21.48
14.74
7.99
1.95
-3.08
-7.29
-11.33
-15.97
-21.95
-29.69
-39.24
-50.15
-61.36
-71.24
-77.78
-79.13
-74.19
-63.01
-46.77
-27.4
-7.02
12.65
30.39
45.4
57.08
64.96
68.78
68.72
65.5
60.3
54.39
48.71
43.67
39.15
34.7
29.91
24.63
19.01
13.43
8.24
3.57
-0.7
-4.94
-9.69
-15.52
-22.93
-32.15
-42.92
-54.28
-64.57
-71.77
-74
-70.11
-60.14
-45.23
-27.27
-8.3
9.95
26.23
39.79
50.1
56.83
59.85
59.37
56.07
50.96
45.16
39.58
34.68
30.41
26.34
22.01
17.1
11.67
5.99
0.47
-4.61
-9.26
-13.76
-18.7
-24.67
-32.1
-40.98
-50.7
-60.08
-67.47
-71.2
-69.98
-63.31
-51.59
-36.02
-18.18
0.27
17.88
33.47
46.12
55.18
60.29
61.6
59.77
55.88
51.06
46.19
41.69
37.44
33.14
28.46
23.38
18.12
13.03
8.38
4.16
0.11
-4.21
-9.28
-15.49
-23.09
-32.05
-41.94
-51.83
-60.27
-65.57
-66.24
-61.41
-51.22
-36.76
-19.77
-2.16
14.5
29.11
41.07
50.01
55.73
58.19
57.59
54.56
49.97
44.81
39.8
35.23
30.94
26.61
21.96
16.95
11.8
6.84
2.33
-1.71
-5.48
-9.4
-14.06
-20.04
-27.82
-37.45
-48.34
-59.12
-67.88
-72.53
-71.54
-64.41
-51.87
-35.64
-17.78
-0.19
15.91
29.85
41.36
50.17
55.92
58.33
57.41
53.75
48.44
42.74
37.66
33.61
30.38
27.35
23.9
19.67
14.76
9.58
4.57
0.03
-4.11
-8.13
-12.49
-17.64
-23.91
-31.5
-40.29
-49.8
-59.03
-66.59
-70.86
-70.45
-64.62
-53.63
-38.64
-21.39
-3.8
12.58
26.72
38.13
46.67
52.39
55.39
55.84
54.04
50.44
45.66
40.38
35.25
30.68
26.87
23.67
20.74
17.67
14.12
10.01
5.47
0.86
-3.5
-7.48
-11.24
-15.18
-19.8
-25.59
-32.77
-41.26
-50.58
-59.72
-67.33
-71.8
-71.78
-66.52
-56.27
-42.16
-25.93
-9.4
5.96
19.23
30
38.09
43.48
46.22
46.5
44.71
41.42
37.31
32.97
28.86
25.16
21.86
18.78
15.66
12.27
8.53
4.55
0.58
-3.08
-6.35
-9.38
-12.58
-16.55
-21.8
-28.67
-37.09
-46.59
-56.16
-64.41
-69.74
-70.73
-66.59
-57.43
-44.25
-28.68
-12.49
2.83
16.31
27.4
35.82
41.44
44.2
44.29
42.17
38.63
34.53
30.61
27.24
24.38
21.67
18.69
15.17
11.12
6.81
2.63
-1.1
-4.31
-7.17
-10.1
-13.54
-17.98
-23.75
-30.94
-39.31
-48.1
-56.12
-61.82
-63.71
-60.78
-52.87
-40.8
-26.07
-10.41
4.64
18.04
29.23
37.94
43.99
47.22
47.64
45.56
41.58
36.64
31.63
27.22
23.67
20.83
18.29
15.55
12.32
8.51
4.37
0.25
-3.49
-6.75
-9.74
-12.89
-16.81
-21.99
-28.67
-36.73
-45.62
-54.34
-61.58
-65.94
-66.2
-61.73
-52.65
-39.93
-25.05
-9.65
4.85
17.53
27.82
35.55
40.58
42.94
42.8
40.58
37.01
32.9
29.02
25.79
23.3
21.25
19.25
17
14.34
11.33
8.07
4.65
1.05
-2.76
-6.8
-11.1
-15.67
-20.7
-26.44
-33.11
-40.67
-48.54
-55.56
-60.22
-61.08
-57.23
-48.66
-36.23
-21.48
-6.1
8.37
20.86
30.72
37.65
41.61
42.69
41.25
37.89
33.43
28.73
24.47
20.98
18.14
15.61
12.94
9.84
6.32
2.63
-0.91
-4.09
-6.94
-9.74
-12.85
-16.65
-21.37
-27.11
-33.85
-41.39
-49.28
-56.68
-62.4
-65.04
-63.48
-57.23
-46.72
-33.18
-18.24
-3.5
9.87
21.07
29.69
35.47
38.29
38.34
36.12
32.52
28.52
24.92
22.05
19.77
17.63
15.12
11.97
8.2
4.11
0.07
-3.64
-6.97
-10.07
-13.27
-17.04
-21.84
-28.03
-35.73
-44.58
-53.67
-61.53
-66.52
-67.18
-62.78
-53.53
-40.56
-25.48
-9.96
4.65
17.44
27.78
35.29
39.71
41.02
39.58
36.17
31.76
27.22
23.02
19.14
15.29
11.1
6.48
1.62
-3.09
-7.3
-10.88
-13.97
-16.97
-20.36
-24.64
-30.22
-37.29
-45.68
-54.66
-62.97
-68.89
-70.83
-67.65
-59.22
-46.38
-30.7
-14.05
1.92
16.01
27.51
36.06
41.51
43.89
43.47
40.84
36.8
32.25
27.88
24.02
20.61
17.36
13.97
10.27
6.34
2.37
-1.43
-5
-8.49
-12.32
-17.04
-23.17
-30.98
-40.21
-49.95
-58.64
-64.44
-65.71
-61.56
-52.15
-38.59
-22.62
-5.95
9.95
24.09
35.81
44.63
50.25
52.57
51.9
48.9
44.52
39.63
34.88
30.46
26.24
21.91
17.29
12.41
7.51
2.95
-1.07
-4.62
-8.1
-12.23
-17.72
-25.09
-34.34
-44.76
-54.93
-62.99
-67.05
-65.74
-58.66
-46.43
-30.53
-12.83
4.91
21.32
35.47
46.74
54.79
59.43
60.81
59.43
56.1
51.73
47.05
42.49
38.09
33.75
29.3
24.71
20.08
15.56
11.25
7.13
3.02
-1.39
-6.51
-12.76
-20.47
-29.64
-39.81
-49.9
-58.36
-63.43
-63.68
-58.43
-47.93
-33.3
-16.21
1.54
18.37
33.01
44.59
52.56
56.79
57.54
55.49
51.57
46.76
41.82
37.09
32.62
28.22
23.77
19.26
14.81
10.64
6.85
3.39
-0.02
-3.79
-8.4
-14.33
-21.91
-31.16
-41.49
-51.65
-59.81
-63.98
-62.6
-55.1
-42.09
-25.15
-6.38
12.2
29.03
43.04
53.61
60.43
63.44
62.91
59.56
54.37
48.43
42.59
37.31
32.62
28.2
23.72
18.95
13.86
8.6
3.41
-1.58
-6.39
-11.29
-16.82
-23.54
-31.84
-41.5
-51.49
-60.01
-64.94
-64.5
-57.9
-45.65
-29.33
-11.08
7.15
23.89
38.33
50.02
58.63
63.92
65.77
64.49
60.76
55.58
49.95
44.51
39.47
34.64
29.68
24.35
18.7
13.06
7.83
3.27
-0.72
-4.66
-9.36
-15.64
-23.95
-34.05
-44.87
-54.66
-61.32
-63.07
-58.92
-48.98
-34.37
-16.92
1.38
18.8
34.06
46.34
55.14
60.29
61.89
60.43
56.76
51.89
46.73
41.83
37.27
32.83
28.22
23.33
18.29
13.39
8.88
4.81
0.93
-3.19
-8.11
-14.34
-22.18
-31.51
-41.65
-51.32
-58.86
-62.57
-61.18
-54.3
-42.46
-27.06
-9.9
7.15
22.52
35.13
44.38
50.13
52.56
52.18
49.7
45.88
41.45
36.9
32.51
28.26
24.02
19.67
15.13
10.52
6.01
1.79
-2.09
-5.79
-9.65
-14.19
-19.94
-27.23
-35.93
-45.23
-53.66
-59.35
-60.55
-56.2
-46.38
-32.29
-15.9
0.65
15.66
28.15
37.78
44.5
48.34
49.31
47.58
43.62
38.31
32.65
27.47
23.12
19.41
15.88
12.06
7.81
3.34
-0.96
-4.75
-8.02
-11.12
-14.72
-19.58
-26.28
-34.89
-44.8
-54.69
-62.67
-66.86
-65.8
-59.07
-47.33
-32.15
-15.51
0.74
15.25
27.25
36.36
42.48
45.59
45.87
43.79
40.1
35.7
31.29
27.24
23.47
19.69
15.64
11.33
7.03
3.09
-0.32
-3.31
-6.32
-9.93
-14.71
-21.05
-28.97
-37.98
-47.08
-54.77
-59.45
-59.73
-54.97
-45.4
-32.09
-16.62
-0.63
14.43
27.43
37.58
44.48
48.05
48.6
46.82
43.61
39.8
35.96
32.28
28.63
24.74
20.41
15.63
10.66
5.85
1.48
-2.38
-5.96
-9.75
-14.31
-20.15
-27.49
-36.09
-45.17
-53.42
-59.23
-61.09
-58.06
-50.01
-37.76
-22.76
-6.73
8.74
22.48
33.68
41.87
46.77
48.44
47.21
43.81
39.23
34.45
30.18
26.67
23.76
21
18.01
14.61
10.87
7.09
3.52
0.27
-2.85
-6.22
-10.41
-15.91
-23.1
-31.94
-41.86
-51.67
-59.66
-64.02
-63.36
-57.23
-46.32
-32.17
-16.71
-1.59
12.11
23.86
33.43
40.55
44.95
46.39
45.04
41.55
36.89
32.09
27.84
24.32
21.2
17.97
14.2
9.8
5.08
0.55
-3.33
-6.45
-9.11
-11.95
-15.67
-20.8
-27.51
-35.55
-44.3
-52.75
-59.68
-63.75
-63.82
-59.16
-49.87
-36.81
-21.48
-5.65
9.16
21.8
31.67
38.53
42.32
43.16
41.44
37.83
33.25
28.71
24.92
22.16
20.18
18.45
16.42
13.78
10.55
6.93
3.23
-0.39
-3.89
-7.5
-11.51
-16.36
-22.49
-30.13
-39.15
-48.74
-57.52
-63.71
-65.7
-62.56
-54.34
-42.12
-27.51
-12.25
2.26
15.04
25.54
33.36
38.28
40.24
39.47
36.59
32.47
28.04
23.96
20.54
17.63
14.84
11.79
8.25
4.32
0.3
-3.44
-6.67
-9.48
-12.25
-15.59
-20.11
-26.26
-34.03
-42.84
-51.48
-58.29
-61.66
-60.35
-54.03
-43.26
-29.41
-14.13
1.06
15.05
27.18
37.02
44.26
48.63
50.09
48.93
45.83
41.76
37.6
33.92
30.71
27.61
24.12
19.95
15.22
10.32
5.75
1.74
-1.78
-5.26
-9.3
-14.52
-21.33
-29.78
-39.52
-49.57
-58.45
-64.41
-65.87
-61.91
-52.68
-39.28
-23.46
-7.03
8.58
22.46
34.1
43.19
49.42
52.55
52.63
50.13
45.89
40.95
36.19
32.11
28.67
25.48
22.03
17.93
13.16
7.97
2.83
-1.86
-5.98
-9.76
-13.79
-18.77
-25.33
-33.68
-43.44
-53.49
-62.19
-67.68
-68.41
-63.67
-53.76
-39.93
-23.93
-7.47
8.13
22.03
33.76
42.93
49.15
52.23
52.26
49.83
45.89
41.51
37.48
34.09
31.18
28.26
24.85
20.75
16.05
11.17
6.55
2.5
-1.02
-4.42
-8.34
-13.47
-20.33
-28.93
-38.73
-48.58
-56.85
-61.84
-62.17
-57.23
-47.39
-33.87
-18.37
-2.59
12.1
24.81
34.96
42.21
46.29
47.2
45.31
41.42
36.63
31.96
28.05
24.97
22.31
19.5
16.08
11.98
7.45
2.92
-1.31
-5.15
-8.88
-12.92
-17.74
-23.69
-30.89
-39.08
-47.55
-55.14
-60.35
-61.73
-58.26
-49.73
-36.95
-21.42
-4.96
10.8
24.67
35.93
44.27
49.53
51.75
51.15
48.26
43.86
38.85
33.95
29.56
25.63
21.84
17.83
13.4
8.65
3.92
-0.41
-4.14
-7.43
-10.8
-14.98
-20.65
-28.15
-37.21
-46.87
-55.57
-61.5
-63.06
-59.34
-50.46
-37.44
-21.92
-5.67
9.83
23.6
35.04
43.79
49.65
52.53
52.64
50.52
47.02
43.03
39.14
35.53
31.85
27.66
22.58
16.66
10.35
4.31
-0.95
-5.28
-9
-12.81
-17.5
-23.71
-31.68
-41.05
-50.82
-59.42
-65.12
-66.35
-62.32
-53.18
-40.05
-24.59
-8.55
6.63
20.03
31.08
39.45
44.89
47.38
47.18
44.88
41.34
37.35
33.43
29.68
25.92
21.84
17.28
12.36
7.34
2.6
-1.69
-5.55
-9.24
-13.1
-17.58
-23.06
-29.81
-37.83
-46.59
-55.01
-61.47
-64.28
-62.12
-54.6
-42.4
-27.06
-10.48
5.61
19.96
31.84
40.88
46.85
49.63
49.36
46.49
41.86
36.52
31.35
26.89
23.16
19.76
16.19
12.07
7.36
2.27
-2.78
-7.47
-11.75
-15.83
-20.13
-25.13
-31.14
-38.19
-45.89
-53.39
-59.46
-62.76
-62.19
-57.24
-48.14
-35.86
-21.76
-7.24
6.53
18.69
28.6
35.77
39.86
40.84
39.08
35.4
30.9
26.57
23.01
20.24
17.81
15.06
11.49
7.01
1.96
-3.09
-7.67
-11.63
-15.3
-19.32
-24.43
-31.15
-39.56
-49.15
-58.84
-67.14
-72.36
-73.07
-68.41
-58.39
-43.91
-26.49
-7.92
10.13
26.34
39.8
49.99
56.69
59.96
60.21
58.11
54.47
50.06
45.36
40.58
35.55
30.09
24.12
17.75
11.39
5.44
0.17
-4.46
-8.83
-13.56
-19.34
-26.71
-35.8
-46.12
-56.54
-65.33
-70.61
-70.78
-65.08
-53.87
-38.49
-20.9
-3.06
13.47
27.72
39.2
47.66
52.96
55.11
54.4
51.47
47.22
42.54
38.05
33.91
29.84
25.45
20.42
14.83
9.06
3.63
-1.1
-5.1
-8.76
-12.82
-18.07
-25.22
-34.46
-45.3
-56.46
-66.02
-71.87
-72.31
-66.64
-55.34
-39.9
-22.28
-4.39
12.4
27.18
39.44
48.8
54.89
57.58
57.07
54.05
49.53
44.54
39.81
35.52
31.4
27
22.03
16.56
11.02
5.94
1.62
-1.97
-5.36
-9.27
-14.42
-21.31
-30.06
-40.36
-51.32
-61.54
-69.2
-72.52
-70.19
-61.88
-48.33
-31.16
-12.35
6.29
23.36
37.97
49.59
57.93
62.88
64.58
63.53
60.44
56.13
51.26
46.23
41.08
35.73
30.07
24.15
18.23
12.6
7.59
3.24
-0.61
-4.41
-8.76
-14.31
-21.53
-30.54
-40.86
-51.32
-60.16
-65.41
-65.46
-59.6
-48.26
-32.9
-15.54
1.81
17.65
31
41.37
48.54
52.41
53.08
50.93
46.67
41.22
35.48
30.05
25.13
20.55
15.99
11.26
6.42
1.78
-2.31
-5.64
-8.39
-11.05
-14.39
-19.2
-26.01
-34.77
-44.73
-54.42
-61.9
-65.27
-63.16
-55.17
-41.99
-25.15
-6.59
11.78
28.42
42.17
52.31
58.46
60.64
59.34
55.48
50.21
44.63
39.46
34.91
30.73
26.44
21.69
16.44
10.96
5.69
0.98
-3.11
-6.87
-10.87
-15.84
-22.39
-30.78
-40.69
-51.05
-60.17
-66.07
-67.06
-62.23
-51.77
-36.9
-19.47
-1.42
15.64
30.54
42.55
51.16
56.14
57.51
55.78
51.82
46.7
41.38
36.36
31.68
26.99
21.93
16.37
10.51
4.79
-0.36
-4.79
-8.71
-12.65
-17.33
-23.39
-31.18
-40.57
-50.74
-60.28
-67.3
-69.97
-67
-58.09
-44.12
-26.79
-8.24
9.64
25.43
38.36
48.05
54.37
57.36
57.25
54.58
50.17
44.98
39.76
34.93
30.45
25.99
21.23
15.99
10.4
4.72
-0.68
-5.62
-10.11
-14.49
-19.35
-25.4
-33.16
-42.58
-52.78
-62.06
-68.31
-69.61
-64.96
-54.63
-39.97
-22.93
-5.37
11.25
26.02
38.35
47.75
53.79
56.3
55.62
52.57
48.35
44.01
40.16
36.75
33.3
29.28
24.44
19.02
13.59
8.77
4.84
1.62
-1.49
-5.29
-10.47
-17.44
-26.1
-35.87
-45.62
-53.78
-58.7
-58.97
-53.96
-43.99
-30.32
-14.75
0.88
15.07
26.9
35.82
41.66
44.41
44.35
42.09
38.45
34.28
30.12
26.14
22.13
17.81
13.04
8.03
3.16
-1.19
-4.85
-8.03
-11.19
-14.97
-19.88
-26.3
-34.23
-43.27
-52.55
-60.7
-66.11
-67.23
-63.08
-53.56
-39.58
-22.8
-5.16
11.52
25.99
37.48
45.7
50.6
52.35
51.32
48.13
43.59
38.49
33.43
28.65
24.17
19.8
15.44
11.09
6.81
2.68
-1.39
-5.65
-10.51
-16.42
-23.77
-32.7
-42.89
-53.48
-62.98
-69.61
-71.67
-68.13
-58.98
-45.26
-28.8
-11.58
4.64
18.72
29.99
38.15
43.1
44.94
44.01
40.96
36.7
32.06
27.67
23.69
19.95
16.17
12.1
7.77
3.37
-0.85
-4.83
-8.7
-12.85
-17.82
-24.11
-31.99
-41.18
-50.78
-59.16
-64.4
-64.75
-59.23
-48.07
-32.61
-14.94
2.73
18.63
31.65
41.34
47.63
50.67
50.69
48.14
43.66
38.08
32.21
26.64
21.61
16.96
12.4
7.68
2.76
-2.17
-6.81
-11.04
-15.02
-19.21
-24.34
-31.02
-39.46
-49.08
-58.53
-65.88
-69.15
-66.94
-58.89
-45.82
-29.43
-11.86
5
19.79
31.76
40.62
46.36
49.16
49.29
47.26
43.75
39.47
35.04
30.8
26.77
22.74
18.43
13.7
8.66
3.55
-1.32
-5.82
-10.18
-14.88
-20.65
-28.03
-37.16
-47.39
-57.28
-64.86
-68.1
-65.65
-57.22
-43.76
-27.1
-9.32
7.73
22.81
35.17
44.45
50.4
53
52.45
49.43
44.87
39.74
34.72
29.99
25.4
20.64
15.6
10.46
5.63
1.45
-2.03
-5.17
-8.61
-13.06
-19.08
-26.85
-36.13
-46.18
-55.75
-63.22
-66.89
-65.38
-58.1
-45.52
-29.04
-10.67
7.53
23.86
37.2
46.97
52.97
55.37
54.6
51.38
46.62
41.17
35.7
30.48
25.48
20.55
15.64
10.86
6.42
2.44
-1.22
-4.88
-9.01
-14
-20.1
-27.45
-36.02
-45.53
-55.24
-63.85
-69.56
-70.6
-65.77
-54.98
-39.35
-20.86
-1.69
16.32
31.92
44.47
53.64
59.27
61.4
60.33
56.78
51.72
46.16
40.84
36.1
31.87
27.84
23.71
19.3
14.65
9.9
5.17
0.41
-4.59
-10.31
-17.3
-25.93
-36.21
-47.39
-58.09
-66.38
-70.36
-68.71
-61.12
-48.34
-31.91
-13.68
4.68
21.86
36.84
48.83
57.17
61.53
62.04
59.48
55.02
49.96
45.24
41.14
37.37
33.31
28.49
22.83
16.74
10.78
5.47
0.95
-3.1
-7.3
-12.41
-19.06
-27.57
-37.68
-48.49
-58.45
-65.62
-68.18
-64.92
-55.73
-41.57
-24.28
-5.9
11.77
27.48
40.57
50.72
57.81
61.78
62.79
61.25
57.88
53.53
48.94
44.58
40.49
36.47
32.13
27.2
21.67
15.79
10
4.67
-0.03
-4.27
-8.53
-13.45
-19.71
-27.74
-37.61
-48.73
-59.86
-69.13
-74.47
-74.2
-67.59
-55.18
-38.61
-20.07
-1.62
15.3
29.97
42.09
51.5
57.95
61.19
61.27
58.69
54.38
49.46
44.89
41.13
38.01
34.97
31.3
26.58
20.81
14.47
8.21
2.58
-2.17
-6.27
-10.21
-14.65
-20.17
-27.18
-35.77
-45.65
-56.01
-65.45
-72.19
-74.42
-70.97
-61.68
-47.56
-30.44
-12.4
4.79
20.05
32.81
42.87
50.03
54.12
55.16
53.48
49.91
45.47
41.13
37.4
34.29
31.38
28.14
24.14
19.25
13.73
8.02
2.67
-1.96
-5.78
-9.14
-12.72
-17.36
-23.77
-32.24
-42.44
-53.33
-63.34
-70.68
-73.77
-71.64
-64.23
-52.33
-37.31
-20.74
-4.04
11.62
25.33
36.35
44.06
48.15
48.72
46.46
42.48
37.98
33.94
30.76
28.31
26.05
23.41
20.03
15.93
11.43
6.93
2.74
-1.12
-4.89
-9.03
-13.98
-20.11
-27.64
-36.49
-46.16
-55.64
-63.43
-67.81
-67.35
-61.38
-50.26
-35.3
-18.34
-1.22
14.62
28.23
39.11
47.04
51.89
53.71
52.74
49.5
44.74
39.36
34.11
29.51
25.65
22.21
18.73
14.76
10.15
5.1
0.07
-4.54
-8.58
-12.32
-16.4
-21.56
-28.45
-37.3
-47.74
-58.73
-68.63
-75.53
-77.72
-74.25
-65.21
-51.7
-35.46
-18.32
-1.77
13.24
26.12
36.52
44.11
48.64
50.1
48.84
45.63
41.39
37.05
33.16
29.88
26.94
23.93
20.45
16.34
11.74
6.96
2.36
-1.88
-5.79
-9.68
-13.91
-18.93
-25.11
-32.7
-41.71
-51.67
-61.55
-69.71
-74.32
-73.84
-67.62
-56.2
-41.08
-24.3
-7.7
7.46
20.6
31.52
40.12
46.16
49.37
49.72
47.52
43.57
38.87
34.29
30.35
27.03
23.93
20.53
16.47
11.72
6.61
1.62
-2.89
-6.84
-10.52
-14.38
-18.91
-24.45
-31.23
-39.29
-48.42
-58.07
-67.13
-74.03
-77.04
-74.84
-66.98
-54.14
-37.9
-20.21
-2.87
12.91
26.39
37.24
45.17
49.97
51.57
50.27
46.78
42.07
37.18
32.77
29.1
25.89
22.57
18.63
13.76
8.11
2.12
-3.63
-8.7
-12.98
-16.73
-20.55
-25.13
-31.12
-38.82
-48.06
-58.01
-67.25
-74.05
-76.74
-74.22
-66.29
-53.71
-37.88
-20.46
-2.96
13.42
27.73
39.23
47.28
51.55
52.15
49.71
45.33
40.21
35.35
31.21
27.73
24.41
20.73
16.34
11.28
5.89
0.59
-4.23
-8.51
-12.45
-16.54
-21.4
-27.66
-35.82
-45.99
-57.64
-69.46
-79.5
-85.54
-85.8
-79.49
-67.08
-50.11
-30.67
-10.84
7.85
24.42
38.32
49.16
56.64
60.56
61.03
58.66
54.42
49.51
44.89
41.03
37.77
34.44
30.3
24.86
18.24
10.99
3.95
-2.23
-7.36
-11.7
-15.92
-20.77
-26.88
-34.59
-43.77
-53.74
-63.17
-70.28
-73.24
-70.67
-62.16
-48.41
-30.98
-11.76
7.48
25.43
41.2
54.17
63.83
69.87
72.24
71.39
68.1
63.34
57.98
52.46
46.83
40.83
34.19
26.89
19.18
11.59
4.65
-1.31
-6.37
-10.92
-15.54
-20.89
-27.5
-35.73
-45.69
-57.01
-68.74
-79.28
-86.58
-88.68
-84.34
-73.48
-57.29
-37.78
-17.22
2.51
20.21
35.26
47.36
56.23
61.62
63.43
62.03
58.24
53.22
48.12
43.65
39.94
36.58
32.96
28.62
23.49
17.89
12.38
7.35
2.9
-1.29
-5.87
-11.55
-18.95
-28.31
-39.47
-51.65
-63.52
-73.34
-79.23
-79.68
-73.87
-62.05
-45.42
-25.89
-5.52
13.83
30.78
44.46
54.37
60.36
62.54
61.37
57.7
52.58
47.09
42.02
37.72
33.98
30.34
26.24
21.38
15.84
10.01
4.41
-0.65
-5.15
-9.5
-14.41
-20.64
-28.83
-39.12
-51.08
-63.39
-74.12
-81
-82.07
-76.29
-63.89
-46.33
-25.8
-4.63
15.37
32.94
47.37
58.22
65.14
68.05
67.24
63.53
58.15
52.36
47.06
42.5
38.36
33.98
28.85
22.82
16.27
9.79
3.88
-1.33
-6.24
-11.54
-18.06
-26.41
-36.82
-48.94
-61.79
-73.83
-83.11
-87.7
-86.11
-77.8
-63.32
-44.21
-22.55
-0.45
20.28
38.33
52.74
62.95
68.72
70.26
68.33
64.02
58.61
53.1
48.04
43.44
38.99
34.3
29.17
23.7
18.17
12.91
8.08
3.61
-0.89
-6.02
-12.46
-20.81
-31.31
-43.61
-56.5
-68.07
-75.98
-78.16
-73.47
-62.12
-45.59
-26.09
-5.9
13.25
30.23
44.41
55.3
62.44
65.56
64.81
60.93
55.1
48.65
42.56
37.2
32.37
27.48
22.06
15.94
9.44
3.14
-2.33
-6.74
-10.39
-14.09
-18.95
-25.94
-35.55
-47.55
-60.92
-73.91
-84.36
-90.16
-89.67
-82.24
-68.37
-49.6
-28.12
-6.17
14.36
32.22
46.67
57.35
64.04
66.76
65.79
61.85
56.03
49.56
43.46
38.22
33.76
29.59
25.18
20.29
15
9.68
4.61
-0.16
-4.96
-10.35
-16.93
-25.17
-35.27
-47.1
-60
-72.78
-83.61
-90.37
-91.19
-85.02
-72.1
-53.84
-32.46
-10.23
10.97
29.89
45.79
58.13
66.49
70.58
70.6
67.27
61.9
55.94
50.58
46.35
43
39.79
35.87
30.77
24.58
17.93
11.57
5.93
0.95
-4.04
-9.87
-17.31
-26.67
-37.85
-50.27
-62.85
-74.11
-82.19
-85.22
-81.74
-71.27
-54.53
-33.4
-10.37
12.06
31.89
47.92
59.49
66.5
69.14
67.97
63.91
58.14
51.91
46.11
41.14
36.83
32.69
28.2
23.15
17.66
12.14
6.94
2.14
-2.49
-7.56
-13.72
-21.57
-31.44
-43.24
-56.27
-69.13
-79.81
-86
-85.81
-78.3
-63.93
-44.43
-22.23
0.21
20.98
38.88
53.2
63.52
69.57
71.4
69.55
65.06
59.26
53.35
48.02
43.35
38.87
34.03
28.5
22.37
16.15
10.39
5.41
1.03
-3.41
-8.87
-16.33
-26.38
-39
-53.38
-67.87
-80.19
-87.88
-88.91
-82.26
-68.31
-48.72
-25.98
-2.67
19.05
37.79
52.71
63.4
69.67
71.6
69.73
65.03
58.81
52.32
46.34
41.14
36.39
31.64
26.55
21.06
15.44
10.01
5.01
0.34
-4.4
-9.88
-16.8
-25.69
-36.69
-49.25
-62.1
-73.29
-80.58
-81.99
-76.42
-64.07
-46.29
-25.25
-3.24
17.85
36.72
52.55
64.76
72.86
76.5
75.8
71.44
64.72
57.16
50.11
44.26
39.57
35.41
30.99
25.76
19.65
13.09
6.7
0.96
-4.08
-8.89
-14.28
-21.19
-30.22
-41.42
-54.02
-66.45
-76.56
-82.11
-81.39
-73.66
-59.52
-40.62
-19.22
2.49
22.76
40.42
54.75
65.23
71.55
73.64
71.96
67.47
61.5
55.31
49.73
44.93
40.52
35.89
30.61
24.63
18.29
12.08
6.4
1.32
-3.39
-8.25
-13.8
-20.59
-28.99
-39.16
-50.84
-63.07
-74.19
-82.03
-84.47
-80.1
-68.78
-51.73
-31.13
-9.46
11.16
29.33
44.32
55.8
63.53
67.29
67.05
63.25
56.87
49.36
42.17
36.34
32.12
28.96
25.86
21.89
16.72
10.63
4.4
-1.21
-5.87
-9.86
-13.91
-18.9
-25.55
-34.15
-44.53
-55.98
-67.19
-76.5
-82
-82.12
-75.98
-63.8
-46.79
-26.91
-6.3
13.16
30.06
43.48
52.93
58.27
59.67
57.76
53.51
48.07
42.51
37.51
33.26
29.45
25.55
21.15
16.1
10.6
5.01
-0.26
-5.08
-9.58
-14.24
-19.72
-26.7
-35.62
-46.36
-58.05
-69.01
-77.1
-80.26
-77.17
-67.69
-52.86
-34.56
-14.86
4.44
22.07
37.16
49.08
57.34
61.58
61.89
58.85
53.59
47.42
41.46
36.31
31.94
27.9
23.55
18.54
12.93
7.15
1.78
-2.77
-6.5
-9.96
-13.97
-19.51
-27.28
-37.51
-49.61
-62.21
-73.27
-80.51
-82.06
-76.99
-65.65
-49.45
-30.49
-10.81
8.03
25
39.52
51.06
59.11
63.23
63.37
60.04
54.32
47.6
41.04
35.34
30.5
26.09
21.46
16.23
10.41
4.38
-1.38
-6.52
-10.99
-15.12
-19.38
-24.32
-30.43
-38.08
-47.35
-57.78
-68.2
-76.7
-81.16
-79.77
-71.83
-57.97
-40.01
-20.29
-0.94
16.66
31.82
44.3
53.87
60.14
62.71
61.57
57.3
51.07
44.28
38.14
33.26
29.52
26.31
22.83
18.57
13.42
7.73
2.01
-3.26
-7.82
-11.81
-15.6
-19.8
-25.04
-31.94
-40.81
-51.5
-63.2
-74.31
-82.77
-86.42
-83.8
-74.52
-59.55
-40.82
-20.65
-1.1
16.43
31.16
42.79
51.13
56.06
57.6
56.08
52.23
47.05
41.61
36.65
32.55
29.17
26.06
22.74
18.84
14.3
9.28
4.14
-0.84
-5.55
-10.1
-14.89
-20.39
-27.13
-35.43
-45.37
-56.41
-67.46
-76.88
-82.76
-83.5
-78.25
-67.25
-51.69
-33.39
-14.23
4.14
20.48
34
44.13
50.59
53.34
52.78
49.64
44.96
39.83
35.09
31.22
28.09
25.27
22.11
18.15
13.35
8.06
2.85
-1.87
-6.03
-10.09
-14.7
-20.55
-28.06
-37.25
-47.71
-58.48
-68.21
-75.15
-77.59
-74.28
-64.93
-50.41
-32.47
-13.27
5.29
21.86
35.82
46.87
54.78
59.37
60.52
58.57
54.3
48.91
43.53
38.9
35.11
31.67
27.87
23.18
17.55
11.37
5.35
0.07
-4.3
-8.05
-11.93
-16.76
-23.31
-31.93
-42.51
-54.27
-65.78
-75.14
-80.32
-79.73
-72.7
-59.81
-42.6
-23.19
-3.62
14.64
30.67
43.98
54.18
60.91
63.93
63.39
60.04
55.11
49.96
45.63
42.52
40.24
38
34.91
30.51
24.9
18.6
12.38
6.73
1.76
-2.91
-7.9
-13.89
-21.46
-30.82
-41.79
-53.54
-64.7
-73.35
-77.52
-75.76
-67.56
-53.71
-36.02
-16.75
2.07
19.06
33.59
45.44
54.44
60.29
62.68
61.59
57.55
51.64
45.15
39.13
34.08
29.82
25.82
21.45
16.45
10.91
5.22
-0.19
-5.1
-9.59
-14.04
-18.94
-24.84
-32.12
-40.98
-51.29
-62.45
-73.37
-82.42
-87.77
-87.84
-81.82
-69.95
-53.54
-34.57
-15.09
3.23
19.36
32.72
43.06
50.18
54
54.69
52.77
49.19
44.98
41.05
37.78
35.01
32.19
28.65
24.08
18.6
12.76
7.19
2.37
-1.65
-5.3
-9.25
-14.28
-20.91
-29.32
-39.16
-49.5
-58.85
-65.46
-67.7
-64.51
-55.8
-42.42
-26
-8.37
8.81
24.24
37.05
46.61
52.56
54.78
53.6
49.78
44.43
38.69
33.41
28.92
25.02
21.2
16.93
11.98
6.51
0.94
-4.14
-8.41
-11.89
-15.04
-18.62
-23.47
-30.14
-38.67
-48.36
-57.83
-65.22
-68.61
-66.66
-58.89
-45.94
-29.34
-11.06
7.01
23.49
37.46
48.42
56.01
59.96
60.2
57.13
51.7
45.21
38.94
33.65
29.37
25.53
21.38
16.45
10.75
4.81
-0.81
-5.73
-10.07
-14.38
-19.39
-25.85
-34.15
-44.3
-55.65
-66.9
-76.24
-81.65
-81.52
-75.13
-62.97
-46.52
-27.83
-8.85
8.89
24.45
37.23
46.76
52.7
54.89
53.65
49.82
44.67
39.44
34.93
31.34
28.19
24.77
20.52
15.37
9.71
4.19
-0.62
-4.67
-8.34
-12.44
-17.78
-24.96
-34.09
-44.69
-55.67
-65.41
-72.07
-73.93
-69.94
-59.98
-45.08
-27
-7.87
10.39
26.43
39.45
49.16
55.47
58.44
58.36
55.74
51.42
46.33
41.31
36.82
32.86
29.06
24.91
20.13
14.8
9.37
4.34
0.03
-3.7
-7.42
-11.95
-18.08
-26.32
-36.7
-48.56
-60.55
-70.75
-77.03
-77.72
-72.06
-60.57
-44.82
-26.9
-8.71
8.4
23.68
36.76
47.15
54.34
57.85
57.75
54.7
49.96
44.89
40.5
37.1
34.31
31.43
27.85
23.42
18.45
13.58
9.36
5.94
3
-0.15
-4.34
-10.25
-18.25
-28.35
-40.06
-52.4
-63.9
-72.68
-76.94
-75.38
-67.73
-54.83
-38.39
-20.46
-2.87
13.08
26.68
37.51
45.26
49.74
50.96
49.36
45.79
41.36
37.12
33.7
31.18
29.17
27.07
24.32
20.65
16.11
11.06
5.88
0.88
-3.92
-8.79
-14.18
-20.71
-28.87
-38.89
-50.42
-62.38
-73.01
-80.22
-82.15
-77.79
-67.4
-52.3
-34.51
-16.04
1.62
17.57
31.32
42.44
50.46
54.94
55.84
53.74
49.74
45.19
41.1
37.89
35.24
32.46
28.84
24.15
18.69
13.1
7.95
3.49
-0.51
-4.61
-9.46
-15.61
-23.39
-32.89
-43.9
-55.69
-66.94
-75.74
-80.01
-78.14
-69.64
-55.35
-37.18
-17.51
1.61
18.85
33.66
45.89
55.42
62.01
65.39
65.54
62.92
58.47
53.27
48.28
43.94
40.18
36.56
32.56
27.9
22.66
17.23
12.05
7.41
3.27
-0.76
-5.23
-10.7
-17.58
-26.07
-36.15
-47.46
-59.21
-70.09
-78.34
-82.11
-79.99
-71.5
-57.32
-39.08
-18.88
1.29
19.99
36.34
49.92
60.51
68.01
72.35
73.71
72.46
69.23
64.8
59.83
54.93
50.42
46.41
42.82
39.39
35.83
31.83
27.23
21.97
16.18
10.03
3.73
-2.63
-9.07
-15.74
-22.9
-30.89
-40.06
-50.54
-61.96
-73.23
-82.5
-87.61
-86.73
-79.01
-64.98
-46.42
-25.71
-5.16
13.59
29.66
42.74
52.75
59.65
63.51
64.59
63.4
60.66
57.05
53.16
49.37
45.88
42.76
39.97
37.33
34.54
31.27
27.27
22.54
17.28
11.78
6.27
0.75
-4.98
-11.26
-18.39
-26.62
-36.04
-46.53
-57.66
-68.45
-77.42
-82.71
-82.64
-76.22
-63.66
-46.34
-26.44
-6.28
12.28
28.08
40.68
49.99
56.08
59.05
59.12
56.74
52.6
47.56
42.45
37.85
34.01
30.81
27.84
24.56
20.58
15.69
10.08
4.17
-1.55
-6.77
-11.53
-16.18
-21.36
-27.69
-35.66
-45.31
-56.17
-67.13
-76.56
-82.6
-83.63
-78.79
-68.21
-53.07
-35.18
-16.5
1.32
17.18
30.36
40.51
47.41
51.06
51.69
49.94
46.68
42.82
39.11
35.81
32.81
29.7
26.1
21.87
17.13
12.27
7.59
3.24
-0.89
-5.03
-9.53
-14.64
-20.66
-27.86
-36.46
-46.33
-56.7
-66.11
-72.57
-74.19
-69.87
-59.68
-44.93
-27.58
-9.68
7.25
22.33
35.12
45.35
52.62
56.6
57.11
54.59
49.92
44.36
39
34.45
30.69
27.15
23.21
18.44
12.96
7.21
1.79
-2.95
-7.08
-11.05
-15.61
-21.37
-28.82
-38.01
-48.6
-59.73
-70.06
-77.96
-81.75
-80.26
-73.1
-60.91
-45.11
-27.48
-9.7
7.02
21.92
34.58
44.65
51.8
55.8
56.68
54.88
51.25
46.81
42.45
38.7
35.45
32.23
28.4
23.56
17.78
11.52
5.54
0.4
-3.72
-7.19
-10.73
-15.14
-21.12
-28.99
-38.65
-49.49
-60.42
-69.81
-75.81
-76.78
-71.73
-60.78
-45.14
-26.78
-7.79
10.16
26.05
39.44
50.09
57.8
62.29
63.5
61.71
57.7
52.56
47.36
42.8
39.01
35.64
32.04
27.62
22.14
15.76
9.03
2.59
-3.11
-8.03
-12.54
-17.29
-22.88
-29.7
-37.84
-47.12
-57.14
-67.26
-76.46
-83.32
-86.32
-84.19
-76.52
-63.95
-47.99
-30.6
-13.49
2.15
15.74
27.01
35.74
41.69
44.68
44.88
42.84
39.44
35.62
32.11
29.2
26.78
24.46
21.76
18.38
14.27
9.68
5.02
0.64
-3.28
-6.91
-10.62
-14.94
-20.35
-27.19
-35.52
-44.93
-54.54
-62.9
-68.31
-69.19
-64.72
-55.01
-41.22
-25.07
-8.3
7.64
21.8
33.53
42.32
47.73
49.58
48.15
44.23
39.04
33.81
29.41
26.15
23.76
21.65
19.17
15.95
11.93
7.4
2.8
-1.47
-5.27
-8.79
-12.52
-17.14
-23.26
-31.19
-40.68
-50.8
-59.97
-66.25
-67.94
-64.04
-54.69
-41.05
-24.94
-8.17
7.87
22.35
34.81
44.82
51.89
55.6
55.96
53.55
49.53
45.16
41.33
38.33
35.71
32.76
28.86
23.87
18.12
12.32
7.18
2.97
-0.45
-3.7
-7.57
-12.78
-19.78
-28.65
-39.03
-50.13
-60.75
-69.31
-74.21
-74.11
-68.45
-57.63
-42.91
-26.08
-8.84
7.41
21.86
33.96
43.37
49.79
53.06
53.32
51.06
47.13
42.47
37.92
33.97
30.68
27.72
24.62
21.01
16.78
12.17
7.62
3.47
-0.18
-3.71
-7.75
-13.06
-20.19
-29.34
-40.11
-51.56
-62.18
-70.19
-73.93
-72.29
-65.07
-53.02
-37.65
-20.7
-3.73
12.12
26.14
37.82
46.69
52.37
54.71
53.98
50.92
46.52
41.76
37.39
33.66
30.46
27.49
24.4
21
17.25
13.18
8.82
4.22
-0.66
-5.78
-11.18
-16.94
-23.28
-30.59
-39.18
-49.12
-59.81
-69.93
-77.58
-80.89
-78.6
-70.46
-57.41
-41.06
-23.24
-5.43
11.35
26.44
39.29
49.32
56.02
59.14
58.93
56.17
51.99
47.51
43.43
39.91
36.53
32.72
27.94
22.14
15.66
9.11
3.11
-2.06
-6.47
-10.55
-14.87
-20.04
-26.51
-34.54
-44.13
-54.74
-65.3
-74.18
-79.56
-79.89
-74.4
-63.36
-47.97
-30.07
-11.54
5.95
21.19
33.39
42.12
47.27
49
47.84
44.61
40.32
35.89
32.05
29.06
26.72
24.53
21.89
18.44
14.09
9.15
4.04
-0.85
-5.42
-9.85
-14.51
-19.92
-26.54
-34.71
-44.44
-55.21
-65.83
-74.48
-79.22
-78.47
-71.66
-59.36
-43.14
-24.95
-6.59
10.65
25.96
38.71
48.38
54.41
56.62
55.38
51.64
46.72
41.77
37.46
33.78
30.26
26.37
21.83
16.78
11.58
6.64
2.08
-2.21
-6.64
-11.62
-17.57
-24.79
-33.43
-43.45
-54.34
-65.02
-73.81
-78.75
-78.18
-71.25
-58.34
-40.87
-20.93
-0.6
18.44
35.08
48.7
58.94
65.63
68.78
68.72
66.07
61.78
56.8
51.92
47.51
43.48
39.46
34.93
29.63
23.62
17.34
11.34
6
1.3
-3.28
-8.5
-15.15
-23.69
-34.05
-45.48
-56.61
-65.72
-70.97
-70.99
-65.13
-53.76
-38.08
-19.8
-0.67
17.8
34.47
48.55
59.4
66.58
69.93
69.75
66.76
62.01
56.56
51.24
46.43
42.12
38.01
33.76
29.11
24.04
18.61
13.05
7.56
2.25
-2.96
-8.38
-14.48
-21.85
-30.87
-41.57
-53.32
-64.82
-74.21
-79.57
-79.38
-73
-60.87
-44.34
-25.26
-5.46
13.58
30.87
45.68
57.43
65.62
69.85
70.2
67.28
62.24
56.42
50.95
46.43
42.81
39.62
36.18
32.05
27.11
21.55
15.75
10.03
4.54
-0.79
-6.17
-11.98
-18.59
-26.39
-35.65
-46.34
-57.87
-68.92
-77.58
-81.67
-79.52
-70.47
-55.27
-35.82
-14.51
6.36
25.22
41.22
54.03
63.48
69.45
71.9
71.06
67.61
62.52
56.85
51.39
46.5
42.09
37.79
33.22
28.14
22.54
16.62
10.68
5.01
-0.22
-5.08
-9.91
-15.23
-21.67
-29.72
-39.5
-50.53
-61.64
-71.15
-77.23
-78.39
-73.88
-63.91
-49.48
-32.1
-13.35
5.36
22.82
38.02
50.07
58.32
62.46
62.74
59.93
55.19
49.73
44.56
40.18
36.59
33.42
30.11
26.23
21.58
16.26
10.62
5.02
-0.28
-5.3
-10.25
-15.61
-21.92
-29.72
-39.29
-50.4
-62.13
-72.82
-80.44
-83.11
-79.66
-70.06
-55.33
-37.25
-17.74
1.49
19.16
34.32
46.22
54.32
58.33
58.49
55.56
50.77
45.4
40.46
36.36
32.88
29.5
25.65
21.13
16.07
10.96
6.29
2.29
-1.15
-4.52
-8.47
-13.61
-20.32
-28.76
-38.67
-49.35
-59.58
-67.71
-71.99
-71.08
-64.51
-52.77
-37.24
-19.72
-1.87
14.97
29.91
42.24
51.44
57.11
59.22
58.17
54.77
50.04
44.86
39.82
35.02
30.33
25.49
20.31
14.81
9.13
3.52
-1.86
-6.89
-11.66
-16.39
-21.43
-27.25
-34.23
-42.59
-52.03
-61.62
-69.77
-74.64
-74.64
-68.97
-57.94
-42.83
-25.45
-7.57
9.49
24.86
37.97
48.32
55.38
58.75
58.45
55.1
49.89
44.17
39.08
35.15
32.15
29.4
26.12
21.9
16.82
11.44
6.39
2.08
-1.58
-5.18
-9.51
-15.37
-23.19
-32.93
-44.1
-55.74
-66.51
-74.83
-79.18
-78.4
-72.07
-60.68
-45.48
-28.19
-10.47
6.35
21.4
34.14
44.26
51.52
55.78
57.17
56.02
52.98
48.79
44.19
39.65
35.41
31.39
27.33
22.95
18.06
12.8
7.44
2.4
-2.08
-6.07
-10.01
-14.63
-20.55
-28.23
-37.63
-48.21
-58.94
-68.38
-74.98
-77.34
-74.58
-66.52
-53.81
-37.69
-19.75
-1.56
15.49
30.32
42.2
50.65
55.58
57.19
56.02
52.84
48.47
43.69
39.03
34.79
30.92
27.26
23.55
19.58
15.36
10.98
6.62
2.38
-1.8
-6.12
-10.9
-16.49
-23.26
-31.41
-40.93
-51.29
-61.39
-69.61
-74.19
-73.7
-67.59
-56.36
-41.35
-24.36
-7.05
9.29
23.8
35.79
44.72
50.16
52.01
50.68
47.04
42.2
37.18
32.54
28.42
24.55
20.63
16.44
12.01
7.52
3.17
-0.88
-4.62
-8.17
-11.81
-15.92
-21.01
-27.53
-35.72
-45.37
-55.65
-65.11
-71.94
-74.49
-71.68
-63.41
-50.46
-34.31
-16.72
0.71
16.67
30.22
40.7
47.68
51.01
50.93
48.12
43.59
38.56
34.01
30.46
27.81
25.48
22.73
19
14.2
8.7
3.15
-1.92
-6.28
-10.12
-14.03
-18.68
-24.7
-32.38
-41.48
-51.15
-59.97
-66.19
-68.2
-65.05
-56.69
-44.03
-28.6
-12.06
4.21
19.23
32.32
42.91
50.47
54.6
55.27
53.01
48.8
43.79
38.93
34.62
30.71
26.72
22.22
17.07
11.61
6.36
1.81
-1.89
-4.97
-7.98
-11.52
-16.11
-22.05
-29.48
-38.3
-48.1
-57.93
-66.34
-71.53
-71.85
-66.28
-54.9
-38.93
-20.3
-1.18
16.69
32.17
44.75
54.19
60.41
63.39
63.28
60.58
56.13
51.01
46.14
42.01
38.54
35.2
31.32
26.45
20.62
14.26
8
2.32
-2.58
-6.91
-11.17
-15.91
-21.69
-28.85
-37.5
-47.26
-57.21
-65.92
-71.67
-72.96
-68.84
-59.34
-45.36
-28.38
-10.1
8
24.66
39
50.25
57.91
61.74
61.96
59.23
54.54
48.99
43.49
38.56
34.33
30.58
26.94
23.1
18.87
14.26
9.46
4.7
0.2
-4
-7.99
-12.03
-16.5
-21.85
-28.52
-36.7
-46.15
-55.93
-64.47
-69.89
-70.52
-65.54
-55.24
-40.97
-24.59
-7.91
7.72
21.57
33.24
42.46
48.89
52.24
52.41
49.79
45.18
39.68
34.36
29.9
26.44
23.58
20.73
17.37
13.35
8.88
4.43
0.41
-3.11
-6.4
-10.07
-14.73
-20.84
-28.53
-37.54
-47.15
-56.24
-63.41
-67.18
-66.39
-60.46
-49.74
-35.36
-18.99
-2.4
12.94
26.01
36.24
43.35
47.29
48.21
46.51
42.89
38.12
33.02
28.14
23.76
19.81
16.05
12.21
8.13
3.82
-0.58
-4.83
-8.78
-12.4
-15.94
-19.85
-24.7
-30.98
-38.82
-47.81
-56.88
-64.45
-68.74
-68.3
-62.49
-51.64
-37.04
-20.37
-3.36
12.69
26.87
38.61
47.41
52.89
54.86
53.59
49.84
44.71
39.38
34.64
30.73
27.37
23.98
20.05
15.42
10.3
5.18
0.47
-3.65
-7.41
-11.31
-15.97
-21.86
-29.2
-37.77
-46.93
-55.6
-62.37
-65.79
-64.72
-58.7
-48.15
-34.28
-18.75
-3.15
11.24
23.63
33.57
40.76
45.01
46.31
44.95
41.59
37.16
32.53
28.33
24.71
21.45
18.13
14.44
10.35
6.04
1.9
-1.86
-5.18
-8.32
-11.79
-16.16
-21.96
-29.45
-38.4
-47.98
-56.83
-63.24
-65.62
-62.94
-55.11
-42.95
-27.98
-11.96
3.55
17.43
29.02
37.99
44.12
47.3
47.61
45.45
41.56
36.86
32.2
28.05
24.39
20.78
16.71
11.91
6.6
1.36
-3.18
-6.64
-9.24
-11.67
-14.9
-19.82
-26.87
-35.83
-45.77
-55.19
-62.33
-65.63
-64.07
-57.44
-46.37
-32.11
-16.18
-0.07
14.91
27.74
37.6
43.98
46.73
46.18
43.1
38.5
33.37
28.36
23.71
19.29
14.92
10.47
5.99
1.67
-2.34
-6.02
-9.51
-13.04
-16.91
-21.41
-26.86
-33.51
-41.35
-49.92
-58.09
-64.24
-66.6
-63.86
-55.66
-42.76
-26.77
-9.66
6.74
21.2
32.96
41.71
47.31
49.75
49.23
46.22
41.51
36.04
30.66
25.94
21.97
18.52
15.2
11.71
7.98
4.17
0.5
-2.94
-6.31
-10.1
-14.91
-21.27
-29.29
-38.41
-47.36
-54.37
-57.68
-56.08
-49.28
-37.97
-23.52
-7.51
8.67
23.96
37.54
48.65
56.57
60.7
60.89
57.58
51.81
44.92
38.09
32.03
26.85
22.21
17.65
12.93
8.06
3.33
-1
-4.89
-8.59
-12.65
-17.67
-24.17
-32.29
-41.74
-51.64
-60.65
-67.18
-69.7
-67.24
-59.61
-47.51
-32.23
-15.34
1.72
17.78
31.93
43.42
51.66
56.31
57.43
55.55
51.66
46.87
42.12
37.91
34.26
30.78
27.03
22.71
17.86
12.78
7.88
3.48
-0.4
-4.04
-7.95
-12.74
-18.99
-27.04
-36.76
-47.43
-57.6
-65.41
-68.93
-66.83
-58.76
-45.5
-28.68
-10.27
7.92
24.57
38.87
50.4
59.02
64.62
67.29
67.25
64.97
61.02
56.11
50.9
45.87
41.2
36.75
32.24
27.37
22.08
16.62
11.39
6.74
2.73
-0.93
-4.83
-9.61
-15.83
-23.75
-33.32
-44.07
-55.02
-64.77
-71.59
-73.87
-70.53
-61.43
-47.35
-29.89
-10.93
7.73
24.68
38.95
49.96
57.51
61.63
62.64
61.08
57.62
52.97
47.83
42.77
38.19
34.24
30.79
27.56
24.17
20.41
16.25
11.82
7.41
3.18
-0.9
-5.06
-9.65
-14.98
-21.34
-28.92
-37.76
-47.62
-57.78
-66.98
-73.48
-75.55
-71.94
-62.41
-47.83
-30.01
-11.06
7.07
23.06
36.16
46.06
52.66
55.95
56.14
53.71
49.45
44.39
39.41
35.1
31.57
28.59
25.73
22.63
19.13
15.26
11.2
7.12
3.19
-0.52
-4.1
-7.76
-11.93
-17.15
-23.92
-32.4
-42.18
-52.1
-60.42
-65.31
-65.35
-59.96
-49.6
-35.52
-19.39
-2.81
12.9
26.82
38.23
46.62
51.65
53.26
51.78
47.98
42.88
37.51
32.64
28.58
25.19
22.03
18.61
14.65
10.19
5.55
1.19
-2.54
-5.61
-8.33
-11.25
-15.04
-20.22
-27.1
-35.58
-45.09
-54.56
-62.46
-67.16
-67.29
-62.21
-52.24
-38.56
-22.81
-6.64
8.71
22.41
33.97
43.02
49.24
52.41
52.6
50.31
46.37
41.77
37.34
33.52
30.27
27.23
23.93
20.13
15.86
11.38
6.99
2.9
-0.93
-4.72
-8.82
-13.57
-19.25
-26.07
-34.06
-43
-52.25
-60.71
-66.96
-69.57
-67.51
-60.49
-49.06
-34.46
-18.31
-2.19
12.67
25.46
35.77
43.41
48.32
50.54
50.24
47.86
44.09
39.75
35.61
32.14
29.4
27.09
24.73
21.92
18.49
14.53
10.33
6.16
2.2
-1.59
-5.37
-9.44
-14.14
-19.83
-26.78
-35.05
-44.28
-53.58
-61.56
-66.64
-67.43
-63.18
-53.99
-40.83
-25.22
-8.91
6.55
20
30.68
38.24
42.6
43.97
42.82
39.85
35.88
31.7
27.86
24.59
21.78
19.14
16.33
13.17
9.7
6.09
2.54
-0.82
-4.02
-7.21
-10.69
-14.76
-19.77
-25.95
-33.4
-41.94
-51
-59.62
-66.51
-70.31
-69.93
-64.94
-55.6
-42.9
-28.19
-12.85
1.95
15.37
26.77
35.62
41.47
44.1
43.66
40.83
36.68
32.44
29.13
27.24
26.64
26.67
26.5
25.37
22.95
19.34
14.98
10.39
5.91
1.56
-2.92
-7.96
-13.95
-21.1
-29.26
-37.92
-46.13
-52.72
-56.42
-56.25
-51.73
-43.08
-31.13
-17.14
-2.48
11.57
23.97
33.91
40.88
44.65
45.37
43.54
39.94
35.41
30.68
26.21
22.15
18.42
14.81
11.13
7.29
3.35
-0.53
-4.16
-7.41
-10.3
-13.09
-16.28
-20.49
-26.24
-33.6
-42.09
-50.45
-57.04
-60.17
-58.62
-52.14
-41.38
-27.77
-12.94
1.6
14.86
26.25
35.37
41.94
45.61
46.25
44.08
39.78
34.35
28.83
23.94
19.93
16.52
13.27
9.77
5.95
2
-1.81
-5.28
-8.48
-11.73
-15.47
-20.19
-26.17
-33.55
-42.15
-51.48
-60.64
-68.35
-73.15
-73.73
-69.39
-60.27
-47.41
-32.36
-16.83
-2.18
10.71
21.47
29.98
36.19
40.03
41.48
40.67
37.99
34.09
29.73
25.62
22.18
19.48
17.23
14.86
11.84
7.78
2.67
-3.17
-9.14
-14.71
-19.58
-23.83
-27.8
-31.96
-36.68
-42.05
-47.74
-52.98
-56.64
-57.44
-54.36
-47.14
-36.62
-24.69
-13.7
-5.56
-0.9
1.23
2.94
6.54
13.49
23.82
36.05
47.73
56.2
59.43
56.55
48.16
36.15
23.31
12.64
6.63
6.52
11.97
21.21
31.55
40.19
44.99
44.84
39.67
