-286.54
-303.21
-319.69
-348.52
-396.12
-458.06
-522.53
-579.63
-625.89
-663.12
-694.72
-725.5
-772.35
-845.02
-939.39
-1040.6
-1133.6
-1208.5
-1259.6
-1283.8
-1197.6
-971.13
-649.96
-323.67
-57.99
129.19
250.21
320.91
365.8
396.65
405.4
387.52
350.93
313.19
286.64
275.99
279.24
292.23
309
315.45
304.24
279.37
252.56
233.88
227.27
231.39
243.11
257.9
266.44
263.9
252.77
240.47
233.51
234.78
244.01
259.65
278.75
295.28
304.7
305.67
299.74
289.11
275.71
261.03
246.46
232.58
218.43
203.23
187.17
171.39
157.03
144.65
134.05
124.45
114.7
103.88
91.75
78.74
65.94
54.56
45.52
39.01
34.48
30.91
27.33
23.21
18.6
13.98
9.78
6.1
2.53
-1.66
-7.22
-14.62
-23.79
-34.25
-45.2
-55.86
-65.59
-74.09
-81.38
-87.83
-94
-100.52
-107.76
-115.54
-122.97
-128.41
-129.89
-125.6
-114.48
-96.58
-73.05
-45.86
-17.29
10.52
35.85
57.55
75.01
88.08
96.96
102.12
104.2
103.95
102.19
99.69
97.13
94.98
93.37
92.16
90.98
89.46
87.33
84.54
81.18
77.35
73.13
68.53
63.58
58.4
53.27
48.51
44.48
41.35
39.15
37.68
36.63
35.69
34.57
33.09
31.17
28.79
25.97
22.76
19.25
15.58
11.94
8.54
5.57
3.09
1.04
-0.79
-2.68
-4.87
-7.51
-10.63
-14.15
-17.95
-21.81
-25.55
-28.98
-31.98
-34.61
-37.13
-40.03
-43.83
-48.91
-55.14
-61.78
-67.49
-70.63
-69.68
-63.76
-52.83
-37.82
-20.29
-2.11
14.94
29.48
40.61
47.98
51.65
52.09
49.98
46.19
41.63
37.12
33.26
30.44
28.78
28.2
28.46
29.27
30.33
31.44
32.45
33.3
33.93
34.26
34.14
33.49
32.29
30.64
28.77
26.92
25.22
23.67
22.11
20.32
18.08
15.27
11.85
7.84
3.36
-1.37
-6.08
-10.5
-14.39
-17.68
-20.4
-22.65
-24.55
-26.16
-27.48
-28.58
-29.57
-30.66
-32.1
-34.08
-36.65
-39.71
-43.02
-46.34
-49.51
-52.48
-55.36
-58.32
-61.58
-65.38
-69.85
-74.91
-80.16
-84.73
-87.39
-86.81
-81.92
-72.34
-58.49
-41.59
-23.31
-5.38
10.7
23.93
33.79
40.27
43.68
44.61
43.78
41.94
39.7
37.53
35.72
34.42
33.66
33.44
33.69
34.26
34.93
35.44
35.6
35.34
34.72
33.91
33.01
32.07
31
29.67
28.05
26.28
24.67
23.52
22.98
22.95
23.12
23.06
22.4
20.93
18.61
15.5
11.73
7.46
2.9
-1.69
-6.05
-9.93
-13.26
-16.07
-18.51
-20.71
-22.72
-24.53
-26.12
-27.58
-29.14
-31.05
-33.49
-36.45
-39.73
-43.04
-46.16
-49.01
-51.74
-54.64
-58
-62
-66.56
-71.25
-75.23
-77.41
-76.57
-71.74
-62.54
-49.31
-33.17
-15.69
1.43
16.74
29.29
38.64
44.79
48.04
48.82
47.62
45.04
41.76
38.48
35.85
34.34
34.1
34.94
36.46
38.17
39.73
40.94
41.77
42.25
42.29
41.74
40.4
38.16
35.12
31.61
28.03
24.77
21.99
19.6
17.29
14.7
11.56
7.87
3.87
-0.07
-3.56
-6.42
-8.71
-10.67
-12.64
-14.91
-17.63
-20.79
-24.29
-27.96
-31.63
-35.19
-38.61
-41.9
-45.15
-48.41
-51.73
-55.07
-58.36
-61.49
-64.38
-66.99
-69.41
-71.86
-74.71
-78.33
-82.9
-88.17
-93.21
-96.57
-96.56
-91.86
-82
-67.56
-49.99
-31.15
-12.75
3.93
18.21
29.8
38.68
44.98
48.93
50.88
51.32
50.7
49.42
47.71
45.77
43.79
42.07
40.89
40.46
40.77
41.54
42.37
42.89
42.92
42.46
41.66
40.58
39.18
37.33
34.95
32.13
29.17
26.48
24.34
22.8
21.59
20.33
18.69
16.62
14.36
12.33
10.91
10.28
10.34
10.81
11.32
11.58
11.45
10.94
10.16
9.26
8.33
7.36
6.3
5.01
3.36
1.26
-1.27
-4.08
-7
-9.83
-12.45
-14.87
-17.15
-19.43
-21.84
-24.46
-27.32
-30.34
-33.39
-36.25
-38.69
-40.54
-41.87
-43.05
-44.83
-48.04
-53.26
-60.3
-68.07
-74.71
-78.14
-76.74
-69.89
-58.11
-42.75
-25.55
-8.12
8.23
22.62
34.44
43.34
49.19
52.12
52.52
50.94
47.97
44.17
40.04
35.98
32.3
29.24
26.91
25.32
24.41
24.09
24.25
24.76
25.41
25.87
25.75
24.72
22.66
19.75
16.42
13.21
10.53
8.58
7.24
6.27
5.44
4.65
3.94
3.38
2.98
2.68
2.39
2.07
1.76
1.58
1.57
1.7
1.74
1.42
0.47
-1.18
-3.4
-5.89
-8.27
-10.32
-11.98
-13.46
-15.09
-17.18
-19.95
-23.43
-27.56
-32.16
-37.06
-42
-46.79
-51.23
-55.31
-59.2
-63.23
-67.66
-72.44
-76.91
-79.86
-79.79
-75.38
-66.01
-52
-34.61
-15.62
3.07
19.91
33.87
44.45
51.58
55.41
56.3
54.77
51.51
47.34
43.11
39.51
36.94
35.46
34.87
34.83
35.09
35.55
36.25
37.23
38.43
39.56
40.19
39.88
38.37
35.66
32.04
27.98
23.92
20.17
16.76
13.6
10.5
7.42
4.5
1.99
0.17
-0.89
-1.34
-1.52
-1.8
-2.34
-3.1
-3.85
-4.38
-4.65
-4.82
-5.21
-6.14
-7.77
-10.05
-12.68
-15.24
-17.35
-18.78
-19.58
-20.07
-20.63
-21.56
-23.03
-25
-27.37
-30.05
-33.02
-36.26
-39.79
-43.6
-47.76
-52.45
-57.86
-63.98
-70.31
-75.85
-79.21
-79.12
-74.77
-66.21
-54.18
-40.01
-25.11
-10.77
1.99
12.5
20.41
25.67
28.52
29.4
28.87
27.51
25.78
24.07
22.67
21.8
21.53
21.86
22.64
23.69
24.86
26.09
27.43
28.93
30.53
32.04
33.18
33.69
33.43
32.47
31.04
29.42
27.77
26.11
24.26
22.04
19.32
16.19
12.93
9.95
7.58
5.96
5.05
4.61
4.34
4.06
3.68
3.2
2.64
1.96
1.06
-0.18
-1.82
-3.89
-6.37
-9.27
-12.61
-16.44
-20.76
-25.43
-30.22
-34.84
-39.01
-42.61
-45.72
-48.62
-51.71
-55.43
-60.04
-65.46
-71.1
-75.87
-78.31
-77.02
-71.14
-60.58
-46.17
-29.42
-12.09
4.18
18.2
29.29
37.22
42.11
44.27
44.18
42.44
39.71
36.64
33.73
31.33
29.56
28.4
27.78
27.69
28.15
29.2
30.73
32.48
34.05
35.03
35.16
34.4
32.91
30.93
28.71
26.38
24.05
21.8
19.73
17.86
16.13
14.42
12.56
10.47
8.22
6.01
4.01
2.26
0.59
-1.27
-3.65
-6.69
-10.29
-14.14
-17.8
-20.91
-23.32
-25.16
-26.84
-28.85
-31.53
-34.99
-39.03
-43.27
-47.33
-51.02
-54.35
-57.57
-61.08
-65.28
-70.48
-76.72
-83.57
-90
-94.53
-95.47
-91.5
-82.08
-67.71
-49.76
-30.09
-10.6
7.22
22.4
34.5
43.48
49.6
53.3
55.14
55.68
55.41
54.65
53.57
52.29
50.95
49.76
48.96
48.8
49.37
50.61
52.28
54.02
55.47
56.29
56.24
55.2
53.16
50.27
46.82
43.15
39.57
36.23
33.16
30.23
27.3
24.34
21.46
18.86
16.7
15.09
13.95
13.12
12.42
11.76
11.16
10.66
10.28
9.91
9.3
8.15
6.18
3.36
-0.12
-3.9
-7.57
-10.87
-13.72
-16.27
-18.78
-21.5
-24.62
-28.28
-32.51
-37.24
-42.34
-47.6
-52.85
-58.07
-63.46
-69.33
-76
-83.51
-91.31
-98.22
-102.55
-102.57
-97.04
-85.72
-69.49
-50.21
-30.13
-11.33
4.79
17.63
27.19
33.84
37.99
40.02
40.3
39.21
37.27
35.07
33.19
32.17
32.32
33.69
36.08
39.1
42.25
45.08
47.28
48.72
49.41
49.46
48.98
48.08
46.91
45.64
44.44
43.49
42.9
42.67
42.71
42.86
42.95
42.93
42.86
42.9
43.27
44.14
45.56
47.47
49.7
52.06
54.41
56.67
58.81
60.9
63.08
65.55
68.53
72.24
76.87
82.53
89.28
96.98
105.31
113.72
121.55
128.28
133.86
138.91
144.69
152.79
164.55
180.53
200.29
222.43
244.96
265.69
282.54
293.77
298.15
295.15
285.14
269.35
249.68
228.26
206.9
186.75
168.2
151.06
134.91
119.39
104.3
89.66
75.64
62.5
50.49
39.81
30.49
22.38
15.14
8.4
1.85
-4.56
-10.7
-16.3
-21.22
-25.57
-29.81
-34.59
-40.57
-48.12
-57.15
-67.18
-77.6
-88.05
-98.66
-110.15
-123.56
-139.88
-159.59
-182.54
-208.08
-235.4
-263.94
-293.69
-325.23
-359.67
-398.52
-443.47
-495.82
-555.62
-620.63
-685.94
-744.56
-789.11
-814.04
-817.38
-801.14
-770.26
-730.68
-687.43
-643.75
-601.13
-560.16
-521.17
-484.49
-450.28
-418.21
-387.51
-357.18
-326.55
-295.46
-264.35
-233.99
-205.04
-177.81
-152.13
-127.52
-103.43
-79.44
-55.43
-31.51
-7.86
15.38
38.2
60.67
82.88
104.87
126.64
148.19
169.53
190.71
211.96
233.71
256.58
281.08
307.12
333.49
357.77
376.73
387.44
388.32
379.79
364.15
344.56
323.94
304.15
285.89
269.16
253.81
239.95
227.76
217.17
207.66
198.31
188.15
176.6
163.61
149.69
135.55
121.87
109.04
97.08
85.72
74.52
63.09
51.33
39.53
28.36
18.62
10.85
5.15
1.03
-2.35
-5.84
-10.06
-15.36
-21.96
-30.03
-39.61
-50.27
-60.8
-69.19
-73.06
-70.4
-60.33
-43.39
-21.44
3.02
27.45
49.9
69.12
84.55
96.12
104.07
108.88
111.12
111.44
110.48
108.77
106.74
104.74
102.99
101.63
100.63
99.85
99.07
98.15
97.06
95.9
94.78
93.73
92.67
91.36
89.56
87.05
83.76
79.74
75.19
70.45
65.9
61.86
58.54
55.9
53.69
51.46
48.79
45.37
41.05
35.89
30.12
24.08
18.25
13.09
8.97
5.97
3.89
2.29
0.7
-1.21
-3.54
-6.24
-9.22
-12.47
-16
-19.72
-23.44
-26.8
-29.46
-31.28
-32.43
-33.33
-34.56
-36.67
-40.08
-44.94
-50.95
-57.28
-62.56
-65.08
-63.27
-56.24
-44.14
-28.15
-10.18
7.71
23.87
37.26
47.51
54.66
58.94
60.68
60.29
58.26
55.2
51.73
48.39
45.53
43.28
41.59
40.31
39.33
38.64
38.33
38.46
39.04
39.87
40.6
40.81
40.11
38.36
35.7
32.55
29.42
26.74
24.67
23.09
21.73
20.31
18.7
16.96
15.26
13.74
12.42
11.21
9.96
8.58
7.05
5.41
3.73
2.03
0.34
-1.29
-2.78
-4.05
-5.14
-6.16
-7.34
-8.86
-10.81
-13.09
-15.49
-17.81
-19.94
-21.98
-24.13
-26.65
-29.69
-33.23
-37.03
-40.8
-44.23
-47.15
-49.61
-51.84
-54.33
-57.65
-62.38
-68.76
-76.48
-84.52
-91.18
-94.47
-92.7
-85.06
-71.89
-54.64
-35.4
-16.33
0.9
15.28
26.48
34.65
40.11
43.29
44.64
44.6
43.65
42.19
40.56
38.97
37.54
36.35
35.49
35.05
35.07
35.48
36.15
36.83
37.23
37.14
36.4
34.96
32.92
30.46
27.82
25.24
22.88
20.77
18.83
16.91
14.89
12.72
10.48
8.33
6.46
5.02
4.01
3.31
2.72
2.05
1.21
0.21
-0.9
-2.11
-3.52
-5.23
-7.29
-9.61
-11.91
-13.93
-15.5
-16.71
-17.83
-19.19
-21.03
-23.38
-26.02
-28.6
-30.77
-32.37
-33.45
-34.3
-35.35
-37.08
-39.93
-44.14
-49.64
-55.89
-61.78
-65.74
-66.09
-61.56
-51.78
-37.45
-20.14
-1.83
15.74
31.38
44.49
54.91
62.64
67.75
70.45
71.2
70.74
70
69.82
70.81
73.21
76.94
81.75
87.35
93.54
100.23
107.37
114.99
123.11
131.76
140.99
150.81
161.16
171.95
182.99
193.97
204.25
212.93
218.87
221.1
219.18
213.51
205.27
196.09
187.59
180.97
176.12
172.56
169.94
168.07
166.61
164.95
162.44
158.65
153.47
146.36
136.98
125.4
111.99
97.16
81.26
64.73
48.17
32.16
15.51
-2.68
-22.08
-41.25
-58.7
-73.54
-85.39
-94.23
-100.29
-108.5
-122.31
-141.28
-161.63
-179.49
-192.71
-200.73
-203.83
-202.79
-207.94
-226.49
-257.72
-294.15
-328.07
-355.42
-375.23
-388.1
-395.43
-413.63
-454.21
-515.89
-586.64
-654.02
-711.43
-757.37
-792.88
-820.23
-861.16
-930.72
-1027.3
-1135.5
-1240.3
-1335.2
-1420.8
-1498.9
-1451.3
-1221
-846.01
-431.02
-62.8
224.04
429.23
566.05
651.54
702.69
715.32
688.47
632.38
566
506.38
461.77
433.93
421.65
422.51
419.03
399.03
364.04
322.78
286.79
262.36
251.04
251.8
262.29
270.35
266.91
251.15
229.48
209.81
196.71
191.93
195.8
207.76
221.68
231.65
234.43
229.39
216.95
197.14
170.57
139.3
106.62
74.62
45.52
21.91
6.23
0.03
2.92
13.01
27.51
43.4
57.97
69.34
76.63
79.87
79.96
78.01
75.03
71.69
68.31
65
61.87
59.06
56.83
55.5
55.24
56.09
57.89
60.28
62.78
64.83
65.98
65.99
64.96
63.25
61.35
59.64
58.27
57.14
55.97
54.52
52.69
50.55
48.36
46.4
44.92
44.05
43.79
43.98
44.32
44.36
43.64
41.8
38.93
35.6
32.88
31.96
33.74
38.31
44.85
51.79
57.38
60.24
59.79
56.35
50.79
44.17
37.25
30.38
23.47
16.17
8.04
-1.29
-12.01
-23.89
-36.15
-47.38
-55.71
-59.24
-56.63
-47.57
-33.03
-14.95
4.21
22.22
37.44
49.06
56.92
61.3
62.73
61.88
59.52
56.43
53.36
50.88
49.3
48.67
48.84
49.53
50.48
51.48
52.36
53.05
53.52
53.77
53.8
53.54
52.82
51.44
49.26
46.34
42.95
39.5
36.31
33.5
30.88
28.11
24.84
20.97
16.66
12.28
8.21
4.7
1.76
-0.83
-3.32
-5.95
-8.8
-11.78
-14.72
-17.46
-19.98
-22.43
-25.11
-28.31
-32.18
-36.55
-41.06
-45.23
-48.76
-51.58
-53.95
-56.33
-59.2
-62.99
-67.96
-74.08
-80.98
-87.73
-92.93
-94.9
-92.15
-83.92
-70.54
-53.42
-34.6
-16.18
0.3
14.08
25.05
33.42
39.41
43.08
44.49
43.82
41.58
38.51
35.41
32.91
31.29
30.55
30.43
30.65
31.05
31.54
32.1
32.72
33.25
33.46
33.1
32
30.14
27.69
24.94
22.19
19.66
17.42
15.44
13.6
11.83
10.08
8.3
6.47
4.53
2.49
0.42
-1.55
-3.22
-4.47
-5.31
-5.9
-6.47
-7.29
-8.49
-10.11
-12.02
-14.09
-16.21
-18.36
-20.61
-23.1
-25.93
-29.13
-32.59
-36.08
-39.29
-41.99
-44.11
-45.81
-47.46
-49.52
-52.44
-56.47
-61.51
-67
-71.9
-74.87
-74.55
-70.01
-61.05
-48.33
-33.18
-17.22
-1.97
11.43
22.34
30.53
36.03
39.07
40.01
39.32
37.57
35.29
32.98
31
29.56
28.77
28.63
29.08
30.02
31.33
32.88
34.5
35.95
36.93
37.15
36.34
34.45
31.59
28.07
24.28
20.56
17.17
14.15
11.47
9.01
6.64
4.3
1.93
-0.48
-2.9
-5.28
-7.51
-9.51
-11.24
-12.82
-14.47
-16.5
-19.16
-22.48
-26.28
-30.23
-33.98
-37.33
-40.3
-43.1
-46.08
-49.58
-53.84
-58.9
-64.51
-69.99
-74.28
-76.06
-74.15
-67.87
-57.3
-43.41
-27.74
-11.97
2.51
14.86
24.81
32.45
37.98
41.55
43.24
43.21
41.74
39.34
36.64
34.2
32.4
31.32
30.8
30.59
30.49
30.48
30.65
31.04
31.56
31.95
31.91
31.26
30.02
28.38
26.6
24.84
23.15
21.42
19.55
17.51
15.35
13.17
11.07
9.1
7.3
5.7
4.35
3.24
2.26
1.25
0.05
-1.46
-3.28
-5.35
-7.56
-9.89
-12.33
-14.93
-17.73
-20.75
-24.01
-27.49
-31.2
-35.05
-38.89
-42.52
-45.73
-48.44
-50.67
-52.6
-54.49
-56.68
-59.53
-63.32
-68.07
-73.3
-77.96
-80.55
-79.56
-73.99
-63.81
-50.01
-34.24
-18.32
-3.64
9.02
19.48
27.88
34.4
39.1
41.99
43.12
42.71
41.17
39.06
36.95
35.25
34.18
33.68
33.58
33.69
33.88
34.12
34.43
34.74
34.91
34.67
33.76
32.01
29.47
26.35
22.99
19.75
16.85
14.38
12.27
10.36
8.52
6.66
4.82
3.08
1.55
0.28
-0.73
-1.55
-2.28
-3.03
-3.93
-5.08
-6.54
-8.29
-10.23
-12.18
-13.95
-15.45
-16.77
-18.14
-19.84
-22.07
-24.75
-27.58
-30.14
-32.07
-33.35
-34.34
-35.68
-38.07
-41.96
-47.34
-53.58
-59.56
-63.86
-65.1
-62.34
-55.33
-44.65
-31.53
-17.53
-4.11
7.73
17.53
25.28
31.17
35.33
37.79
38.53
37.67
35.63
33.05
30.72
29.24
28.84
29.36
30.37
31.38
32.06
32.31
32.23
31.94
31.52
30.92
29.98
28.57
26.61
24.16
21.37
18.39
15.37
12.37
9.45
6.6
3.84
1.2
-1.28
-3.58
-5.74
-7.78
-9.75
-11.68
-13.58
-15.49
-17.49
-19.68
-22.16
-24.97
-28.05
-31.3
-34.61
-37.89
-41.1
-44.22
-47.28
-50.36
-53.63
-57.4
-62.01
-67.54
-73.61
-79.11
-82.42
-81.89
-76.37
-65.79
-51.15
-34.28
-17.18
-1.49
11.82
22.4
30.35
35.87
39.23
40.69
40.58
39.4
37.66
35.9
34.47
33.58
33.22
33.29
33.65
34.25
35.1
36.27
37.8
39.62
41.48
43.07
44.04
44.13
43.23
41.38
38.74
35.52
31.93
28.21
24.58
21.28
18.52
16.41
14.94
13.93
13.15
12.35
11.46
10.56
9.93
9.86
10.54
11.82
13.22
14.03
13.49
11.15
7
1.43
-4.86
-11.18
-17.11
-22.47
-27.37
-31.98
-36.44
-40.78
-44.93
-48.76
-52.23
-55.36
-58.34
-61.42
-64.95
-69.25
-74.52
-80.71
-87.27
-93.14
-96.8
-96.65
-91.49
-81.07
-66.22
-48.71
-30.65
-13.93
0.3
11.67
20.39
26.83
31.35
34.15
35.4
35.33
34.31
32.82
31.33
30.25
29.85
30.22
31.27
32.83
34.66
36.55
38.34
39.92
41.18
41.94
42
41.19
39.48
37.07
34.34
31.7
29.43
27.54
25.79
23.89
21.66
19.15
16.67
14.59
13.24
12.73
12.93
13.53
14.13
14.29
13.67
12.1
9.64
6.55
3.27
0.19
-2.47
-4.78
-7.03
-9.56
-12.55
-15.88
-19.2
-22.09
-24.31
-25.89
-27.18
-28.69
-30.96
-34.38
-39.13
-45.1
-51.82
-58.34
-63.34
-65.38
-63.28
-56.59
-45.81
-32.28
-17.74
-3.87
8.18
17.84
25.1
30.16
33.27
34.58
34.18
32.27
29.22
25.64
22.22
19.57
18.04
17.58
17.92
18.7
19.68
20.86
22.3
23.98
25.63
26.76
26.84
25.6
23.11
19.8
16.2
12.79
9.8
7.22
4.88
2.64
0.42
-1.71
-3.61
-5.13
-6.16
-6.68
-6.77
-6.59
-6.28
-5.91
-5.45
-4.83
-4.07
-3.36
-3.13
-3.84
-5.81
-9.01
-13.02
-17.22
-20.99
-23.99
-26.24
-28.13
-30.22
-33.12
-37.35
-43.2
-50.57
-58.81
-66.66
-72.49
-74.67
-72.12
-64.6
-52.87
-38.33
-22.66
-7.43
6.24
17.61
26.36
32.44
36.07
37.64
37.71
36.88
35.68
34.47
33.42
32.58
31.91
31.43
31.24
31.52
32.41
33.91
35.8
37.65
39.01
39.51
39.04
37.73
35.86
33.68
31.32
28.82
26.22
23.55
20.94
18.54
16.52
15.07
14.32
14.38
15.26
16.77
18.55
20.16
21.19
21.47
21.16
20.67
20.51
21.01
22.14
23.48
24.45
24.49
23.37
21.3
18.81
16.51
14.83
13.82
13.16
12.37
11.02
9
6.54
4.12
2.23
1.22
1.06
1.34
1.36
0.21
-2.97
-8.71
-16.88
-26.45
-35.49
-41.49
-42.07
-35.73
-22.69
-4.51
16.57
38.24
58.49
76.02
90.04
100.48
107.86
112.55
115.07
116.11
116.39
116.32
116.02
115.16
113.48
111.01
107.25
102.34
97.5
94.67
95.35
100.26
108.24
117.53
126.48
131.37
129.91
122.66
112.23
100.93
90.05
77.62
61.45
40.42
9.51
-33.24
-83.96
-134.44
-177.06
-206.33
-224.15
-234.04
-239.17
-250.18
-274.2
-309.81
-348.86
-383.51
-407.99
-426.77
-444.69
-463.94
-494.96
-543.75
-606.24
-670.82
-727.2
-767.9
-799.21
-827.32
-783.96
-632.96
-394.97
-133.36
96.62
249.83
349.53
409.96
438.96
443.37
425.85
386.98
333.7
277.77
228.43
191.74
157.86
117.6
68.01
2.85
-80.37
-175.91
-270.66
-350.17
-373.21
-324.48
-219.32
-93.95
13.22
82.04
113.1
119.42
115.62
112.67
108.3
97.56
80.32
58.81
37.07
19.54
9.59
8.22
15.1
24.46
28.78
27.57
24.03
22.33
25.48
34.57
48.69
65.85
81
90.56
94.98
97.46
101.73
110.43
124.52
143.25
164.31
183.14
195.05
197.54
190.48
175.78
156.47
135.77
116.11
98.56
82.36
66
48.55
29.69
9.6
-11.39
-32.79
-53.68
-72.53
-87.16
-95.34
-95.36
-86.93
-71.35
-51.13
-29.16
-7.89
11.13
27.29
40.56
51.22
59.62
66.07
70.91
74.51
77.19
79.25
80.94
82.52
84.33
86.71
89.91
93.95
98.54
103.14
107.06
109.69
110.62
109.81
107.51
104.25
100.61
97.04
93.77
90.81
88.02
85.22
82.33
79.32
76.21
72.99
69.59
65.89
61.76
57.12
51.99
46.53
40.93
35.38
30
24.83
19.82
14.92
10.1
5.43
1.01
-2.99
-6.44
-9.33
-11.81
-14.18
-16.77
-19.84
-23.42
-27.32
-31.25
-34.98
-38.5
-42.12
-46.38
-51.89
-59.05
-67.72
-77.02
-85.35
-90.65
-91.01
-85.23
-73.32
-56.48
-36.74
-16.31
3.04
20.22
34.75
46.48
55.35
61.35
64.65
65.73
65.3
64.21
63.09
62.31
61.91
61.77
61.75
61.82
62.02
62.37
62.8
63.1
63.02
62.3
60.85
58.77
56.34
53.97
52.01
50.67
49.9
49.39
48.69
47.29
44.93
41.58
37.53
33.21
29.05
25.31
21.98
18.88
15.75
12.49
9.17
6.04
3.3
0.98
-1.16
-3.55
-6.65
-10.68
-15.56
-20.91
-26.16
-30.83
-34.66
-37.75
-40.54
-43.67
-47.78
-53.25
-59.91
-66.92
-72.77
-75.68
-74.06
-67.1
-55.08
-39.36
-21.92
-4.81
10.34
22.6
31.66
37.61
40.76
41.54
40.5
38.37
35.95
33.92
32.69
32.34
32.64
33.25
33.9
34.46
34.94
35.42
35.93
36.44
36.81
36.85
36.36
35.13
33.04
30.1
26.39
22.11
17.47
12.68
7.92
3.42
-0.61
-3.9
-6.21
-7.51
-7.95
-7.89
-7.75
-7.9
-8.58
-9.92
-12.08
-15.21
-19.45
-24.78
-30.87
-37.13
-42.84
-47.48
-50.85
-53.21
-55.06
-56.92
-59.2
-62.14
-65.89
-70.56
-76.12
-82.18
-87.83
-91.56
-91.65
-86.69
-76.24
-61.02
-42.86
-24.04
-6.63
8.05
19.56
28.15
34.29
38.38
40.59
41.02
39.92
37.85
35.61
34.04
33.66
34.46
35.89
37.17
37.57
36.8
35.04
32.79
30.65
29
27.87
27.01
26.05
24.64
22.61
20.04
17.14
14.2
11.49
9.1
6.99
5.02
3.09
1.18
-0.59
-2.09
-3.23
-4.08
-4.84
-5.8
-7.19
-9.15
-11.64
-14.5
-17.43
-20.11
-22.3
-23.92
-25.1
-26.2
-27.58
-29.54
-32.11
-35.06
-38.01
-40.62
-42.73
-44.42
-46
-47.87
-50.46
-54.13
-59.09
-65.21
-71.85
-77.74
-81.19
-80.55
-74.81
-64.05
-49.46
-32.97
-16.5
-1.48
11.44
22.16
30.72
37.07
40.97
42.25
41.07
38.07
34.2
30.51
27.76
26.28
25.98
26.48
27.35
28.31
29.25
30.16
30.99
31.58
31.65
30.92
29.25
26.74
23.73
20.65
17.86
15.49
13.46
11.51
9.45
7.26
5.08
3.14
1.58
0.35
-0.79
-2.11
-3.8
-5.82
-7.92
-9.84
-11.43
-12.79
-14.21
-16.05
-18.5
-21.47
-24.58
-27.36
-29.45
-30.83
-31.78
-32.85
-34.55
-37.27
-41.16
-46.1
-51.73
-57.34
-61.87
-63.97
-62.41
-56.46
-46.31
-33.05
-18.36
-3.92
9.04
19.94
28.69
35.37
40
42.45
42.64
40.76
37.37
33.28
29.36
26.31
24.46
23.83
24.16
25.07
26.24
27.41
28.4
29.14
29.54
29.46
28.75
27.28
25
22.01
18.54
14.91
11.45
8.42
5.92
3.92
2.25
0.67
-0.97
-2.75
-4.62
-6.48
-8.28
-10.06
-11.89
-13.84
-15.82
-17.67
-19.25
-20.56
-21.86
-23.51
-25.77
-28.63
-31.78
-34.78
-37.28
-39.27
-41.06
-43.22
-46.32
-50.67
-56.09
-61.77
-66.32
-68.04
-65.46
-57.81
-45.36
-29.39
-11.95
4.93
19.8
32.04
41.66
48.94
54.15
57.53
59.29
59.63
58.93
57.9
57.45
58.35
61
65.39
71.08
77.45
83.38
87.83
90.2
90.32
88.27
84.22
78.5
71.77
64.94
58.03
51.06
44.59
39.65
36.97
36.67
38.36
41.57
45.97
49.29
49.68
47.04
43.09
39.78
38.17
38.36
39.93
42.38
41.75
34.61
20.35
1.32
-19.6
-40.84
-62.16
-83.84
-105.98
-132.78
-167.56
-209.7
-254.7
-297.5
-335.1
-366.67
-392.57
-385.21
-328.27
-227.99
-110.25
-0.57
88.76
156.81
207.74
246.85
276.05
295.72
304.71
304.06
297.64
289.51
281.58
273.59
263.82
254.13
241.73
223.54
199.03
170.38
140.24
110.1
80.45
51.62
24.13
-3.82
-34.14
-67.22
-101.86
-136.67
-171.23
-206.09
-242.04
-279.21
-317.66
-355.68
-389.27
-413.42
-424.46
-421.86
-408.33
-388.41
-366.55
-346.08
-328.3
-312.71
-298.26
-284.39
-271.4
-259.83
-249.54
-239.32
-227.28
-211.61
-191.38
-166.94
-140
-112.81
-87.38
-64.83
-45.16
-27.73
-11.76
3.04
16.34
27.49
36.02
41.98
45.91
48.43
49.87
50.08
48.72
45.66
41.3
36.47
31.85
27.47
22.49
15.59
5.89
-6.25
-18.81
-28.59
-32.22
-27.3
-13.28
8.51
35.25
63.56
90.3
113.16
130.76
142.55
148.49
148.79
143.91
134.57
122.04
108.06
94.66
83.55
75.64
70.75
67.82
65.66
63.54
61.53
60.3
60.42
61.88
63.95
65.63
66.22
65.78
64.99
64.58
64.85
65.37
65.32
64.01
61.3
57.72
54.12
51.14
48.91
47
44.7
41.46
37.08
31.8
26.1
20.46
15.12
10.11
5.23
0.28
-4.8
-9.9
-14.76
-19.18
-23.11
-26.81
-30.74
-35.47
-41.49
-49.2
-58.85
-70.49
-83.78
-97.67
-110.24
-118.84
-120.68
-113.74
-97.5
-73.37
-44.27
-13.82
14.65
38.93
58.18
72.64
83.12
90.42
95.07
97.36
97.59
96.24
94.04
91.85
90.31
89.66
89.72
90.03
90.21
90.14
89.96
89.87
89.94
89.95
89.52
88.22
85.87
82.55
78.6
74.5
70.73
67.6
65.25
63.55
62.2
60.82
59.07
56.84
54.21
51.42
48.74
46.3
44.12
42.09
40.11
38.13
36.14
34.09
31.87
29.37
26.49
23.28
19.85
16.31
12.56
8.31
3.18
-3.04
-10.22
-17.85
-25.23
-31.75
-37.21
-41.86
-46.31
-51.29
-57.34
-64.66
-72.9
-81.12
-87.77
-91.02
-89.11
-81.04
-66.96
-48.31
-27.45
-6.89
11.37
26.37
38.14
47.26
54.31
59.58
62.95
64.27
63.62
61.52
58.8
56.33
54.64
53.8
53.54
53.49
53.46
53.55
53.96
54.82
56.02
57.19
57.89
57.76
56.69
54.81
52.33
49.5
46.47
43.32
40.07
36.73
33.42
30.25
27.4
25.01
23.1
21.57
20.18
18.7
16.97
14.93
12.59
9.97
7.03
3.76
0.15
-3.68
-7.54
-11.22
-14.55
-17.47
-20.03
-22.47
-25.1
-28.4
-32.85
-38.79
-46.17
-54.32
-61.89
-67.15
-68.4
-64.57
-55.58
-42.4
-26.71
-10.37
5.04
18.54
29.73
38.49
44.82
48.68
50.04
49.06
46.15
41.99
37.37
33.02
29.44
26.9
25.45
25.06
25.62
26.99
28.92
31.02
32.81
33.76
33.49
31.89
29.21
26
22.88
20.32
18.44
17.05
15.74
14.14
12.11
9.77
7.38
5.2
3.22
1.2
-1.23
-4.36
-8.23
-12.55
-16.86
-20.78
-24.18
-27.27
-30.42
-33.95
-37.92
-42.08
-45.96
-49.16
-51.45
-52.93
-53.9
-54.86
-56.35
-58.91
-62.85
-68
-73.52
-77.89
-79.28
-76.11
-67.7
-54.5
-37.94
-19.93
-2.24
13.88
27.76
39.11
47.81
53.83
57.24
58.28
57.43
55.31
52.53
49.66
47.04
44.86
43.1
41.61
40.21
38.78
37.33
36.02
35.02
34.36
33.88
33.2
31.9
29.7
26.6
22.95
19.28
16.12
13.8
12.33
11.46
10.82
10.09
9
7.34
4.92
1.56
-2.73
-7.66
-12.66
-17.07
-20.38
-22.49
-23.66
-24.35
-24.91
-25.48
-25.99
-26.32
-26.49
-26.65
-27.05
-27.91
-29.33
-31.33
-33.83
-36.73
-39.88
-43.13
-46.42
-49.91
-53.97
-59.1
-65.67
-73.48
-81.6
-88.35
-91.75
-90.16
-82.86
-70.4
-54.44
-37.16
-20.63
-6.3
5.2
13.88
20.08
24.17
26.39
26.94
26.08
24.24
21.98
19.9
18.4
17.6
17.36
17.35
17.33
17.25
17.31
17.86
19.2
21.33
23.88
26.25
27.82
28.25
27.62
26.37
25.15
24.4
24.2
24.21
23.84
22.6
20.34
17.42
14.5
12.2
10.87
10.36
10.19
9.79
8.81
7.21
5.21
3.07
0.91
-1.38
-3.99
-7.02
-10.44
-14.06
-17.72
-21.35
-25.05
-28.94
-33
-37.06
-40.87
-44.34
-47.69
-51.46
-56.24
-62.3
-69.16
-75.55
-79.68
-79.9
-75.28
-66.01
-53.27
-38.84
-24.44
-11.41
-0.51
7.94
13.84
17.22
18.26
17.34
15.06
12.14
9.24
6.82
5.12
4.21
4.08
4.7
6.01
7.92
10.28
12.91
15.63
18.17
20.27
21.64
22.12
21.73
20.67
19.35
18.18
17.4
17
16.7
16.18
15.16
13.62
11.72
9.69
7.68
5.71
3.68
1.49
-0.85
-3.21
-5.44
-7.48
-9.47
-11.68
-14.36
-17.61
-21.29
-25.08
-28.71
-32.05
-35.17
-38.36
-41.98
-46.43
-52.06
-59.12
-67.55
-76.79
-85.56
-92.01
-94.13
-90.41
-80.46
-65.21
-46.63
-27.07
-8.6
7.52
20.81
31.31
39.25
44.78
47.93
48.78
47.61
45
41.76
38.81
36.92
36.48
37.46
39.45
41.9
44.34
46.56
48.51
50.2
51.48
52.02
51.47
49.61
46.57
42.73
38.66
34.82
31.48
28.64
26.13
23.72
21.16
18.31
15.12
11.69
8.19
4.81
1.69
-1.17
-3.95
-6.95
-10.42
-14.38
-18.57
-22.46
-25.53
-27.55
-28.75
-29.76
-31.37
-34.11
-38.02
-42.63
-47.12
-50.76
-53.14
-54.37
-54.97
-55.73
-57.44
-60.78
-66.09
-73.21
-81.28
-88.71
-93.44
-93.41
-87.27
-74.89
-57.48
-37.24
-16.68
2.02
17.47
29.17
37.29
42.4
45.14
46.14
45.89
44.82
43.25
41.48
39.76
38.3
37.19
36.5
36.2
36.27
36.72
37.52
38.55
39.57
40.18
39.97
38.7
36.43
33.51
30.38
27.44
24.83
22.46
20.13
17.65
14.97
12.26
9.79
7.83
6.56
5.95
5.8
5.74
5.37
4.4
2.71
0.45
-2.06
-4.5
-6.69
-8.7
-10.83
-13.38
-16.53
-20.18
-24.02
-27.67
-30.84
-33.47
-35.7
-37.81
-40.11
-42.92
-46.52
-51.09
-56.58
-62.48
-67.66
-70.6
-69.68
-63.8
-52.83
-37.7
-20.22
-2.44
13.9
27.74
38.67
46.74
52.08
54.77
54.86
52.55
48.43
43.39
38.47
34.57
32.2
31.47
32.14
33.89
36.45
39.61
43.14
46.69
49.75
51.83
52.54
51.79
49.8
47.03
43.96
40.99
38.31
35.91
33.69
31.56
29.52
27.59
25.78
23.99
22.07
19.88
17.39
14.72
12.12
9.76
7.64
5.53
3.06
-0.09
-4.08
-8.88
-14.26
-19.99
-25.87
-31.75
-37.55
-43.21
-48.75
-54.31
-60.07
-66.01
-71.7
-76.09
-77.66
-74.91
-66.97
-54.05
-37.51
-19.38
-1.76
13.83
26.63
36.53
43.77
48.58
51.11
51.59
50.41
48.3
46.14
44.71
44.43
45.22
46.53
47.65
48.06
47.67
46.8
46.01
45.69
45.9
46.25
46.21
45.43
44.01
42.51
41.71
42.25
44.33
47.61
51.41
55.07
58.24
61.08
64.13
68.02
73.13
79.37
86.25
93.16
99.65
105.68
111.54
117.7
124.46
131.89
139.73
147.6
154.98
161.36
166.18
168.98
169.67
168.68
166.95
165.57
165.28
166.06
167.09
167.15
165.13
160.57
153.73
145.35
136.18
126.59
116.56
105.82
94.18
81.79
69.09
56.66
44.95
34.13
24.14
14.85
6.22
-1.57
-8.23
-13.58
-17.71
-20.98
-23.84
-26.59
-29.17
-31.2
-32.21
-31.99
-30.81
-29.45
-28.92
-30.04
-33.12
-37.82
-43.41
-49.19
-55.03
-61.54
-69.99
-81.81
-97.99
-118.65
-143.12
-170.3
-199.2
-229.5
-261.65
-296.76
-336.4
-382.39
-436.35
-498.9
-568.55
-640.81
-708.37
-762.56
-796.05
-805.24
-791.54
-760.5
-719.5
-675.14
-631.52
-590.22
-551.35
-514.83
-481.03
-450.44
-423.11
-398.17
-374.12
-349.54
-323.76
-297.09
-270.72
-246
-223.85
-204.32
-186.69
-169.83
-152.72
-134.86
-116.42
-98.07
-80.58
-64.51
-49.94
-36.58
-23.86
-11.25
1.61
14.8
28.18
41.49
54.47
66.91
78.68
89.75
100.24
110.4
120.62
131.28
142.67
154.84
167.56
180.47
193.18
205.49
217.5
229.53
242.06
255.68
270.99
288.56
308.5
330.07
351.43
369.72
381.9
385.73
380.65
367.91
349.99
329.51
308.4
287.6
267.35
247.8
229.33
212.38
197.11
183.05
169.25
154.67
138.79
121.86
104.77
88.65
74.3
61.86
50.81
40.15
28.82
16.08
1.75
-13.57
-28.48
-41.02
-48.99
-50.59
-44.89
-32.25
-14.25
6.74
28.23
48.25
65.63
79.96
91.25
99.65
105.31
108.42
109.38
108.81
107.47
106.1
105.21
105.02
105.48
106.39
107.52
108.66
109.65
110.39
110.8
110.77
110.17
108.85
106.68
103.65
99.87
95.66
91.36
87.27
83.5
80.01
76.64
73.24
69.76
66.28
62.99
60.05
57.58
55.57
53.89
52.34
50.67
48.7
46.4
43.85
41.18
38.5
35.81
33.02
30.02
26.82
23.49
20.17
16.92
13.63
10.12
6.24
2.02
-2.28
-6.32
-9.86
-12.98
-16.05
-19.56
-23.87
-28.94
-34.37
-39.55
-44.03
-47.64
-50.66
-53.6
-57.04
-61.45
-67.08
-73.94
-81.64
-89.3
-95.52
-98.54
-96.7
-88.99
-75.51
-57.51
-37.12
-16.66
1.98
17.67
30.04
39.23
45.54
49.28
50.74
50.33
48.61
46.23
43.83
41.84
40.45
39.62
39.18
38.98
38.88
38.82
38.81
38.87
39.05
39.31
39.53
39.49
38.93
37.68
35.74
33.33
30.73
28.22
25.88
23.6
21.21
18.64
16.01
13.59
11.67
10.39
9.63
9.11
8.49
7.56
6.31
4.88
3.43
2.1
0.92
-0.11
-1.07
-2
-2.99
-4.17
-5.74
-7.88
-10.63
-13.88
-17.31
-20.53
-23.29
-25.54
-27.53
-29.63
-32.15
-35.19
-38.6
-42.03
-45.12
-47.66
-49.67
-51.41
-53.27
-55.76
-59.3
-64.07
-69.77
-75.52
-79.88
-81.25
-78.31
-70.53
-58.4
-43.18
-26.58
-10.22
4.66
17.33
27.39
34.61
38.85
40.13
38.76
35.41
31.03
26.63
23.05
20.75
19.72
19.62
20.02
20.54
20.99
21.31
21.5
21.51
21.31
20.9
20.38
19.94
19.84
20.28
21.36
23.1
25.42
28.17
31.13
34.02
36.51
38.34
39.35
39.61
39.32
38.77
38.28
38.02
38.04
38.18
38.23
37.99
37.44
36.74
36.2
36.17
36.85
38.28
40.36
42.87
45.69
48.71
51.95
55.4
59.07
62.98
67.13
71.62
76.57
82.14
88.4
95.38
103.02
111.27
120.16
129.89
140.77
153.07
166.74
181.31
195.81
208.99
219.55
226.36
228.7
226.28
219.32
208.53
195.04
180.15
165.15
150.98
138.08
126.46
115.87
106.07
97
88.71
81.31
74.74
68.79
63.12
57.43
51.58
45.68
39.97
34.7
29.9
25.25
20.16
13.88
5.8
-4.29
-16.1
-29
-42.27
-55.55
-69.05
-83.58
-100.29
-120.2
-143.8
-170.88
-200.75
-232.5
-265.49
-299.61
-335.27
-373.32
-414.94
-461.55
-514.34
-573.42
-636.86
-700.07
-756.19
-797.74
-818.79
-816.96
-794.03
-755.15
-706.77
-654.68
-602.75
-552.88
-505.63
-461.06
-419.16
-379.78
-342.52
-306.68
-271.56
-236.76
-202.41
-169.03
-137.25
-107.24
-78.46
-49.83
-20.21
10.65
41.55
69.68
91.31
103.09
103.47
93.66
77.49
60.38
47.74
43.43
48.92
63.37
84.28
108.49
132.92
155.09
173.3
186.62
194.85
198.47
198.43
195.95
192.23
188.22
184.46
181.16
178.21
175.38
172.4
169.11
165.58
162.13
159.19
157.18
156.25
156.2
156.53
156.61
155.98
154.41
151.96
148.83
145.17
141.07
136.52
131.58
126.41
121.32
116.68
112.78
109.67
107.18
104.98
102.68
99.98
96.79
93.16
89.25
85.18
80.98
76.6
71.94
66.95
61.67
56.25
50.87
45.67
40.71
35.91
31.1
26.07
20.63
14.72
8.42
1.98
-4.27
-10.03
-15.14
-19.68
-23.95
-28.39
-33.53
-39.81
-47.4
-55.94
-64.45
-71.32
-74.62
-72.65
-64.47
-50.27
-31.4
-9.97
11.67
31.47
48.05
60.8
69.77
75.39
78.26
78.92
77.85
75.45
72.19
68.59
65.21
62.52
60.73
59.83
59.65
60.04
60.96
62.35
64.08
65.79
66.97
67.14
66.1
64
61.32
58.55
56
53.62
51.13
48.19
44.63
40.6
36.42
32.5
29.06
26.11
23.51
21.01
18.41
15.61
12.57
9.29
5.83
2.25
-1.42
-5.13
-8.91
-12.79
-16.83
-21.02
-25.31
-29.55
-33.64
-37.53
-41.29
-45.14
-49.45
-54.71
-61.32
-69.31
-78
-85.9
-90.96
-91.1
-84.98
-72.54
-55.05
-34.72
-13.97
5.22
21.68
34.95
45.03
52.08
56.3
57.98
57.61
55.86
53.47
51.07
49.03
47.47
46.29
45.37
44.66
44.24
44.18
44.54
45.22
45.98
46.45
46.3
45.3
43.45
40.88
37.88
34.75
31.69
28.8
26.03
23.32
20.61
17.97
15.59
13.67
12.29
11.35
10.57
9.55
8.01
5.84
3.14
0.2
-2.7
-5.37
-7.78
-10.05
-12.37
-14.94
-17.92
-21.35
-25.2
-29.36
-33.66
-37.93
-42.08
-46.13
-50.24
-54.76
-60.04
-66.21
-72.94
-79.24
-83.6
-84.36
-80.31
-71.12
-57.55
-41.16
-23.82
-7.18
7.66
20.11
29.98
37.22
41.83
43.84
43.51
41.31
37.93
34.17
30.78
28.26
26.84
26.41
26.69
27.32
28.01
28.65
29.22
29.74
30.13
30.26
29.97
29.19
27.96
26.41
24.66
22.77
20.69
18.32
15.59
12.53
9.34
6.25
3.53
1.29
-0.48
-1.92
-3.23
-4.57
-6.03
-7.62
-9.33
-11.17
-13.21
-15.51
-18.09
-20.87
-23.69
-26.38
-28.83
-31.04
-33.13
-35.26
-37.7
-40.71
-44.61
-49.59
-55.55
-61.92
-67.56
-70.94
-70.6
-65.59
-55.87
-42.36
-26.65
-10.52
4.57
17.66
28.32
36.42
41.94
44.86
45.26
43.42
39.86
35.39
30.85
26.98
24.24
22.75
22.34
22.65
23.32
24.11
24.93
25.83
26.84
27.88
28.72
29
28.45
26.94
24.59
21.68
18.51
15.25
11.89
8.24
4.14
-0.4
-5.18
-9.83
-13.94
-17.33
-20.06
-22.45
-24.88
-27.56
-30.43
-33.17
-35.4
-36.92
-37.85
-38.68
-40.08
-42.7
-46.95
-52.76
-59.51
-66
-70.69
-72.05
-68.98
-61.09
-48.89
-33.64
-16.99
-0.59
14.19
26.43
35.67
41.81
45.07
45.89
44.89
42.74
40.06
37.36
34.94
32.97
31.43
30.21
29.18
28.26
27.51
27.09
27.18
27.92
29.22
30.78
32.14
32.88
32.72
31.65
29.85
27.58
25.11
22.57
20.02
17.46
14.87
12.29
9.71
7.16
4.69
2.37
0.25
-1.65
-3.39
-5.13
-7.11
-9.51
-12.37
-15.57
-18.89
-22.1
-25.07
-27.85
-30.62
-33.64
-37.18
-41.46
-46.55
-52.3
-58.16
-63.16
-66
-65.43
-60.58
-51.37
-38.47
-23.2
-7.08
8.48
22.4
33.95
42.69
48.42
51.19
51.3
49.29
45.87
41.79
37.7
34.07
31.21
29.25
28.18
27.89
28.23
29.02
30.08
31.24
32.35
33.26
33.82
33.86
33.22
31.84
29.74
27.07
24.07
20.99
17.98
15.05
12.11
9.03
5.84
2.71
-0.1
-2.41
-4.24
-5.83
-7.49
-9.46
-11.75
-14.14
-16.31
-18.01
-19.23
-20.2
-21.28
-22.81
-24.92
-27.52
-30.36
-33.22
-35.93
-38.42
-40.74
-42.89
-44.9
-46.86
-49.03
-51.83
-55.66
-60.56
-65.91
-70.41
-72.32
-70.07
-62.84
-50.9
-35.57
-18.73
-2.31
12.19
23.88
32.48
38.09
41.04
41.69
40.48
37.84
34.24
30.18
26.17
22.75
20.32
19.1
19.05
19.88
21.21
22.63
23.87
24.73
25.06
24.71
23.54
21.51
18.76
15.62
12.54
9.93
8.02
6.76
5.87
4.94
3.62
1.78
-0.43
-2.64
-4.41
-5.52
-5.98
-6.12
-6.38
-7.07
-8.27
-9.79
-11.29
-12.52
-13.44
-14.23
-15.18
-16.58
-18.5
-20.83
-23.35
-25.79
-27.99
-29.92
-31.68
-33.5
-35.64
-38.46
-42.34
-47.6
-54.14
-61.25
-67.47
-70.79
-69.29
-61.84
-48.68
-31.42
-12.54
5.44
20.67
32.35
40.49
45.61
48.28
48.97
48.06
45.97
43.17
40.16
37.32
34.81
32.63
30.68
28.85
27.11
25.52
24.21
23.29
22.79
22.6
22.46
22.03
21.04
19.43
17.35
15.11
13.11
11.64
10.86
10.75
11.18
11.92
12.71
13.31
13.52
13.25
12.58
11.7
10.83
10.07
9.3
8.25
6.59
4.17
1.11
-2.21
-5.34
-7.99
-10.14
-12.06
-14.2
-16.9
-20.28
-24.14
-28.07
-31.57
-34.32
-36.24
-37.56
-38.7
-40.12
-42.09
-44.63
-47.5
-50.33
-52.78
-54.7
-56.16
-57.45
-59.03
-61.48
-65.32
-70.74
-77.27
-83.69
-88.08
-88.36
-82.97
-71.46
-54.74
-34.81
-14.17
4.9
20.79
32.79
40.86
45.42
47.02
46.29
43.84
40.36
36.58
33.24
30.93
29.9
30.01
30.8
31.64
32.08
32.02
31.76
31.77
32.39
33.65
35.16
36.37
36.81
36.31
35.07
33.49
31.96
30.65
29.52
28.43
27.26
25.96
24.55
22.91
20.79
17.83
13.76
8.6
2.76
-3.12
-8.32
-12.37
-15.11
-16.74
-17.58
-17.95
-18.01
-17.74
-17.1
-16.05
-14.72
-13.38
-12.33
-11.76
-11.66
-11.79
-11.8
-11.5
-10.98
-10.69
-11.24
-13.23
-17.07
-22.89
-30.56
-39.65
-49.31
-58.21
-64.59
-66.67
-63.16
-53.83
-39.71
-22.77
-5.36
10.5
23.51
33.18
39.59
43.04
43.87
42.32
38.67
33.31
26.81
19.93
13.51
8.3
4.85
3.35
3.67
5.41
8.03
10.96
13.66
15.7
16.77
16.77
15.83
14.24
12.34
10.46
8.72
7.14
5.64
4.11
2.41
0.45
-1.83
-4.37
-7.01
-9.49
-11.62
-13.38
-14.94
-16.59
-18.66
-21.3
-24.56
-28.29
-32.29
-36.35
-40.21
-43.7
-46.7
-49.22
-51.36
-53.24
-54.87
-56.13
-56.85
-57.03
-57.01
-57.41
-59.05
-62.61
-68.26
-75.4
-82.54
-87.47
-87.82
-81.62
-67.97
-47.39
-21.75
6.09
32.94
55.9
72.83
82.68
85.49
82.43
75.4
66.66
58.25
51.55
47.12
44.73
43.84
43.89
44.56
45.76
47.46
49.5
51.53
53.08
53.71
53.15
51.37
48.59
45.23
41.78
38.71
36.33
34.71
33.64
32.76
31.65
30.07
28.04
25.86
24.03
23.03
23.23
24.74
27.38
30.75
34.34
37.64
40.24
41.91
42.61
42.43
41.47
39.9
37.89
35.67
33.52
31.73
30.54
30.02
30.09
30.53
31.13
31.71
32.24
32.75
33.31
33.59
33.34
32.61
31.58
30.19
27.88
23.63
16.44
6
-7.19
-21.11
-32.48
-37.79
-34.66
-22.76
-3.76
19.45
43.83
66.16
84.57
98.94
110.28
119.67
127.69
134.56
140.47
145.81
148.26
145.95
138.58
127.08
112.45
95.36
76.72
58.19
41.83
23.89
1.54
-24.69
-51.24
-74.54
-92.98
-106.49
-115.93
-122.5
-136.78
-166.43
-211.51
-265.2
-319.43
-368.91
-411.27
-446.05
-473.69
-506.76
-553.87
-613.9
-678.39
-738.22
-788.39
-827.43
-855.44
-806.72
-650.95
-411.22
-150.77
73.84
239.99
351.21
422.11
464.21
492.98
505.12
496.66
470.3
431.63
386.31
337.47
290.83
252.02
221.48
188.58
145.53
91.45
27.16
-45.05
-122.52
-201.76
-277.43
-349.97
-425.42
-504.27
-548.74
-529.8
-446.74
-327.68
-225.7
-145.63
-84.95
-42.46
-13.01
6.99
17.41
18.13
11.02
1.01
-3.36
-0.12
9.46
23.56
40.01
53.48
59.69
58.11
52.47
50.32
54.08
64.06
79.46
98.38
116.4
129.85
137.89
142.75
149.36
159.6
174.34
193.82
217.29
241.93
264.02
280.08
287.73
286.69
276.89
259.74
237.89
214.05
189.73
165.23
140.21
114.42
88.42
62.8
38.4
15.93
-4.42
-23.02
-40.6
-57.89
-75.32
-92.84
-109.97
-125.88
-139.48
-149.47
-154.47
-153.25
-145.04
-129.84
-108.64
-83.24
-55.93
-29.02
-4.5
16.22
32.36
43.74
50.67
53.88
54.39
53.3
51.7
50.46
50.23
51.32
53.73
57.24
61.45
66.04
70.81
75.74
80.9
86.2
91.36
95.89
99.28
101.14
101.34
100
97.41
94.06
90.56
87.61
85.79
85.41
86.33
88.01
89.7
90.72
90.71
89.65
87.68
84.95
81.55
77.51
72.96
68.16
63.39
58.8
54.35
49.82
44.99
39.77
34.35
29.09
24.35
20.37
17.07
14.11
10.99
7.2
2.45
-3.27
-9.63
-16.08
-22.08
-27.27
-31.63
-35.45
-39.27
-43.77
-49.55
-56.91
-65.65
-74.8
-82.66
-87.17
-86.44
-79.38
-66.14
-48.1
-27.45
-6.57
12.54
28.58
41.02
49.89
55.53
58.4
58.93
57.62
55
51.72
48.46
45.9
44.49
44.41
45.48
47.28
49.28
51.02
52.21
52.77
52.8
52.45
51.84
51.01
49.86
48.3
46.32
44.04
41.68
39.45
37.42
35.46
33.36
30.95
28.19
25.22
22.26
19.45
16.79
14.19
11.5
8.7
5.86
3.15
0.67
-1.6
-3.84
-6.29
-9.13
-12.37
-15.87
-19.42
-22.93
-26.4
-30.02
-34.03
-38.67
-44.12
-50.48
-57.68
-65.31
-72.54
-78.07
-80.43
-78.38
-71.41
-59.93
-45.25
-29.15
-13.37
0.74
12.38
21.14
26.93
29.83
30.07
28.06
24.39
19.79
14.94
10.45
6.77
4.16
2.76
2.5
3.21
4.68
6.68
9.04
11.6
14.18
16.48
18.19
19.03
18.99
18.32
17.49
17.03
17.27
18.24
19.62
20.95
21.72
21.56
20.36
18.25
15.61
13.01
11.03
10.1
10.24
10.96
11.35
10.47
7.66
2.95
-3.02
-9.21
-14.74
-19.21
-22.84
-26.29
-30.29
-35.3
-41.43
-48.45
-55.96
-63.35
-69.82
-74.32
-75.65
-72.81
-65.35
-53.65
-38.95
-23.01
-7.61
5.91
16.9
25.34
31.55
35.88
38.55
39.58
39.04
37.09
34.12
30.67
27.27
24.36
22.19
20.86
20.38
20.71
21.75
23.31
25.05
26.58
27.54
27.7
27.02
25.63
23.77
21.68
19.53
17.4
15.31
13.26
11.26
9.3
7.28
5.05
2.37
-0.96
-4.95
-9.4
-13.88
-17.89
-21.04
-23.26
-24.76
-26.03
-27.53
-29.58
-32.22
-35.27
-38.4
-41.3
-43.82
-46.02
-48.2
-50.81
-54.37
-59.21
-65.36
-72.29
-78.92
-83.81
-85.47
-82.82
-75.53
-64.12
-49.81
-34.18
-18.73
-4.6
7.53
17.37
24.82
29.91
32.74
33.48
32.45
30.13
27.06
23.85
21.05
19.1
18.27
18.58
19.84
21.7
23.78
25.78
27.53
28.96
30.01
30.51
30.22
28.91
26.5
23.12
19.12
14.91
10.82
7.01
3.44
0.01
-3.4
-6.83
-10.19
-13.36
-16.23
-18.75
-21.01
-23.18
-25.51
-28.26
-31.66
-35.93
-41.12
-47.03
-53.08
-58.24
-61.25
-60.84
-56.23
-47.42
-35.23
-21.06
-6.51
7.05
18.71
28.05
34.97
39.59
42.05
42.55
41.35
38.85
35.53
31.97
28.69
26.09
24.4
23.65
23.75
24.48
25.59
26.81
27.86
28.47
28.42
27.59
25.97
23.66
20.86
17.77
14.58
11.37
8.2
5.04
1.83
-1.42
-4.65
-7.79
-10.75
-13.51
-16.12
-18.7
-21.37
-24.21
-27.19
-30.25
-33.27
-36.17
-39.01
-41.95
-45.34
-49.6
-55.04
-61.65
-68.86
-75.46
-79.79
-80.15
-75.41
-65.4
-51.04
-34.1
-16.64
-0.46
13.33
24.31
32.59
38.49
42.29
44.16
44.24
42.82
40.43
37.73
35.39
33.87
33.27
33.42
33.99
34.69
35.4
36.12
36.86
37.53
37.89
37.65
36.61
34.72
32.13
29.07
25.82
22.6
19.55
16.73
14.13
11.71
9.39
7.16
5.01
3.04
1.3
-0.22
-1.61
-3.06
-4.75
-6.79
-9.21
-11.95
-14.88
-17.89
-20.86
-23.69
-26.27
-28.51
-30.32
-31.69
-32.67
-33.4
-34.1
-35
-36.3
-38.12
-40.49
-43.35
-46.72
-50.72
-55.57
-61.45
-68.2
-75.12
-80.93
-84.09
-83.2
-77.52
-67.27
-53.5
-37.82
-21.86
-7.01
5.85
16.26
24.1
29.42
32.44
33.5
33.09
31.75
29.99
28.15
26.41
24.82
23.43
22.38
21.93
22.29
23.52
25.4
27.5
29.29
30.37
30.53
29.74
28.11
25.76
22.85
19.59
16.23
13.08
10.36
8.16
6.41
4.95
3.63
2.34
1.07
-0.16
-1.33
-2.41
-3.4
-4.36
-5.39
-6.64
-8.25
-10.29
-12.7
-15.28
-17.76
-19.88
-21.53
-22.81
-24.04
-25.73
-28.36
-32.23
-37.21
-42.62
-47.28
-49.75
-48.76
-43.55
-34.17
-21.45
-6.79
8.21
22.15
34.08
43.53
50.51
55.23
58.02
59.15
58.89
57.5
55.33
52.8
50.29
48.06
46.2
44.64
43.29
42.12
41.19
40.6
40.34
40.25
40.05
39.47
38.31
36.56
34.32
31.8
29.19
26.66
24.28
22.03
19.82
17.5
14.92
12.04
8.93
5.75
2.7
-0.1
-2.57
-4.77
-6.78
-8.75
-10.86
-13.28
-16.18
-19.6
-23.39
-27.27
-30.92
-34.17
-37.09
-39.93
-43.09
-46.85
-51.38
-56.65
-62.45
-68.39
-73.77
-77.56
-78.58
-75.81
-68.74
-57.68
-43.7
-28.36
-13.21
0.53
12.17
21.49
28.52
33.39
36.22
37.2
36.6
34.84
32.45
29.94
27.72
26
24.88
24.29
24.16
24.44
25.07
25.95
26.93
27.77
28.21
28.03
27.13
25.52
23.35
20.8
18.07
15.31
12.53
9.71
6.8
3.83
0.93
-1.72
-3.95
-5.7
-7.05
-8.14
-9.17
-10.22
-11.39
-12.74
-14.36
-16.35
-18.67
-21.2
-23.66
-25.86
-27.74
-29.49
-31.5
-34.21
-37.94
-42.65
-47.94
-52.94
-56.58
-57.7
-55.43
-49.42
-39.98
-28.01
-14.73
-1.44
10.78
21.2
29.43
35.35
39.06
40.73
40.65
39.16
36.64
33.51
30.2
27.08
24.45
22.46
21.22
20.69
20.78
21.34
22.11
22.77
23.03
22.68
21.69
20.18
18.31
16.21
13.89
11.31
8.41
5.26
2.02
-1.12
-4
-6.57
-8.85
-10.97
-13.01
-15.07
-17.21
-19.46
-21.83
-24.27
-26.7
-29
-31.13
-33.18
-35.33
-37.9
-41.2
-45.42
-50.4
-55.57
-59.89
-62.07
-60.95
-55.85
-46.88
-34.91
-21.33
-7.62
5.04
15.96
24.92
31.99
37.31
40.96
42.99
43.46
42.52
40.42
37.52
34.22
30.95
28.06
25.82
24.41
23.85
24.04
24.77
25.74
26.61
27.11
26.99
26.15
24.59
22.45
19.9
17.12
14.27
11.41
8.52
5.58
2.6
-0.36
-3.17
-5.69
-7.89
-9.91
-11.97
-14.35
-17.16
-20.31
-23.53
-26.45
-28.82
-30.66
-32.23
-33.99
-36.49
-40.11
-44.96
-50.71
-56.57
-61.39
-63.84
-62.78
-57.63
-48.57
-36.51
-22.84
-9.03
3.7
14.57
23.24
29.72
34.18
36.88
38.08
38.04
37.02
35.24
32.94
30.36
27.8
25.53
23.83
22.89
22.83
23.6
25.02
26.78
28.45
29.61
29.91
29.2
27.53
25.12
22.33
19.48
16.81
14.39
12.11
9.76
7.14
4.18
0.99
-2.15
-4.98
-7.34
-9.31
-11.15
-13.18
-15.57
-18.29
-21.15
-23.86
-26.22
-28.21
-30
-31.9
-34.25
-37.34
-41.31
-46.07
-51.2
-55.93
-59.2
-59.85
-56.96
-50.2
-40.02
-27.51
-14.17
-1.37
9.88
19.14
26.38
31.78
35.46
37.42
37.64
36.22
33.52
30.1
26.63
23.66
21.51
20.23
19.69
19.72
20.16
20.88
21.77
22.66
23.36
23.66
23.42
22.58
21.14
19.17
16.73
13.91
10.79
7.47
4.08
0.76
-2.38
-5.27
-7.92
-10.44
-12.93
-15.46
-17.99
-20.41
-22.6
-24.49
-26.17
-27.8
-29.54
-31.56
-33.98
-36.96
-40.62
-44.93
-49.51
-53.48
-55.65
-54.84
-50.38
-42.36
-31.65
-19.57
-7.42
3.85
13.72
21.98
28.52
33.24
36.05
36.97
36.24
34.31
31.73
29.07
26.71
24.89
23.65
22.93
22.61
22.61
22.89
23.42
24.14
24.86
25.37
25.47
25.02
24.02
22.51
20.55
18.15
15.26
11.85
8.01
3.94
-0.06
-3.72
-6.88
-9.58
-12.09
-14.8
-18.17
-22.55
-28.06
-34.48
-41.18
-47.16
-51.24
-52.38
-49.94
-43.96
-35.15
-24.66
-13.74
-3.45
5.58
13.13
19.21
23.92
27.26
29.17
29.61
28.64
26.53
23.71
20.68
17.95
15.93
14.92
15.09
16.41
18.52
20.78
22.31
22.28
20.27
16.45
11.55
6.59
2.37
-0.82
-3.29
-5.72
-8.81
-12.91
-17.95
-23.51
-29.1
-34.27
-38.8
-42.58
-45.61
-47.99
-49.99
-52.14
-55.1
-59.41
-65.16
-71.64
-77.41
-80.63
-79.67
-73.74
-63.09
-48.97
-33.08
-17.11
-2.32
10.48
20.86
28.61
33.7
36.32
36.95
36.22
34.77
32.98
30.98
28.73
26.24
23.78
21.82
20.91
21.39
23.16
25.72
28.33
30.24
30.97
30.35
28.52
25.76
22.4
18.72
14.9
11.04
7.12
3.1
-1.06
-5.35
-9.7
-13.97
-17.99
-21.67
-24.97
-27.99
-30.89
-33.91
-37.3
-41.3
-46.05
-51.5
-57.16
-62.08
-64.9
-64.28
-59.39
-50.29
-37.99
-24.08
-10.22
2.46
13.51
23.03
31.21
38.01
43.05
45.79
45.89
43.51
39.38
34.54
30.05
26.62
24.47
23.43
23.16
23.34
23.82
24.52
25.31
25.9
25.9
24.98
23.05
20.36
17.35
14.45
11.86
9.37
6.55
2.91
-1.75
-7.2
-12.82
-17.87
-21.79
-24.48
-26.39
-28.37
-31.31
-35.74
-41.5
-47.66
-52.73
-55.14
-53.67
-47.95
-38.45
-26.32
-13
0.2
12.32
22.8
31.36
37.86
42.19
44.32
44.37
42.69
39.88
36.67
33.79
31.81
31.05
31.48
32.8
34.46
35.82
36.26
35.37
33.07
29.65
25.67
21.74
18.31
15.52
13.18
10.97
8.55
5.74
2.44
-1.38
-5.75
-10.72
-16.22
-22.03
-27.8
-33.12
-37.68
-41.38
-44.37
-47.04
-49.9
-53.5
-58.18
-63.87
-69.93
-75.1
-77.81
-76.66
-70.95
-60.95
-47.85
-33.29
-18.9
-5.78
5.5
14.82
22.24
27.82
31.62
33.77
34.55
34.4
33.82
33.2
32.84
32.86
33.31
34.15
35.32
36.77
38.4
40.12
41.84
43.38
44.55
45.09
44.82
43.64
41.59
38.78
35.41
31.66
27.72
23.74
19.88
16.24
12.85
9.62
6.39
3
-0.59
-4.31
-7.96
-11.36
-14.37
-17
-19.33
-21.57
-24.01
-27
-30.92
-35.95
-41.85
-47.86
-52.71
-54.97
-53.45
-47.67
-37.97
-25.45
-11.55
2.28
14.92
25.63
34.03
40.01
43.63
45.09
44.78
43.15
40.73
38
35.33
32.98
31.11
29.82
29.18
29.19
29.8
30.84
32.04
33.05
33.58
33.38
32.4
30.71
28.49
25.92
23.09
20
16.63
13.02
9.28
5.6
2.17
-0.94
-3.74
-6.34
-8.86
-11.43
-14.08
-16.84
-19.68
-22.55
-25.35
-27.96
-30.35
-32.58
-34.91
-37.68
-41.19
-45.58
-50.68
-55.93
-60.46
-63.22
-63.27
-59.96
-53.17
-43.34
-31.38
-18.44
-5.64
6.07
16.05
23.9
29.45
32.7
33.8
33.09
31.01
28.15
25.04
22.19
19.91
18.39
17.64
17.58
18.06
18.95
20.08
21.26
22.25
22.8
22.71
21.88
20.34
18.25
15.77
13.02
10.04
6.78
3.22
-0.6
-4.53
-8.37
-11.92
-15.04
-17.72
-20.07
-22.34
-24.82
-27.81
-31.54
-35.99
-40.81
-45.24
-48.22
-48.65
-45.76
-39.39
-30.1
-18.96
-7.28
3.81
13.54
21.52
27.57
31.62
33.63
33.67
31.98
29.06
25.51
21.94
18.78
16.24
14.33
13.01
12.28
12.2
12.82
14.08
15.71
17.25
18.14
17.92
16.39
13.71
10.29
6.68
3.31
0.33
-2.43
-5.32
-8.69
-12.69
-17.17
-21.76
-26.02
-29.64
-32.58
-35.12
-37.75
-41.02
-45.32
-50.73
-56.8
-62.55
-66.64
-67.69
-64.69
-57.39
-46.4
-32.99
-18.7
-4.92
7.4
17.77
26.02
32.12
36.07
37.91
37.82
36.22
33.7
30.9
28.41
26.55
25.4
24.82
24.6
24.6
24.74
25.09
25.69
26.45
27.14
27.4
26.86
25.33
22.86
19.73
16.33
12.94
9.66
6.39
2.9
-1.01
-5.35
-9.92
-14.38
-18.33
-21.54
-24
-25.97
-27.92
-30.38
-33.83
-38.48
-44.17
-50.25
-55.64
-59.02
-59.21
-55.52
-47.91
-37.08
-24.18
-10.52
2.76
14.88
25.33
33.81
40.06
43.89
45.23
44.27
41.54
37.85
34.08
30.92
28.71
27.42
26.75
26.39
26.21
26.22
26.54
27.19
27.97
28.54
28.47
27.49
25.51
22.7
19.35
15.78
12.24
8.83
5.53
2.23
-1.18
-4.73
-8.32
-11.77
-14.89
-17.65
-20.19
-22.83
-25.93
-29.8
-34.51
-39.82
-45.18
-49.72
-52.44
-52.4
-48.98
-42.06
-32.16
-20.23
-7.45
5.05
16.41
26.05
33.61
38.85
41.66
42.09
40.48
37.42
33.66
29.92
26.76
24.47
23.13
22.65
22.89
23.66
24.74
25.89
26.86
27.41
27.3
26.39
24.6
21.97
18.7
15.16
11.73
8.73
6.22
3.94
1.45
-1.71
-5.75
-10.5
-15.49
-20.14
-24.06
-27.18
-29.84
-32.56
-35.89
-40.12
-45.19
-50.58
-55.39
-58.48
-58.73
-55.28
-47.87
-36.86
-23.23
-8.32
6.42
19.76
30.77
38.97
44.21
46.7
46.89
45.36
42.76
39.62
36.4
33.39
30.86
29
27.96
27.77
28.23
29.01
29.67
29.86
29.39
28.3
26.73
24.84
22.71
20.31
17.63
14.73
11.73
8.77
5.89
3.01
-0.03
-3.38
-7.05
-10.96
-14.95
-18.9
-22.78
-26.62
-30.44
-34.2
-37.8
-41.1
-44.02
-46.66
-49.28
-52.32
-56.29
-61.57
-68.13
-75.3
-81.74
-85.69
-85.5
-80.13
-69.63
-55.16
-38.61
-22.07
-7.15
5.25
14.97
22.28
27.53
30.9
32.38
31.95
29.8
26.46
22.69
19.27
16.79
15.47
15.26
15.95
17.35
19.31
21.68
24.21
26.55
28.27
29.04
28.76
27.52
25.61
23.33
20.93
18.56
16.27
14.02
11.76
9.41
6.87
4.11
1.14
-1.97
-5.05
-7.97
-10.59
-12.87
-14.89
-16.85
-18.98
-21.56
-24.9
-29.27
-34.8
-41.31
-48.21
-54.45
-58.65
-59.49
-56.1
-48.35
-36.89
-22.94
-7.91
6.88
20.4
31.93
41.01
47.35
50.87
51.68
50.18
46.99
42.89
38.71
35.12
32.53
31.03
30.46
30.54
31
31.69
32.51
33.35
34
34.19
33.64
32.21
29.92
26.88
23.32
19.41
15.33
11.21
7.18
3.34
-0.21
-3.41
-6.3
-8.98
-11.64
-14.55
-17.87
-21.65
-25.68
-29.61
-33.05
-35.77
-37.85
-39.72
-42.07
-45.57
-50.65
-57.26
-64.7
-71.65
-76.46
-77.52
-73.85
-65.33
-52.85
-37.96
-22.43
-7.69
5.33
16.23
24.96
31.54
35.95
38.18
38.27
36.52
33.44
29.72
26.06
23.03
20.96
19.92
19.82
20.44
21.53
22.87
24.22
25.38
26.14
26.38
26.04
25.16
23.78
21.95
19.68
17.01
13.98
10.76
7.5
4.39
1.53
-1.06
-3.42
-5.64
-7.84
-10.11
-12.55
-15.17
-17.93
-20.71
-23.38
-25.88
-28.29
-30.9
-34.08
-38.21
-43.45
-49.58
-55.92
-61.33
-64.49
-64.26
-59.97
-51.77
-40.47
-27.4
-13.97
-1.32
9.82
19.09
26.36
31.6
34.77
35.91
35.22
33.06
29.95
26.45
23.08
20.21
18.05
16.68
16.08
16.13
16.69
17.57
18.55
19.37
19.82
19.71
18.93
17.5
15.51
13.07
10.26
7.12
3.65
-0.09
-4.01
-7.93
-11.64
-14.99
-17.88
-20.37
-22.64
-25
-27.86
-31.53
-36.13
-41.37
-46.5
-50.38
-51.75
-49.68
-43.83
-34.6
-23
-10.36
2.12
13.56
23.48
31.68
38.03
42.38
44.58
44.62
42.78
39.62
35.89
32.31
29.34
27.14
25.6
24.58
24
23.92
24.41
25.42
26.68
27.67
27.83
26.72
24.24
20.62
16.35
11.93
7.72
3.81
0.04
-3.85
-8.12
-12.83
-17.88
-22.94
-27.65
-31.71
-34.97
-37.58
-39.94
-42.63
-46.24
-51.16
-57.34
-64.14
-70.35
-74.46
-75
-71.05
-62.48
-50.03
-35.05
-19.13
-3.71
10.21
22.07
31.67
38.99
44.05
46.89
47.66
46.68
44.45
41.6
38.74
36.37
34.74
33.91
33.76
34.17
35.01
36.19
37.58
38.95
40.01
40.39
39.83
38.23
35.72
32.62
29.28
26
22.84
19.69
16.31
12.52
8.34
3.99
-0.14
-3.73
-6.65
-9.08
-11.37
-13.96
-17.07
-20.66
-24.45
-28.05
-31.17
-33.82
-36.21
-38.77
-41.9
-45.94
-51.06
-57.18
-63.82
-70.1
-74.74
-76.32
-73.69
-66.35
-54.67
-39.83
-23.48
-7.27
7.5
20.1
30.25
37.97
43.39
46.61
47.76
47.03
44.79
41.63
38.24
35.29
33.23
32.18
32.02
32.45
33.2
34.08
35
35.87
36.55
36.89
36.7
35.88
34.34
32.08
29.12
25.54
21.5
17.22
12.95
8.92
5.21
1.78
-1.47
-4.66
-7.83
-10.96
-13.99
-16.89
-19.66
-22.36
-25.04
-27.77
-30.65
-33.87
-37.7
-42.43
-48.09
-54.29
-60.1
-64.16
-65.09
-61.9
-54.36
-43.03
-29.15
-14.18
0.54
13.98
25.51
34.76
41.55
45.8
47.54
46.99
44.63
41.11
37.22
33.67
30.97
29.32
28.59
28.51
28.75
29.12
29.57
30.16
30.89
31.62
32.03
31.76
30.54
28.31
25.28
21.79
18.22
14.82
11.68
8.79
6.1
3.56
1.16
-1.11
-3.3
-5.49
-7.75
-10.14
-12.62
-15.18
-17.79
-20.53
-23.54
-26.97
-30.87
-35.17
-39.58
-43.73
-47.32
-50.22
-52.62
-54.98
-57.95
-62.12
-67.78
-74.66
-81.83
-87.8
-90.81
-89.32
-82.47
-70.37
-54.05
-35.21
-15.75
2.63
18.71
31.77
41.57
48.14
51.76
52.87
52.04
49.99
47.46
45.13
43.5
42.87
43.25
44.49
46.34
48.56
50.99
53.51
56.03
58.36
60.28
61.55
61.96
61.39
59.81
57.28
53.91
49.8
45.06
39.78
34.09
28.18
22.26
16.56
11.24
6.35
1.86
-2.36
-6.45
-10.49
-14.54
-18.62
-22.79
-27.13
-31.75
-36.72
-41.95
-47.21
-52.1
-56.29
-59.56
-62
-63.96
-66.07
-69
-73.31
-79.17
-86.16
-93.23
-98.8
-101.16
-98.89
-91.32
-78.75
-62.32
-43.68
-24.61
-6.7
8.83
21.09
29.58
34.17
35.16
33.28
29.6
25.28
21.39
18.6
17.13
16.76
17.06
17.61
18.17
18.76
19.52
20.54
21.72
22.79
23.42
23.42
22.78
21.7
20.45
19.26
18.23
17.38
16.67
16.06
15.53
15.08
14.66
14.21
13.64
12.85
11.73
10.24
8.38
6.31
4.25
2.43
1.06
0.13
-0.56
-1.35
-2.54
-4.29
-6.54
-9.06
-11.6
-14.02
-16.34
-18.75
-21.48
-24.8
-28.96
-34.1
-40.19
-46.77
-52.89
-57.2
-58.26
-55.05
-47.28
-35.59
-21.31
-6.03
8.78
22.1
33.37
42.38
49.13
53.64
55.94
56.16
54.56
51.59
47.9
44.2
41.06
38.84
37.56
37.05
37
37.18
37.48
37.88
38.35
38.78
38.92
38.44
37.09
34.74
31.54
27.82
23.99
20.4
17.17
14.2
11.29
8.22
4.94
1.6
-1.51
-4.15
-6.19
-7.76
-9.2
-10.89
-13.12
-15.95
-19.16
-22.38
-25.27
-27.65
-29.64
-31.55
-33.76
-36.6
-40.25
-44.68
-49.64
-54.6
-58.69
-60.79
-59.77
-54.89
-46.1
-34.14
-20.34
-6.22
6.99
18.54
28.15
35.77
41.35
44.74
45.78
44.48
41.17
36.57
31.62
27.23
24.03
22.23
21.67
21.96
22.73
23.72
24.85
26.04
27.12
27.86
27.94
27.16
25.47
22.97
19.79
16.09
12.03
7.78
3.53
-0.54
-4.38
-8.05
-11.7
-15.5
-19.43
-23.33
-26.96
-30.14
-32.86
-35.27
-37.63
-40.21
-43.25
-46.97
-51.54
-56.95
-62.9
-68.65
-73.08
-74.88
-72.93
-66.66
-56.26
-42.63
-27.15
-11.28
3.72
17
28.06
36.7
42.86
46.61
48.09
47.63
45.7
42.9
39.84
37.05
34.85
33.39
32.66
32.57
32.97
33.68
34.47
35.09
35.27
34.81
33.6
31.66
29.09
26.05
22.67
19.07
15.33
11.5
7.61
3.69
-0.23
-4.14
-8.03
-11.89
-15.73
-19.51
-23.2
-26.73
-30
-32.93
-35.49
-37.74
-39.9
-42.36
-45.56
-49.89
-55.48
-61.95
-68.38
-73.39
-75.44
-73.27
-66.29
-54.83
-40.02
-23.44
-6.74
8.79
22.34
33.49
42.04
47.88
50.98
51.46
49.74
46.52
42.62
38.79
35.52
32.99
31.15
29.86
29
28.52
28.36
28.39
28.39
28.1
27.31
25.95
24
21.5
18.49
14.98
11.02
6.75
2.37
-1.88
-5.83
-9.45
-12.86
-16.22
-19.6
-22.95
-25.97
-28.32
-29.7
-30.03
-29.56
-28.75
-28.23
-28.61
-30.33
-33.62
-38.41
-44.22
-50.17
-55.05
-57.49
-56.34
-51
-41.63
-29.13
-14.92
-0.49
12.91
24.43
33.68
40.55
45.07
47.39
47.7
46.36
43.84
40.77
37.75
35.28
33.64
32.88
32.86
33.34
34.16
35.17
36.27
37.36
38.25
38.72
38.53
37.54
35.73
33.21
30.22
27.04
23.88
20.81
17.72
14.4
10.68
6.57
2.34
-1.57
-4.73
-6.97
-8.53
-9.96
-11.86
-14.55
-17.91
-21.43
-24.55
-26.98
-28.79
-30.45
-32.53
-35.49
-39.62
-45.02
-51.53
-58.58
-65.07
-69.51
-70.52
-67.51
-61.19
-53.47
-46.86
-43.57
-44.69
-50
-58.2
-67.38
-75.56
-80.94
-82.01
-77.76
-67.9
-53.03
-34.68
-14.9
4.22
21.05
34.72
45.06
52.4
57.26
60.14
61.45
61.44
60.35
58.47
56.16
53.86
51.97
50.82
50.52
51.02
52.1
53.44
54.7
55.55
55.74
55.07
53.47
50.95
47.65
43.83
39.83
35.99
32.54
29.53
26.79
24.04
21.02
17.63
14.02
10.52
7.44
4.91
2.78
0.71
-1.67
-4.55
-7.81
-11.11
-14.07
-16.54
-18.67
-20.9
-23.7
-27.41
-32.06
-37.36
-42.86
-48.11
-52.82
-56.93
-60.63
-64.31
-68.54
-73.85
-80.54
-88.44
-96.65
-103.62
-107.44
-106.38
-99.53
-87.1
-70.45
-51.6
-32.64
-15.2
-0.15
12.31
22.4
30.4
36.53
40.88
43.56
44.75
44.74
43.96
42.86
41.85
41.16
40.94
41.18
41.83
42.91
44.42
46.33
48.5
50.61
52.19
52.78
52.09
50.11
47.13
43.64
40.12
36.92
34.16
31.7
29.33
26.77
23.89
20.65
17.18
13.69
10.42
7.51
4.96
2.64
0.3
-2.27
-5.21
-8.53
-12.12
-15.87
-19.7
-23.58
-27.53
-31.57
-35.7
-39.93
-44.25
-48.51
-52.27
-54.81
-55.14
-52.37
-46.01
-36.22
-23.81
-10
3.9
16.83
28.1
37.35
44.39
49.11
51.41
51.34
49.09
45.12
40.06
34.66
29.66
25.62
22.87
21.43
21.05
21.42
22.16
23.02
23.79
24.29
24.34
23.69
22.2
19.84
16.77
13.29
9.7
6.19
2.8
-0.48
-3.68
-6.79
-9.73
-12.49
-15.13
-17.78
-20.6
-23.62
-26.81
-30.1
-33.46
-37.02
-41.06
-45.97
-52.06
-59.36
-67.5
-75.58
-82.29
-86.22
-86.14
-81.36
-71.95
-58.69
-42.84
-25.89
-9.27
5.87
18.73
28.92
36.37
41.26
43.9
44.63
43.81
41.77
38.97
35.91
33.11
31.02
29.84
29.55
29.93
30.65
31.42
32.04
32.36
32.3
31.76
30.61
28.77
26.22
23.04
19.38
15.43
11.36
7.3
3.29
-0.62
-4.46
-8.17
-11.76
-15.21
-18.53
-21.72
-24.78
-27.65
-30.32
-32.85
-35.46
-38.51
-42.46
-47.66
-54.13
-61.33
-68.13
-73
-74.35
-71.06
-62.81
-50.2
-34.57
-17.6
-0.85
14.48
27.66
38.33
46.34
51.66
54.35
54.68
53.11
50.3
46.94
43.64
40.8
38.59
37.03
36.1
35.74
35.92
36.5
37.26
37.86
37.99
37.37
35.97
33.91
31.43
28.78
26.08
23.26
20.17
16.62
12.57
8.12
3.55
-0.82
-4.76
-8.23
-11.38
-14.45
-17.67
-21.15
-24.82
-28.56
-32.23
-35.77
-39.24
-42.76
-46.55
-50.89
-56.04
-62.15
-69.01
-75.84
-81.31
-83.77
-81.8
-74.73
-62.96
-47.9
-31.43
-15.38
-1.02
11.02
20.62
27.84
32.73
35.34
35.88
34.74
32.59
30.24
28.44
27.69
28.17
29.66
31.69
33.7
35.27
36.25
36.8
37.23
37.8
38.5
39.03
38.95
37.82
35.48
32.02
27.75
23.02
18.12
13.23
8.43
3.75
-0.8
-5.27
-9.65
-13.94
-18.04
-21.85
-25.28
-28.33
-31.18
-34.12
-37.54
-41.8
-47.13
-53.51
-60.53
-67.26
-72.35
-74.27
-71.75
-64.24
-52.12
-36.65
-19.54
-2.51
13.08
26.43
37.18
45.22
50.6
53.42
53.92
52.46
49.61
46.02
42.33
39.09
36.66
35.19
34.61
34.72
35.27
36
36.67
37.1
37.09
36.48
35.13
32.98
30.04
26.48
22.55
18.58
14.84
11.53
8.66
6.12
3.66
1.05
-1.86
-5.01
-8.17
-11.02
-13.36
-15.22
-16.9
-18.86
-21.54
-25.13
-29.54
-34.39
-39.21
-43.56
-47.19
-50.08
-52.44
-54.65
-57.22
-60.72
-65.56
-71.8
-78.87
-85.5
-89.91
-90.29
-85.33
-74.74
-59.32
-40.73
-21.01
-2.02
14.91
29.07
40.23
48.42
53.77
56.41
56.57
54.61
51.13
46.89
42.71
39.29
37.07
36.11
36.17
36.91
38.03
39.35
40.81
42.3
43.61
44.35
44.11
42.6
39.78
35.93
31.5
27.01
22.83
19.11
15.76
12.53
9.12
5.3
0.99
-3.72
-8.59
-13.32
-17.6
-21.22
-24.13
-26.46
-28.48
-30.51
-32.83
-35.55
-38.65
-41.92
-45.13
-48.08
-50.69
-53.06
-55.44
-58.19
-61.72
-66.39
-72.27
-79.02
-85.76
-91.14
-93.62
-91.8
-84.94
-73.09
-57.2
-38.83
-19.76
-1.63
14.4
27.62
37.79
44.91
49.2
50.95
50.62
48.77
46.08
43.25
40.87
39.32
38.68
38.84
39.55
40.59
41.81
43.16
44.56
45.85
46.75
46.91
46.01
43.9
40.67
36.68
32.43
28.39
24.83
21.73
18.85
15.87
12.54
8.84
4.92
1.02
-2.62
-5.9
-8.83
-11.54
-14.21
-17.09
-20.48
-24.63
-29.68
-35.41
-41.18
-45.9
-48.27
-47.1
-41.74
-32.28
-19.56
-4.98
9.93
23.8
35.67
44.98
51.49
55.18
56.13
54.58
51
46.12
40.82
35.97
32.22
29.82
28.65
28.33
28.42
28.59
28.68
28.63
28.4
27.9
26.92
25.23
22.63
19.08
14.7
9.76
4.62
-0.44
-5.25
-9.87
-14.44
-19.1
-23.92
-28.76
-33.4
-37.58
-41.16
-44.14
-46.71
-49.21
-52.11
-55.93
-61.06
-67.6
-75.06
-82.3
-87.62
-89.23
-85.77
-76.77
-62.83
-45.47
-26.61
-8.06
8.83
23.33
35.13
44.17
50.46
54.01
54.96
53.66
50.72
46.95
43.15
40.01
37.89
36.83
36.64
37
37.6
38.21
38.69
38.87
38.62
37.8
36.26
33.97
30.98
27.4
23.37
19.02
14.44
9.72
4.99
0.41
-3.89
-7.8
-11.37
-14.69
-17.91
-21.17
-24.49
-27.85
-31.14
-34.28
-37.25
-40.13
-43.22
-46.93
-51.76
-58.03
-65.55
-73.44
-80.14
-83.76
-82.64
-75.9
-63.77
-47.51
-28.98
-10.12
7.54
23.01
35.84
45.9
53.22
57.88
60.05
59.99
58.17
55.26
52.06
49.33
47.71
47.46
48.54
50.53
52.9
55.04
56.42
56.65
55.45
52.67
48.36
42.76
36.3
29.54
23.08
17.35
12.6
8.71
5.32
1.96
-1.7
-5.74
-9.88
-13.68
-16.72
-18.9
-20.51
-22.07
-24.18
-27.12
-30.81
-34.86
-38.74
-42.1
-44.79
-46.99
-49.03
-51.34
-54.33
-58.34
-63.55
-69.79
-76.37
-82.03
-85.11
-83.97
-77.49
-65.47
-48.75
-28.89
-7.88
12.43
30.53
45.38
56.36
63.22
66.08
65.45
62.17
57.39
52.24
47.73
44.47
42.64
42.05
42.27
42.9
43.69
44.56
45.59
46.74
47.85
48.5
48.14
46.35
42.95
38.18
32.58
26.83
21.5
16.93
13.22
10.27
7.9
5.86
3.95
1.92
-0.36
-2.98
-5.87
-8.91
-12.04
-15.37
-19.15
-23.72
-29.29
-35.77
-42.77
-49.69
-55.93
-61.04
-64.85
-67.44
-69.1
-70.32
-71.69
-73.72
-76.6
-79.87
-82.32
-82.2
-77.75
-67.88
-52.69
-33.47
-12.36
8.39
27.01
42.54
54.74
63.78
69.91
73.4
74.55
73.84
72.05
69.99
68.35
67.43
67.08
66.9
66.46
65.6
64.44
63.25
62.39
62.03
62.24
62.92
63.88
64.91
65.63
65.66
64.67
62.61
59.73
56.41
52.96
49.36
45.33
40.52
34.7
27.94
20.53
12.83
5.14
-2.33
-9.41
-15.97
-21.93
-27.31
-32.28
-37.12
-42.07
-47.2
-52.38
-57.39
-62.07
-66.47
-70.85
-75.66
-81.38
-88.26
-96.06
-103.9
-110.27
-113.4
-111.74
-104.47
-91.8
-74.92
-55.61
-35.78
-17.06
-0.59
12.97
23.35
30.46
34.33
35.16
33.32
29.44
24.39
19.1
14.4
10.84
8.6
7.5
7.18
7.19
7.19
6.99
6.51
5.76
4.69
3.14
0.91
-2.18
-6.23
-11.06
-16.32
-21.58
-26.47
-30.82
-34.72
-38.37
-41.96
-45.56
-49.02
-52
-54.1
-54.91
-54.09
-51.48
-47.22
-41.88
-36.45
-32.08
-29.73
-29.63
-31.12
-32.71
-32.61
-29.34
-22.26
-11.68
1.3
15.23
28.72
40.64
50.21
57
60.85
61.83
60.2
56.34
50.78
44.13
37.09
30.39
24.66
20.23
17.05
14.78
12.93
11.12
9.22
7.36
5.72
4.34
2.97
1.16
-1.62
-5.66
-10.92
-17.03
-23.39
-29.47
-35
-40
-44.76
-49.7
-55.19
-61.49
-68.6
-76.19
-83.58
-89.66
-93.09
-92.52
-87.03
-76.41
-61.28
-42.98
-23.23
-3.69
14.29
29.79
42.25
51.42
57.2
59.68
59.17
56.24
51.66
46.37
41.24
36.98
33.97
32.23
31.47
31.27
31.14
30.75
29.9
28.56
26.77
24.59
22
18.98
15.46
11.4
6.8
1.78
-3.45
-8.6
-13.47
-17.98
-22.25
-26.56
-31.31
-36.91
-43.69
-51.7
-60.57
-69.35
-76.58
-80.5
-79.58
-73.01
-60.93
-44.47
-25.35
-5.41
13.74
30.92
45.4
56.74
64.74
69.45
71.16
70.38
67.76
64
59.71
55.38
51.38
47.97
45.28
43.34
42.08
41.34
40.87
40.4
39.62
38.23
35.99
32.8
28.74
24.06
19.05
13.95
8.84
3.63
-1.8
-7.49
-13.3
-19
-24.31
-29.15
-33.63
-38.07
-42.94
-48.7
-55.59
-63.48
-71.66
-78.75
-82.96
-82.57
-76.47
-64.59
-48
-28.55
-8.34
10.79
27.59
41.44
52.11
59.63
64.09
65.64
64.57
61.3
56.45
50.78
45.12
40.18
36.46
34.09
32.88
32.41
32.26
32.11
31.76
31.1
30.03
28.42
26.18
23.31
19.91
16.14
12.15
7.97
3.55
-1.18
-6.19
-11.33
-16.33
-20.95
-25.11
-28.94
-32.82
-37.23
-42.6
-49.04
-56.2
-63.06
-68.11
-69.68
-66.45
-57.89
-44.49
-27.64
-9.17
9.13
25.83
40.06
51.35
59.53
64.55
66.52
65.7
62.6
57.92
52.47
47.04
42.24
38.45
35.73
33.86
32.56
31.57
30.77
30.18
29.82
29.6
29.26
28.36
26.5
23.47
19.32
14.42
9.23
4.17
-0.53
-4.88
-9.05
-13.29
-17.78
-22.61
-27.74
-33.03
-38.26
-43.2
-47.68
-51.69
-55.39
-59.15
-63.51
-69.01
-76
-84.37
-93.26
-101.08
-105.76
-105.28
-98.39
-85.06
-66.53
-44.91
-22.52
-1.25
17.77
34.05
47.5
58.08
65.77
70.62
72.87
73.02
71.79
69.84
67.68
65.59
63.61
61.75
60.04
58.55
57.34
56.39
55.53
54.53
53.11
51.1
48.39
45.03
41.09
36.71
32.09
27.48
23.16
19.31
15.92
12.75
9.43
5.6
1.16
-3.7
-8.53
-12.89
-16.51
-19.5
-22.23
-25.21
-28.83
-33.24
-38.28
-43.63
-48.92
-53.83
-58.24
-62.2
-65.96
-69.9
-74.51
-80.31
-87.53
-95.88
-104.28
-110.9
-113.49
-110.06
-99.55
-82.24
-59.74
-34.48
-9.11
14.24
34.18
50.12
62.02
70.15
74.96
76.93
76.67
74.78
71.9
68.55
65.17
62.01
59.24
56.92
55.12
53.87
53.22
53.15
53.51
54.03
54.26
53.7
51.92
48.73
44.24
38.86
33.2
27.83
23.13
19.2
15.89
12.89
9.87
6.55
2.82
-1.25
-5.44
-9.41
-12.84
-15.61
-17.84
-19.9
-22.25
-25.22
-28.94
-33.24
-37.8
-42.27
-46.37
-49.98
-53.15
-56.1
-59.21
-63.03
-68.13
-74.79
-82.68
-90.6
-96.6
-98.44
-94.35
-83.69
-67.23
-46.88
-25.05
-3.9
15.07
31.14
44.04
53.71
60.04
63.02
62.84
60.11
55.71
50.69
45.92
41.93
38.87
36.63
35.01
33.9
33.28
33.21
33.64
34.4
35.12
35.38
34.84
33.36
31.04
28.16
25.04
21.91
18.81
15.63
12.19
8.35
4.2
-0
-3.92
-7.29
-10.09
-12.56
-15.11
-18.05
-21.44
-25.04
-28.43
-31.22
-33.3
-34.94
-36.66
-39.09
-42.78
-48.01
-54.67
-62.27
-69.83
-75.96
-79.14
-78.04
-71.95
-61.03
-46.26
-29.15
-11.39
5.58
20.69
33.31
43.11
49.94
53.84
54.94
53.54
50.08
45.15
39.46
33.79
28.87
25.2
22.94
21.97
21.95
22.53
23.48
24.66
25.87
26.84
27.12
26.28
24.08
20.62
16.31
11.71
7.27
3.1
-1
-5.39
-10.37
-15.97
-21.88
-27.57
-32.57
-36.6
-39.72
-42.35
-45.1
-48.65
-53.52
-59.93
-67.58
-75.54
-82.33
-86.21
-85.64
-79.71
-68.52
-53.11
-35.19
-16.63
0.95
16.43
29.16
38.85
45.4
48.8
49.25
47.16
43.2
38.22
33.07
28.4
24.62
21.83
19.92
18.73
18.15
18.14
18.72
19.86
21.33
22.75
23.62
23.47
21.99
19.18
15.32
10.88
6.43
2.34
-1.24
-4.49
-7.74
-11.34
-15.48
-20.13
-25.02
-29.82
-34.23
-38.13
-41.61
-44.96
-48.63
-53.13
-58.93
-66.16
-74.38
-82.44
-88.56
-90.78
-87.58
-78.4
-63.84
-45.48
-25.36
-5.42
12.86
28.52
41
49.99
55.34
57.12
55.72
51.85
46.41
40.33
34.42
29.21
25.02
21.93
19.87
18.67
18.12
17.98
18.01
17.95
17.55
16.6
14.95
12.61
9.67
6.34
2.83
-0.71
-4.23
-7.76
-11.35
-15.02
-18.74
-22.49
-26.28
-30.17
-34.21
-38.41
-42.67
-46.85
-50.8
-54.44
-57.88
-61.33
-65.07
-69.46
-74.8
-81.36
-89.16
-97.78
-106.22
-112.93
-116.18
-114.54
-107.36
-95.02
-78.74
-60.18
-40.97
-22.38
-5.3
9.68
22.11
31.64
38.13
41.74
42.96
42.55
41.35
40.08
39.24
39.05
39.54
40.66
42.29
44.33
46.68
49.19
51.67
53.89
55.65
56.78
57.17
56.79
55.65
53.75
51.13
47.84
44.04
39.93
35.76
31.76
28.05
24.64
21.43
18.23
14.85
11.07
6.71
1.78
-3.47
-8.4
-12.11
-13.57
-11.93
-6.82
1.54
12.43
24.77
37.46
49.55
60.27
69.08
75.61
79.66
81.27
80.67
78.32
74.78
70.61
66.26
61.94
57.69
53.4
48.91
44.15
39.19
34.24
29.6
25.54
22.27
19.82
18.09
16.83
15.76
14.64
13.32
11.82
10.29
8.89
7.69
6.56
5.2
3.22
0.35
-3.47
-7.99
-12.73
-16.98
-19.97
-20.99
-19.56
-15.58
-9.38
-1.69
6.54
14.36
21
25.99
29.05
30.12
29.26
26.69
22.78
18.04
13.05
8.37
4.41
1.44
-0.48
-1.45
-1.71
-1.55
-1.33
-1.35
-1.81
-2.8
-4.27
-6.13
-8.31
-10.85
-13.83
-17.33
-21.28
-25.49
-29.64
-33.45
-36.76
-39.61
-42.2
-44.85
-47.91
-51.63
-56.15
-61.28
-66.42
-70.52
-72.24
-70.34
-64.05
-53.36
-39.09
-22.64
-5.59
10.64
25.01
36.9
46.01
52.27
55.78
56.81
55.8
53.29
49.93
46.29
42.84
39.84
37.35
35.28
33.51
31.93
30.59
29.56
28.84
28.31
27.64
26.38
24.15
20.81
16.54
11.81
7.12
2.84
-0.95
-4.5
-8.21
-12.37
-17.04
-21.97
-26.75
-30.99
-34.47
-37.31
-39.82
-42.51
-45.88
-50.31
-55.82
-61.96
-67.73
-71.65
-72.15
-68.03
-58.8
-44.95
-27.74
-8.93
9.75
26.81
41.29
52.66
60.81
65.94
68.41
68.72
67.35
64.76
61.33
57.43
53.39
49.47
45.87
42.66
39.9
37.62
35.81
34.46
33.47
32.59
31.52
29.99
27.83
25.08
21.9
18.52
15.11
11.7
8.24
4.59
0.7
-3.38
-7.5
-11.44
-15.04
-18.26
-21.21
-24.07
-27.02
-30.1
-33.24
-36.28
-39.1
-41.65
-44.06
-46.6
-49.6
-53.44
-58.28
-63.95
-69.75
-74.44
-76.43
-74.25
-66.95
-54.5
-37.83
-18.57
1.29
19.97
36.11
48.93
58.17
63.92
66.55
66.57
64.64
61.46
57.69
53.83
50.15
46.72
43.45
40.24
37.08
34.09
31.45
29.34
27.8
26.69
25.71
24.47
22.64
20
16.55
12.5
8.15
3.87
-0.1
-3.68
-6.99
-10.25
-13.68
-17.38
-21.3
-25.23
-28.86
-31.94
-34.38
-36.27
-37.88
-39.61
-41.88
-45.03
-49.18
-54.08
-59.05
-62.92
-64.32
-61.95
-55.02
-43.6
-28.61
-11.65
5.47
21.17
34.33
44.4
51.24
54.97
55.85
54.27
50.76
46
40.74
35.64
31.17
27.57
24.81
22.72
21.07
19.71
18.55
17.61
16.87
16.3
15.72
14.89
13.52
11.39
8.45
4.84
0.88
-3.08
-6.75
-10.01
-12.93
-15.71
-18.6
-21.74
-25.11
-28.54
-31.78
-34.63
-37
-38.98
-40.8
-42.76
-45.17
-48.29
-52.2
-56.69
-61.12
-64.42
-65.28
-62.48
-55.32
-43.9
-29.17
-12.71
3.72
18.59
30.86
40.04
46.08
49.21
49.8
48.3
45.22
41.12
36.55
32.03
27.92
24.46
21.76
19.79
18.49
17.75
17.42
17.37
17.42
17.4
17.15
16.51
15.35
13.54
11.12
8.25
5.21
2.35
-0.12
-2.15
-3.97
-5.89
-8.19
-10.93
-13.91
-16.8
-19.25
-21.15
-22.62
-23.97
-25.55
-27.54
-29.92
-32.48
-34.93
-37.1
-38.95
-40.57
-42.16
-43.96
-46.22
-49.16
-52.85
-56.99
-60.8
-63.07
-62.41
-57.75
-48.71
-35.77
-20.14
-3.4
12.89
27.54
39.77
49.15
55.52
58.94
59.69
58.22
55.18
51.24
47.04
43.08
39.69
37.03
35.14
33.9
33.1
32.5
31.83
30.91
29.67
28.08
26.16
23.93
21.34
18.36
15
11.31
7.44
3.52
-0.38
-4.22
-8.05
-11.93
-15.89
-19.92
-23.98
-27.97
-31.75
-35.16
-38.14
-40.66
-42.82
-44.8
-46.83
-49.15
-52.01
-55.55
-59.72
-64.09
-67.81
-69.67
-68.43
-63.15
-53.62
-40.42
-24.75
-8.13
8
22.53
34.72
44.18
50.76
54.52
55.71
54.73
52.1
48.39
44.11
39.68
35.4
31.48
28.09
25.35
23.35
22.15
21.68
21.75
22.05
22.22
21.96
21.08
19.55
17.46
14.99
12.3
9.51
6.71
3.92
1.15
-1.6
-4.35
-7.09
-9.77
-12.32
-14.63
-16.64
-18.37
-19.99
-21.77
-24
-26.84
-30.23
-33.92
-37.51
-40.66
-43.28
-45.52
-47.82
-50.71
-54.59
-59.52
-65
-70
-73.11
-72.86
-68.2
-58.85
-45.37
-29.12
-11.81
4.93
19.83
32.12
41.48
47.84
51.28
52
50.38
47.01
42.65
38.07
33.89
30.48
27.91
26.15
25.09
24.67
24.83
25.46
26.34
27.18
27.69
27.65
26.92
25.51
23.42
20.76
17.63
14.24
10.77
7.41
4.26
1.31
-1.54
-4.39
-7.35
-10.41
-13.48
-16.4
-19.03
-21.29
-23.21
-24.93
-26.63
-28.47
-30.43
-32.36
-34.02
-35.21
-35.92
-36.39
-37.07
-38.52
-41.22
-45.46
-51.11
-57.55
-63.64
-67.91
-68.84
-65.32
-56.94
-44.13
-28.06
-10.35
7.3
23.44
36.99
47.38
54.45
58.42
59.74
58.95
56.56
53.01
48.67
43.92
39.23
35.05
31.79
29.64
28.58
28.43
28.9
29.74
30.69
31.54
32.07
32.11
31.52
30.24
28.34
25.93
23.19
20.28
17.38
14.57
11.88
9.32
6.86
4.48
2.21
0.03
-2.08
-4.26
-6.7
-9.61
-13.13
-17.23
-21.72
-26.28
-30.57
-34.36
-37.58
-40.36
-43.03
-45.99
-49.68
-54.37
-60
-66.01
-71.32
-74.44
-73.9
-68.69
-58.66
-44.59
-28.04
-10.82
5.42
19.54
30.95
39.46
45.13
48.12
48.69
47.22
44.24
40.36
36.17
32.15
28.63
25.77
23.6
22.08
21.16
20.73
20.69
20.87
21.08
21.09
20.72
19.84
18.4
16.43
14.01
11.25
8.29
5.3
2.5
0.07
-1.91
-3.49
-4.87
-6.34
-8.12
-10.33
-12.89
-15.6
-18.23
-20.66
-22.89
-25.09
-27.5
-30.35
-33.8
-37.86
-42.35
-46.77
-50.35
-52.06
-50.91
-46.18
-37.72
-26.1
-12.43
1.87
15.43
27.22
36.56
43.15
46.95
48.06
46.75
43.49
38.93
33.83
28.94
24.79
21.7
19.67
18.56
18.15
18.26
18.75
19.52
20.43
21.28
21.83
21.81
20.97
19.2
16.49
13.02
9.12
5.16
1.41
-2.11
-5.57
-9.3
-13.55
-18.31
-23.29
-27.98
-31.92
-34.93
-37.13
-39
-41.08
-43.88
-47.65
-52.27
-57.21
-61.5
-63.93
-63.28
-58.64
-49.74
-37.03
-21.61
-5.02
11.15
25.54
37.22
45.73
51.04
53.41
53.28
51.19
47.7
43.4
38.81
34.42
30.62
27.64
25.56
24.33
23.8
23.79
24.07
24.4
24.53
24.24
23.36
21.85
19.78
17.29
14.56
11.71
8.79
5.81
2.75
-0.32
-3.25
-5.85
-8.03
-9.87
-11.7
-13.88
-16.71
-20.14
-23.84
-27.31
-30.17
-32.26
-33.76
-34.99
-36.33
-38.08
-40.56
-43.96
-48.3
-53.11
-57.4
-59.72
-58.54
-52.88
-42.67
-28.84
-13.06
2.81
17.21
29.16
38.24
44.44
47.97
49.06
48.04
45.3
41.41
37.08
33.03
29.84
27.77
26.78
26.58
26.82
27.27
27.85
28.59
29.48
30.37
30.94
30.81
29.64
27.33
24.03
20.14
16.15
12.55
9.6
7.36
5.63
4.11
2.47
0.52
-1.76
-4.3
-6.93
-9.49
-11.85
-14
-16.04
-18.17
-20.57
-23.36
-26.47
-29.71
-32.79
-35.49
-37.73
-39.64
-41.56
-43.89
-47.04
-51.14
-55.96
-60.7
-64.09
-64.64
-61.08
-52.81
-40.19
-24.42
-7.26
9.51
24.44
36.64
45.71
51.64
54.64
55.06
53.34
50.03
45.73
41.07
36.6
32.8
29.92
28.03
27.01
26.65
26.7
27.02
27.51
28.07
28.56
28.73
28.34
27.21
25.3
22.75
19.79
16.67
13.63
10.81
8.27
6.02
4.03
2.22
0.49
-1.28
-3.17
-5.24
-7.47
-9.75
-11.97
-14.03
-15.92
-17.74
-19.66
-21.78
-24.1
-26.47
-28.67
-30.57
-32.16
-33.65
-35.33
-37.53
-40.48
-44.21
-48.47
-52.62
-55.6
-56.12
-52.99
-45.52
-33.87
-19.11
-2.92
12.85
26.63
37.51
45.12
49.6
51.27
50.54
47.89
43.88
39.18
34.47
30.36
27.26
25.29
24.35
24.2
24.6
25.36
26.4
27.64
28.93
29.98
30.45
29.96
28.33
25.57
21.99
18.02
14.13
10.65
7.67
5.1
2.74
0.36
-2.16
-4.81
-7.48
-10.03
-12.3
-14.27
-15.99
-17.67
-19.58
-21.98
-25.05
-28.71
-32.75
-36.78
-40.42
-43.44
-45.86
-47.96
-50.22
-53.19
-57.2
-62.25
-67.78
-72.71
-75.61
-75.04
-69.97
-60.11
-46.12
-29.39
-11.74
5.08
19.74
31.48
40.13
45.9
49.16
50.36
49.95
48.42
46.26
43.94
41.86
40.23
39.09
38.33
37.81
37.43
37.16
37.04
37.05
37.11
37.05
36.65
35.74
34.23
32.18
29.75
27.12
24.46
21.86
19.39
17.05
14.88
12.89
11.1
9.51
8.09
6.79
5.56
4.39
3.32
2.37
1.58
0.93
0.32
-0.33
-1.14
-2.13
-3.27
-4.5
-5.75
-7
-8.27
-9.6
-11.03
-12.6
-14.32
-16.18
-18.13
-20.08
-21.95
-23.65
-25.24
-26.84
-28.69
-30.99
-33.81
-37.03
-40.34
-43.47
-46.2
-48.61
-50.95
-53.66
-57.15
-61.65
-67.07
-72.82
-77.83
-80.66
-79.84
-74.31
-63.82
-49.03
-31.43
-12.88
4.85
20.43
33.16
42.84
49.6
53.71
55.52
55.36
53.68
50.98
47.8
44.65
41.93
39.82
38.35
37.41
36.84
36.53
36.39
36.33
36.24
35.98
35.39
34.37
32.9
31.04
28.91
26.61
24.2
21.73
19.3
16.96
14.82
12.9
11.2
9.66
8.2
6.74
5.27
3.79
2.33
0.92
-0.47
-1.88
-3.42
-5.17
-7.18
-9.39
-11.67
-13.84
-15.81
-17.61
-19.43
-21.51
-24.02
-26.95
-30.11
-33.17
-35.83
-37.95
-39.59
-40.97
-42.43
-44.33
-46.97
-50.5
-54.81
-59.36
-63.12
-64.75
-62.94
-56.81
-46.29
-32.14
-15.84
0.92
16.62
30.2
41.17
49.46
55.25
58.8
60.33
60.1
58.39
55.59
52.16
48.57
45.24
42.42
40.21
38.58
37.45
36.74
36.37
36.23
36.15
35.88
35.14
33.76
31.74
29.22
26.42
23.54
20.68
17.9
15.29
12.94
10.91
9.13
7.38
5.38
2.98
0.28
-2.42
-4.78
-6.65
-8.17
-9.7
-11.64
-14.14
-17.06
-19.99
-22.55
-24.52
-25.96
-27.2
-28.6
-30.47
-32.95
-35.92
-39.12
-42.24
-45.04
-47.43
-49.45
-51.24
-53.01
-55.01
-57.58
-61.09
-65.73
-71.26
-76.78
-80.8
-81.6
-77.78
-68.78
-55.18
-38.43
-20.44
-2.99
12.63
25.76
36.23
44.09
49.5
52.63
53.73
53.18
51.43
49
46.34
43.83
41.72
40.11
39.02
38.43
38.28
38.46
38.79
39.11
39.18
38.84
37.96
36.48
34.45
31.98
29.26
26.52
23.94
21.62
19.49
17.42
15.21
12.78
10.21
7.68
5.43
3.6
2.2
1.09
0.09
-1.03
-2.41
-4.12
-6.18
-8.48
-10.91
-13.28
-15.5
-17.55
-19.54
-21.62
-23.93
-26.51
-29.23
-31.9
-34.29
-36.3
-38
-39.64
-41.59
-44.26
-47.92
-52.52
-57.49
-61.82
-64.11
-63.05
-57.76
-48.13
-34.89
-19.41
-3.31
11.86
24.94
35.19
42.31
46.31
47.49
46.34
43.52
39.69
35.44
31.2
27.27
23.82
20.99
18.85
17.41
16.61
16.35
16.49
16.93
17.57
18.3
18.94
19.33
19.29
18.79
17.94
17.01
16.34
16.19
16.63
17.46
18.27
18.57
17.95
16.28
13.7
10.54
7.12
3.66
0.15
-3.49
-7.31
-11.24
-15.1
-18.69
-21.89
-24.7
-27.24
-29.65
-32.09
-34.73
-37.76
-41.39
-45.66
-50.29
-54.58
-57.43
-57.69
-54.46
-47.43
-37.02
-24.22
-10.39
3.15
15.3
25.32
32.82
37.66
39.92
39.79
37.59
33.76
28.82
23.37
18.04
13.41
10
8.15
8.02
9.54
12.42
16.19
20.27
24.08
27.19
29.31
30.41
30.57
29.96
28.72
26.94
24.65
21.88
18.65
15.05
11.24
7.42
3.76
0.38
-2.73
-5.7
-8.77
-12.15
-15.94
-20.1
-24.48
-28.87
-33.08
-37.03
-40.71
-44.23
-47.8
-51.7
-56.16
-61.21
-66.47
-71.03
-73.61
-72.89
-67.99
-58.76
-46
-31.13
-15.82
-1.49
10.97
21.21
29.24
35.19
39.15
41.18
41.39
40.01
37.49
34.41
31.31
28.64
26.61
25.29
24.65
24.61
25.07
25.87
26.74
27.39
27.5
26.88
25.46
23.35
20.77
17.98
15.23
12.66
10.3
8.11
5.98
3.81
1.59
-0.6
-2.63
-4.37
-5.81
-7.08
-8.46
-10.23
-12.6
-15.64
-19.22
-23.06
-26.87
-30.37
-33.46
-36.24
-38.95
-41.95
-45.59
-50.1
-55.36
-60.86
-65.63
-68.36
-67.75
-62.89
-53.61
-40.59
-25.17
-9.02
6.33
19.77
30.7
38.92
44.47
47.56
48.45
47.54
45.32
42.37
39.24
36.38
34.06
32.44
31.49
31.11
31.18
31.55
32.11
32.7
33.19
33.4
33.16
32.34
30.88
28.81
26.31
23.61
20.95
18.5
16.28
14.23
12.17
9.94
7.47
4.82
2.15
-0.35
-2.53
-4.39
-6.05
-7.7
-9.48
-11.43
-13.45
-15.37
-17.07
-18.57
-20.01
-21.64
-23.67
-26.21
-29.2
-32.43
-35.63
-38.54
-41.05
-43.2
-45.21
-47.46
-50.33
-54.06
-58.55
-63.24
-67.08
-68.78
-67.07
-61.17
-51.01
-37.31
-21.42
-4.91
10.74
24.45
35.53
43.69
48.88
51.27
51.17
49.15
45.9
42.18
38.65
35.71
33.51
31.99
31.01
30.44
30.22
30.31
30.67
31.17
31.62
31.78
31.45
30.51
28.94
26.85
24.39
21.67
18.78
15.74
12.57
9.3
6.02
2.82
-0.2
-2.95
-5.36
-7.38
-9.05
-10.48
-11.84
-13.29
-14.9
-16.62
-18.27
-19.73
-21.05
-22.46
-24.36
-27.11
-30.89
-35.55
-40.63
-45.4
-48.96
-50.35
-48.74
-43.6
-34.87
-23.11
-9.36
5.03
18.7
30.58
40.02
46.71
50.65
51.99
51
48.08
43.85
39.06
34.46
30.7
28.1
26.71
26.27
26.43
26.84
27.24
27.49
27.59
27.55
27.36
26.94
26.14
24.77
22.74
20.08
17
13.78
10.65
7.74
5.04
2.5
0.06
-2.27
-4.5
-6.65
-8.8
-11.01
-13.29
-15.59
-17.79
-19.85
-21.85
-23.98
-26.46
-29.37
-32.67
-36.1
-39.37
-42.26
-44.64
-46.62
-48.44
-50.49
-53.19
-56.85
-61.52
-66.78
-71.71
-74.97
-75.14
-71.1
-62.4
-49.39
-33.21
-15.45
2.17
18.17
31.52
41.74
48.8
53.02
54.88
54.94
53.71
51.67
49.21
46.66
44.26
42.13
40.33
38.84
37.69
36.9
36.49
36.44
36.6
36.76
36.67
36.12
34.97
33.22
30.96
28.37
25.66
23.04
20.64
18.49
16.47
14.42
12.16
9.67
7.07
4.59
2.46
0.81
-0.4
-1.35
-2.24
-3.23
-4.38
-5.63
-6.91
-8.21
-9.55
-11.02
-12.67
-14.51
-16.49
-18.49
-20.42
-22.23
-24.03
-25.99
-28.34
-31.21
-34.52
-38.03
-41.36
-44.19
-46.4
-48.14
-49.82
-51.99
-55.15
-59.54
-64.99
-70.74
-75.57
-77.96
-76.51
-70.34
-59.41
-44.5
-27.09
-8.91
8.37
23.5
35.66
44.57
50.3
53.22
53.88
52.88
50.83
48.28
45.64
43.23
41.22
39.65
38.49
37.65
37.08
36.75
36.64
36.71
36.82
36.8
36.45
35.66
34.35
32.54
30.26
27.61
24.7
21.71
18.83
16.17
13.81
11.67
9.66
7.68
5.74
3.92
2.34
1.09
0.14
-0.63
-1.35
-2.13
-3.06
-4.19
-5.57
-7.26
-9.24
-11.45
-13.75
-15.99
-18.05
-19.89
-21.61
-23.36
-25.33
-27.59
-30.16
-32.95
-35.79
-38.52
-41.06
-43.41
-45.7
-48.17
-51.09
-54.61
-58.6
-62.56
-65.55
-66.41
-64.03
-57.75
-47.52
-34.06
-18.62
-2.7
12.26
25.19
35.46
42.87
47.52
49.72
49.86
48.4
45.85
42.71
39.5
36.65
34.48
33.12
32.53
32.55
32.98
33.68
34.54
35.47
36.33
36.88
36.89
36.14
34.54
32.19
29.31
26.23
23.2
20.38
17.78
15.31
12.89
10.5
8.18
6.01
4.02
2.18
0.39
-1.46
-3.46
-5.64
-7.99
-10.41
-12.84
-15.22
-17.59
-20.07
-22.78
-25.83
-29.21
-32.8
-36.42
-39.84
-42.9
-45.57
-47.99
-50.44
-53.32
-57.02
-61.7
-67.03
-72.13
-75.59
-75.84
-71.67
-62.66
-49.35
-33.09
-15.67
1.24
16.36
28.95
38.75
45.79
50.3
52.57
53.01
52.08
50.23
47.95
45.58
43.37
41.46
39.93
38.83
38.18
38.01
38.25
38.82
39.48
40
40.08
39.54
38.27
36.33
33.86
31.06
28.09
25.1
22.19
19.45
16.96
14.74
12.77
10.95
9.15
7.26
5.25
3.22
1.26
-0.55
-2.18
-3.69
-5.16
-6.68
-8.33
-10.2
-12.32
-14.69
-17.19
-19.66
-21.93
-23.94
-25.79
-27.71
-29.92
-32.57
-35.59
-38.76
-41.83
-44.58
-46.99
-49.19
-51.44
-54.09
-57.47
-61.72
-66.66
-71.61
-75.42
-76.68
-74.12
-66.98
-55.33
-40.16
-23.04
-5.81
9.96
23.22
33.54
40.99
45.94
48.77
49.82
49.37
47.72
45.25
42.47
39.87
37.78
36.31
35.35
34.75
34.41
34.34
34.59
35.13
35.78
36.21
36.12
35.35
33.92
31.98
29.76
27.39
24.94
22.4
19.76
17.07
14.33
11.6
8.88
6.2
3.65
1.36
-0.54
-2
-3.09
-3.98
-4.87
-5.91
-7.12
-8.45
-9.82
-11.16
-12.49
-13.87
-15.35
-17.01
-18.91
-21.08
-23.49
-26.05
-28.6
-30.97
-33.05
-34.86
-36.61
-38.62
-41.27
-44.77
-49.08
-53.72
-57.79
-60.11
-59.44
-54.92
-46.34
-34.22
-19.77
-4.49
10.16
23.11
33.7
41.72
47.17
50.19
50.99
49.84
47.19
43.6
39.74
36.17
33.29
31.24
29.96
29.29
29.08
29.2
29.59
30.18
30.86
31.45
31.7
31.39
30.33
28.45
25.85
22.79
19.62
16.66
14.1
11.9
9.84
7.68
5.3
2.8
0.38
-1.72
-3.46
-4.94
-6.41
-8.08
-10.01
-12.11
-14.22
-16.24
-18.2
-20.23
-22.51
-25.14
-28.14
-31.4
-34.74
-37.98
-40.96
-43.62
-46.02
-48.4
-51.13
-54.6
-59.06
-64.39
-69.93
-74.48
-76.57
-74.8
-68.36
-57.34
-42.72
-26.15
-9.43
5.92
18.96
29.29
36.98
42.3
45.56
47.04
47.05
45.87
43.86
41.4
38.9
36.68
34.95
33.82
33.28
33.23
33.58
34.22
35.02
35.78
36.23
36.1
35.21
33.53
31.18
28.44
25.59
22.87
20.38
18.13
16.05
14.02
11.92
9.64
7.18
4.63
2.19
0.02
-1.73
-3.12
-4.3
-5.5
-6.94
-8.69
-10.69
-12.78
-14.79
-16.63
-18.32
-20.03
-21.97
-24.32
-27.09
-30.16
-33.29
-36.21
-38.74
-40.89
-42.83
-44.87
-47.38
-50.69
-54.91
-59.79
-64.6
-68.18
-69.19
-66.46
-59.44
-48.36
-34.26
-18.67
-3.15
10.99
22.92
32.28
39.03
43.33
45.41
45.56
44.16
41.64
38.52
35.32
32.49
30.29
28.78
27.86
27.37
27.12
27.01
26.97
26.98
26.98
26.94
26.77
26.42
25.81
24.93
23.76
22.34
20.74
19
17.17
15.19
12.99
10.48
7.71
4.85
2.19
0.06
-1.34
-2.03
-2.28
-2.54
-3.28
-4.86
-7.37
-10.58
-14.04
-17.23
-19.79
-21.67
-23.13
-24.66
-26.81
-30.02
-34.5
-40.15
-46.54
-52.83
-57.85
-60.32
-59.13
-53.74
-44.4
-32.12
-18.42
-4.91
7.15
17
24.43
29.57
32.72
34.17
34.23
33.21
31.52
29.63
28.06
27.17
27.12
27.78
28.86
30.03
31.1
32.05
32.94
33.79
34.44
34.63
34.05
32.53
30.12
27.06
23.63
20.1
16.65
13.4
10.47
8.03
6.17
4.85
3.83
2.72
1.13
-1.14
-3.99
-7.06
-9.88
-12.14
-13.79
-15.07
-16.36
-18.03
-20.28
-23.06
-26.2
-29.51
-32.82
-36.07
-39.2
-42.17
-45.01
-47.85
-50.96
-54.67
-59.12
-64.02
-68.47
-71.14
-70.62
-65.91
-56.82
-44.06
-28.98
-13.24
1.67
14.68
25.16
32.93
38.11
41.05
42.23
42.23
41.57
40.64
39.65
38.69
37.74
36.8
35.88
35.07
34.48
34.19
34.2
34.44
34.77
35
34.95
34.44
33.36
31.69
29.5
26.91
24.09
21.21
18.43
15.89
13.72
12.03
10.88
10.19
9.74
9.22
8.35
6.99
5.17
3.08
0.94
-1.12
-3.06
-4.91
-6.76
-8.65
-10.62
-12.72
-14.96
-17.33
-19.68
-21.83
-23.6
-24.95
-26
-27
-28.16
-29.58
-31.16
-32.7
-34.05
-35.24
-36.49
-38.18
-40.63
-44.06
-48.38
-53.16
-57.57
-60.53
-60.88
-57.75
-50.8
-40.36
-27.37
-13.1
1.1
14.1
25.07
33.54
39.34
42.6
43.68
43.07
41.33
38.96
36.34
33.77
31.47
29.58
28.15
27.16
26.5
26.09
25.84
25.78
25.89
26.07
26.16
25.93
25.21
23.99
22.4
20.65
18.92
17.3
15.76
14.24
12.65
10.98
9.27
7.56
5.88
4.26
2.71
1.19
-0.37
-2.14
-4.31
-7.03
-10.32
-14
-17.75
-21.26
-24.37
-27.14
-29.8
-32.68
-36.05
-40.04
-44.62
-49.56
-54.38
-58.28
-60.23
-59.15
-54.28
-45.53
-33.56
-19.69
-5.46
7.78
19.14
28.25
35.13
39.92
42.77
43.81
43.23
41.35
38.63
35.59
32.68
30.2
28.27
26.93
26.15
25.92
26.19
26.84
27.67
28.42
28.81
28.69
28
26.79
25.18
23.27
21.15
18.89
16.53
14.1
11.59
9.02
6.39
3.79
1.37
-0.75
-2.5
-4.01
-5.51
-7.26
-9.45
-12.05
-14.87
-17.59
-19.99
-21.99
-23.76
-25.6
-27.83
-30.57
-33.78
-37.21
-40.55
-43.59
-46.28
-48.75
-51.27
-54.2
-57.81
-62.24
-67.24
-72.11
-75.68
-76.56
-73.55
-66.05
-54.32
-39.49
-23.2
-7.14
7.33
19.43
28.91
35.89
40.63
43.5
44.82
44.93
44.16
42.8
41.1
39.3
37.64
36.36
35.62
35.5
35.93
36.69
37.51
38.15
38.44
38.26
37.58
36.35
34.6
32.38
29.85
27.21
24.65
22.28
20.08
17.94
15.78
13.56
11.32
9.15
7.14
5.33
3.72
2.29
1.03
-0.06
-1.02
-1.91
-2.86
-4.01
-5.51
-7.42
-9.74
-12.34
-15.08
-17.82
-20.48
-23.08
-25.71
-28.49
-31.44
-34.48
-37.44
-40.11
-42.4
-44.35
-46.18
-48.2
-50.73
-54
-58.12
-62.96
-68.12
-72.83
-75.97
-76.34
-72.91
-65.19
-53.48
-38.77
-22.55
-6.39
8.38
20.92
30.81
38.06
42.89
45.61
46.53
45.96
44.19
41.61
38.67
35.91
33.8
32.64
32.42
32.91
33.73
34.56
35.2
35.6
35.74
35.59
35.04
33.96
32.26
29.97
27.25
24.31
21.35
18.52
15.89
13.44
11.11
8.82
6.52
4.2
1.89
-0.3
-2.27
-3.93
-5.33
-6.58
-7.92
-9.59
-11.73
-14.34
-17.25
-20.19
-22.94
-25.42
-27.7
-30.04
-32.75
-36.06
-40.06
-44.57
-49.09
-52.81
-54.69
-53.74
-49.21
-40.94
-29.42
-15.77
-1.45
12.1
23.81
33.09
39.82
44.2
46.55
47.18
46.35
44.36
41.59
38.47
35.47
32.95
31.1
29.95
29.34
29.09
29.02
29.03
29.07
29.12
29.12
28.95
28.41
27.28
25.43
22.82
19.61
16.11
12.68
9.61
7
4.75
2.6
0.26
-2.4
-5.35
-8.36
-11.17
-13.6
-15.64
-17.48
-19.41
-21.68
-24.42
-27.56
-30.88
-34.08
-36.93
-39.35
-41.45
-43.5
-45.85
-48.84
-52.7
-57.46
-62.84
-68.12
-72.18
-73.66
-71.33
-64.51
-53.39
-39
-22.99
-7.07
7.39
19.67
29.6
37.31
43
46.76
48.66
48.84
47.64
45.59
43.24
41.02
39.15
37.63
36.37
35.34
34.6
34.26
34.39
34.88
35.46
35.77
35.45
34.32
32.41
29.92
27.11
24.24
21.43
18.72
16.04
13.34
10.59
7.86
5.28
2.97
1.03
-0.59
-2.01
-3.42
-4.95
-6.68
-8.54
-10.42
-12.17
-13.72
-15.12
-16.5
-18.1
-20.13
-22.7
-25.75
-29.12
-32.56
-35.82
-38.75
-41.34
-43.69
-46.09
-48.88
-52.43
-56.95
-62.29
-67.78
-72.28
-74.35
-72.72
-66.72
-56.51
-43.11
-28.01
-12.78
1.36
13.65
23.79
31.71
37.48
41.21
43.03
43.19
42.05
40.08
37.73
35.42
33.42
31.86
30.73
29.99
29.61
29.62
30.02
30.75
31.61
32.28
32.37
31.62
29.96
27.57
24.77
21.9
19.17
16.62
14.18
11.67
9.01
6.16
3.24
0.37
-2.31
-4.77
-7.06
-9.3
-11.61
-13.98
-16.34
-18.54
-20.45
-22.06
-23.49
-24.97
-26.73
-28.94
-31.72
-35.06
-38.87
-42.89
-46.6
-49.2
-49.74
-47.33
-41.5
-32.39
-20.83
-8.07
4.55
15.97
25.6
33.22
38.89
42.68
44.59
44.69
43.18
40.48
37.19
33.91
31.11
29
27.58
26.73
26.34
26.33
26.59
26.98
27.28
27.22
26.61
25.34
23.43
21.03
18.31
15.4
12.4
9.36
6.23
3
-0.36
-3.79
-7.16
-10.31
-13.14
-15.67
-18.06
-20.57
-23.4
-26.6
-30.03
-33.39
-36.45
-39.11
-41.51
-43.99
-46.91
-50.57
-55.01
-59.95
-64.74
-68.41
-69.8
-67.85
-61.94
-52.12
-39.16
-24.4
-9.37
4.59
16.61
26.34
33.81
39.26
42.87
44.79
45.16
44.22
42.4
40.22
38.18
36.61
35.61
35.08
34.83
34.72
34.72
34.84
35.01
35.08
34.82
33.99
32.5
30.42
27.9
25.15
22.36
19.61
16.94
14.35
11.81
9.31
6.83
4.38
1.92
-0.56
-3.08
-5.58
-8
-10.2
-12.16
-13.96
-15.83
-18.05
-20.8
-24.1
-27.75
-31.45
-34.96
-38.13
-41.04
-43.83
-46.69
-49.85
-53.51
-57.81
-62.7
-67.74
-72.04
-74.35
-73.41
-68.31
-58.91
-45.92
-30.69
-14.86
0.12
13.22
23.96
32.27
38.31
42.28
44.44
45.02
44.35
42.84
40.96
39.14
37.67
36.66
36.02
35.59
35.25
34.99
34.87
34.97
35.27
35.58
35.57
34.94
33.48
31.26
28.48
25.47
22.53
19.8
17.32
15.05
12.89
10.8
8.75
6.77
4.9
3.18
1.63
0.25
-0.96
-2.03
-2.96
-3.8
-4.63
-5.6
-6.84
-8.44
-10.4
-12.64
-15.04
-17.53
-20.04
-22.55
-25.01
-27.36
-29.57
-31.67
-33.82
-36.19
-38.88
-41.85
-44.86
-47.65
-50
-51.83
-53.27
-54.54
-55.94
-57.73
-59.97
-62.43
-64.45
-64.99
-62.85
-57.03
-47.19
-33.79
-18.03
-1.51
14.27
28.2
39.75
48.77
55.33
59.5
61.36
61.07
59.01
55.81
52.22
48.96
46.48
44.9
44.1
43.82
43.85
44.08
44.51
45.08
45.67
46.01
45.78
44.73
42.76
39.93
36.49
32.74
28.98
25.42
22.17
19.25
16.57
14.05
11.62
9.26
6.98
4.79
2.68
0.63
-1.42
-3.5
-5.65
-7.92
-10.34
-12.92
-15.63
-18.4
-21.13
-23.79
-26.4
-29.09
-32.01
-35.2
-38.62
-42.06
-45.25
-48.02
-50.37
-52.57
-55.04
-58.32
-62.8
-68.55
-75.14
-81.48
-86
-86.97
-83
-73.52
-59.04
-41.07
-21.63
-2.71
14.22
28.42
39.77
48.49
54.9
59.19
61.5
61.97
60.93
58.86
56.33
53.9
51.92
50.49
49.52
48.8
48.19
47.66
47.27
47.08
47.01
46.91
46.49
45.51
43.83
41.49
38.66
35.59
32.53
29.64
26.96
24.47
22.05
19.62
17.14
14.66
12.26
10.06
8.1
6.35
4.71
3.12
1.57
0.13
-1.09
-2.06
-2.83
-3.6
-4.57
-5.95
-7.85
-10.29
-13.21
-16.47
-19.87
-23.17
-26.18
-28.83
-31.18
-33.47
-35.94
-38.74
-41.84
-45.05
-48.07
-50.66
-52.74
-54.44
-56.12
-58.26
-61.34
-65.62
-70.89
-76.33
-80.61
-82.1
-79.41
-71.8
-59.43
-43.35
-25.16
-6.59
10.84
26.02
38.37
47.7
54.13
57.98
59.64
59.53
58.06
55.63
52.66
49.55
46.68
44.3
42.52
41.32
40.57
40.13
39.92
39.87
39.88
39.76
39.25
38.08
36.09
33.35
30.12
26.8
23.75
21.15
18.97
17.01
15.04
12.9
10.58
8.22
6.01
4.07
2.45
1.08
-0.19
-1.54
-3.08
-4.87
-6.85
-8.9
-10.89
-12.76
-14.53
-16.33
-18.35
-20.69
-23.38
-26.31
-29.3
-32.14
-34.74
-37.15
-39.58
-42.38
-45.9
-50.35
-55.56
-60.89
-65.21
-67.13
-65.37
-59.19
-48.66
-34.65
-18.64
-2.3
12.91
26
36.49
44.29
49.58
52.59
53.54
52.65
50.24
46.72
42.66
38.69
35.35
33.02
31.78
31.51
31.95
32.79
33.8
34.76
35.47
35.7
35.22
33.89
31.69
28.81
25.54
22.24
19.17
16.48
14.14
11.99
9.88
7.65
5.28
2.84
0.47
-1.71
-3.62
-5.33
-6.96
-8.67
-10.58
-12.71
-15
-17.33
-19.61
-21.78
-23.87
-25.97
-28.2
-30.67
-33.43
-36.39
-39.37
-42.15
-44.55
-46.59
-48.53
-50.8
-53.89
-58.13
-63.49
-69.43
-74.86
-78.35
-78.4
-73.97
-64.75
-51.34
-35.07
-17.65
-0.69
14.56
27.43
37.65
45.28
50.49
53.51
54.59
54.02
52.16
49.43
46.29
43.25
40.69
38.86
37.8
37.33
37.19
37.14
37.06
36.88
36.58
36.08
35.2
33.79
31.78
29.25
26.42
23.55
20.82
18.34
16.09
13.98
11.97
10.01
8.09
6.2
4.32
2.49
0.72
-0.94
-2.45
-3.81
-5.07
-6.29
-7.51
-8.8
-10.21
-11.82
-13.67
-15.74
-17.94
-20.11
-22.11
-23.9
-25.56
-27.25
-29.14
-31.29
-33.65
-36.16
-38.74
-41.39
-44.15
-47.06
-50.21
-53.74
-57.82
-62.57
-67.81
-72.9
-76.7
-77.8
-74.96
-67.55
-55.82
-40.85
-24.19
-7.44
8.11
21.59
32.54
40.81
46.44
49.6
50.6
49.89
47.97
45.34
42.47
39.71
37.36
35.58
34.44
33.9
33.85
34.12
34.51
34.85
35.03
34.93
34.46
33.52
32.02
29.93
27.3
24.29
21.11
17.98
15.09
12.51
10.28
8.35
6.66
5.17
3.8
2.49
1.11
-0.47
-2.35
-4.51
-6.86
-9.25
-11.56
-13.75
-15.88
-18.12
-20.61
-23.42
-26.51
-29.71
-32.79
-35.57
-38.02
-40.29
-42.71
-45.69
-49.59
-54.48
-59.98
-65.2
-68.85
-69.55
-66.22
-58.42
-46.53
-31.67
-15.42
0.59
15
27
36.27
42.92
47.21
49.4
49.75
48.52
46.1
42.98
39.76
36.95
34.86
33.55
32.88
32.62
32.57
32.7
33
33.49
34.05
34.42
34.3
33.39
31.58
28.97
25.84
22.57
19.52
16.87
14.64
12.68
10.8
8.84
6.73
4.54
2.38
0.42
-1.25
-2.63
-3.83
-5.02
-6.38
-8.03
-10.05
-12.4
-15.01
-17.75
-20.48
-23.08
-25.49
-27.8
-30.19
-32.87
-35.95
-39.38
-42.92
-46.25
-49.17
-51.65
-53.93
-56.44
-59.64
-63.88
-69.19
-75.09
-80.54
-84.09
-84.16
-79.55
-69.84
-55.64
-38.37
-19.9
-2.01
14.05
27.59
38.42
46.62
52.31
55.68
56.98
56.64
55.17
53.15
51
48.99
47.19
45.57
44.13
42.93
42.11
41.76
41.84
42.2
42.53
42.51
41.88
40.55
38.55
36.03
33.19
30.24
27.31
24.5
21.85
19.36
17.05
14.92
12.96
11.14
9.42
7.76
6.11
4.48
2.89
1.39
0.01
-1.3
-2.62
-4.08
-5.74
-7.63
-9.66
-11.73
-13.77
-15.78
-17.81
-19.93
-22.14
-24.4
-26.62
-28.79
-30.98
-33.29
-35.78
-38.38
-40.93
-43.25
-45.31
-47.27
-49.54
-52.57
-56.71
-61.99
-67.96
-73.59
-77.5
-78.22
-74.61
-66.26
-53.58
-37.77
-20.43
-3.2
12.62
26.23
37.26
45.62
51.35
54.52
55.32
54.04
51.21
47.55
43.81
40.63
38.39
37.13
36.62
36.55
36.65
36.78
36.9
37
37
36.78
36.15
35.01
33.36
31.31
29.01
26.62
24.24
21.9
19.6
17.32
15.06
12.85
10.7
8.65
6.69
4.76
2.79
0.75
-1.35
-3.47
-5.54
-7.57
-9.61
-11.78
-14.23
-17
-20.03
-23.16
-26.19
-28.96
-31.47
-33.82
-36.26
-39.05
-42.47
-46.67
-51.61
-56.92
-61.78
-65.05
-65.4
-61.81
-53.86
-41.94
-27.23
-11.34
4.13
17.94
29.41
38.35
44.85
49.09
51.22
51.37
49.75
46.74
42.97
39.13
35.88
33.61
32.35
31.87
31.85
32
32.2
32.43
32.69
32.86
32.72
32.05
30.72
28.77
26.38
23.81
21.3
18.98
16.87
14.88
12.88
10.71
8.36
5.89
3.51
1.43
-0.17
-1.31
-2.16
-3.06
-4.34
-6.21
-8.67
-11.54
-14.51
-17.28
-19.71
-21.8
-23.71
-25.71
-28.04
-30.85
-34.16
-37.79
-41.49
-44.99
-48.1
-50.77
-53.13
-55.49
-58.26
-61.84
-66.4
-71.67
-76.75
-80.21
-80.43
-76.1
-66.74
-52.9
-36.08
-18.17
-1.01
14.13
26.6
36.26
43.28
47.93
50.47
51.21
50.51
48.81
46.59
44.3
42.28
40.68
39.47
38.54
37.76
37.09
36.56
36.26
36.18
36.22
36.14
35.69
34.63
32.91
30.61
27.94
25.15
22.42
19.87
17.52
15.28
13.09
10.92
8.8
6.85
5.16
3.78
2.66
1.68
0.72
-0.32
-1.47
-2.7
-3.99
-5.34
-6.77
-8.36
-10.17
-12.19
-14.34
-16.47
-18.38
-19.92
-21.03
-21.79
-22.48
-23.43
-24.96
-27.23
-30.17
-33.51
-36.88
-39.96
-42.63
-45.03
-47.49
-50.45
-54.27
-59.06
-64.56
-70.02
-74.25
-75.89
-73.73
-67.07
-56.01
-41.42
-24.76
-7.65
8.45
22.47
33.82
42.3
48.06
51.37
52.63
52.21
50.5
47.91
44.85
41.75
38.99
36.84
35.37
34.5
34.06
33.89
33.88
33.95
33.98
33.77
33.05
31.59
29.32
26.38
23.04
19.66
16.53
13.86
11.72
10.05
8.65
7.27
5.61
3.5
0.89
-2.06
-5
-7.59
-9.55
-10.86
-11.69
-12.41
-13.37
-14.82
-16.74
-18.98
-21.28
-23.45
-25.43
-27.31
-29.27
-31.54
-34.32
-37.72
-41.65
-45.75
-49.24
-51.09
-50.2
-45.8
-37.73
-26.56
-13.4
0.39
13.61
25.35
35.11
42.62
47.75
50.46
50.76
48.88
45.27
40.65
35.88
31.75
28.79
27.12
26.52
26.51
26.64
26.59
26.24
25.65
24.9
24.09
23.24
22.34
21.31
20.08
18.55
16.67
14.45
11.96
9.32
6.6
3.9
1.26
-1.2
-3.39
-5.26
-6.89
-8.45
-10.19
-12.33
-14.97
-18.08
-21.54
-25.21
-28.93
-32.6
-36.09
-39.3
-42.16
-44.76
-47.35
-50.34
-54.16
-59.13
-65.23
-71.96
-78.28
-82.78
-83.95
-80.58
-72.2
-59.22
-42.9
-25.03
-7.44
8.38
21.56
31.84
39.4
44.63
47.94
49.67
50.14
49.67
48.59
47.2
45.78
44.49
43.4
42.54
41.9
41.48
41.31
41.39
41.67
42.03
42.19
41.82
40.59
38.37
35.32
31.8
28.31
25.22
22.71
20.7
18.95
17.24
15.39
13.41
11.34
9.29
7.35
5.6
4.13
2.96
2.03
1.18
0.2
-1.06
-2.65
-4.5
-6.46
-8.46
-10.55
-12.88
-15.58
-18.6
-21.7
-24.54
-26.88
-28.82
-30.7
-33
-35.96
-39.42
-42.86
-45.65
-47.42
-48.21
-48.51
-49.03
-50.43
-53.12
-57.21
-62.47
-68.28
-73.62
-77.13
-77.34
-73.05
-63.79
-49.98
-32.92
-14.39
3.78
20.12
33.7
44.11
51.39
55.84
57.93
58.19
57.11
55.18
52.84
50.51
48.56
47.21
46.44
46.01
45.58
44.9
43.98
43.04
42.31
41.86
41.42
40.59
39
36.58
33.5
30.14
26.77
23.5
20.3
17.07
13.85
10.75
7.98
5.67
3.88
2.53
1.51
0.71
-0.01
-0.79
-1.75
-2.97
-4.4
-5.93
-7.33
-8.41
-9.11
-9.52
-9.87
-10.43
-11.39
-12.79
-14.51
-16.39
-18.35
-20.45
-22.83
-25.59
-28.7
-31.98
-35.2
-38.2
-40.97
-43.62
-46.34
-49.29
-52.64
-56.61
-61.43
-67.13
-73.35
-79.17
-83.19
-83.87
-80.03
-71.2
-57.85
-41.26
-23.1
-5.1
11.35
25.37
36.56
44.89
50.53
53.74
54.84
54.19
52.27
49.62
46.78
44.19
42.1
40.6
39.61
39
38.61
38.27
37.82
37.15
36.25
35.09
33.71
32.06
30.07
27.65
24.84
21.79
18.74
15.87
13.28
10.9
8.62
6.41
4.38
2.7
1.48
0.58
-0.29
-1.49
-3.23
-5.47
-7.92
-10.25
-12.23
-13.83
-15.26
-16.82
-18.74
-21.14
-23.94
-26.97
-30.02
-32.93
-35.57
-37.89
-39.89
-41.69
-43.54
-45.83
-48.86
-52.7
-56.86
-60.36
-61.82
-59.95
-53.98
-43.99
-30.88
-16.09
-1.14
12.73
24.75
34.54
41.97
47.03
49.72
50.13
48.55
45.47
41.54
37.46
33.81
30.96
29.01
27.87
27.37
27.35
27.69
28.31
29.11
29.9
30.41
30.34
29.46
27.66
25.05
21.93
18.66
15.58
12.83
10.39
8.05
5.54
2.66
-0.62
-4.13
-7.57
-10.61
-13.08
-15
-16.64
-18.43
-20.74
-23.73
-27.28
-31.04
-34.61
-37.71
-40.34
-42.75
-45.41
-48.82
-53.33
-59.01
-65.45
-71.72
-76.43
-78.06
-75.37
-67.81
-55.75
-40.37
-23.37
-6.47
8.95
22.06
32.54
40.41
45.91
49.33
51.04
51.36
50.65
49.2
47.31
45.28
43.38
41.84
40.74
40.07
39.71
39.55
39.51
39.58
39.68
39.64
39.17
38.02
36.05
33.36
30.28
27.22
24.51
22.27
20.41
18.74
17.03
15.16
13.1
10.95
8.85
6.94
5.29
3.91
2.71
1.59
0.47
-0.69
-1.92
-3.24
-4.71
-6.43
-8.48
-10.85
-13.45
-16.13
-18.68
-20.97
-22.97
-24.77
-26.56
-28.6
-31.1
-34.16
-37.7
-41.47
-45.18
-48.58
-51.59
-54.34
-57.13
-60.35
-64.31
-69.19
-74.77
-80.36
-84.72
-86.31
-83.67
-75.94
-63.22
-46.65
-28.07
-9.51
7.42
21.72
33.12
41.72
47.84
51.77
53.78
54.18
53.34
51.69
49.62
47.45
45.37
43.46
41.77
40.34
39.33
38.85
38.97
39.59
40.4
40.99
40.95
40.06
38.31
35.91
33.18
30.39
27.76
25.35
23.16
21.14
19.24
17.42
15.71
14.13
12.71
11.45
10.29
9.18
8.02
6.76
5.41
4
2.57
1.12
-0.38
-2
-3.82
-5.89
-8.21
-10.75
-13.45
-16.25
-19.09
-21.96
-24.88
-27.91
-31.07
-34.35
-37.68
-40.9
-43.82
-46.33
-48.43
-50.33
-52.37
-54.9
-58.17
-62.08
-66.17
-69.61
-71.31
-70.22
-65.57
-57.13
-45.28
-31.01
-15.63
-0.52
13.2
24.8
33.99
40.77
45.28
47.72
48.26
47.14
44.72
41.55
38.24
35.38
33.38
32.37
32.24
32.73
33.61
34.66
35.77
36.82
37.68
38.21
38.24
37.69
36.51
34.67
32.22
29.21
25.8
22.17
18.57
15.16
12.02
9.13
6.41
3.73
1.06
-1.59
-4.14
-6.47
-8.54
-10.45
-12.43
-14.78
-17.81
-21.58
-25.94
-30.48
-34.71
-38.29
-41.12
-43.39
-45.46
-47.75
-50.63
-54.3
-58.7
-63.41
-67.55
-69.84
-68.91
-63.68
-53.82
-39.93
-23.41
-6.11
10.24
24.35
35.6
43.85
49.36
52.47
53.57
53.05
51.32
48.84
46.05
43.32
40.87
38.79
37.07
35.68
34.68
34.15
34.18
34.75
35.66
36.54
36.96
36.56
35.19
32.9
29.93
26.6
23.23
20.04
17.13
14.5
12.05
9.64
7.18
4.67
2.2
-0.09
-2.04
-3.6
-4.83
-5.91
-7.07
-8.51
-10.34
-12.52
-14.93
-17.41
-19.83
-22.23
-24.72
-27.48
-30.6
-34.01
-37.53
-40.86
-43.82
-46.36
-48.66
-51.04
-53.86
-57.45
-61.97
-67.29
-72.94
-77.99
-81.17
-81.13
-76.78
-67.74
-54.46
-38.18
-20.58
-3.31
12.33
25.59
36.19
44.11
49.51
52.58
53.58
52.86
50.92
48.34
45.66
43.3
41.49
40.3
39.65
39.42
39.47
39.71
40.03
40.34
40.5
40.34
39.65
38.29
36.22
33.52
30.45
27.31
24.36
21.7
19.29
16.94
14.5
11.88
9.16
6.52
4.12
2.06
0.34
-1.12
-2.46
-3.8
-5.27
-6.93
-8.8
-10.81
-12.88
-14.87
-16.72
-18.48
-20.31
-22.38
-24.79
-27.46
-30.18
-32.7
-34.87
-36.79
-38.73
-41.07
-44.13
-48.1
-53.02
-58.74
-64.87
-70.7
-75.15
-76.93
-74.89
-68.38
-57.56
-43.35
-27.2
-10.68
4.91
18.7
30.21
39.23
45.7
49.6
51.04
50.23
47.64
43.88
39.69
35.77
32.65
30.56
29.5
29.29
29.69
30.55
31.71
33.02
34.22
35
35.04
34.16
32.4
30.05
27.5
25.1
23.02
21.19
19.34
17.17
14.47
11.29
7.88
4.57
1.7
-0.63
-2.59
-4.48
-6.68
-9.41
-12.65
-16.19
-19.7
-22.92
-25.76
-28.29
-30.71
-33.27
-36.26
-39.9
-44.33
-49.41
-54.58
-58.87
-60.99
-59.71
-54.3
-44.76
-31.91
-17.16
-2.11
11.86
23.8
33.28
40.22
44.73
47.04
47.41
46.15
43.7
40.61
37.46
34.71
32.66
31.38
30.75
30.6
30.76
31.12
31.65
32.26
32.83
33.12
32.85
31.79
29.82
27.07
23.84
20.52
17.43
14.7
12.2
9.72
7.08
4.29
1.6
-0.72
-2.46
-3.69
-4.67
-5.77
-7.26
-9.23
-11.6
-14.14
-16.66
-19.01
-21.15
-23.16
-25.2
-27.46
-30.13
-33.32
-36.99
-40.94
-44.87
-48.52
-51.81
-54.9
-58.18
-62.11
-66.98
-72.64
-78.31
-82.7
-84.22
-81.51
-73.9
-61.64
-45.85
-28.19
-10.37
6.26
20.8
32.79
42.06
48.59
52.5
54.07
53.81
52.37
50.4
48.43
46.74
45.4
44.32
43.41
42.68
42.19
42.03
42.19
42.51
42.72
42.56
41.85
40.55
38.75
36.56
34.07
31.38
28.54
25.66
22.84
20.17
17.67
15.34
13.17
11.18
9.42
7.91
6.65
5.53
4.41
3.16
1.7
0.01
-1.88
-3.9
-5.98
-8.06
-10.14
-12.27
-14.52
-16.92
-19.43
-21.96
-24.4
-26.72
-29.02
-31.47
-34.27
-37.46
-40.94
-44.46
-47.73
-50.57
-52.97
-55.14
-57.49
-60.49
-64.52
-69.58
-75.12
-80
-82.7
-81.71
-76.1
-65.82
-51.75
-35.37
-18.37
-2.12
12.43
24.79
34.73
42.18
47.14
49.74
50.27
49.21
47.12
44.61
42.28
40.67
40.3
41.53
44.49
48.83
53.77
58.12
60.7
60.65
57.75
52.44
45.61
38.24
31.1
24.62
18.99
14.25
10.39
7.36
5.01
3.05
1.16
-0.87
-3.05
-5.2
-7.02
-8.33
-9.11
-9.53
-9.86
-10.34
-11.05
-11.94
-12.89
-13.81
-14.71
-15.73
-17.05
-18.79
-20.91
-23.26
-25.62
-27.81
-29.79
-31.64
-33.56
-35.86
-38.79
-42.51
-46.91
-51.46
-55.25
-57.04
-55.69
-50.46
-41.35
-29.09
-14.97
-0.44
13.21
25.14
34.87
42.22
47.16
49.72
50.02
48.36
45.29
41.53
37.77
34.57
32.2
30.7
29.95
29.77
29.99
30.45
30.91
31.12
30.88
30.06
28.71
26.98
25.02
22.95
20.82
18.59
16.24
13.75
11.11
8.35
5.51
2.71
0.12
-2.08
-3.79
-5.05
-6.04
-7.02
-8.22
-9.78
-11.73
-14.04
-16.63
-19.51
-22.68
-26.15
-29.88
-33.73
-37.47
-40.9
-43.92
-46.6
-49.22
-52.16
-55.86
-60.55
-66.18
-72.2
-77.63
-81.1
-81.25
-77.04
-68.15
-55.07
-39.01
-21.53
-4.16
11.92
25.94
37.51
46.45
52.73
56.46
57.92
57.54
55.9
53.6
51.09
48.71
46.61
44.83
43.41
42.38
41.78
41.6
41.76
42.03
42.12
41.72
40.6
38.7
36.11
33.05
29.81
26.62
23.64
20.98
18.69
16.76
15.13
13.64
12.1
10.29
8.13
5.7
3.21
0.94
-0.92
-2.34
-3.52
-4.72
-6.2
-8.05
-10.21
-12.48
-14.72
-16.83
-18.87
-20.99
-23.39
-26.23
-29.54
-33.21
-36.97
-40.52
-43.6
-46.09
-48.07
-49.88
-51.96
-54.85
-58.93
-64.27
-70.38
-76.21
-80.27
-81.01
-77.29
-68.74
-55.98
-40.37
-23.63
-7.31
7.47
20.13
30.5
38.61
44.54
48.32
50.05
49.92
48.27
45.63
42.62
39.8
37.6
36.21
35.61
35.61
36.01
36.67
37.51
38.47
39.39
40
39.97
39.05
37.21
34.63
31.69
28.77
26.15
23.9
21.93
20.02
18.01
15.79
13.37
10.87
8.44
6.24
4.34
2.78
1.46
0.24
-1.06
-2.58
-4.38
-6.42
-8.6
-10.78
-12.84
-14.74
-16.57
-18.49
-20.71
-23.34
-26.32
-29.41
-32.29
-34.7
-36.6
-38.18
-39.82
-41.92
-44.78
-48.53
-53
-57.75
-62
-64.65
-64.51
-60.59
-52.5
-40.66
-26.24
-10.88
3.85
16.82
27.53
35.93
42.22
46.51
48.79
49.05
47.49
44.57
41
37.52
34.68
32.7
31.5
30.88
30.66
30.75
31.14
31.78
32.51
33.06
33.12
32.46
31.03
28.96
26.49
23.85
21.16
18.45
15.68
12.84
10.01
7.35
4.98
2.91
0.99
-1.06
-3.46
-6.27
-9.31
-12.23
-14.74
-16.77
-18.57
-20.58
-23.23
-26.67
-30.72
-34.92
-38.8
-42.08
-44.76
-47.16
-49.68
-52.7
-56.46
-61.02
-66.16
-71.33
-75.57
-77.65
-76.38
-70.95
-61.3
-48.19
-32.92
-17.04
-1.82
11.86
23.58
33.19
40.64
45.89
48.93
49.93
49.24
47.42
45.09
42.83
41.04
39.91
39.45
39.58
40.16
41.05
42.09
43.08
43.76
43.89
43.25
41.74
39.42
36.5
33.29
30.13
27.29
24.86
22.79
20.91
19.05
17.13
15.21
13.4
11.78
10.35
8.97
7.52
5.84
3.84
1.44
-1.36
-4.53
-7.94
-11.34
-14.51
-17.27
-19.62
-21.78
-24.05
-26.71
-29.91
-33.57
-37.46
-41.27
-44.74
-47.74
-50.36
-52.84
-55.58
-58.98
-63.35
-68.68
-74.52
-79.9
-83.44
-83.68
-79.46
-70.36
-56.89
-40.36
-22.56
-5.26
10.2
23.05
33.07
40.41
45.35
48.18
49.19
48.72
47.21
45.15
43
41.13
39.67
38.63
37.91
37.46
37.29
37.42
37.8
38.26
38.58
38.51
37.92
36.78
35.16
33.12
30.71
28.02
25.17
22.35
19.72
17.39
15.36
13.52
11.74
9.89
7.9
5.75
3.52
1.37
-0.5
-1.95
-2.96
-3.76
-4.73
-6.31
-8.87
-12.52
-17.02
-21.77
-25.88
-28.45
-28.81
-26.88
-23.26
-19.11
-15.79
-14.47
-15.74
-19.52
-25.19
-31.92
-38.95
-45.81
-52.39
-58.74
-64.95
-70.86
-75.96
-79.33
-79.91
-76.84
-69.77
-59
-45.46
-30.39
-15.03
-0.39
12.78
23.99
32.9
39.24
42.93
44.09
43.16
40.81
37.82
34.91
32.53
30.82
29.66
28.85
28.3
28.07
28.32
29.18
30.51
31.95
33.01
33.3
32.73
31.46
29.81
28.09
26.46
24.9
23.3
21.52
19.43
17
14.25
11.26
8.17
5.09
2.1
-0.79
-3.66
-6.58
-9.67
-12.92
-16.29
-19.66
-22.91
-25.95
-28.8
-31.63
-34.71
-38.4
-42.95
-48.37
-54.2
-59.52
-63.06
-63.54
-60.06
-52.39
-41.1
-27.33
-12.51
2.05
15.35
26.8
36.1
43.09
47.71
49.98
50.1
48.46
45.68
42.45
39.33
36.74
34.81
33.51
32.73
32.38
32.42
32.78
33.31
33.78
33.92
33.49
32.33
30.44
27.88
24.83
21.47
17.99
14.55
11.21
7.98
4.81
1.62
-1.59
-4.73
-7.68
-10.29
-12.57
-14.66
-16.88
-19.56
-22.88
-26.81
-31.1
-35.32
-39.09
-42.21
-44.76
-47.06
-49.61
-52.9
-57.29
-62.79
-68.87
-74.45
-78.07
-78.22
-73.85
-64.7
-51.46
-35.51
-18.53
-2.03
12.91
25.67
36.02
43.94
49.51
52.89
54.33
54.23
53.04
51.21
49.16
47.15
45.37
43.89
42.76
42.01
41.65
41.69
42
42.42
42.66
42.46
41.61
40.03
37.75
34.93
31.78
28.54
25.48
22.76
20.41
18.35
16.42
14.5
12.57
10.73
9.08
7.71
6.65
5.85
5.27
4.88
4.58
4.15
3.29
1.64
-1
-4.59
-8.86
-13.38
-17.7
-21.56
-24.84
-27.64
-30.15
-32.64
-35.31
-38.27
-41.49
-44.82
-48.08
-51.09
-53.8
-56.32
-58.85
-61.68
-65.13
-69.45
-74.71
-80.61
-86.36
-90.65
-91.93
-88.82
-80.6
-67.51
-50.69
-31.84
-12.8
4.97
20.49
33.27
43.12
50.04
54.2
55.94
55.78
54.41
52.46
50.47
48.69
47.22
45.99
44.97
44.17
43.64
43.49
43.72
44.19
44.66
44.77
44.21
42.8
40.6
37.9
35.1
32.58
30.52
28.86
27.27
25.41
23.01
20.11
16.93
13.85
11.19
9.1
7.49
6.14
4.8
3.29
1.53
-0.49
-2.71
-5.03
-7.32
-9.4
-11.14
-12.54
-13.74
-14.96
-16.39
-18.09
-20
-22.04
-24.2
-26.58
-29.37
-32.64
-36.26
-39.9
-43.18
-45.86
-47.95
-49.72
-51.64
-54.21
-57.83
-62.64
-68.36
-74.19
-78.84
-80.75
-78.57
-71.56
-59.95
-44.83
-27.82
-10.59
5.5
19.61
31.32
40.5
47.13
51.29
53.19
53.11
51.53
48.97
45.97
43.02
40.48
38.55
37.28
36.68
36.69
37.28
38.38
39.79
41.22
42.26
42.51
41.74
39.96
37.43
34.54
31.66
28.98
26.52
24.13
21.63
18.93
16.09
13.28
10.69
8.38
6.3
4.29
2.18
-0.13
-2.64
-5.29
-7.98
-10.65
-13.24
-15.77
-18.3
-20.95
-23.83
-27.04
-30.53
-34.18
-37.78
-41.17
-44.31
-47.33
-50.52
-54.22
-58.71
-64.06
-69.99
-75.74
-80.12
-81.68
-79.16
-71.88
-60.01
-44.62
-27.33
-9.87
6.36
20.48
32.13
41.23
47.81
51.93
53.71
53.44
51.6
48.79
45.66
42.72
40.34
38.67
37.72
37.4
37.61
38.18
38.95
39.76
40.4
40.7
40.46
39.57
37.97
35.76
33.13
30.36
27.69
25.26
23.03
20.87
18.61
16.13
13.44
10.68
8.06
5.74
3.76
2.06
0.48
-1.18
-3.04
-5.18
-7.6
-10.25
-13.09
-16
-18.91
-21.74
-24.5
-27.25
-30.15
-33.31
-36.75
-40.37
-43.96
-47.27
-50.15
-52.65
-55.02
-57.64
-60.98
-65.38
-70.95
-77.32
-83.59
-88.37
-90.04
-87.24
-79.26
-66.37
-49.7
-30.96
-11.97
5.74
21.17
33.81
43.53
50.4
54.57
56.32
56.02
54.24
51.6
48.73
