145.95
75.61
19.58
-21.23
-48.81
-66.04
-75.52
-78.88
-77.82
-76.01
-78.37
-88.56
-107.46
-133.95
-166.5
-200.07
-228.23
-245.73
-250.55
-244.43
-231.7
-217.7
-207.56
-204.7
-209.37
-217.46
-222.79
-220.49
-209.07
-190.25
-167.58
-144.68
-123.89
-105.66
-88.76
-71.83
-54.73
-38.75
-25.59
-16.2
-10.28
-6.68
-3.95
-1.05
2.24
5.29
7.04
6.77
4.56
1.11
-2.6
-5.87
-8.79
-12.07
-16.71
-23.39
-31.89
-40.87
-48.02
-50.73
-46.89
-35.65
-17.63
5.19
30.15
54.58
76.45
94.56
108.49
118.27
124.07
126.17
124.89
120.74
114.51
107.12
99.45
92.14
85.53
79.74
74.77
70.64
67.35
64.84
62.91
61.16
59.12
56.39
52.69
47.97
42.4
36.29
29.98
23.77
17.8
12.01
6.17
0.03
-6.56
-13.49
-20.41
-26.91
-32.64
-37.56
-41.97
-46.44
-51.6
-57.89
-65.31
-73.2
-80.27
-84.78
-84.91
-79.36
-67.67
-50.46
-29.27
-6.17
16.77
37.84
55.89
70.33
80.89
87.59
90.57
90.18
86.95
81.64
75.13
68.3
61.91
56.44
52.1
48.84
46.48
44.78
43.56
42.66
41.92
41.17
40.14
38.53
36.05
32.52
27.95
22.55
16.72
10.92
5.46
0.43
-4.32
-9.09
-14.17
-19.66
-25.41
-31.04
-36.18
-40.59
-44.33
-47.71
-51.24
-55.42
-60.63
-66.96
-74.1
-81.26
-87.16
-90.24
-88.97
-82.32
-70.07
-52.99
-32.65
-11.02
9.95
28.74
44.33
56.16
64.06
68.09
68.57
66.03
61.21
54.99
48.28
41.88
36.41
32.21
29.38
27.77
27.06
26.84
26.74
26.43
25.71
24.47
22.69
20.37
17.52
14.14
10.24
5.84
1.04
-4.03
-9.2
-14.23
-18.97
-23.35
-27.43
-31.41
-35.54
-40.09
-45.22
-50.96
-57.03
-62.83
-67.38
-69.41
-67.66
-61.27
-50.13
-35
-17.38
0.88
18.09
32.98
44.87
53.48
58.72
60.63
59.35
55.25
49
41.55
33.93
27.07
21.61
17.85
15.75
15.05
15.29
15.91
16.43
16.46
15.79
14.42
12.41
9.82
6.66
2.9
-1.46
-6.35
-11.56
-16.87
-22.07
-27.04
-31.73
-36.21
-40.58
-45.02
-49.81
-55.24
-61.5
-68.5
-75.71
-82.02
-85.91
-85.75
-80.27
-69
-52.51
-32.28
-10.39
11.05
30.32
46.35
58.71
67.35
72.45
74.23
73.04
69.39
64.01
57.75
51.39
45.51
40.43
36.19
32.78
30.18
28.43
27.55
27.41
27.65
27.73
27.08
25.32
22.33
18.36
13.8
9.06
4.34
-0.34
-5.15
-10.28
-15.76
-21.46
-27.05
-32.23
-36.77
-40.7
-44.29
-48.07
-52.61
-58.31
-65.15
-72.45
-78.86
-82.63
-82.07
-76.04
-64.33
-47.78
-27.98
-6.9
13.56
31.91
47.15
58.78
66.61
70.74
71.46
69.31
65.01
59.47
53.53
47.93
43.09
39.09
35.8
33.02
30.64
28.7
27.34
26.61
26.4
26.34
25.95
24.8
22.64
19.48
15.58
11.25
6.8
2.4
-1.87
-6.09
-10.35
-14.74
-19.31
-24.02
-28.73
-33.22
-37.28
-40.82
-43.92
-46.9
-50.19
-54.26
-59.36
-65.38
-71.62
-76.89
-79.67
-78.48
-72.31
-60.97
-45.2
-26.48
-6.63
12.56
29.69
43.83
54.47
61.46
64.86
64.94
62.21
57.32
51.11
44.4
37.97
32.37
27.89
24.59
22.3
20.82
19.91
19.35
18.97
18.57
17.92
16.8
15.04
12.53
9.29
5.41
1.09
-3.45
-8.03
-12.51
-16.83
-21.03
-25.2
-29.49
-34.05
-38.99
-44.38
-50.17
-56.08
-61.54
-65.71
-67.55
-66.11
-60.73
-51.33
-38.41
-23.06
-6.65
9.38
23.76
35.52
44.04
48.98
50.28
48.23
43.4
36.71
29.23
22
15.78
10.94
7.44
5.02
3.36
2.25
1.56
1.21
1.04
0.78
0.08
-1.39
-3.87
-7.38
-11.77
-16.68
-21.73
-26.57
-31.01
-35.06
-38.95
-43.06
-47.81
-53.49
-60.13
-67.25
-73.86
-78.52
-79.64
-75.98
-67.01
-53.13
-35.6
-16.19
3.28
21.31
36.86
49.35
58.47
64.1
66.29
65.25
61.49
55.81
49.13
42.39
36.3
31.28
27.46
24.8
23.13
22.26
21.93
21.77
21.41
20.52
18.94
16.65
13.8
10.5
6.77
2.53
-2.35
-7.85
-13.8
-19.84
-25.59
-30.79
-35.45
-39.82
-44.34
-49.45
-55.45
-62.34
-69.64
-76.39
-81.21
-82.58
-79.19
-70.37
-56.35
-38.26
-17.91
2.74
21.98
38.66
52.17
62.27
68.96
72.34
72.65
70.32
66.02
60.58
54.77
49.21
44.27
40.14
36.84
34.37
32.67
31.58
30.88
30.21
29.24
27.69
25.46
22.64
19.36
15.75
11.84
7.57
2.87
-2.26
-7.71
-13.25
-18.63
-23.64
-28.2
-32.38
-36.37
-40.43
-44.89
-50
-55.86
-62.22
-68.36
-73.1
-75.02
-72.78
-65.59
-53.43
-37.21
-18.46
0.97
19.38
35.47
48.45
57.98
63.98
66.61
66.13
63.01
57.89
51.59
44.95
38.7
33.39
29.26
26.3
24.31
23.05
22.2
21.53
20.82
19.9
18.68
17.05
14.94
12.2
8.74
4.52
-0.36
-5.65
-11.05
-16.25
-21.09
-25.54
-29.76
-33.93
-38.3
-43.05
-48.26
-53.83
-59.36
-64.08
-66.93
-66.72
-62.55
-54.04
-41.57
-26.17
-9.33
7.39
22.63
35.35
44.86
50.78
53.02
51.74
47.47
41.04
33.56
26.18
19.84
15.1
12
10.22
9.22
8.55
7.96
7.42
6.95
6.45
5.7
4.32
2.04
-1.29
-5.51
-10.28
-15.19
-19.91
-24.33
-28.52
-32.7
-37.18
-42.26
-48.08
-54.62
-61.53
-68.01
-72.88
-74.69
-72.12
-64.4
-51.61
-34.76
-15.55
4.08
22.42
38.27
51.02
60.49
66.69
69.73
69.81
67.26
62.65
56.75
50.38
44.28
38.91
34.46
30.94
28.29
26.44
25.32
24.75
24.35
23.69
22.37
20.18
17.24
13.8
10.2
6.54
2.78
-1.31
-5.89
-11
-16.44
-21.91
-27.14
-31.95
-36.31
-40.34
-44.25
-48.38
-53.09
-58.66
-65.08
-71.85
-77.86
-81.52
-81.19
-75.62
-64.43
-48.33
-28.91
-8.2
11.81
29.66
44.48
56
64.27
69.42
71.6
70.99
67.97
63.1
57.18
51.01
45.27
40.35
36.37
33.31
31.12
29.79
29.29
29.42
29.81
29.85
28.93
26.69
23.13
18.69
14
9.65
5.92
2.7
-0.37
-3.75
-7.7
-12.25
-17.15
-22.02
-26.52
-30.45
-33.84
-36.94
-40.17
-44
-48.8
-54.67
-61.23
-67.57
-72.38
-74.15
-71.67
-64.28
-52.2
-36.45
-18.64
-0.54
16.26
30.65
41.99
50.07
54.86
56.46
55.08
51.16
45.36
38.59
31.81
25.84
21.2
18.02
16.11
15.12
14.64
14.34
13.98
13.45
12.66
11.56
10.04
7.99
5.27
1.86
-2.16
-6.59
-11.22
-15.9
-20.56
-25.19
-29.82
-34.46
-39.14
-43.96
-49.07
-54.51
-60.04
-64.89
-67.9
-67.75
-63.4
-54.51
-41.54
-25.65
-8.39
8.7
24.31
37.52
47.72
54.59
58.06
58.3
55.7
50.91
44.77
38.24
32.23
27.44
24.22
22.55
22.03
22.13
22.31
22.18
21.55
20.42
18.79
16.69
14.08
10.93
7.18
2.81
-2.13
-7.53
-13.22
-18.96
-24.51
-29.66
-34.31
-38.55
-42.62
-46.93
-51.92
-57.87
-64.77
-72.1
-78.79
-83.37
-84.25
-80.22
-70.77
-56.36
-38.21
-18.12
2.07
20.79
36.88
49.71
59.01
64.81
67.38
67.16
64.73
60.74
55.84
50.58
45.41
40.64
36.52
33.24
30.92
29.61
29.2
29.41
29.77
29.73
28.83
26.79
23.62
19.53
14.85
9.89
4.85
-0.22
-5.29
-10.42
-15.57
-20.68
-25.66
-30.4
-34.83
-38.98
-42.99
-47.15
-51.83
-57.36
-63.8
-70.72
-77.11
-81.49
-82.26
-78.15
-68.62
-54.12
-35.93
-15.84
4.27
22.86
38.84
51.59
60.86
66.64
69.08
68.54
65.54
60.76
54.98
48.94
43.25
38.34
34.4
31.4
29.25
27.76
26.75
26.06
25.51
24.93
24.1
22.82
20.94
18.37
15.11
11.28
7.01
2.49
-2.13
-6.71
-11.2
-15.6
-19.95
-24.34
-28.82
-33.45
-38.34
-43.59
-49.34
-55.46
-61.47
-66.38
-68.83
-67.46
-61.33
-50.33
-35.26
-17.67
0.6
17.8
32.58
44.08
51.86
55.81
56.06
53.09
47.63
40.69
33.39
26.72
21.32
17.38
14.7
12.84
11.42
10.19
9.13
8.3
7.72
7.21
6.44
4.98
2.5
-1.1
-5.66
-10.81
-16.13
-21.3
-26.18
-30.86
-35.58
-40.66
-46.41
-52.98
-60.17
-67.35
-73.41
-76.92
-76.45
-70.99
-60.33
-45.13
-26.82
-7.16
12.09
29.57
44.34
55.86
63.81
68.06
68.68
66
60.67
53.64
45.97
38.61
32.27
27.27
23.58
21
19.24
18.01
17.17
16.54
15.98
15.21
13.94
11.86
8.75
4.58
-0.47
-6.06
-11.83
-17.45
-22.75
-27.72
-32.53
-37.41
-42.63
-48.5
-55.19
-62.65
-70.36
-77.28
-81.93
-82.7
-78.32
-68.3
-53.09
-34.06
-13.09
7.83
27.02
43.31
56.05
65.05
70.44
72.52
71.77
68.71
63.98
58.26
52.2
46.39
41.28
37.11
33.96
31.75
30.3
29.39
28.75
28.07
27.08
25.58
23.44
20.61
17.1
12.96
8.25
3.07
-2.43
-8.07
-13.65
-19.01
-24.07
-28.79
-33.28
-37.77
-42.55
-47.98
-54.3
-61.37
-68.57
-74.72
-78.3
-77.81
-72.18
-61.14
-45.34
-26.2
-5.56
14.74
33.16
48.64
60.56
68.64
72.84
73.34
70.55
65.13
58
50.23
42.78
36.42
31.53
28.13
25.99
24.73
24.01
23.55
23.12
22.54
21.64
20.24
18.19
15.37
11.75
7.38
2.39
-2.99
-8.55
-14.05
-19.37
-24.49
-29.54
-34.72
-40.29
-46.44
-53.24
-60.51
-67.65
-73.63
-77.1
-76.67
-71.38
-61.01
-46.3
-28.73
-10.21
7.46
22.78
34.76
42.83
46.75
46.56
42.7
35.98
27.54
18.62
10.3
3.22
-2.42
-6.81
-10.24
-12.95
-15.06
-16.62
-17.76
-18.72
-19.89
-21.65
-24.25
-27.72
-31.95
-36.71
-41.73
-46.76
-51.58
-56.04
-60.08
-63.83
-67.51
-71.43
-75.68
-80
-83.55
-85.04
-82.93
-75.81
-62.83
-43.93
-19.87
7.86
37.37
66.7
94.07
118.1
137.94
153.26
164.28
171.62
176.03
178.24
178.66
177.43
174.56
170.14
164.55
158.43
152.49
147.22
142.73
138.68
134.43
129.38
123.22
116.18
109.06
102.96
99.03
98.1
100.4
105.32
111.5
117.03
119.98
118.86
113.13
103.18
90.16
75.37
59.6
42.73
23.65
0.74
-27.22
-60.28
-96.72
-133.37
-166.4
-192.52
-209.91
-218.75
-221
-219.57
-217.47
-217.04
-219.53
-224.93
-232
-238.74
-242.95
-243
-238.39
-229.8
-218.67
-206.41
-193.81
-180.86
-167.11
-152.18
-136.23
-119.84
-103.72
-88.29
-73.57
-59.36
-45.7
-33.04
-22.19
-13.97
-8.88
-6.79
-6.9
-8.09
-9.33
-10.03
-10.17
-10.22
-10.86
-12.73
-16.2
-21.34
-27.86
-35.11
-42.05
-47.33
-49.46
-47.14
-39.58
-26.76
-9.46
10.9
32.57
53.8
73.08
89.25
101.53
109.49
113.12
112.75
109.1
103.12
95.89
88.41
81.48
75.59
70.94
67.46
64.95
63.13
61.72
60.47
59.16
57.58
55.5
52.7
49.01
44.33
38.75
32.5
25.95
19.44
13.16
7.14
1.23
-4.75
-10.94
-17.43
-24.27
-31.46
-38.94
-46.35
-52.93
-57.47
-58.58
-55.05
-46.38
-32.96
-16.07
2.53
21.04
37.97
52.36
63.6
71.28
75.1
74.98
71.18
64.49
56.14
47.55
39.95
34.05
29.97
27.31
25.48
23.96
22.48
21.05
19.78
18.71
17.7
16.37
14.27
11.05
6.59
1.14
-4.85
-10.87
-16.55
-21.75
-26.65
-31.64
-37.19
-43.74
-51.43
-59.97
-68.51
-75.64
-79.59
-78.72
-71.96
-59.23
-41.47
-20.45
1.7
22.99
41.86
57.32
68.9
76.47
80.16
80.26
77.3
71.99
65.17
57.76
50.6
44.32
39.31
35.67
33.28
31.85
31.05
30.55
30.06
29.32
28.1
26.22
23.48
19.8
15.17
9.7
3.59
-2.91
-9.55
-16.1
-22.36
-28.25
-33.79
-39.19
-44.8
-51.02
-58.09
-65.94
-73.98
-81.09
-85.75
-86.4
-81.79
-71.42
-55.72
-36.01
-14.16
7.79
28.09
45.52
59.43
69.57
75.96
78.75
78.22
74.89
69.48
62.9
56.07
49.75
44.44
40.32
37.35
35.38
34.17
33.47
32.96
32.3
31.18
29.37
26.82
23.62
19.92
15.83
11.42
6.64
1.44
-4.15
-9.97
-15.78
-21.31
-26.35
-30.86
-34.92
-38.75
-42.68
-47.07
-52.26
-58.37
-65.1
-71.54
-76.28
-77.64
-74.14
-65.03
-50.56
-32.03
-11.35
9.4
28.48
44.74
57.61
66.88
72.53
74.64
73.41
69.29
63
55.48
47.68
40.44
34.32
29.55
26.13
23.84
22.4
21.5
20.83
20.09
19.03
17.43
15.17
12.19
8.48
4.11
-0.8
-6.04
-11.33
-16.44
-21.18
-25.56
-29.73
-33.98
-38.61
-43.85
-49.71
-55.97
-62.1
-67.3
-70.51
-70.6
-66.66
-58.21
-45.5
-29.45
-11.52
6.61
23.38
37.56
48.33
55.23
58.17
57.36
53.32
46.86
39.05
31.01
23.71
17.84
13.61
10.88
9.27
8.32
7.67
7.1
6.53
5.89
5.05
3.83
1.96
-0.81
-4.61
-9.42
-15.01
-20.94
-26.76
-32.09
-36.81
-41.12
-45.48
-50.44
-56.36
-63.23
-70.43
-76.75
-80.6
-80.42
-75.07
-64.26
-48.63
-29.6
-9.07
11.09
29.37
44.71
56.54
64.65
69.08
70.06
68.01
63.52
57.33
50.25
43.06
36.43
30.87
26.64
23.8
22.17
21.4
21.07
20.75
20.11
18.92
17.1
14.66
11.63
8.06
3.94
-0.7
-5.83
-11.3
-16.9
-22.36
-27.46
-32.07
-36.28
-40.31
-44.54
-49.3
-54.81
-61
-67.39
-73.04
-76.61
-76.66
-72.02
-62.13
-47.35
-28.94
-8.73
11.31
29.51
44.76
56.54
64.75
69.56
71.2
69.99
66.37
60.9
54.3
47.33
40.72
35
30.48
27.22
25.08
23.81
23.08
22.57
21.98
21.05
19.63
17.6
14.95
11.73
8
3.81
-0.76
-5.57
-10.47
-15.26
-19.8
-24.06
-28.14
-32.24
-36.62
-41.52
-47.07
-53.22
-59.61
-65.49
-69.76
-71.09
-68.3
-60.73
-48.55
-32.76
-14.91
3.27
20.24
34.89
46.49
54.61
59.02
59.72
57.08
51.82
44.97
37.64
30.73
24.79
20.03
16.34
13.54
11.46
9.95
8.91
8.19
7.58
6.79
5.57
3.71
1.08
-2.32
-6.38
-10.88
-15.5
-19.96
-24.13
-28.06
-31.99
-36.29
-41.37
-47.43
-54.29
-61.3
-67.48
-71.72
-72.79
-69.74
-62.2
-50.49
-35.63
-19.03
-2.25
13.2
25.99
35.38
41.09
43.09
41.62
37.17
30.7
23.46
16.66
11.14
7.67
6.79
8.56
12.79
19.06
27.17
37.08
48.83
62.14
77.09
93.55
110.9
127.55
140.51
147.56
148.96
148.52
147.26
144.69
139.43
128.89
111.73
87.7
57.51
22.04
-18.29
-63.45
-112.07
-161
-205.68
-241.32
-264.65
-274.8
-273.33
-263.23
-247.75
-228.9
-207.69
-185.01
-162.07
-140.6
-122.01
-106.78
-94.29
-83.33
-72.49
-60.9
-48.52
-35.84
-23.67
-12.54
-2.6
6.25
14.16
21.28
27.57
32.75
36.41
38.16
37.78
35.42
31.48
26.56
21.31
16.28
11.7
7.5
3.33
-1.34
-7
-13.96
-22.19
-31.22
-40.05
-47.26
-51.15
-50.18
-43.35
-30.54
-12.64
8.61
31.09
52.73
71.9
87.55
99.2
106.75
110.39
110.47
107.53
102.23
95.36
87.69
79.93
72.65
66.21
60.85
56.63
53.49
51.18
49.43
47.86
46.15
44.01
41.25
37.79
33.63
28.86
23.62
18.03
12.19
6.15
-0.04
-6.33
-12.57
-18.58
-24.19
-29.33
-34.11
-38.84
-43.94
-49.79
-56.57
-64.01
-71.34
-77.26
-80.21
-78.72
-71.84
-59.46
-42.39
-22.22
-0.88
19.74
38.13
53.27
64.57
71.8
74.94
74.25
70.29
63.97
56.38
48.68
41.79
36.25
32.11
29.16
26.99
25.31
23.94
22.82
21.91
21.08
20.1
18.63
16.36
13.1
8.79
3.63
-2.07
-7.95
-13.71
-19.18
-24.39
-29.5
-34.78
-40.52
-46.9
-53.85
-60.95
-67.3
-71.66
-72.64
-69.11
-60.54
-47.21
-30.17
-10.99
8.63
27.13
43.28
56.17
65.19
70.05
70.78
67.82
62.01
54.45
46.34
38.76
32.44
27.68
24.44
22.38
21.02
19.96
18.85
17.53
15.95
14.09
11.92
9.32
6.12
2.1
-2.8
-8.45
-14.51
-20.51
-26.04
-30.89
-35.16
-39.2
-43.52
-48.64
-54.94
-62.47
-70.8
-78.87
-85.09
-87.59
-84.72
-75.61
-60.5
-40.73
-18.43
4.12
24.99
42.97
57.43
68.25
75.46
79.17
79.59
77.14
72.53
66.63
60.35
54.41
49.2
44.83
41.21
38.2
35.71
33.67
31.99
30.55
29.15
27.51
25.42
22.65
19.11
14.77
9.72
4.16
-1.65
-7.4
-12.87
-17.92
-22.61
-27.13
-31.76
-36.75
-42.36
-48.68
-55.66
-62.95
-69.75
-74.9
-76.97
-74.6
-66.99
-54.17
-37.09
-17.39
2.97
22.24
39.1
52.75
62.8
69.11
71.69
70.75
66.75
60.47
52.9
45.09
37.93
31.98
27.4
24.03
21.58
19.73
18.23
16.94
15.74
14.52
13.08
11.18
8.58
5.14
0.82
-4.21
-9.66
-15.13
-20.28
-24.92
-29.13
-33.22
-37.63
-42.77
-48.87
-55.78
-62.99
-69.58
-74.35
-76.04
-73.55
-66.27
-54.3
-38.46
-20.17
-1.18
16.86
32.61
45.15
53.97
58.83
59.75
57.01
51.3
43.65
35.3
27.44
20.91
16.1
12.9
10.96
9.84
9.19
8.79
8.49
8.15
7.58
6.5
4.6
1.62
-2.53
-7.72
-13.59
-19.57
-25.17
-30.08
-34.37
-38.46
-42.92
-48.32
-54.91
-62.53
-70.47
-77.54
-82.24
-83.05
-78.8
-69.01
-54.11
-35.38
-14.7
5.97
24.91
40.99
53.61
62.57
67.92
69.8
68.55
64.64
58.84
52.04
45.17
39
33.95
30.11
27.25
25.05
23.19
21.51
19.96
18.53
17.16
15.66
13.7
10.96
7.23
2.52
-2.92
-8.68
-14.32
-19.5
-24.14
-28.38
-32.61
-37.29
-42.84
-49.45
-56.93
-64.66
-71.56
-76.26
-77.31
-73.55
-64.44
-50.3
-32.26
-12.08
8.34
27.3
43.62
56.61
65.95
71.58
73.59
72.31
68.27
62.27
55.23
48.02
41.34
35.62
31.07
27.68
25.32
23.77
22.76
22.02
21.36
20.58
19.52
17.94
15.59
12.23
7.8
2.48
-3.33
-9.11
-14.44
-19.14
-23.37
-27.53
-32.06
-37.35
-43.57
-50.64
-58.1
-65.13
-70.55
-73
-71.21
-64.39
-52.54
-36.57
-18.12
0.85
18.49
33.43
44.87
52.51
56.34
56.57
53.56
47.95
40.67
32.82
25.5
19.49
15.1
12.19
10.32
9.03
8
7.1
6.32
5.65
4.91
3.8
1.94
-0.99
-5.07
-10.1
-15.64
-21.2
-26.4
-31.09
-35.45
-39.83
-44.71
-50.43
-57.08
-64.31
-71.23
-76.49
-78.53
-75.94
-67.92
-54.62
-37.13
-17.27
2.93
21.7
37.76
50.42
59.4
64.65
66.32
64.69
60.34
54.05
46.8
39.57
33.17
28.08
24.41
21.93
20.21
18.79
17.34
15.76
14.12
12.55
11.05
9.38
7.15
3.97
-0.32
-5.56
-11.33
-17.12
-22.55
-27.49
-32.06
-36.51
-41.12
-46.14
-51.77
-58.13
-65.09
-72.14
-78.2
-81.79
-81.3
-75.49
-63.99
-47.45
-27.39
-5.83
15.23
34.19
50
62.11
70.36
74.87
75.98
74.22
70.28
64.89
58.8
52.66
46.96
42.04
38.03
34.94
32.63
30.93
29.64
28.61
27.62
26.49
24.98
22.85
19.93
16.14
11.56
6.34
0.72
-5.04
-10.72
-16.1
-21.09
-25.65
-29.87
-33.98
-38.32
-43.27
-49.15
-55.99
-63.37
-70.27
-75.25
-76.68
-73.23
-64.36
-50.45
-32.81
-13.3
6.22
24.19
39.59
51.81
60.57
65.75
67.43
65.9
61.73
55.77
48.97
42.21
36.11
31
26.94
23.85
21.55
19.88
18.69
17.82
17.08
16.22
14.96
12.96
9.97
5.89
0.81
-4.92
-10.86
-16.55
-21.72
-26.34
-30.67
-35.06
-39.93
-45.54
-51.91
-58.71
-65.21
-70.29
-72.63
-71
-64.65
-53.62
-38.71
-21.4
-3.38
13.77
28.85
41.05
49.89
55.12
56.7
54.85
50.14
43.48
35.95
28.57
22.14
17.06
13.36
10.85
9.21
8.16
7.49
7.05
6.67
6.1
5.01
3.07
0.06
-4.04
-8.97
-14.28
-19.54
-24.43
-28.91
-33.21
-37.71
-42.81
-48.83
-55.84
-63.53
-71.09
-77.22
-80.32
-78.88
-71.99
-59.65
-42.83
-23.27
-2.94
16.36
33.35
47.27
57.8
64.88
68.57
69.06
66.7
62.09
56.02
49.39
42.99
37.39
32.83
29.3
26.6
24.51
22.87
21.51
20.3
19.09
17.71
15.95
13.6
10.46
6.42
1.49
-4.11
-9.99
-15.74
-21.06
-25.89
-30.43
-35.05
-40.1
-45.84
-52.34
-59.38
-66.45
-72.63
-76.66
-77.13
-72.88
-63.42
-49.12
-31.22
-11.51
8.15
26.21
41.62
53.85
62.7
68.18
70.4
69.65
66.4
61.34
55.29
49.03
43.22
38.24
34.25
31.24
29.07
27.57
26.51
25.68
24.83
23.79
22.4
20.57
18.16
15.05
11.15
6.42
1.01
-4.78
-10.57
-15.99
-20.85
-25.18
-29.2
-33.23
-37.64
-42.68
-48.49
-54.9
-61.43
-67.18
-70.92
-71.35
-67.43
-58.72
-45.61
-29.26
-11.32
6.49
22.71
36.38
46.95
54.17
57.92
58.21
55.28
49.75
42.59
35.05
28.25
22.93
19.3
17.05
15.66
14.64
13.72
12.83
11.99
11.12
10
8.31
5.73
2.13
-2.39
-7.48
-12.73
-17.73
-22.25
-26.27
-29.99
-33.75
-37.96
-43.01
-49.07
-55.97
-63.05
-69.15
-72.85
-72.75
-67.92
-58.17
-44.12
-27.11
-8.77
9.25
25.6
39.34
49.93
57.15
61.01
61.73
59.69
55.48
49.8
43.41
37.05
31.33
26.63
23.12
20.76
19.33
18.47
17.82
17.09
16.1
14.77
13.08
11
8.45
5.32
1.53
-2.9
-7.82
-12.97
-18.11
-23.01
-27.58
-31.86
-35.98
-40.22
-44.89
-50.33
-56.67
-63.68
-70.64
-76.3
-79.09
-77.52
-70.6
-58.2
-41.16
-21.11
-0.06
20.02
37.66
51.96
62.57
69.51
73.02
73.46
71.33
67.24
61.9
56.03
50.21
44.85
40.16
36.28
33.28
31.27
30.24
30.02
30.19
30.15
29.36
27.55
24.77
21.39
17.76
14.04
10.02
5.3
-0.5
-7.48
-15.33
-23.52
-31.43
-38.66
-45.05
-50.66
-55.66
-60.24
-64.65
-69.17
-74.02
-79.18
-84.15
-87.9
-88.96
-85.88
-77.7
-64.4
-46.95
-27.04
-6.62
12.61
29.46
43.29
53.84
61.04
64.84
65.33
62.81
57.91
51.52
44.6
38.03
32.39
27.97
24.76
22.53
20.96
19.74
18.61
17.37
15.97
14.41
12.68
10.64
7.97
4.43
-0.05
-5.39
-11.31
-17.45
-23.4
-28.87
-33.85
-38.66
-43.53
-48.65
-54.21
-60.37
-67.11
-73.97
-80.12
-84.54
-86.36
-84.55
-78.33
-67.41
-51.96
-32.54
-9.68
15.89
43.02
69.9
95.01
117.15
135.61
149.77
158.12
160.12
157.19
153.51
150.58
148.62
147.04
144.23
138.82
129.86
117.46
102.78
87.4
72.33
57.96
43.41
26.86
6.46
-18.65
-47.56
-77.74
-105.84
-128.68
-143.64
-149.6
-147.58
-140.91
-134.74
-134.57
-144.61
-166.1
-196.75
-230.94
-261.69
-282.88
-290.9
-285.26
-267.81
-241.6
-209.8
-175.17
-139.91
-105.99
-75.3
-49.46
-29.48
-15.27
-5.61
1.43
7.84
15.02
23.5
32.84
42.11
50.36
57.1
62.4
66.72
70.53
74.01
76.87
78.49
78.22
75.73
71.14
65.02
58.15
51.22
44.63
38.39
32.23
25.76
18.68
10.84
2.23
-7.14
-17.22
-27.8
-38.34
-47.73
-54.37
-56.5
-52.64
-42.16
-25.52
-4.23
19.56
43.56
65.82
84.96
100.17
111.08
117.59
119.83
118.22
113.45
106.46
98.3
89.95
82.15
75.34
69.69
65.16
61.63
58.91
56.76
54.91
53.06
50.95
48.41
45.29
41.52
37.04
31.76
25.63
18.67
11.05
3.06
-4.88
-12.34
-19.07
-25.07
-30.64
-36.3
-42.58
-49.88
-58.25
-67.22
-75.78
-82.39
-85.27
-82.77
-73.91
-58.74
-38.43
-15.01
9.14
31.86
51.57
67.34
78.69
85.44
87.61
85.51
79.87
71.79
62.63
53.66
45.79
39.47
34.7
31.25
28.81
27.16
26.12
25.5
25.01
24.24
22.72
20.04
16
10.65
4.33
-2.46
-9.2
-15.55
-21.42
-26.97
-32.55
-38.57
-45.33
-52.94
-61.16
-69.33
-76.31
-80.59
-80.63
-75.21
-63.97
-47.55
-27.51
-5.97
14.95
33.49
48.48
59.23
65.47
67.21
64.78
58.87
50.58
41.21
32.06
24.13
17.94
13.53
10.61
8.78
7.69
7.07
6.71
6.35
5.67
4.27
1.82
-1.84
-6.65
-12.27
-18.25
-24.13
-29.63
-34.72
-39.68
-44.99
-51.18
-58.56
-66.98
-75.62
-83.01
-87.25
-86.48
-79.45
-65.95
-46.94
-24.33
-0.52
22.23
42.2
58.35
70.23
77.76
81.05
80.43
76.49
70.12
62.43
54.55
47.4
41.53
37.05
33.72
31.21
29.17
27.39
25.79
24.31
22.91
21.41
19.57
17.07
13.58
8.9
3.08
-3.55
-10.48
-17.15
-23.19
-28.55
-33.51
-38.55
-44.18
-50.72
-58.19
-66.19
-73.93
-80.15
-83.35
-82.01
-75.04
-62.16
-44.1
-22.56
0.25
22.14
41.44
57.18
69.05
77.13
81.65
82.82
80.94
76.47
70.08
62.69
55.24
48.51
43.02
38.92
36.07
34.21
33.02
32.19
31.42
30.38
28.8
26.49
23.41
19.65
15.4
10.8
5.92
0.81
-4.5
-9.87
-15.14
-20.15
-24.88
-29.42
-33.99
-38.84
-44.19
-50.2
-56.78
-63.52
-69.5
-73.4
-73.71
-69.24
-59.51
-45.03
-27.15
-7.7
11.49
28.99
43.82
55.45
63.61
68.15
69.11
66.78
61.75
54.92
47.37
40.16
34.1
29.61
26.65
24.83
23.66
22.7
21.71
20.62
19.43
18.06
16.32
13.96
10.75
6.64
1.75
-3.68
-9.44
-15.42
-21.58
-27.91
-34.32
-40.67
-46.84
-52.85
-58.82
-64.84
-70.67
-75.64
-78.57
-78.11
-73.19
-63.38
-49.05
-31.31
-11.68
8.25
27.06
43.54
56.71
65.76
70.2
70
65.68
58.26
49.1
39.55
30.69
23.17
17.21
12.72
9.46
7.13
5.46
4.2
3.16
2.21
1.23
0.06
-1.5
-3.77
-6.99
-11.23
-16.28
-21.65
-26.85
-31.63
-36.18
-41.08
-47.04
-54.61
-63.88
-74.44
-85.45
-95.79
-104.08
-108.83
-108.52
-101.9
-88.34
-68.08
-42.36
-13.19
17.07
46.18
72.45
94.97
113.55
128.62
140.92
151.23
160.11
167.66
173.7
177.97
180.55
182.12
183.9
187.28
193.23
201.83
211.85
220.92
225.83
223.22
210.13
184.77
147.21
99.87
47.33
-4.64
-50.68
-87.67
-115.67
-137.58
-157.49
-178.6
-201.74
-225.34
-246.59
-263.07
-273.97
-280.11
-283.16
-284.49
-284.49
-282.59
-277.72
-268.89
-255.46
-237.27
-214.55
-187.81
-157.82
-125.71
-92.82
-60.66
-30.76
-4.51
16.96
33.07
43.86
50.06
52.96
54.03
54.53
55.23
56.32
57.49
58.33
58.59
58.39
58.12
58.19
58.79
59.7
60.38
60.21
58.77
55.97
52.07
47.47
42.54
37.46
32.28
26.97
21.48
15.8
9.98
4.11
-1.73
-7.4
-12.79
-17.83
-22.61
-27.4
-32.61
-38.63
-45.57
-52.99
-59.82
-64.52
-65.48
-61.55
-52.41
-38.75
-22.02
-4.01
13.57
29.46
42.86
53.35
60.66
64.67
65.4
63.12
58.44
52.25
45.53
39.18
33.83
29.75
26.92
25.12
24.05
23.45
23.1
22.82
22.46
21.86
20.83
19.18
16.77
13.54
9.56
5
0.14
-4.75
-9.47
-13.92
-18.16
-22.39
-26.86
-31.87
-37.63
-44.15
-51.09
-57.76
-63.03
-65.6
-64.26
-58.29
-47.7
-33.28
-16.44
1.18
18.04
32.95
45.08
53.97
59.41
61.46
60.38
56.7
51.13
44.53
37.75
31.49
26.3
22.44
19.91
18.47
17.7
17.14
16.43
15.37
13.95
12.22
10.15
7.64
4.48
0.5
-4.33
-9.84
-15.68
-21.49
-26.92
-31.84
-36.31
-40.57
-44.96
-49.85
-55.55
-62.11
-69.24
-76.13
-81.51
-83.84
-81.69
-74.26
-61.6
-44.71
-25.23
-4.99
14.35
31.6
45.98
57.08
64.7
68.82
69.63
67.57
63.29
57.58
51.29
45.16
39.74
35.34
32.01
29.56
27.71
26.19
24.81
23.48
22.15
20.7
18.96
16.65
13.53
9.49
4.59
-0.9
-6.59
-12.1
-17.2
-21.86
-26.3
-30.87
-35.96
-41.83
-48.52
-55.76
-62.86
-68.8
-72.24
-71.88
-66.72
-56.49
-41.74
-23.8
-4.46
14.5
31.65
46.06
57.29
65.14
69.57
70.64
68.59
63.95
57.55
50.38
43.44
37.44
32.78
29.48
27.31
25.95
25.11
24.57
24.17
23.79
23.3
22.51
21.23
19.25
16.44
12.72
8.13
2.85
-2.83
-8.57
-14.08
-19.24
-24.11
-28.94
-34.11
-39.95
-46.61
-53.84
-60.94
-66.76
-69.9
-69.04
-63.33
-52.7
-37.89
-20.37
-1.94
15.65
30.93
42.9
51.01
55.07
55.28
52.16
46.54
39.41
31.8
24.59
18.41
13.59
10.19
8.06
6.93
6.43
6.21
5.99
5.52
4.62
3.1
0.82
-2.3
-6.23
-10.79
-15.68
-20.56
-25.23
-29.72
-34.27
-39.3
-45.14
-51.76
-58.66
-64.77
-68.68
-68.91
-64.43
-54.91
-40.93
-23.82
-5.34
12.73
28.88
42.08
51.72
57.58
59.74
58.57
54.65
48.79
41.86
34.72
28.04
22.3
17.7
14.26
11.86
10.31
9.4
8.89
8.48
7.81
6.54
4.4
1.28
-2.7
-7.28
-12.08
-16.81
-21.35
-25.78
-30.44
-35.73
-41.99
-49.23
-56.95
-64.06
-69.02
-70.2
-66.34
-57.03
-42.84
-25.2
-5.96
13.05
30.42
45.24
57
65.42
70.37
71.85
70.13
65.82
59.78
52.98
46.27
40.24
35.16
31.09
27.95
25.56
23.72
22.24
20.94
19.63
18.18
16.39
14.05
10.94
6.96
2.23
-2.94
-8.13
-12.96
-17.29
-21.23
-25.09
-29.25
-33.99
-39.49
-45.68
-52.24
-58.48
-63.32
-65.44
-63.62
-57.08
-45.86
-30.77
-13.29
4.93
22.36
37.89
50.76
60.56
67.05
70.18
70.13
67.33
62.47
56.37
49.88
43.7
38.36
34.12
31.02
28.91
27.52
26.54
25.69
24.76
23.59
22.1
20.18
17.74
14.71
11.05
6.82
2.13
-2.82
-7.83
-12.72
-17.36
-21.71
-25.83
-29.89
-34.16
-38.89
-44.25
-50.13
-56.02
-61.03
-64.01
-63.82
-59.69
-51.41
-39.48
-24.94
-9.17
6.46
20.72
32.65
41.6
47.19
49.33
48.25
44.48
38.79
32.13
25.41
19.39
14.52
10.94
8.52
6.99
6.03
5.41
4.96
4.56
4.04
3.19
1.73
-0.53
-3.66
-7.53
-11.8
-16.11
-20.12
-23.73
-27.02
-30.3
-33.98
-38.38
-43.64
-49.61
-55.79
-61.35
-65.18
-66.16
-63.33
-56.24
-45.07
-30.68
-14.45
2.05
17.38
30.47
40.67
47.73
51.67
52.66
51.03
47.25
41.97
35.94
29.92
24.57
20.28
17.19
15.17
13.95
13.22
12.63
11.95
11.01
9.74
8.06
5.91
3.15
-0.32
-4.52
-9.34
-14.5
-19.63
-24.37
-28.55
-32.21
-35.56
-38.94
-42.67
-47
-52.01
-57.58
-63.27
-68.23
-71.34
-71.35
-67.28
-58.75
-46.1
-30.4
-13.08
4.38
20.69
34.96
46.59
55.23
60.76
63.21
62.89
60.3
56.13
51.13
45.98
41.17
36.99
33.54
30.79
28.68
27.16
26.15
25.52
25.03
24.32
23.08
21.13
18.49
15.32
11.88
8.29
4.57
0.64
-3.55
-7.99
-12.54
-17.03
-21.31
-25.32
-29.11
-32.82
-36.65
-40.83
-45.56
-50.91
-56.71
-62.39
-66.95
-69.1
-67.61
-61.66
-51.24
-37.16
-20.88
-4.06
11.87
25.94
37.63
46.69
52.94
56.24
56.54
54.07
49.39
43.37
36.96
31.04
26.2
22.66
20.39
19.08
18.36
17.81
17.13
16.12
14.71
12.88
10.63
7.92
4.71
0.96
-3.26
-7.83
-12.55
-17.22
-21.66
-25.79
-29.65
-33.36
-37.13
-41.21
-45.76
-50.85
-56.28
-61.51
-65.69
-67.74
-66.57
-61.46
-52.28
-39.57
-24.53
-8.6
6.79
20.57
32.02
40.76
46.59
49.39
49.21
46.32
41.32
35.09
28.62
22.84
18.36
15.38
13.69
12.86
12.39
11.93
11.33
10.59
9.7
8.56
6.9
4.42
0.95
-3.48
-8.54
-13.76
-18.72
-23.19
-27.2
-30.95
-34.77
-39
-43.9
-49.6
-55.96
-62.49
-68.31
-72.2
-72.85
-69.24
-60.94
-48.3
-32.39
-14.68
3.25
20.11
35.01
47.42
57.04
63.69
67.23
67.67
65.28
60.65
54.64
48.2
42.16
37.07
33.15
30.34
28.42
27.1
26.1
25.19
24.14
22.78
20.96
18.6
15.65
12.08
7.94
3.32
-1.6
-6.61
-11.52
-16.2
-20.67
-25.04
-29.52
-34.33
-39.63
-45.51
-51.84
-58.19
-63.75
-67.36
-67.72
-63.74
-54.94
-41.69
-25.13
-6.9
11.31
28.1
42.56
54.22
62.85
68.29
70.45
69.4
65.54
59.68
52.86
46.14
40.31
35.7
32.22
29.58
27.44
25.67
24.24
23.23
22.6
22.1
21.34
19.82
17.21
13.39
8.55
3.09
-2.54
-8.02
-13.2
-18.12
-22.9
-27.67
-32.53
-37.6
-43
-48.77
-54.66
-60
-63.7
-64.39
-60.96
-52.85
-40.44
-24.91
-7.99
8.57
23.32
35.31
44.04
49.35
51.23
49.9
45.83
39.8
32.84
25.97
19.99
15.23
11.67
9.04
7.06
5.6
4.63
4.1
3.83
3.42
2.44
0.49
-2.55
-6.5
-10.97
-15.48
-19.72
-23.61
-27.42
-31.57
-36.5
-42.44
-49.3
-56.57
-63.36
-68.49
-70.69
-68.88
-62.41
-51.29
-36.32
-18.91
-0.82
16.29
31.12
42.89
51.23
56.1
57.6
55.99
51.74
45.55
38.32
30.92
24.09
18.26
13.61
10.14
7.76
6.39
5.84
5.83
5.92
5.58
4.36
2
-1.52
-5.97
-10.94
-16.03
-20.95
-25.62
-30.2
-35.01
-40.46
-46.83
-54.1
-61.79
-68.85
-73.8
-75
-71.17
-61.76
-47.29
-29.19
-9.48
9.83
27.12
41.41
52.27
59.63
63.58
64.26
61.98
57.22
50.69
43.26
35.75
28.83
22.92
18.18
14.57
11.95
10.07
8.65
7.34
5.78
3.65
0.8
-2.78
-6.87
-11.23
-15.62
-19.99
-24.45
-29.28
-34.78
-41.15
-48.22
-55.37
-61.52
-65.23
-65.11
-60.17
-50.21
-35.9
-18.64
-0.24
17.53
33.24
46.01
55.43
61.49
64.37
64.35
61.72
56.89
50.35
42.76
34.89
27.51
21.21
16.31
12.82
10.45
8.75
7.28
5.67
3.67
1.15
-1.95
-5.64
-9.92
-14.64
-19.73
-25.07
-30.67
-36.62
-43.02
-49.73
-56.14
-61.13
-63.18
-60.94
-53.67
-41.59
-25.88
-8.35
9.08
24.83
37.91
47.92
54.7
58.38
59.25
57.7
54.28
49.62
44.38
39.15
34.57
30.61
27.22
24.21
21.38
18.6
15.85
13.13
10.19
7.1
3.01
-2.41
-9.26
-17.48
-26.77
-36.63
-46.63
-56.66
-66.05
-75.47
-84.77
-93.48
-100.86
-105.71
-106.55
-101.94
-91.15
-73.22
-49.59
-21.51
9.36
40.91
71.25
99.02
123.37
137.23
146.69
151.74
153.98
155.19
155.71
155.35
153.74
150.69
144.77
137.17
129.51
125.25
127.46
135.58
147.32
159.57
168.9
169.56
158.89
136.93
107.1
74.19
39.35
2.59
-36.73
-80.15
-132.8
-196.29
-267.19
-337.01
-395
-435.99
-458.33
-463.7
-432.59
-362.03
-268.77
-177.8
-114.75
-72.43
-43.81
-25.57
-13.81
-7.27
-7.88
-14.93
-24.32
-30.67
-29.18
-21.36
-10.22
1.67
12.41
18.53
18.87
15.36
11.45
10.71
12.43
14.99
17.14
17.92
15.38
8.83
-0.6
-10.86
-19.63
-26.83
-32.32
-35.21
-34.26
-29.02
-19.34
-5.3
12.43
32.77
53.39
72.29
88.21
100.46
108.41
111.82
110.89
106.38
99.43
91.1
82.38
74.07
66.56
59.92
54.07
49
44.76
41.42
38.89
36.8
34.55
31.51
27.23
21.59
14.85
7.54
0.21
-6.71
-13.1
-19.15
-25.24
-31.89
-39.49
-48.14
-57.46
-66.45
-73.54
-76.91
-74.92
-66.66
-52.26
-33
-10.93
11.67
32.81
51.14
65.95
76.99
84.22
87.68
87.57
84.31
78.65
71.59
64.18
57.24
51.23
46.21
41.93
38.16
34.74
31.72
29.21
27.24
25.58
23.73
21.1
17.23
12.01
5.69
-1.13
-7.85
-14.05
-19.7
-25.13
-30.9
-37.59
-45.52
-54.52
-63.79
-71.94
-77.2
-77.9
-72.89
-61.96
-45.93
-26.43
-5.51
14.82
33
47.96
59.16
66.42
69.84
69.69
66.47
60.81
53.54
45.57
37.78
30.89
25.36
21.33
18.67
17.06
16.07
15.31
14.39
13
10.91
7.95
4.15
-0.38
-5.32
-10.36
-15.27
-20.02
-24.8
-29.95
-35.83
-42.55
-49.81
-56.81
-62.3
-64.81
-63.07
-56.31
-44.61
-28.88
-10.72
7.96
25.34
40.05
51.24
58.64
62.31
62.54
59.72
54.37
47.17
38.96
30.67
23.14
17
12.52
9.64
8.08
7.34
6.89
6.19
4.77
2.37
-1.05
-5.27
-9.93
-14.66
-19.29
-23.84
-28.51
-33.65
-39.48
-46.1
-53.25
-60.24
-65.94
-68.87
-67.58
-61.07
-49.2
-32.85
-13.72
6.07
24.52
40.14
52.11
60.18
64.47
65.25
62.96
58.15
51.55
44.06
36.56
29.81
24.22
19.88
16.65
14.3
12.66
11.64
11.15
11
10.84
10.17
8.59
5.84
1.96
-2.76
-7.9
-13.13
-18.27
-23.44
-28.93
-35.13
-42.28
-50.22
-58.21
-64.99
-68.96
-68.59
-62.95
-51.93
-36.38
-17.92
1.52
20.08
36.3
49.3
58.68
64.47
66.96
66.56
63.82
59.35
53.85
47.99
42.44
37.66
33.9
31.19
29.4
28.34
27.81
27.63
27.59
27.42
26.73
25.1
22.21
17.96
12.53
6.34
-0.04
-6.09
-11.51
-16.24
-20.47
-24.5
-28.65
-33.19
-38.32
-44.06
-50.23
-56.21
-60.96
-63.08
-61.21
-54.49
-42.88
-27.36
-9.66
8.23
24.54
38.07
48.25
54.99
58.46
58.91
56.63
52.05
45.78
38.58
31.33
24.79
19.45
15.45
12.61
10.59
9.04
7.71
6.48
5.27
3.97
2.33
0.08
-2.97
-6.82
-11.28
-16.05
-20.86
-25.58
-30.26
-34.94
-39.65
-44.31
-48.85
-53.36
-58.07
-63.23
-68.79
-74.08
-77.7
-77.7
-72.15
-59.73
-40.26
-14.76
14.8
46.03
76.59
104.58
128.66
148.04
162.45
172.05
177.32
178.84
177.25
173.19
167.43
161.02
155.16
151.02
149.09
148.82
148.56
146.03
138.97
125.8
106.1
80.8
52.15
23.23
-2.85
-24.02
-40.02
-52.67
-65.2
-81.05
-102.56
-130.15
-162.34
-196.42
-229.42
-258.82
-282.76
-299.83
-308.87
-308.95
-299.63
-281.28
-255.29
-223.95
-190.08
-156.33
-124.69
-96.15
-70.95
-48.98
-30.27
-15.19
-4.19
2.58
5.61
6.1
5.64
5.71
7.29
10.59
15.17
20.19
24.77
28.25
30.37
31.22
31.08
30.23
28.82
26.77
23.94
20.22
15.69
10.6
5.33
0.16
-4.81
-9.7
-14.78
-20.32
-26.56
-33.67
-41.62
-50.15
-58.54
-65.56
-69.64
-69.21
-63.26
-51.72
-35.6
-16.65
3.09
21.88
38.48
52.23
62.79
70.01
73.84
74.38
72.03
67.48
61.65
55.48
49.75
44.9
41.08
38.16
35.94
34.21
32.83
31.72
30.8
29.94
28.93
27.46
25.27
22.13
18.01
13.03
7.45
1.61
-4.19
-9.77
-15.05
-20.12
-25.17
-30.48
-36.38
-43.07
-50.54
-58.31
-65.47
-70.62
-72.29
-69.26
-60.95
-47.71
-30.68
-11.57
7.8
25.84
41.4
53.79
62.65
67.86
69.52
67.94
63.75
57.85
51.3
45.04
39.73
35.59
32.49
30.1
28.16
26.53
25.25
24.34
23.69
23.01
21.86
19.85
16.75
12.58
7.6
2.16
-3.4
-8.82
-14.06
-19.21
-24.54
-30.35
-36.96
-44.49
-52.77
-61.13
-68.39
-73.04
-73.61
-69.07
-59.24
-44.87
-27.46
-8.9
8.99
24.73
37.34
46.27
51.35
52.77
50.97
46.69
40.77
34.11
27.5
21.55
16.68
13.13
10.92
9.9
9.77
10.08
10.38
10.19
9.19
7.19
4.18
0.35
-4
-8.51
-12.9
-17.08
-21.15
-25.4
-30.22
-35.94
-42.64
-50.05
-57.34
-63.22
-66.15
-64.71
-58.13
-46.53
-31
-13.24
4.86
21.72
36.27
47.94
56.46
61.71
63.68
62.54
58.74
53.07
46.44
39.75
33.66
28.51
24.34
21.05
18.52
16.71
15.61
15.15
15.06
14.88
14.04
12.03
8.65
4.06
-1.23
-6.65
-11.72
-16.29
-20.56
-24.95
-29.98
-36.01
-43.12
-50.9
-58.42
-64.28
-66.91
-64.96
-57.74
-45.49
-29.32
-10.95
7.72
25.1
40.04
51.89
60.38
65.45
67.24
66.07
62.49
57.3
51.35
45.46
40.19
35.8
32.24
29.36
26.97
24.99
23.4
22.2
21.26
20.3
18.95
16.84
13.77
9.79
5.17
0.3
-4.42
-8.73
-12.62
-16.33
-20.28
-24.97
-30.7
-37.42
-44.53
-50.94
-55.25
-56.07
-52.48
-44.19
-31.74
-16.28
0.62
17.37
32.53
45.06
54.32
60.05
62.29
61.37
57.84
52.44
46.02
39.4
33.26
28
23.76
20.44
17.89
15.98
14.61
13.69
13.02
12.29
11.08
9.03
5.95
1.9
-2.78
-7.64
-12.27
-16.52
-20.5
-24.56
-29.16
-34.62
-41.03
-48.03
-54.82
-60.22
-62.9
-61.76
-56.21
-46.42
-33.29
-18.24
-2.85
11.46
23.65
33.05
39.36
42.48
42.53
39.85
35
28.74
21.98
15.54
10.07
5.89
3
1.21
0.26
-0.09
-0.05
0.16
0.22
-0.22
-1.46
-3.64
-6.68
-10.3
-14.16
-18.06
-21.92
-25.87
-30.15
-34.98
-40.53
-46.73
-53.2
-59.11
-63.23
-64.22
-60.94
-52.89
-40.47
-24.93
-8.01
8.53
23.31
35.53
44.87
51.33
54.97
55.87
54.26
50.59
45.59
40.12
34.96
30.58
27.08
24.24
21.77
19.5
17.4
15.64
14.33
13.37
12.45
11.09
8.82
5.43
1.05
-3.92
-8.96
-13.62
-17.67
-21.16
-24.38
-27.77
-31.76
-36.67
-42.54
-49.07
-55.45
-60.5
-62.87
-61.39
-55.44
-45.17
-31.43
-15.61
0.79
16.44
30.35
41.93
50.83
56.94
60.27
61.01
59.51
56.24
51.81
46.82
41.83
37.29
33.51
30.63
28.64
27.42
26.76
26.39
26.03
25.39
24.23
22.44
20
17.03
13.67
10.03
6.13
1.99
-2.36
-6.77
-11.02
-14.93
-18.44
-21.69
-24.99
-28.66
-32.92
-37.81
-43.11
-48.38
-52.9
-55.78
-56.07
-52.96
-46.08
-35.62
-22.42
-7.73
7.06
20.71
32.32
41.41
47.78
51.37
52.23
50.52
46.61
41.09
34.78
28.56
23.19
19.11
16.37
14.67
13.56
12.61
11.53
10.23
8.76
7.23
5.66
3.97
2
-0.47
-3.55
-7.23
-11.3
-15.5
-19.57
-23.4
-26.98
-30.43
-33.9
-37.57
-41.54
-45.89
-50.5
-55.06
-58.93
-61.21
-60.93
-57.32
-50.08
-39.49
-26.36
-11.92
2.57
15.92
27.27
36.04
41.97
45.06
45.49
43.62
39.99
35.2
29.96
24.92
20.6
17.27
14.94
13.42
12.38
11.53
10.68
9.74
8.69
7.53
6.18
4.53
2.4
-0.34
-3.78
-7.83
-12.3
-16.87
-21.18
-25.03
-28.36
-31.34
-34.24
-37.37
-40.97
-45.08
-49.57
-54.08
-57.93
-60.22
-59.93
-56.18
-48.52
-37.18
-23.02
-7.38
8.33
22.88
35.45
45.55
52.97
57.6
59.44
58.68
55.74
51.34
46.3
41.38
37.09
33.61
30.88
28.71
26.98
25.63
24.71
24.17
23.81
23.31
22.29
20.53
17.94
14.68
11.03
7.25
3.52
-0.1
-3.67
-7.32
-11.13
-15.14
-19.25
-23.29
-27.1
-30.52
-33.53
-36.27
-39.03
-42.18
-46.09
-50.9
-56.43
-62.03
-66.62
-68.95
-67.87
-62.71
-53.47
-40.88
-26.15
-10.71
4.14
17.4
28.42
36.83
42.51
45.51
45.99
44.3
40.96
36.58
31.82
27.3
23.48
20.67
18.94
18.18
18.13
18.44
18.74
18.7
18.11
16.91
15.15
12.94
10.37
7.49
4.25
0.62
-3.37
-7.61
-11.88
-15.91
-19.54
-22.73
-25.56
-28.26
-31.08
-34.25
-37.9
-42.08
-46.62
-51.07
-54.71
-56.58
-55.7
-51.38
-43.41
-32.24
-18.86
-4.6
9.2
21.42
31.29
38.38
42.52
43.81
42.5
39.08
34.16
28.5
22.82
17.73
13.68
10.87
9.3
8.76
8.93
9.42
9.88
10.01
9.62
8.63
7.04
4.93
2.38
-0.55
-3.82
-7.45
-11.44
-15.74
-20.22
-24.68
-28.92
-32.81
-36.31
-39.49
-42.54
-45.73
-49.38
-53.79
-59.09
-65.03
-70.81
-75.14
-76.49
-73.56
-65.73
-53.3
-37.43
-19.79
-2.08
14.33
28.6
40.33
49.38
55.72
59.34
60.32
58.95
55.78
51.52
46.95
42.68
39.05
36.13
33.82
31.99
30.6
29.68
29.27
29.34
29.72
30.07
29.96
28.99
26.88
23.62
19.49
14.97
10.6
6.68
3.23
-0.08
-3.67
-7.82
-12.48
-17.35
-21.98
-26.06
-29.61
-32.92
-36.48
-40.74
-45.96
-52.09
-58.73
-65.11
-70.11
-72.41
-70.76
-64.32
-53
-37.59
-19.61
-0.88
16.9
32.49
45.2
54.79
61.25
64.69
65.31
63.47
59.71
54.71
49.23
43.9
39.18
35.32
32.34
30.18
28.67
27.62
26.84
26.1
25.22
24.03
22.38
20.15
17.23
13.57
9.19
4.2
-1.16
-6.62
-11.92
-16.9
-21.55
-25.98
-30.43
-35.09
-40.15
-45.61
-51.38
-57.1
-62.17
-65.7
-66.61
-63.92
-56.99
-45.91
-31.46
-15.08
1.56
16.92
29.84
39.64
46.06
49.09
48.87
45.76
40.33
33.42
26.04
19.17
13.56
9.5
6.93
5.43
4.55
3.94
3.43
2.97
2.5
1.81
0.55
-1.65
-5.03
-9.53
-14.77
-20.15
-25.16
-29.48
-33.2
-36.74
-40.71
-45.65
-51.76
-58.71
-65.59
-71.06
-73.63
-72.03
-65.58
-54.38
-39.29
-21.77
-3.48
13.95
29.29
41.66
50.64
56.1
58.15
57.19
53.79
48.74
42.89
37.03
31.74
27.29
23.73
20.93
18.73
17.02
15.71
14.75
13.99
13.19
12.04
10.19
7.39
3.56
-1.16
-6.42
-11.79
-16.92
-21.67
-26.16
-30.74
-35.87
-41.95
-49.04
-56.77
-64.18
-69.84
-72.1
-69.59
-61.61
-48.46
-31.4
-12.24
7.04
24.86
40.19
52.5
61.6
67.39
69.9
69.29
65.99
60.71
54.36
47.83
41.82
36.7
32.53
29.19
26.5
24.34
22.66
21.42
20.45
19.44
17.95
15.56
12.01
7.33
1.85
-3.95
-9.61
-14.81
-19.55
-24.06
-28.82
-34.33
-41.01
-48.99
-57.86
-66.66
-73.94
-78.07
-77.74
-72.33
-62.15
-48.4
-32.76
-17
-2.59
9.47
18.65
24.71
27.59
27.4
24.42
19.17
12.38
4.91
-2.3
-8.39
-12.6
-14.32
-13.15
-9.01
-2.15
6.87
17.23
28.12
38.93
49.38
59.53
69.5
79.34
88.78
97.34
104.44
109.61
112.67
113.64
112.74
110.39
107.36
105
105.22
110.14
121.35
139.26
162.63
188.8
214.08
234.53
246.53
247.29
234.96
208.85
169.48
118.93
60.84
0.17
-57.84
-108.89
-150.75
-183.58
-209.23
-229.92
-246.9
-259.87
-267.49
-268.5
-262.78
-251.65
-237.4
-222.2
-207.47
-193.65
-180.65
-168.37
-156.96
-146.75
-138.05
-130.94
-125.26
-120.82
-117.48
-115.08
-113.35
-111.62
-108.8
-103.47
-94.26
-80.27
-61.43
-38.57
-13.31
12.4
36.7
58.16
75.94
89.71
99.45
105.31
107.54
106.57
103.06
97.9
92.03
86.29
81.18
76.86
73.24
70.14
67.42
65.02
62.89
60.95
58.99
56.73
53.81
50
45.17
39.43
33.09
26.6
20.43
14.93
10.16
5.96
1.91
-2.42
-7.42
-13.26
-19.8
-26.6
-32.87
-37.55
-39.51
-37.76
-31.75
-21.71
-8.62
5.92
20.12
32.47
42.11
48.87
53.05
55.04
55.07
53.17
49.28
43.55
36.5
28.96
21.94
16.24
12.36
10.39
10.14
11.2
13.08
15.29
17.38
19.03
20.03
20.33
19.89
18.69
16.65
13.69
9.82
5.23
0.18
-5.02
-10.16
-15.19
-20.2
-25.34
-30.8
-36.73
-43.28
-50.41
-57.76
-64.48
-69.23
-70.49
-67.01
-58.27
-44.7
-27.59
-8.7
10.23
27.75
42.83
54.77
63.1
67.54
68.05
65.01
59.21
51.78
43.99
36.91
31.25
27.22
24.61
22.96
21.78
20.72
19.61
18.43
17.19
15.78
13.93
11.27
7.44
2.27
-4.11
-11.28
-18.62
-25.53
-31.62
-36.8
-41.32
-45.63
-50.25
-55.57
-61.64
-68.02
-73.75
-77.45
-77.66
-73.23
-63.68
-49.38
-31.52
-11.75
8.16
26.67
42.59
55.08
63.62
67.95
68.17
64.81
58.78
51.24
43.37
36.11
30.03
25.31
21.84
19.4
17.74
16.64
15.85
15.05
13.85
11.85
8.8
4.6
-0.54
-6.24
-12.02
-17.47
-22.45
-27.12
-31.89
-37.34
-43.93
-51.78
-60.47
-68.9
-75.48
-78.45
-76.45
-68.92
-56.34
-40.08
-21.99
-3.97
12.52
26.52
37.49
45.19
49.47
50.35
48.06
43.23
36.76
29.7
22.99
17.22
12.62
9.11
6.53
4.76
3.79
3.65
4.2
5.12
5.88
5.9
4.76
2.33
-1.2
-5.37
-9.6
-13.42
-16.67
-19.47
-22.27
-25.69
-30.3
-36.45
-44.12
-52.87
-61.76
-69.44
-74.39
-75.19
-70.97
-61.66
-48.1
-31.85
-14.74
1.56
15.88
27.65
36.71
43.1
46.88
48.09
46.85
43.47
38.46
32.52
26.34
20.52
15.47
11.39
8.33
6.22
4.86
4
3.3
2.45
1.24
-0.4
-2.42
-4.73
-7.28
-10.08
-13.2
-16.66
-20.37
-24.15
-27.75
-30.92
-33.51
-35.47
-36.91
-38.03
-39.19
-40.77
-43.15
-46.46
-50.41
-54.15
-56.34
-55.46
-50.31
-40.36
-26.02
-8.49
10.61
29.6
47.13
62.29
74.56
83.72
89.72
92.71
92.99
91.07
87.59
83.22
78.56
74.05
69.96
66.38
63.28
60.58
58.2
56.06
54.09
52.19
50.2
47.89
45
41.39
37.01
32
26.58
21
15.37
9.69
3.86
-2.16
-8.27
-14.24
-19.77
-24.65
-28.89
-32.77
-36.74
-41.32
-46.91
-53.54
-60.77
-67.63
-72.73
-74.59
-72.05
-64.59
-52.59
-37.13
-19.79
-2.2
14.24
28.54
40.1
48.65
54.15
56.76
56.75
54.62
50.96
46.44
41.75
37.41
33.8
31.05
29.1
27.75
26.76
25.95
25.23
24.58
23.99
23.41
22.67
21.54
19.76
17.16
13.76
9.74
5.42
1.11
-2.95
-6.75
-10.4
-14.18
-18.37
-23.23
-28.87
-35.18
-41.72
-47.68
-52
-53.53
-51.41
-45.27
-35.46
-22.88
-8.84
5.28
18.24
29.06
37.04
41.73
42.93
40.77
35.72
28.55
20.32
12.06
4.7
-1.18
-5.39
-8.06
-9.56
-10.29
-10.57
-10.62
-10.58
-10.63
-10.97
-11.86
-13.44
-15.67
-18.33
-21.13
-23.83
-26.43
-29.12
-32.21
-35.97
-40.41
-45.29
-50.02
-53.79
-55.67
-54.85
-50.76
-43.27
-32.8
-20.2
-6.66
6.52
18.14
27.24
33.23
35.86
35.23
31.77
26.17
19.27
11.95
5.01
-0.92
-5.46
-8.49
-10.16
-10.83
-11.04
-11.27
-11.9
-13.07
-14.7
-16.62
-18.63
-20.65
-22.76
-25.08
-27.76
-30.88
-34.5
-38.6
-43.08
-47.64
-51.65
-54.19
-54.14
-50.51
-42.84
-31.36
-17.09
-1.5
13.78
27.39
38.41
46.37
51.16
52.9
51.83
48.35
43.01
36.49
29.58
23.01
17.39
13.08
10.14
8.4
7.47
6.94
6.39
5.48
4
1.85
-0.95
-4.3
-8.06
-12.19
-16.71
-21.83
-27.86
-34.98
-43.07
-51.49
-59.08
-64.32
-65.72
-62.2
-53.51
-40.28
-23.92
-6.25
10.93
26.14
38.39
47.12
52.15
53.56
51.61
46.86
40.01
31.96
23.6
15.69
8.75
3.05
-1.37
-4.66
-7.05
-8.84
-10.37
-11.96
-13.86
-16.21
-19.01
-22.16
-25.58
-29.23
-33.15
-37.48
-42.45
-48.24
-54.94
-62.23
-69.31
-74.84
-77.22
-74.96
-67.2
-54.02
-36.48
-16.39
4.19
23.38
39.76
52.52
61.31
66.17
67.4
65.49
61.14
55.09
48.14
40.95
34.04
27.72
22.22
17.65
14.12
11.62
10.06
9.11
8.34
7.25
5.44
2.67
-1.05
-5.54
-10.46
-15.45
-20.24
-24.72
-29.08
-33.72
-39.18
-45.79
-53.42
-61.21
-67.63
-70.82
-69.1
-61.51
-48.15
-30.18
-9.5
11.7
31.48
48.38
61.57
70.76
76.02
77.67
76.17
72.14
66.34
59.59
52.73
46.38
40.94
36.52
33.1
30.64
29.11
28.52
28.74
29.44
30.09
30.14
29.1
26.8
23.32
18.98
14.19
9.3
4.49
-0.25
-5.14
-10.6
-17.05
-24.76
-33.57
-42.77
-51.06
-56.81
-58.44
-54.86
-45.82
-32.01
-14.91
3.52
21.31
36.81
48.88
56.99
61.11
61.54
58.83
53.6
46.52
38.29
29.63
21.27
13.8
7.68
3.14
0.18
-1.36
-1.77
-1.44
-0.78
-0.28
-0.35
-1.31
-3.3
-6.25
-9.95
-14.15
-18.73
-23.67
-29.13
-35.22
-41.87
-48.58
-54.43
-58.12
-58.34
-54.14
-45.29
-32.38
-16.74
-0.06
15.97
29.96
40.99
48.55
52.5
52.98
50.39
45.32
38.56
30.98
23.38
16.42
10.5
5.85
2.48
0.3
-0.88
-1.34
-1.41
-1.44
-1.78
-2.66
-4.17
-6.28
-8.84
-11.68
-14.69
-17.88
-21.38
-25.43
-30.3
-36.11
-42.67
-49.24
-54.59
-57.19
-55.67
-49.28
-38.17
-23.45
-6.84
9.74
24.64
36.75
45.5
50.76
52.67
51.56
47.93
42.41
35.77
28.77
22.08
16.17
11.28
7.49
4.81
3.18
2.44
2.35
2.51
2.51
1.98
0.74
-1.13
-3.44
-5.97
-8.58
-11.22
-13.99
-17.01
-20.46
-24.53
-29.26
-34.43
-39.35
-42.87
-43.59
-40.32
-32.5
-20.51
-5.61
10.38
25.62
38.65
48.62
55.2
58.4
58.47
55.69
50.52
43.52
35.4
26.93
18.76
11.4
5.06
-0.22
-4.52
-7.99
-10.72
-12.86
-14.59
-16.19
-17.98
-20.24
-23.13
-26.58
-30.41
-34.31
-38.11
-41.83
-45.72
-50.15
-55.41
-61.47
-67.77
-73.25
-76.51
-76.17
-71.31
-61.75
-48.11
-31.7
-14.09
3.19
18.91
32.19
42.45
49.36
52.83
53.06
50.6
46.27
41.05
35.82
31.19
27.5
24.8
22.99
21.93
21.48
21.47
21.71
21.96
21.96
21.46
20.28
18.28
15.43
11.69
7.07
1.56
-4.82
-11.94
-19.49
-26.95
-33.55
-38.43
-40.81
-40.18
-36.37
-29.57
-20.23
-8.98
3.42
16.05
27.86
37.75
44.76
48.31
48.32
45.24
39.85
33.11
25.88
18.83
12.4
6.83
2.23
-1.46
-4.49
-7.19
-9.98
-13.18
-16.89
-20.93
-24.87
-28.21
-30.59
-31.96
-32.71
-33.52
-35.17
-38.19
-42.63
-47.86
-52.71
-55.7
-55.46
-51.1
-42.49
-30.23
-15.51
0.21
15.52
29.25
40.61
49.12
54.61
57.1
56.86
54.34
50.15
44.94
39.38
34.03
29.32
25.55
22.87
21.28
20.57
20.34
20.02
19.01
16.84
13.3
8.55
3.04
-2.65
-8.02
-12.84
-17.26
-21.73
-26.89
-33.27
-41.08
-49.88
-58.56
-65.47
-68.72
-66.8
-59
-45.67
-28.2
-8.61
10.92
28.53
42.91
53.42
59.95
62.82
62.64
60.21
56.38
51.97
47.63
43.75
40.41
37.4
34.37
30.94
26.86
22.09
16.78
11.18
5.5
-0.14
-5.75
-11.34
-16.89
-22.31
-27.45
-32.2
-36.53
-40.51
-44.33
-48.24
-52.41
-56.85
-61.22
-64.75
-66.28
-64.58
-58.7
-48.38
-34.2
-17.56
-0.24
15.95
29.63
39.97
46.71
49.99
50.23
48.01
43.98
38.83
33.27
27.91
23.29
19.75
17.47
16.46
16.51
17.28
18.39
19.49
20.38
21.02
21.53
22.07
22.71
23.37
23.79
23.56
22.19
19.32
14.8
8.93
2.46
-3.42
-7.35
-8.09
-4.84
2.52
13.39
26.57
40.5
53.56
64.34
71.81
75.38
74.9
70.53
62.73
52.21
39.9
26.9
14.38
3.36
-5.46
-11.9
-16.23
-19.1
-21.29
-23.48
-26.11
-29.29
-32.9
-36.67
-40.35
-43.83
-47.17
-50.59
-54.36
-58.75
-63.92
-69.79
-75.98
-81.71
-85.79
-86.83
-83.61
-75.47
-62.56
-46.02
-27.61
-9.3
7.17
20.7
30.76
37.29
40.46
40.53
37.82
32.81
26.17
18.73
11.39
4.87
-0.39
-4.26
-6.9
-8.63
-9.78
-10.63
-11.4
-12.23
-13.26
-14.64
-16.47
-18.83
-21.77
-25.31
-29.43
-34.19
-39.63
-45.75
-52.28
-58.63
-63.77
-66.39
-65.22
-59.37
-48.71
-33.99
-16.67
1.39
18.38
32.91
44.12
51.64
55.5
55.91
53.26
48.16
41.41
33.96
26.79
20.72
16.2
13.26
11.6
10.7
10.07
9.31
8.22
6.76
4.96
2.86
0.51
-2.08
-4.94
-8.07
-11.58
-15.63
-20.45
-26.15
-32.53
-38.89
-44.02
-46.41
-44.69
-38.12
-26.88
-12.09
4.46
20.84
35.42
47.12
55.45
60.32
61.91
60.48
56.43
50.26
42.6
34.23
25.96
18.5
12.4
7.93
5.05
3.49
2.77
2.37
1.83
0.85
-0.73
-2.9
-5.58
-8.64
-11.92
-15.25
-18.47
-21.55
-24.57
-27.77
-31.48
-35.96
-41.15
-46.49
-50.87
-52.85
-51.05
-44.62
-33.59
-18.94
-2.31
14.43
29.67
42.32
51.84
58.07
61.06
60.98
58.16
53.16
46.79
40
33.66
28.38
24.32
21.31
18.99
17.01
15.21
13.59
12.19
10.97
9.69
7.94
5.34
1.68
-2.98
-8.26
-13.68
-18.76
-23.21
-26.97
-30.23
-33.36
-36.77
-40.81
-45.58
-50.72
-55.37
-58.22
-57.86
-53.18
-43.85
-30.41
-14.23
2.9
19.29
33.66
45.32
54.08
59.96
63.06
63.43
61.25
56.89
51.06
44.65
38.62
33.63
29.99
27.58
26.06
25
24.12
23.24
22.27
21.12
19.62
17.57
14.8
11.26
7.03
2.36
-2.46
-7.18
-11.57
-15.55
-19.13
-22.42
-25.69
-29.32
-33.74
-39.23
-45.7
-52.55
-58.58
-62.28
-62.17
-57.33
-47.71
-34.16
-18.2
-1.59
14.08
27.65
38.42
46.08
50.54
51.93
50.58
47.05
42.1
36.58
31.26
26.72
23.25
20.88
19.5
18.92
18.95
19.39
20.03
20.68
21.14
21.24
20.89
20.02
18.64
16.78
14.58
12.27
10.15
8.54
7.63
7.36
7.44
7.39
6.77
5.33
3.08
0.3
-2.5
-4.63
-5.27
-3.61
1.01
8.88
19.75
32.75
46.57
59.76
71.02
79.44
84.57
86.28
84.71
80.11
72.9
63.66
53.16
42.29
31.9
22.61
14.68
7.99
2.13
-3.4
-8.98
-14.76
-20.65
-26.4
-31.79
-36.75
-41.34
-45.76
-50.19
-54.69
-59.24
-63.68
-67.82
-71.53
-74.7
-77.34
-79.53
-81.44
-83.31
-85.3
-87.31
-88.94
-89.35
-87.49
-82.36
-73.38
-60.59
-44.78
-27.24
-9.51
6.94
20.87
31.39
37.96
40.34
38.67
33.42
25.43
15.74
5.49
-4.36
-13.15
-20.59
-26.74
-31.77
-35.93
-39.35
-42.18
-44.53
-46.62
-48.76
-51.29
-54.47
-58.39
-62.92
-67.77
-72.62
-77.12
-81.05
-84.31
-86.99
-89.36
-91.66
-93.95
-95.78
-96.15
-93.67
-86.92
-75.04
-58.08
-37.06
-13.74
9.9
32.09
51.49
67.25
78.9
86.28
89.52
89.1
85.81
80.71
74.85
69.16
64.22
60.34
57.57
55.8
54.9
54.68
54.95
55.44
55.85
55.82
55.03
53.28
50.48
46.69
42.03
36.66
30.69
24.16
17.04
9.27
0.76
-8.41
-17.89
-26.95
-34.48
-39.17
-39.94
-36.23
-28.31
-17.22
-4.47
8.38
20.04
29.63
36.68
41
42.52
41.37
37.88
32.57
26.15
19.29
12.55
6.24
0.58
-4.34
-8.35
-11.29
-13.03
-13.61
-13.27
-12.47
-11.75
-11.59
-12.22
-13.6
-15.47
-17.53
-19.53
-21.46
-23.44
-25.74
-28.62
-32.21
-36.36
-40.56
-43.85
-45.03
-42.84
-36.42
-25.63
-11.19
5.46
22.55
38.43
51.92
62.36
69.58
73.63
74.73
73.14
69.22
63.48
56.56
49.15
41.87
35.21
29.4
24.49
20.37
16.83
13.66
10.66
7.72
4.75
1.72
-1.43
-4.78
-8.44
-12.49
-17.01
-22
-27.5
-33.52
-40.06
-46.91
-53.44
-58.58
-60.94
-59.22
-52.67
-41.46
-26.71
-10.15
6.35
21.31
33.8
43.41
49.97
53.39
53.59
50.7
45.13
37.71
29.5
21.59
14.8
9.55
5.8
3.22
1.39
0.04
-0.92
-1.39
-1.31
-0.84
-0.42
-0.72
-2.41
-5.95
-11.43
-18.62
-27.1
-36.26
-45.28
-53.05
-58.18
-59.24
-55.16
-45.69
-31.56
-14.32
4.05
21.67
37.1
49.41
58.11
62.92
63.69
60.44
53.47
43.42
31.24
18.08
4.97
-7.36
-18.61
-28.94
-38.71
-48.26
-57.66
-66.68
-74.88
-81.78
-87.13
-90.94
-93.54
-95.5
-97.49
-100.18
-104.01
-108.93
-114.25
-118.58
-120.04
-116.78
-107.55
-92.16
-71.56
-47.58
-22.37
2.05
24.19
43.09
58.22
69.28
76.12
78.73
77.37
72.64
65.5
57.05
48.35
40.12
32.69
25.96
19.57
13.16
6.52
-0.32
-7.13
-13.59
-19.51
-24.88
-29.94
-35.12
-40.96
-47.94
-56.38
-66.18
-76.78
-87.03
-95.3
-99.69
-98.5
-90.62
-75.91
-55.32
-30.67
-4.32
21.41
44.58
63.96
79.01
89.75
96.5
99.73
99.87
97.34
92.56
85.98
78.14
69.59
60.91
52.59
45.06
38.54
33.11
28.56
24.51
20.38
15.62
9.85
2.99
-4.76
-13.04
-21.52
-30.07
-38.84
-48.23
-58.75
-70.83
-84.51
-99.12
-113.14
-124.35
-130.26
-128.89
-119.39
-102.38
-79.83
-54.37
-28.53
-4.17
17.72
36.83
53.12
66.57
77.02
84.36
88.63
90.17
89.55
87.46
84.53
81.26
78.02
75.05
72.5
70.43
68.79
67.36
65.79
63.67
60.64
56.42
50.92
44.15
36.24
27.32
17.61
7.44
-2.76
-12.48
-21.21
-28.62
-34.65
-39.54
-43.8
-48.06
-52.94
-58.83
-65.64
-72.69
-78.61
-81.59
-79.81
-71.98
-57.88
-38.45
-15.62
8.26
30.98
50.93
67.22
79.56
88.01
92.79
94.26
92.9
89.32
84.28
78.49
72.53
66.77
61.32
56.25
51.66
47.77
44.92
43.33
42.95
43.36
43.86
43.67
42.25
39.42
35.41
30.66
25.65
20.66
15.73
10.73
5.47
-0.16
-6.14
-12.25
-18.22
-23.78
-28.81
-33.35
-37.65
-42.11
-47.17
-53.17
-60.07
-67.32
-73.71
-77.59
-77.18
-71.17
-59.18
-42.01
-21.41
0.34
21.06
39.11
53.62
64.35
71.45
75.26
76.11
74.4
70.56
65.16
58.8
52.14
45.75
40.01
35.15
31.24
28.23
25.98
24.33
23.07
22
20.88
19.51
17.69
15.25
12.11
8.26
3.8
-1.05
-6.04
-10.89
-15.39
-19.49
-23.3
-27.08
-31.2
-36.02
-41.76
-48.35
-55.29
-61.64
-66.07
-67.15
-63.78
-55.5
-42.76
-26.79
-9.3
7.96
23.48
36.28
45.76
51.68
54
52.95
49.03
43
35.84
28.51
21.77
16.06
11.46
7.8
4.84
2.4
0.4
-1.1
-2.05
-2.49
-2.68
-3.07
-4.17
-6.39
-9.86
-14.33
-19.29
-24.1
-28.29
-31.71
-34.64
-37.66
-41.49
-46.62
-53.11
-60.32
-66.99
-71.45
-72.06
-67.72
-58.17
-44.13
-27.09
-8.87
8.79
24.54
37.49
47.18
53.46
56.37
56.19
53.41
48.69
42.79
36.4
30.12
24.34
19.29
15.08
11.69
9.05
7.04
5.56
4.46
3.6
2.78
1.72
0.08
-2.46
-6.07
-10.63
-15.74
-20.89
-25.58
-29.55
-32.82
-35.76
-38.85
-42.65
-47.53
-53.6
-60.5
-67.39
-72.93
-75.54
-73.75
-66.7
-54.43
-37.92
-18.9
0.69
19.06
34.99
47.83
57.37
63.68
66.91
67.31
65.22
61.15
55.73
49.61
43.39
37.52
32.29
27.86
24.26
21.42
19.21
17.45
16
14.73
13.54
12.31
10.87
8.97
6.41
3.12
-0.83
-5.24
-9.82
-14.34
-18.68
-22.81
-26.83
-30.92
-35.32
-40.29
-46.03
-52.55
-59.4
-65.65
-69.9
-70.6
-66.51
-57.16
-43.05
-25.61
-6.76
11.57
27.88
41.32
51.57
58.65
62.76
64.13
63.06
59.99
55.46
50.04
44.32
38.75
33.67
29.27
25.7
22.98
21.09
19.89
19.18
18.64
17.95
16.86
15.2
12.97
10.28
7.26
4.02
0.53
-3.25
-7.41
-11.93
-16.67
-21.38
-25.85
-29.91
-33.61
-37.16
-40.92
-45.3
-50.53
-56.55
-62.73
-67.92
-70.58
-69.16
-62.65
-50.89
-34.78
-16.02
3.33
21.38
36.82
48.95
57.6
62.9
65.04
64.27
60.96
55.68
49.22
42.41
35.95
30.24
25.36
21.16
17.47
14.26
11.64
9.79
8.79
8.48
8.51
8.37
7.57
5.75
2.78
-1.2
-5.87
-10.78
-15.53
-19.86
-23.77
-27.44
-31.24
-35.52
-40.51
-46.23
-52.35
-58.2
-62.74
-64.73
-63
-56.83
-46.22
-31.99
-15.58
1.28
16.95
30.19
40.25
46.76
49.69
49.26
45.93
40.4
33.57
26.37
19.58
13.72
8.97
5.29
2.45
0.28
-1.36
-2.52
-3.3
-3.9
-4.65
-5.96
-8.18
-11.41
-15.43
-19.83
-24.15
-28.03
-31.44
-34.53
-37.66
-41.23
-45.61
-51.01
-57.32
-63.99
-69.85
-73.3
-72.69
-66.83
-55.48
-39.57
-20.93
-1.7
16.22
31.62
43.96
53.18
59.4
62.7
63.16
60.97
56.59
50.72
44.23
37.92
32.36
27.77
24.06
20.99
18.3
15.89
13.76
11.99
10.62
9.49
8.26
6.48
3.74
-0.13
-4.99
-10.4
-15.84
-20.86
-25.31
-29.3
-33.17
-37.32
-42.1
-47.72
-54.16
-61.11
-67.82
-73.08
-75.39
-73.37
-66.17
-53.9
-37.58
-18.95
0.04
17.72
32.95
45.16
54.2
60.13
63.1
63.36
61.31
57.54
52.74
47.62
42.77
38.47
34.74
31.46
28.44
25.59
22.95
20.65
18.8
17.41
16.28
15.06
13.34
10.76
7.16
2.65
-2.41
-7.57
-12.43
-16.8
-20.75
-24.51
-28.45
-32.91
-38.18
-44.33
-51.18
-58.11
-64.05
-67.59
-67.28
-62.08
-51.71
-36.88
-19.08
-0.22
17.91
33.96
47.22
57.42
64.58
68.76
70.07
68.7
65.06
59.85
53.9
48.02
42.82
38.54
35.2
32.63
30.65
29.15
28.05
27.28
26.68
26.02
24.98
23.27
20.62
16.94
12.37
7.2
1.9
-3.06
-7.33
-10.77
-13.48
-15.85
-18.43
-21.9
-26.93
-33.92
-42.79
-52.74
-62.24
-69.29
-71.98
-69.03
-60.2
-46.42
-29.42
-11.33
5.93
20.94
32.91
41.54
46.85
49.05
48.46
45.52
40.8
35
28.85
22.99
17.84
13.54
10.01
7
4.35
1.94
-0.19
-2.04
-3.66
-5.33
-7.5
-10.56
-14.72
-19.82
-25.32
-30.56
-35.02
-38.55
-41.42
-44.23
-47.63
-52.1
-57.76
-64.26
-70.79
-76.13
-78.85
-77.62
-71.56
-60.56
-45.35
-27.38
-8.41
9.89
26.23
39.83
50.35
57.68
61.89
63.15
61.77
58.25
53.21
47.37
41.39
35.79
30.91
26.89
23.74
21.41
19.81
18.82
18.3
18.02
17.71
17.07
15.86
13.92
11.19
7.77
3.81
-0.45
-4.79
-8.97
-12.84
-16.38
-19.72
-23.14
-26.99
-31.59
-37.14
-43.59
-50.55
-57.24
-62.55
-65.19
-63.95
-58.11
-47.64
-33.33
-16.59
0.9
17.51
32.01
43.66
52.18
57.64
60.33
60.63
58.97
55.71
51.21
45.85
40.06
34.38
29.34
25.33
22.52
20.82
19.92
19.49
19.25
19.02
18.69
18.13
17.15
15.48
12.86
9.15
4.39
-1.17
-7.13
-13.07
-18.63
-23.68
-28.29
-32.71
-37.28
-42.35
-48.15
-54.75
-61.94
-69.11
-75.26
-79.1
-79.34
-75.08
-66.19
-53.39
-38.1
-22.08
-6.88
6.44
17.49
26.35
33.32
38.72
42.66
45.2
46.37
46.4
45.63
44.54
43.56
42.92
42.64
42.56
42.46
42.19
41.7
41.03
40.27
39.4
38.28
36.7
34.38
31.08
26.72
21.41
15.46
9.28
3.22
-2.51
-7.98
-13.38
-19
-25.01
-31.47
-38.3
-45.29
-52.06
-58.01
-62.27
-63.75
-61.48
-54.86
-43.99
-29.68
-13.32
3.53
19.5
33.57
45.13
53.82
59.4
61.76
60.94
57.34
51.84
45.7
40.43
37.38
37.43
40.71
46.68
54.25
62.15
69.18
74.45
77.45
77.99
76.17
72.28
66.74
60.04
52.66
45.03
37.46
30.1
22.98
15.95
8.72
0.89
-7.93
-17.91
-28.85
-39.99
-50.05
-57.47
-60.78
-59.06
-52.2
-40.96
-26.76
-11.31
3.63
16.44
25.79
30.68
30.57
25.6
16.53
4.72
-8.29
-21.09
-32.71
-42.71
-51.07
-57.98
-63.73
-68.7
-73.33
-78.11
-83.52
-89.76
-96.72
-103.99
-111.03
-117.45
-123.2
-128.59
-134.25
-140.78
-148.67
-158.04
-168.67
-180.01
-191.28
-201.47
-209.32
-213.42
-212.25
-204.53
-189.48
-167.21
-138.76
-106.05
-71.47
-37.34
-5.62
22.46
46.28
65.74
80.97
92.26
99.96
104.51
106.47
106.46
105.17
103.17
100.95
98.85
97.12
95.96
95.44
95.6
96.25
97.07
97.57
97.22
95.57
92.38
87.66
81.6
74.44
66.32
57.21
46.88
35.08
21.73
7.2
-7.6
-21.26
-32.13
-38.74
-40.2
-36.48
-28.3
-16.94
-3.73
10.27
24.33
37.98
50.7
61.72
70.1
75.01
76.05
73.43
67.94
60.6
52.34
43.78
35.28
27.08
19.47
12.8
7.38
3.24
0.06
-2.74
-5.76
-9.39
-13.63
-18.22
-22.79
-27.1
-31.14
-35.06
-39.02
-43.11
-47.3
-51.54
-55.91
-60.64
-66.1
-72.57
-80.01
-87.93
-95.27
-100.63
-102.53
-99.75
-91.67
-78.47
-61.09
-41.05
-20.11
0.09
18.27
33.65
45.92
55.04
61.1
64.26
64.71
62.74
58.84
53.71
48.08
42.66
37.95
34.14
31.23
29.07
27.49
26.42
25.82
25.68
25.85
26.05
25.83
24.75
22.48
18.93
14.32
9.1
3.74
-1.44
-6.35
-11.19
-16.29
-22.02
-28.7
-36.41
-44.98
-53.84
-61.99
-68.12
-70.8
-68.79
-61.47
-48.97
-32.26
-12.94
7.13
26.21
42.99
56.68
67.02
74.09
78.14
79.46
78.35
75.2
70.52
64.95
59.15
53.66
48.79
44.56
40.82
37.35
34.09
31.08
28.48
26.37
24.66
23.05
21.14
18.61
15.29
11.21
6.56
1.55
-3.7
-9.11
-14.63
-20.18
-25.65
-30.96
-36.2
-41.64
-47.67
-54.53
-62.05
-69.47
-75.45
-78.39
-76.82
-69.95
-57.87
-41.6
-22.82
-3.43
14.89
30.88
43.83
53.45
59.71
62.73
62.77
60.26
55.79
50.15
44.15
38.48
33.54
29.41
25.93
22.87
20.12
17.72
15.81
14.47
13.62
12.89
11.78
9.79
6.65
2.41
-2.57
-7.8
-12.87
-17.57
-21.99
-26.39
-31.09
-36.38
-42.41
-49.15
-56.26
-63.04
-68.4
-70.98
-69.49
-63.09
-51.76
-36.36
-18.44
0.12
17.66
32.93
45.27
54.42
60.35
63.15
62.99
60.23
55.4
49.3
42.79
36.61
31.26
26.89
23.37
20.48
17.98
15.81
13.94
12.42
11.18
9.98
8.48
6.32
3.21
-0.89
-5.84
-11.29
-16.83
-22.13
-26.99
-31.44
-35.73
-40.22
-45.33
-51.36
-58.36
-65.98
-73.43
-79.47
-82.65
-81.62
-75.51
-64.23
-48.5
-29.76
-9.8
9.65
27.21
41.96
53.43
61.46
66.06
67.39
65.8
61.84
56.33
50.17
44.21
38.98
34.66
31.1
27.99
25.06
22.24
19.64
17.46
15.8
14.56
13.39
11.8
9.36
5.84
1.35
-3.74
-8.93
-13.81
-18.17
-22.02
-25.61
-29.27
-33.4
-38.39
-44.49
-51.65
-59.33
-66.39
-71.23
-72.21
-68.12
-58.6
-44.31
-26.76
-7.78
10.83
27.74
42.13
53.55
61.82
66.87
68.72
67.6
63.98
58.56
52.22
45.76
39.79
34.65
30.42
27.01
24.31
22.18
20.55
19.32
18.34
17.41
16.26
14.61
12.22
8.96
4.88
0.19
-4.76
-9.63
-14.24
-18.56
-22.75
-27.09
-31.88
-37.36
-43.69
-50.82
-58.37
-65.56
-71.17
-73.76
-72.07
-65.34
-53.67
-38.01
-19.92
-1.2
16.54
32.02
44.42
53.31
58.56
60.25
58.74
54.59
48.58
41.59
34.44
27.77
21.96
17.12
13.17
10.02
7.59
5.83
4.64
3.78
2.83
1.35
-1.02
-4.32
-8.32
-12.6
-16.75
-20.57
-24.12
-27.74
-31.86
-36.84
-42.85
-49.66
-56.65
-62.75
-66.61
-66.89
-62.61
-53.49
-40.11
-23.75
-6.12
11.08
26.45
39
48.14
53.63
55.52
54.11
49.99
44.02
37.13
30.2
23.86
18.4
13.83
10.03
6.87
4.32
2.43
1.19
0.4
-0.34
-1.58
-3.81
-7.29
-11.88
-17.1
-22.38
-27.24
-31.52
-35.51
-39.75
-44.91
-51.43
-59.32
-67.98
-76.19
-82.25
-84.39
-81.2
-72.14
-57.69
-39.28
-18.85
1.6
20.46
36.7
49.76
59.41
65.64
68.57
68.54
66.05
61.8
56.44
50.58
44.61
38.82
33.4
28.51
24.3
20.9
18.34
16.51
15.16
13.83
12.04
9.36
5.59
0.86
-4.45
-9.82
-14.9
-19.6
-24.2
-29.23
-35.21
-42.48
-50.94
-59.95
-68.33
-74.54
-76.95
-74.27
-65.93
-52.32
-34.72
-14.95
5.02
23.61
39.76
52.99
63.14
70.22
74.22
75.15
73.18
68.77
62.67
55.83
49.15
43.27
38.43
34.5
31.13
28.06
25.16
22.54
20.32
18.53
16.98
15.24
12.84
9.44
4.97
-0.35
-6.13
-11.92
-17.44
-22.58
-27.45
-32.32
-37.52
-43.37
-50.11
-57.77
-65.94
-73.74
-79.77
-82.43
-80.3
-72.64
-59.63
-42.36
-22.55
-2.09
17.33
34.48
48.64
59.49
66.95
71.1
72.14
70.4
66.41
60.88
54.64
48.47
42.95
38.36
34.67
31.7
29.2
27.01
25.09
23.41
21.95
20.54
18.96
16.91
14.14
10.53
6.11
1.07
-4.31
-9.71
-14.93
-19.91
-24.75
-29.69
-35.03
-41.07
-47.97
-55.6
-63.41
-70.35
-75.02
-75.96
-72.09
-63.04
-49.34
-32.29
-13.62
4.92
21.87
36.25
47.47
55.23
59.42
60.14
57.76
52.97
46.76
40.17
34.08
28.97
24.92
21.69
18.98
16.6
14.53
12.89
11.75
11.02
10.42
9.5
7.84
5.11
1.24
-3.52
-8.75
-13.94
-18.69
-22.86
-26.67
-30.55
-35.07
-40.68
-47.51
-55.26
-63.09
-69.7
-73.57
-73.3
-67.96
-57.41
-42.36
-24.26
-4.94
13.85
30.68
44.68
55.4
62.74
66.7
67.47
65.36
60.94
54.98
48.34
41.8
35.94
31.07
27.27
24.53
22.74
21.69
21.08
20.5
19.56
17.94
15.54
12.47
8.9
5.01
0.89
-3.48
-8.15
-13.11
-18.26
-23.46
-28.54
-33.4
-38.06
-42.63
-47.3
-52.31
-57.9
-64.17
-71.03
-77.97
-83.99
-87.67
-87.47
-82.2
-71.41
-55.68
-36.5
-15.8
4.49
22.86
38.42
50.76
59.81
65.64
68.41
68.41
66.09
62.12
57.23
52.13
47.3
43
39.28
36.11
33.48
31.46
30.12
29.41
29.07
28.68
27.79
26.03
23.32
19.79
15.76
11.55
7.38
3.3
-0.81
-5.11
-9.81
-14.98
-20.52
-26.19
-31.65
-36.59
-40.9
-44.73
-48.49
-52.73
-57.9
-64.1
-70.84
-77.07
-81.29
-81.93
-77.76
-68.29
-53.91
-35.87
-15.91
4.1
22.58
38.45
51.15
60.5
66.57
69.53
69.68
67.48
63.53
58.61
53.41
48.46
43.97
39.92
36.21
32.81
29.88
27.67
26.37
25.91
25.9
25.7
24.69
22.48
19.09
14.91
10.5
6.32
2.56
-0.95
-4.62
-8.89
-14
-19.83
-25.95
-31.76
-36.78
-40.84
-44.21
-47.55
-51.68
-57.32
-64.77
-73.62
-82.72
-90.24
-94.06
-92.35
-84.29
-70.57
-53.52
-36.58
-23.28
-16.04
-15.4
-19.86
-26.48
-31.92
-33.52
-29.94
-21.17
-8.23
7.4
24.15
40.56
55.32
67.3
75.68
80.07
80.59
77.84
72.76
66.38
59.58
52.99
46.89
41.34
36.24
31.54
27.35
23.85
21.29
19.75
19.03
18.68
18.07
16.63
14.03
10.29
5.68
0.68
-4.3
-9
-13.37
-17.58
-21.83
-26.33
-31.27
-36.76
-42.9
-49.66
-56.73
-63.37
-68.46
-70.6
-68.58
-61.75
-50.27
-35.16
-17.94
-0.32
16.24
30.66
42.28
50.71
55.78
57.48
56
51.81
45.69
38.64
31.69
25.67
21.08
17.97
16.06
14.85
13.87
12.75
11.34
9.64
7.75
5.72
3.51
0.95
-2.15
-6.01
-10.66
-15.95
-21.55
-27.05
-32.18
-36.84
-41.23
-45.7
-50.7
-56.59
-63.48
-71.11
-78.7
-84.98
-88.42
-87.54
-81.35
-69.72
-53.45
-34.09
-13.52
6.46
24.5
39.75
51.81
60.52
65.88
68.02
67.21
63.98
59.04
53.24
47.37
42.01
37.46
33.7
30.58
27.93
25.67
23.81
22.36
21.23
20.16
18.82
16.82
13.9
9.99
5.19
-0.25
-6.01
-11.75
-17.24
-22.36
-27.16
-31.85
-36.74
-42.22
-48.58
-55.94
-64.02
-72.13
-79.05
-83.26
-83.26
-77.97
-67.15
-51.5
-32.52
-12.13
7.85
26
41.43
53.7
62.65
68.28
70.69
70.12
67.01
61.99
55.8
49.22
42.93
37.48
33.17
30.12
28.22
27.16
26.57
26.01
25.12
23.66
21.55
18.91
15.86
12.59
9.12
5.42
1.35
-3.25
-8.4
-14.01
-19.85
-25.65
-31.2
-36.47
-41.58
-46.79
-52.42
-58.68
-65.51
-72.4
-78.33
-81.9
-81.6
-76.26
-65.45
-49.73
-30.51
-9.73
10.61
28.89
44.07
55.69
63.71
68.31
69.79
68.5
64.93
59.76
53.75
47.69
42.23
37.73
34.23
31.58
29.51
27.84
26.45
25.27
24.21
23.06
21.55
19.4
16.39
12.51
7.87
2.74
-2.53
-7.67
-12.5
-17.03
-21.44
-26.02
-31.12
-37.02
-43.88
-51.55
-59.48
-66.66
-71.73
-73.22
-69.93
-61.38
-47.93
-30.85
-11.95
6.83
23.82
37.85
48.27
54.9
57.84
57.44
54.25
49.01
42.61
35.97
29.83
24.65
20.55
17.42
15.09
13.42
12.36
11.8
11.5
11.04
9.92
7.75
4.39
0.03
-4.88
-9.9
-14.71
-19.25
-23.67
-28.23
-33.25
-38.99
-45.57
-52.84
-60.25
-66.8
-71.07
-71.58
-67.18
-57.52
-43.21
-25.67
-6.78
11.68
28.32
42.26
53.04
60.46
64.43
65.02
62.53
57.54
50.92
43.69
36.8
30.95
26.45
23.24
21
19.29
17.75
16.19
14.59
12.96
11.27
9.36
6.95
3.79
-0.26
-5.15
-10.57
-16.12
-21.46
-26.42
-31.04
-35.58
-40.37
-45.77
-52.02
-59.2
-67.02
-74.77
-81.28
-85.03
-84.53
-78.73
-67.43
-51.39
-32.17
-11.7
8.15
26.01
41.08
53.08
62
67.91
70.93
71.23
69.11
65.06
59.76
53.94
48.28
43.25
39.09
35.81
33.25
31.22
29.51
27.99
26.52
24.96
23.11
20.77
17.7
13.77
9
3.56
-2.2
-7.92
-13.3
-18.2
-22.71
-27.09
-31.71
-36.89
-42.86
-49.65
-57.08
-64.66
-71.6
-76.81
-79.04
-77.12
-70.32
-58.56
-42.59
-23.85
-4.12
14.86
31.8
45.95
57.04
65.09
70.22
72.5
72.04
69.15
64.41
58.61
52.61
47.13
42.58
39
36.26
34.14
32.48
31.19
30.18
29.3
28.31
26.91
24.8
21.88
18.18
13.91
9.34
4.73
0.2
-4.27
-8.82
-13.58
-18.59
-23.74
-28.8
-33.48
-37.62
-41.3
-44.84
-48.72
-53.42
-59.18
-65.89
-72.91
-79.17
-83.26
-83.8
-79.72
-70.6
-56.81
-39.48
-20.24
-0.77
17.46
33.43
46.57
56.62
63.49
67.21
67.93
66.02
62.08
56.86
51.14
45.61
40.75
36.8
33.82
31.77
30.55
29.97
29.75
29.55
28.93
27.49
25.03
21.58
17.42
12.95
8.55
4.37
0.35
-3.7
-7.97
-12.51
-17.17
-21.73
-25.99
-29.89
-33.62
-37.47
-41.77
-46.76
-52.44
-58.51
-64.29
-68.82
-70.94
-69.54
-63.87
-53.76
-39.79
-23.18
-5.55
11.47
26.54
38.79
47.81
53.54
56.13
55.88
53.24
48.77
43.19
37.24
31.66
26.98
23.55
21.41
20.38
20.08
20.07
19.97
19.51
18.58
17.16
15.28
12.92
10.08
6.76
3.08
-0.85
-4.89
-8.99
-13.22
-17.68
-22.39
-27.29
-32.18
-36.83
-41.1
-45.02
-48.81
-52.87
-57.58
-63.21
-69.71
-76.57
-82.76
-86.91
-87.56
-83.54
-74.35
-60.34
-42.66
-22.95
-2.97
15.77
32.24
45.9
56.53
64.09
68.66
70.38
69.57
66.73
62.54
57.69
52.77
48.19
44.15
40.75
38.06
36.16
35.1
34.84
35.1
35.47
35.45
34.6
32.74
29.96
26.58
23
19.55
16.37
13.39
10.39
7.13
3.48
-0.54
-4.75
-8.89
-12.75
-16.24
-19.43
-22.55
-25.86
-29.55
-33.64
-37.95
-42.18
-46.07
-49.47
-52.49
-55.47
-58.89
-63.18
-68.59
-74.97
-81.63
-87.36
-90.55
-89.61
-83.41
-71.71
-55.32
-35.9
-15.44
4.2
21.73
36.52
48.37
57.32
63.44
66.8
67.57
66.14
63.12
59.25
55.23
51.54
48.39
45.8
43.65
41.86
40.41
39.37
38.74
38.45
38.29
37.93
37
35.24
32.52
28.94
24.77
20.36
16.03
11.94
8.02
4.11
-0.04
-4.51
-9.3
-14.25
-19.14
-23.83
-28.2
-32.25
-36.01
-39.62
-43.27
-47.21
-51.65
-56.71
-62.25
-67.77
-72.39
-74.94
-74.18
-69.16
-59.55
-45.82
-29.16
-11.28
6.12
21.67
34.47
44.14
50.54
53.74
53.92
51.47
47.04
41.48
35.7
30.43
26.11
22.84
20.51
18.93
17.92
17.34
17.08
16.96
16.8
16.33
15.34
13.67
11.29
8.29
4.85
1.12
-2.79
-6.84
-11.01
-15.3
-19.66
-24.01
-28.33
-32.62
-36.97
-41.53
-46.4
-51.64
-57.1
-62.28
-66.33
-68.09
-66.4
-60.5
-50.32
-36.59
-20.67
-4.14
11.58
25.46
36.85
45.32
50.52
52.21
50.43
45.68
38.94
31.49
24.55
18.95
14.97
12.41
10.82
9.72
8.83
8
7.19
6.32
5.26
3.84
1.83
-0.9
-4.46
-8.81
-13.82
-19.23
-24.72
-30.01
-34.95
-39.59
-44.2
-49.2
-55.01
-61.87
-69.6
-77.45
-84.16
-88.11
-87.74
-81.98
-70.67
-54.55
-35.16
-14.45
5.73
23.88
39.09
50.97
59.49
64.84
67.31
67.25
65.09
61.35
56.59
51.42
46.34
41.75
37.88
34.83
32.6
31.05
29.96
29.01
27.89
26.33
24.23
21.59
18.45
14.86
10.76
6.11
0.87
-4.85
-10.86
-16.88
-22.69
-28.22
-33.54
-38.85
-44.48
-50.73
-57.84
-65.74
-73.94
-81.37
-86.48
-87.68
-83.66
-73.97
-59.15
-40.59
-20.17
0.25
19.16
35.6
49.1
59.49
66.8
71.15
72.76
71.96
69.18
64.98
59.93
54.55
49.28
44.46
40.35
37.11
34.82
33.47
32.88
32.7
32.47
31.69
29.98
27.21
23.51
19.16
14.47
9.61
4.6
-0.68
-6.37
-12.47
-18.82
-25.16
-31.17
-36.63
-41.5
-45.97
-50.38
-55.21
-60.9
-67.6
-75
-82.13
-87.44
-89.14
-85.72
-76.44
-61.64
-42.71
-21.61
-0.4
19.23
36.21
50
60.43
67.51
71.38
72.32
70.81
67.54
63.24
58.61
54.1
49.96
46.24
42.95
40.16
37.99
36.54
35.8
35.58
35.48
35.06
33.87
31.63
28.3
24.05
19.19
14.1
9.1
4.36
-0.18
-4.74
-9.58
-14.87
-20.54
-26.31
-31.86
-36.95
-41.6
-46.06
-50.75
-56.06
-62.24
-69.21
-76.38
-82.69
-86.67
-86.76
-81.73
-71.14
-55.56
-36.44
-15.73
4.62
23.07
38.67
51.02
60.06
65.93
68.82
68.98
66.73
62.56
57.07
51.01
45.1
40
36.1
33.47
31.98
31.33
31.16
31.18
31.11
30.67
29.64
27.8
25.06
21.48
17.22
12.52
7.56
2.46
-2.79
-8.22
-13.8
-19.4
-24.83
-29.91
-34.55
-38.83
-43.01
-47.46
-52.53
-58.34
-64.57
-70.42
-74.57
-75.55
-72.13
-63.75
-50.75
-34.29
-16.05
2.27
19.24
33.86
45.51
53.8
58.55
59.79
57.84
53.37
47.31
40.68
34.38
29.07
25.04
22.33
20.76
20.09
20.05
20.38
20.77
20.89
20.39
19.03
16.69
13.47
9.63
5.47
1.19
-3.13
-7.62
-12.41
-17.59
-23.05
-28.54
-33.75
-38.46
-42.71
-46.79
-51.18
-56.38
-62.66
-69.9
-77.47
-84.21
-88.62
-89.18
-84.68
-74.67
-59.6
-40.8
-20.13
0.44
19.27
35.3
48.08
57.59
64.06
67.74
68.94
67.93
65.07
60.84
55.78
50.48
45.48
41.16
37.75
35.27
33.63
32.71
32.31
32.21
32.16
31.8
30.73
28.64
25.4
21.14
16.24
11.15
6.18
1.42
-3.32
-8.31
-13.73
-19.5
-25.33
-30.85
-35.8
-40.19
-44.25
-48.4
-53.09
-58.65
-65.09
-72.02
-78.5
-83.17
-84.44
-80.94
-72.01
-57.96
-40.02
-20.06
-0.05
18.43
34.37
47.32
57.22
64.15
68.2
69.49
68.3
65.08
60.53
55.43
50.48
46.17
42.69
39.98
37.89
36.28
35.11
34.4
34.1
34.06
33.92
33.25
31.68
29.06
25.46
21.19
16.64
12.14
7.87
3.76
-0.41
-4.93
-9.98
-15.56
-21.4
-27.09
-32.21
-36.55
-40.15
-43.37
-46.77
-50.88
-56.1
-62.53
-69.87
-77.37
-83.81
-87.7
-87.5
-82.13
-71.28
-55.65
-36.78
-16.66
2.81
20.21
34.72
46.04
54.07
58.85
60.5
59.3
55.83
50.87
45.3
39.83
34.96
30.9
27.69
25.31
23.76
23
22.93
23.31
23.75
23.8
23.11
21.49
19
15.88
12.41
8.77
4.95
0.79
-3.91
-9.18
-14.84
-20.51
-25.79
-30.42
-34.42
-38.07
-41.8
-46.06
-51.13
-57.04
-63.48
-69.72
-74.69
-77.11
-75.71
-69.61
-58.6
-43.32
-25.11
-5.75
13.02
29.8
43.71
54.33
61.51
65.28
65.76
63.3
58.51
52.27
45.65
39.61
34.82
31.54
29.62
28.72
28.43
28.44
28.6
28.76
28.78
28.38
27.25
25.09
21.78
17.45
12.44
7.24
2.25
-2.38
-6.76
-11.14
-15.83
-20.95
-26.38
-31.84
-36.98
-41.61
-45.73
-49.57
-53.53
-58.05
-63.49
-69.92
-77
-83.82
-88.96
-90.8
-87.94
-79.6
-65.99
-48.22
-27.99
-7.18
12.61
30.22
45.02
56.68
65.12
70.39
72.65
72.29
69.84
65.96
61.34
56.6
52.17
48.26
44.92
42.15
39.92
38.25
37.08
36.3
35.64
34.8
33.47
31.47
28.77
25.47
21.71
17.66
13.43
9.11
4.71
0.21
-4.51
-9.53
-14.94
-20.64
-26.38
-31.8
-36.58
-40.54
-43.81
-46.82
-50.2
-54.58
-60.36
-67.48
-75.21
-82.15
-86.51
-86.54
-81.03
-69.8
-53.7
-34.45
-14.1
5.51
23.1
37.97
49.9
58.86
64.88
68
68.34
66.28
62.43
57.59
52.55
47.89
43.92
40.69
38.12
36.13
34.74
33.96
33.74
33.85
33.94
33.53
32.27
29.98
26.71
22.75
18.45
14.17
10.11
6.28
2.51
-1.45
-5.84
-10.73
-15.99
-21.36
-26.51
-31.23
-35.47
-39.39
-43.27
-47.5
-52.45
-58.28
-64.8
-71.26
-76.41
-78.73
-76.87
-70.04
-58.33
-42.7
-24.76
-6.33
10.96
25.9
37.78
46.32
51.54
53.63
52.91
49.85
45.04
39.25
33.31
28
23.86
21.12
19.66
19.12
19.06
19.13
19.08
18.79
18.21
17.26
15.86
13.89
11.27
7.94
3.96
-0.56
-5.45
-10.5
-15.49
-20.3
-24.87
-29.22
-33.52
-37.97
-42.81
-48.23
-54.28
-60.71
-66.85
-71.58
-73.55
-71.46
-64.53
-52.8
-37.2
-19.36
-1.17
15.72
30.17
41.64
49.98
55.22
57.46
56.85
53.71
48.66
42.53
36.23
30.53
25.95
22.66
20.59
19.5
19.07
18.96
18.87
18.52
17.73
16.41
14.56
12.21
9.37
5.99
1.99
-2.66
-7.94
-13.66
-19.55
-25.27
-30.56
-35.29
-39.58
-43.7
-48.1
-53.21
-59.34
-66.42
-73.86
-80.49
-84.71
-84.92
-79.94
-69.44
-54.13
-35.47
-15.39
4.23
21.92
36.76
48.39
56.79
62.19
64.9
65.26
63.65
60.51
56.33
51.64
46.96
42.68
39.06
36.18
33.99
32.41
31.34
30.62
30.06
29.38
28.27
26.48
23.89
20.54
16.62
12.36
7.95
3.47
-1.14
-5.96
-11.03
-16.33
-21.66
-26.84
-31.74
-36.41
-41.05
-45.99
-51.56
-57.9
-64.87
-71.88
-77.9
-81.57
-81.46
-76.49
-66.31
-51.48
-33.37
-13.83
5.3
22.6
37.21
48.81
57.41
63.15
66.24
66.93
65.56
62.62
58.66
54.26
49.91
45.94
42.52
39.68
37.37
35.56
34.27
33.44
32.97
32.59
31.9
30.5
28.13
24.79
20.67
16.11
11.43
6.81
2.27
-2.27
-6.89
-11.68
-16.61
-21.6
-26.51
-31.18
-35.54
-39.61
-43.65
-48.08
-53.35
-59.71
-66.96
-74.25
-80.19
-83.13
-81.64
-74.95
-63.2
-47.41
-29.23
-10.46
7.26
22.73
35.22
44.43
50.32
53.11
53.14
50.88
46.92
41.93
36.62
31.62
27.46
24.39
22.46
21.44
20.97
20.68
20.26
19.57
18.57
17.3
15.71
13.67
10.97
7.41
2.97
-2.16
-7.56
-12.81
-17.62
-21.98
-26.1
-30.34
-35.04
-40.4
-46.52
-53.35
-60.6
-67.66
-73.5
-76.77
-76.07
-70.44
-59.67
-44.56
-26.62
-7.74
10.36
26.39
39.6
49.72
56.67
60.54
61.51
59.93
56.35
51.45
45.99
40.62
35.84
31.91
28.95
26.9
25.66
24.99
24.6
24.16
23.32
21.85
19.66
16.81
13.47
9.8
5.93
1.85
-2.51
-7.26
-12.49
-18.14
-24.04
-29.94
-35.57
-40.81
-45.72
-50.57
-55.75
-61.62
-68.31
-75.52
-82.45
-87.79
-89.99
-87.66
-79.95
-66.93
-49.59
-29.66
-9.11
10.32
27.44
41.66
52.82
60.98
66.26
68.78
68.78
66.66
63
58.49
53.76
49.27
45.3
41.94
39.22
37.13
35.67
34.8
34.34
34.05
33.55
32.46
30.5
27.55
23.77
19.47
15.06
10.8
6.77
2.75
-1.57
-6.47
-11.95
-17.76
-23.45
-28.57
-32.93
-36.65
-40.16
-44.05
-48.83
-54.81
-61.92
-69.59
-76.75
-81.91
-83.49
-80.23
-71.55
-57.83
-40.34
-20.86
-1.24
16.99
32.84
45.82
55.79
62.8
66.98
68.54
67.83
65.31
61.53
57.02
52.24
47.57
43.24
39.5
36.48
34.27
32.87
32.14
31.83
31.58
30.99
29.68
27.44
24.27
20.39
16.14
11.88
7.82
3.94
-0.01
-4.33
-9.25
-14.76
-20.58
-26.26
-31.38
-35.72
-39.4
-42.79
-46.44
-50.88
-56.4
-62.83
-69.46
-75.07
-78.13
-77.22
-71.44
-60.71
-45.87
-28.43
-10.19
7.21
22.58
35.22
44.83
51.31
54.69
55.12
52.97
48.86
43.56
37.91
32.61
28.13
24.67
22.22
20.65
19.77
19.35
19.14
18.87
18.26
17.11
15.29
12.81
9.68
5.97
1.75
-2.92
-7.9
-13.01
-18.05
-22.82
-27.27
-31.47
-35.69
-40.26
-45.53
-51.7
-58.71
-66.07
-72.82
-77.69
-79.25
-76.38
-68.51
-55.88
-39.51
-20.97
-2.02
15.75
31.16
43.55
52.65
58.47
61.19
61.11
58.68
54.51
49.34
43.95
39
34.92
31.87
29.8
28.5
27.72
27.16
26.58
25.72
24.42
22.56
20.14
17.24
13.94
10.33
6.41
2.17
-2.47
-7.55
-13.03
-18.78
-24.57
-30.14
-35.29
-39.96
-44.28
-48.58
-53.32
-58.92
-65.56
-72.95
-80.18
-85.79
-88.1
-85.66
-77.73
-64.56
-47.33
-27.75
-7.69
11.31
28.17
42.24
53.25
61.15
66.05
68.23
68.12
66.22
63.08
59.17
54.89
50.56
46.48
42.9
40.01
37.92
36.58
35.78
35.21
34.48
33.27
31.38
28.79
25.61
22.06
18.35
14.57
10.72
6.63
2.14
-2.89
-8.43
-14.3
-20.19
-25.78
-30.88
-35.47
-39.76
-44.15
-49.07
-54.88
-61.63
-68.94
-75.92
-81.21
-83.29
-80.85
-73.19
-60.53
-43.96
-25.18
-6.03
11.92
27.67
40.73
50.93
58.26
62.66
64.19
63.08
59.83
55.19
49.98
44.89
40.38
36.6
33.48
30.91
28.78
27.06
25.74
24.74
23.86
22.84
21.41
19.38
16.75
13.63
10.16
6.41
2.36
-2.07
-6.95
-12.22
-17.68
-23.06
-28.09
-32.64
-36.83
-40.98
-45.53
-50.76
-56.61
-62.49
-67.34
-69.79
-68.59
-62.94
-52.73
-38.66
-22.02
-4.39
12.66
27.85
40.3
49.52
55.34
57.83
57.25
54.06
48.9
42.58
36
29.98
25.11
21.63
19.4
17.98
16.87
15.63
14.09
12.27
10.33
8.37
6.31
3.89
0.76
-3.33
-8.39
-14.15
-20.14
-25.88
-31.07
-35.64
-39.79
-43.9
-48.43
-53.73
-60.02
-67.18
-74.7
-81.55
-86.35
-87.56
-83.96
-74.98
-61.01
-43.29
-23.6
-3.79
14.62
30.61
43.65
53.56
60.29
63.94
64.69
62.92
59.16
54.1
48.47
42.93
37.98
33.87
30.67
28.26
26.43
24.96
23.66
22.42
21.13
19.72
18.05
15.95
13.27
9.87
5.71
0.86
-4.48
-10.09
-15.73
-21.24
-26.52
-31.61
-36.62
-41.76
-47.3
-53.48
-60.4
-67.87
-75.19
-81.18
-84.36
-83.33
-77.18
-65.85
-50.2
-31.72
-12.22
6.66
23.7
38.16
49.75
58.42
64.27
67.43
68.14
66.69
63.49
59.1
54.1
49.06
44.48
40.64
37.67
35.51
33.98
32.8
31.73
30.53
29.06
27.23
25.03
22.46
19.49
16.07
12.11
7.55
2.38
-3.26
-9.18
-15.09
-20.75
-26.05
-31
-35.8
-40.77
-46.24
-52.45
-59.43
-66.86
-73.95
-79.47
-81.94
-80
-72.81
-60.42
-43.83
-24.75
-5.13
13.34
29.47
42.69
52.81
59.8
63.69
64.53
62.62
58.53
53.09
47.22
41.7
36.96
33.1
29.97
27.36
25.08
23.05
21.28
19.76
18.45
17.23
15.88
14.17
11.83
8.67
4.65
-0.08
-5.24
-10.46
-15.44
-20.04
-24.3
-28.41
-32.65
-37.31
-42.56
-48.39
-54.43
-59.92
-63.78
-64.77
-61.82
-54.4
-42.72
-27.71
-10.74
6.63
23.06
37.48
49.18
57.64
62.54
63.81
61.64
56.66
49.82
42.28
35.12
29.11
24.56
21.35
19.02
17.09
15.18
13.2
11.22
9.33
7.49
5.46
2.88
-0.58
-5.01
-10.25
-15.9
-21.52
-26.78
-31.58
-36
-40.31
-44.84
-49.91
-55.83
-62.74
-70.43
-78.19
-84.76
-88.53
-87.91
-81.83
-70.1
-53.54
-33.77
-12.78
7.6
25.94
41.39
53.59
62.46
68.09
70.68
70.5
68.01
63.76
58.43
52.68
47.09
42.08
37.88
34.54
31.96
29.96
28.33
26.84
25.33
23.64
21.68
19.34
16.51
13.08
8.94
4.08
-1.45
-7.46
-13.66
-19.74
-25.44
-30.65
-35.44
-40.04
-44.83
-50.22
-56.51
-63.7
-71.4
-78.67
-84.14
-86.24
-83.57
-75.39
-61.84
-44.03
-23.78
-3.05
16.46
33.64
48.01
59.49
68.12
73.87
76.7
76.69
74.15
69.76
64.35
58.71
53.4
48.69
44.64
41.25
38.56
36.66
35.55
35.06
34.74
34.06
32.47
29.68
25.74
20.99
15.93
10.96
6.3
1.82
-2.74
-7.71
-13.25
-19.26
-25.43
-31.4
-36.88
-41.81
-46.42
-51.11
-56.32
-62.38
-69.26
-76.52
-83.19
-87.92
-89.22
-85.85
-77.19
-63.49
-45.82
-25.82
-5.29
14.18
31.41
45.68
56.62
64.14
68.29
69.29
67.54
63.58
58.12
51.93
45.76
40.21
35.65
32.17
29.63
27.81
26.5
25.55
24.82
24.17
23.36
22.17
20.39
17.9
14.73
11
6.85
2.44
-2.1
-6.66
-11.17
-15.54
-19.79
-23.98
-28.21
-32.63
-37.41
-42.7
-48.54
-54.75
-60.8
-65.76
-68.38
-67.41
-61.91
-51.6
-37.05
-19.53
-0.75
17.58
34.07
47.81
58.33
65.43
69.07
69.34
66.56
61.29
54.42
46.93
39.75
33.54
28.6
24.88
22.2
20.28
18.89
17.82
16.84
15.68
14.12
11.98
9.2
5.89
2.19
-1.76
-5.93
-10.41
-15.33
-20.77
-26.64
-32.68
-38.51
-43.84
-48.56
-52.82
-57.06
-61.81
-67.47
-74.11
-81.24
-87.79
-92.31
-93.29
-89.53
-80.49
-66.45
-48.46
-28.04
-6.88
13.44
31.69
47.03
58.99
67.37
72.23
73.83
72.63
69.21
64.25
58.45
52.41
46.63
41.43
36.99
33.38
30.6
28.62
27.32
26.53
25.92
25.1
23.7
21.48
18.44
14.78
10.82
6.79
2.73
-1.52
-6.2
-11.49
-17.34
-23.49
-29.53
-35.12
-40.08
-44.46
-48.56
-52.8
-57.67
-63.48
-70.19
-77.23
-83.44
-87.24
-86.97
-81.48
-70.46
-54.57
-35.31
-14.55
5.89
24.59
40.61
53.46
62.97
69.17
72.21
72.4
70.15
65.97
60.44
54.19
47.81
41.77
36.43
31.94
28.35
25.65
23.78
22.66
22.11
21.81
21.33
20.22
18.14
15.01
11
6.51
1.91
-2.58
-7.02
-11.62
-16.6
-22.03
-27.74
-33.4
-38.66
-43.36
-47.51
-51.36
-55.25
-59.51
-64.39
-69.95
-75.88
-81.4
-85.29
-86.05
-82.35
-73.44
-59.47
-41.47
-21.1
-0.18
19.62
37.06
51.32
61.91
68.61
71.46
70.79
67.22
61.6
54.88
47.98
41.6
36.23
32.08
29.14
27.25
26.14
25.51
25.02
24.42
23.5
22.15
20.32
17.97
15.04
11.45
7.13
2.14
-3.38
-9.14
-14.86
-20.33
-25.48
-30.43
-35.48
-40.93
-47.06
-53.88
-61.07
-67.76
-72.7
-74.37
-71.51
-63.43
-50.36
-33.39
-14.22
5.29
23.5
39.21
51.71
60.64
65.89
67.56
66
61.76
55.61
48.44
41.03
34.07
28.01
23.12
19.52
17.11
15.63
14.68
13.84
12.77
11.31
9.43
7.19
4.57
1.46
-2.34
-6.98
-12.44
-18.48
-24.71
-30.72
-36.28
-41.36
-46.22
-51.21
-56.69
-62.88
-69.82
-77.27
-84.67
-91.09
-95.25
-95.72
-91.23
-81.1
-65.53
-45.66
-23.32
-0.58
20.71
39.23
54.26
65.52
73.03
76.96
77.61
75.44
71.1
65.34
58.97
52.68
46.97
42.13
38.23
35.25
33.08
31.59
30.58
29.78
28.83
27.38
25.19
22.15
18.33
13.85
8.88
3.51
-2.2
-8.16
-14.25
-20.31
-26.17
-31.72
-36.99
-42.11
-47.33
-52.98
-59.32
-66.42
-73.95
-81.04
-86.32
-88.13
-85.06
-76.37
-62.29
-43.99
-23.25
-2.02
18.02
35.67
50.23
61.36
68.98
73.19
74.29
72.72
69.05
63.93
57.95
51.67
45.55
39.96
35.19
31.43
28.76
27.06
26.09
25.48
24.83
23.8
22.16
19.81
16.77
13.17
9.18
4.94
0.56
-3.99
-8.79
-13.97
-19.55
-25.39
-31.22
-36.74
-41.78
-46.41
-50.93
-55.8
-61.43
-67.93
-74.93
-81.49
-86.16
-87.28
-83.46
-73.97
-59.05
-39.92
-18.42
3.42
23.86
41.68
56.16
66.98
74.04
77.36
77.16
73.9
68.39
61.62
54.64
48.28
43.03
38.96
35.9
33.55
31.63
29.99
28.54
27.22
25.89
24.38
22.43
19.83
16.37
12.04
6.9
1.19
-4.79
-10.76
-16.54
-22.11
-27.58
-33.11
-38.91
-45.19
-52.1
-59.61
-67.36
-74.5
-79.74
-81.55
-78.61
-70.24
-56.62
-38.81
-18.49
2.46
22.29
39.67
53.7
63.97
70.43
73.33
73.09
70.23
65.33
59.02
51.95
44.8
38.15
32.45
27.94
24.67
22.5
21.19
20.42
19.84
19.1
17.86
15.92
13.22
9.81
5.85
1.46
-3.3
-8.44
-14.01
-19.99
-26.21
-32.42
-38.35
-43.81
-48.81
-53.57
-58.49
-63.99
-70.38
-77.62
-85.16
-91.92
-96.35
-96.8
-91.91
-81.07
-64.64
-43.91
-20.84
2.48
24.16
42.88
57.88
68.88
75.98
79.45
79.79
77.57
73.5
68.26
62.52
56.77
51.32
46.37
42.02
38.35
35.46
33.38
32.02
31.09
30.18
28.78
26.54
23.31
19.24
14.64
9.82
4.98
0.1
-4.97
-10.41
-16.27
-22.44
-28.67
-34.65
-40.14
-45.08
-49.6
-54.08
-58.97
-64.73
-71.52
-79.01
-86.22
-91.64
-93.51
-90.31
-81.25
-66.53
-47.38
-25.69
-3.52
17.29
35.51
50.41
61.73
69.41
73.52
74.25
71.98
67.34
61.14
54.26
47.5
41.41
36.3
32.27
29.3
27.28
26.07
25.39
24.92
24.28
23.17
21.38
18.9
15.81
12.26
8.37
4.2
-0.23
-4.91
-9.75
-14.63
-19.4
-23.96
-28.32
-32.58
-36.96
-41.73
-47.1
-53.15
-59.66
-65.99
-71.06
-73.48
-71.84
-65.16
-53.24
-36.83
-17.45
2.96
22.55
39.9
54.09
64.64
71.34
74.09
73.03
68.6
61.65
53.37
45.03
37.67
31.9
27.77
24.92
22.83
21.03
19.24
17.44
15.68
14.03
12.34
10.3
7.49
3.55
-1.57
-7.59
-13.95
-20.1
-25.65
-30.58
-35.21
-40.04
-45.52
-51.98
-59.41
-67.5
-75.51
-82.29
-86.37
-86.26
-80.84
-69.76
-53.6
-33.81
-12.32
8.88
28.19
44.52
57.28
66.26
71.47
73.09
71.47
67.16
60.94
53.72
46.36
39.62
33.94
29.44
26
23.3
21.05
19.05
17.2
15.51
13.93
12.3
10.34
7.7
4.06
-0.68
-6.37
-12.63
-18.98
-24.99
-30.41
-35.27
-39.79
-44.39
-49.52
-55.54
-62.61
-70.5
-78.53
-85.51
-89.87
-89.96
-84.53
-73.13
-56.33
-35.65
-13.17
8.95
29
45.92
59.27
69
75.24
78.14
77.94
75.02
70.03
63.76
57.06
50.64
44.93
40.14
36.23
33.09
30.58
28.54
26.79
25.14
23.38
21.32
18.82
15.79
12.16
7.91
3.03
-2.43
-8.3
-14.36
-20.35
-26.07
-31.45
-36.55
-41.52
-46.63
-52.15
-58.36
-65.35
-72.89
-80.2
-85.97
-88.49
-86.14
-77.93
-63.88
-45.17
-23.78
-1.97
18.26
35.59
49.39
59.57
66.32
69.84
70.35
68.1
63.53
57.32
50.33
43.42
37.25
32.17
28.2
25.13
22.74
20.82
19.24
17.91
16.72
15.49
13.99
12.01
9.38
6
1.89
-2.87
-8.04
-13.32
-18.44
-23.21
-27.66
-31.94
-36.36
-41.26
-46.89
-53.3
-60.25
-67.09
-72.72
-75.76
-74.8
-68.86
-57.66
-41.83
-22.8
-2.41
17.47
35.34
50.17
61.4
68.79
72.32
72.18
68.84
63.06
55.86
48.34
41.45
35.77
31.44
28.23
25.74
23.62
21.77
20.23
19.07
18.15
17.13
15.45
12.65
8.51
3.22
-2.77
-8.87
-14.59
-19.77
-24.5
-29.12
-34.06
-39.75
-46.48
-54.24
-62.58
-70.52
-76.59
-79.11
-76.66
-68.5
-54.85
-36.95
-16.64
4
23.2
39.69
52.72
62.01
67.5
69.34
67.85
63.61
57.41
50.18
42.82
36.08
30.35
25.72
22.05
19.09
16.63
14.53
12.73
11.18
9.75
8.24
6.32
3.71
0.18
-4.29
-9.56
-15.31
-21.2
-26.88
-32.15
-36.99
-41.54
-46.13
-51.21
-57.14
-64.12
-71.92
-79.75
-86.22
-89.59
-88.15
-80.8
-67.44
-49.07
-27.55
-5.08
16.28
35.06
50.44
62.17
70.28
74.99
76.56
75.33
71.78
66.5
60.2
53.55
47.15
41.43
36.64
32.85
30
27.97
26.54
25.39
24.24
22.77
20.79
18.2
14.99
11.19
6.81
1.85
-3.6
-9.39
-15.3
-21.1
-26.65
-31.95
-37.12
-42.3
-47.65
-53.34
-59.55
-66.36
-73.57
-80.46
-85.76
-87.85
-85.2
-76.96
-63.26
-45.25
-24.77
-3.84
15.82
33.01
47.06
57.69
64.83
68.55
69.07
66.75
62.2
56.17
49.5
42.94
37.04
32.04
27.95
24.64
21.91
19.66
17.81
16.27
14.94
13.66
12.28
10.62
8.54
5.89
2.55
-1.53
-6.31
-11.59
-17.07
-22.42
-27.35
-31.74
-35.66
-39.39
-43.33
-47.88
-53.29
-59.46
-65.78
-71.14
-74.08
-73.17
-67.41
-56.56
-41.25
-22.81
-2.98
16.51
34.2
48.98
60.15
67.32
70.46
69.88
66.24
60.47
53.6
46.56
40.07
34.57
30.21
26.93
24.53
22.77
21.45
20.45
19.64
18.87
17.89
16.34
13.88
10.33
5.78
0.59
-4.73
-9.77
-14.33
-18.5
-22.63
-27.18
-32.57
-39.02
-46.42
-54.17
-61.18
-66.01
-67.14
-63.46
-54.59
-41.06
-24.21
-5.76
12.56
29.33
43.6
54.76
62.44
66.44
66.79
63.83
58.25
51.02
43.21
35.74
29.19
23.78
19.42
15.86
12.84
10.18
7.8
5.69
3.81
1.99
-0.04
-2.63
-6.12
-10.63
-16.04
-21.96
-27.93
-33.51
-38.52
-43.05
-47.48
-52.32
-58.06
-64.95
-72.79
-80.85
-87.83
-92.07
-91.97
-86.36
-74.95
-58.42
-38.3
-16.6
4.7
24.01
40.31
53.1
62.34
68.17
70.87
70.76
68.28
63.94
58.37
52.23
46.13
40.52
35.65
31.58
28.26
25.55
23.38
21.62
20.17
18.82
17.28
15.19
12.24
8.26
3.3
-2.39
-8.4
-14.36
-19.99
-25.18
-30.03
-34.77
-39.71
-45.17
-51.42
-58.57
-66.46
-74.51
-81.64
-86.41
-87.29
-83.07
-73.27
-58.35
-39.68
-19.13
1.32
20.07
36.1
48.97
58.6
65.08
68.51
69.03
66.91
62.66
57.02
50.8
44.73
39.28
34.63
30.74
27.5
24.82
22.66
20.97
19.6
18.31
16.75
14.62
11.75
8.18
4.05
-0.47
-5.28
-10.33
-15.63
-21.13
-26.69
-32.12
-37.24
-42.03
-46.6
-51.22
-56.2
-61.79
-68.01
-74.48
-80.34
-84.26
-84.7
-80.32
-70.44
-55.31
-36.17
-14.87
6.55
26.36
43.36
56.9
66.7
72.68
74.93
73.71
69.62
63.56
56.62
49.84
43.97
39.35
35.93
33.43
31.52
29.94
28.58
27.41
26.38
25.36
24.11
22.29
19.61
15.87
11.1
5.53
-0.45
-6.45
-12.2
-17.63
-22.88
-28.2
-33.91
-40.28
-47.42
-55.17
-62.87
-69.35
-73.07
-72.49
-66.59
-55.23
-39.28
-20.36
-0.38
18.89
36.14
50.51
61.44
68.6
71.83
71.23
67.28
60.87
53.09
45.08
37.71
31.47
26.48
22.55
19.41
16.8
14.57
12.64
10.96
9.46
7.95
6.15
3.72
0.34
-4.14
-9.66
-15.9
-22.41
-28.7
-34.47
-39.66
-44.47
-49.34
-54.77
-61.16
-68.65
-76.93
-85.11
-91.73
-95.03
-93.35
-85.65
-71.86
-52.96
-30.78
-7.43
15.09
35.26
52.17
65.34
74.6
80.01
81.8
80.4
76.46
70.72
64.01
57.01
50.3
44.25
39.09
34.94
31.72
29.28
27.37
25.68
23.97
22.01
19.69
16.87
13.44
9.26
4.26
-1.51
-7.86
-14.47
-21.01
-27.2
-32.93
-38.26
-43.44
-48.8
-54.71
-61.45
-69.07
-77.23
-85.1
-91.4
-94.55
-93.05
-85.89
-72.9
-54.88
-33.46
-10.69
11.43
31.28
47.83
60.57
69.41
74.46
75.96
74.33
70.13
64.08
57.04
49.81
43.08
37.3
32.63
29
26.21
24.05
22.32
20.89
19.63
18.37
16.9
14.95
12.28
8.75
4.34
-0.81
-6.42
-12.14
-17.67
-22.83
-27.59
-32.15
-36.78
-41.8
-47.49
-53.98
-61.14
-68.5
-75.15
-79.74
-80.77
-76.97
-67.69
-53.19
-34.61
-13.69
7.66
27.76
45.32
59.45
69.62
75.5
77.08
74.74
69.27
61.79
53.59
45.77
39.03
33.65
29.49
26.28
23.73
21.67
19.99
18.61
17.32
15.8
13.67
10.63
6.58
1.63
-3.87
-9.51
-14.98
-20.15
-25.15
-30.31
-36.04
-42.69
-50.35
-58.67
-66.81
-73.48
-77.13
-76.29
-70.01
-58.15
-41.49
-21.6
-0.41
20.18
38.59
53.73
64.99
72.16
75.3
74.67
70.81
64.59
57
48.94
41.14
34.01
27.85
22.75
18.7
15.7
13.77
12.79
12.31
11.74
10.41
8.06
4.69
0.45
-4.24
-8.78
-12.79
-16.39
-19.99
-24.19
-29.02
-34.2
-39.23
-43.24
-44.83
-42.73
-36.2
-25.25
-10.79
6.16
24.23
40.57
51.57
55.38
53.14
47.64
42.91
38.85
34.89
30.81
26.75
22.52
18.62
15.25
11.98
8.01
2.46
-4.54
-12.26
-19.61
-25.33
-28.21
-27.83
-24.74
-20.28
-16.12
-13.24
-12
-12.24
-13.45
-14.93
-16.34
-17.75
-19.43
-21.58
-23.86
-25.8
-27.12
-28
-29.07
-31.29
-35.56
-42.21
-50.67
-59.38
-66.24
-69.13
-66.54
-57.82
-43.47
-24.9
-4.14
16.67
35.74
51.8
64.16
72.46
76.63
76.68
72.77
65.31
55.03
42.91
30.08
17.61
6.35
-3.11
-10.44
-15.51
-18.38
-19.32
-18.78
-17.36
-15.63
-14.06
-12.96
-12.49
-12.72
-13.72
-15.47
-17.87
-20.73
-23.83
-27.13
-30.8
-35.25
-41.01
-48.49
-57.86
-68.86
-80.86
-92.82
-103.37
-110.89
-113.73
-110.56
-100.72
-84.57
-63.45
-39.41
-14.75
8.51
28.98
45.87
58.89
67.99
73.22
74.82
73.25
69.25
63.79
57.85
52.17
47.15
42.9
39.32
36.3
33.76
31.73
30.14
28.84
27.55
25.9
23.59
20.47
16.61
12.24
7.66
3.12
-1.3
-5.7
-10.36
-15.64
-21.85
-29.05
-36.99
-44.94
-51.79
-56.21
-56.87
-52.82
-43.75
-30.11
-13.08
5.67
24.3
41.16
55
65.06
71.05
73.08
71.55
67.09
60.52
52.77
44.73
37.16
30.5
24.93
20.44
16.9
14.17
12.09
10.47
8.97
7.21
4.8
1.48
-2.81
-7.95
-13.64
-19.5
-25.19
-30.55
-35.66
-40.91
-46.89
-54.08
-62.54
-71.6
-79.84
-85.31
-86.15
-81.09
-69.97
-53.66
-33.87
-12.56
8.46
27.83
44.62
58.26
68.33
74.58
76.98
75.83
71.84
66.02
59.43
52.99
47.2
42.18
37.74
33.66
29.84
26.38
23.44
21.12
19.3
17.58
15.51
12.67
8.87
4.18
-1.14
-6.76
-12.41
-17.87
-23.09
-28.2
-33.56
-39.67
-46.98
-55.61
-65.01
-73.96
-80.68
-83.34
-80.58
-71.9
-57.8
-39.59
-19.03
2.04
22.09
39.96
54.91
66.56
74.77
79.53
81.02
79.55
75.7
70.17
63.79
57.33
51.37
46.22
41.98
38.61
36.01
34.05
32.57
31.32
29.98
28.2
25.73
22.48
18.54
14.05
9.14
3.86
-1.73
-7.55
-13.44
-19.18
-24.61
-29.7
-34.65
-39.76
-45.38
-51.76
-59.02
-66.94
-74.93
-81.89
-86.35
-86.75
-81.88
-71.31
-55.67
-36.41
-15.5
5.15
24.02
40.15
53.07
62.57
68.58
71.13
70.41
66.82
61.07
54.05
46.7
39.87
34.1
29.56
26.11
23.43
21.2
19.25
17.54
16.1
14.85
13.55
11.84
9.38
5.98
1.75
-3.05
-8.04
-12.94
-17.63
-22.15
-26.66
-31.34
-36.41
-42.07
-48.41
-55.32
-62.28
-68.31
-72.06
-72.08
-67.33
-57.49
-43.17
-25.76
-6.98
11.48
28.33
42.7
54.03
61.93
66.11
66.51
63.43
57.64
50.23
42.41
35.17
29.13
24.48
21.03
18.46
16.42
14.66
13.06
11.56
10.13
8.63
6.87
4.58
1.53
-2.39
-7.11
-12.41
-17.96
-23.42
-28.59
-33.39
-37.95
-42.49
-47.33
-52.78
-59.09
-66.23
-73.9
-81.33
-87.32
-90.39
-89.16
-82.69
-70.83
-54.32
-34.62
-13.51
7.27
26.32
42.68
55.77
65.3
71.17
73.49
72.63
69.24
64.16
58.26
52.29
46.74
41.79
37.47
33.72
30.55
28.04
26.26
25.15
24.45
23.77
22.68
20.86
18.23
14.92
11.18
7.21
3.08
-1.28
-6.01
-11.19
-16.72
-22.39
-27.91
-33.04
-37.69
-41.98
-46.18
-50.7
-55.88
-61.91
-68.57
-75.13
-80.3
-82.56
-80.47
-73.22
-60.88
-44.45
-25.52
-5.86
13.03
30.06
44.56
56.1
64.4
69.3
70.89
69.6
66.11
61.29
55.91
50.55
45.49
40.87
36.74
33.21
30.42
28.48
27.37
26.83
26.46
25.81
24.48
22.31
19.36
15.82
11.94
7.91
3.81
-0.43
-4.87
-9.55
-14.47
-19.52
-24.6
-29.59
-34.41
-39.02
-43.45
-47.85
-52.48
-57.68
-63.65
-70.27
-76.82
-82.07
-84.44
-82.5
-75.43
-63.34
-47.25
-28.78
-9.7
8.51
24.78
38.5
49.21
56.53
60.18
60.12
56.77
50.99
44
36.97
30.77
25.76
21.9
18.91
16.5
14.56
13.07
12.03
11.31
10.65
9.67
8.03
5.5
2.07
-2.09
-6.71
-11.45
-16.08
-20.48
-24.69
-28.89
-33.32
-38.26
-43.85
-50.18
-57.12
-64.27
-70.85
-75.76
-77.69
-75.43
-68.31
-56.4
-40.64
-22.54
-3.82
13.94
29.6
42.44
52.06
58.3
61.12
60.75
57.67
52.61
46.46
40.06
34.09
28.99
24.96
22.02
20.05
18.79
17.94
17.13
16.09
14.59
12.6
10.1
7.11
3.62
-0.42
-4.99
-10.01
-15.29
-20.62
-25.83
-30.84
-35.7
-40.49
-45.32
-50.32
-55.67
-61.6
-68.28
-75.67
-83.28
-90.06
-94.51
-95.02
-90.31
-79.86
-64.14
-44.53
-22.88
-1.13
19.15
36.89
51.51
62.72
70.44
74.71
75.8
74.21
70.65
65.89
60.64
55.39
50.43
45.9
41.91
38.58
36.01
34.18
32.91
31.87
30.69
29.06
26.86
24.09
20.83
17.19
13.24
8.97
4.34
-0.67
-6.07
-11.8
-17.72
-23.65
-29.39
-34.84
-40.02
-45.14
-50.55
-56.62
-63.56
-71.21
-78.84
-85.15
-88.48
-87.24
-80.39
-67.82
-50.42
-29.86
-8.13
12.94
31.94
47.98
60.59
69.57
74.94
76.91
75.89
72.45
67.29
61.1
54.55
48.22
42.55
37.82
34.16
31.5
29.69
28.46
27.54
26.63
25.43
23.7
21.24
18.04
14.18
9.89
5.35
0.64
-4.25
-9.4
-14.82
-20.4
-25.95
-31.3
-36.37
-41.26
-46.26
-51.72
-57.92
-64.89
-72.2
-78.94
-83.72
-84.98
-81.42
-72.39
-58.19
-39.99
-19.56
1.2
20.66
37.61
51.27
61.16
67.03
68.85
66.97
62.18
55.62
48.51
41.91
36.41
32.12
28.81
26.1
23.73
21.61
19.83
18.46
17.44
16.49
15.19
13.08
9.86
5.53
0.34
-5.26
-10.84
-16.11
-21.03
-25.83
-30.87
-36.57
-43.25
-50.98
-59.44
-67.81
-74.77
-78.77
-78.33
-72.49
-61.16
-45.13
-25.92
-5.4
14.63
32.73
47.94
59.68
67.7
71.91
72.42
69.58
64.05
56.81
48.97
41.54
35.22
30.25
26.44
23.4
20.74
18.28
16.04
14.14
12.63
11.4
10.05
8.08
5.03
0.66
-4.92
-11.27
-17.8
-23.96
-29.49
-34.45
-39.22
-44.26
-50.03
-56.8
-64.59
-73.06
-81.37
-88.19
-91.82
-90.63
-83.5
-70.27
-51.86
-30.1
-7.16
14.92
34.62
51.07
63.88
72.96
78.39
80.38
79.34
75.86
70.75
64.8
58.7
52.91
47.72
43.29
39.72
37.04
35.12
33.7
32.37
30.7
28.45
25.57
22.2
18.56
14.78
10.82
6.52
1.72
-3.66
-9.56
-15.8
-22.1
-28.24
-34.05
-39.51
-44.73
-50.01
-55.72
-62.15
-69.35
-76.87
-83.65
-88.16
-88.72
-84.01
-73.53
-57.81
-38.26
-16.82
4.58
24.38
41.55
55.54
66.08
73.11
76.72
77.17
74.95
70.67
65.04
58.72
52.28
46.18
40.83
36.51
33.38
31.35
30.14
29.33
28.44
27.08
25.07
22.37
19.15
15.57
11.75
7.69
3.3
-1.55
-6.9
-12.69
-18.7
-24.63
-30.26
-35.47
-40.36
-45.21
-50.36
-56.18
-62.8
-70.02
-77.16
-83
-86.05
-84.8
-78.28
-66.3
-49.67
-29.9
-8.89
11.56
30.03
45.54
57.48
65.5
69.45
69.5
66.17
60.41
53.41
46.35
40.13
35.14
31.31
28.31
25.78
23.56
21.69
20.29
19.39
18.79
18.07
16.71
14.32
10.76
6.16
0.89
-4.63
-10.06
-15.23
-20.18
-25.07
-30.18
-35.8
-42.19
-49.41
-57.19
-64.76
-70.86
-73.99
-72.75
-66.32
-54.76
-38.98
-20.56
-1.26
17.33
34.01
47.95
58.61
65.63
68.82
68.26
64.42
58.11
50.4
42.41
35.06
28.92
24.18
20.69
18.13
16.14
14.43
12.77
11.09
9.28
7.27
4.93
2.06
-1.52
-5.87
-10.95
-16.47
-22.05
-27.36
-32.2
-36.67
-41.07
-45.86
-51.47
-58.19
-66.01
-74.49
-82.69
-89.13
-92.13
-90.11
-82.18
-68.36
-49.76
-28.21
-5.83
15.51
34.43
50.14
62.29
70.76
75.61
77.04
75.53
71.73
66.46
60.52
54.51
48.87
43.81
39.46
35.86
33.08
31.07
29.72
28.73
27.76
26.42
24.41
21.57
17.89
13.53
8.67
3.51
-1.83
-7.3
-12.87
-18.5
-24.11
-29.59
-34.87
-39.97
-45.05
-50.42
-56.43
-63.34
-71.04
-78.88
-85.61
-89.54
-88.97
-82.72
-70.58
-53.42
-32.96
-11.3
9.64
28.48
44.41
57.1
66.42
72.37
75.05
74.74
71.95
67.38
61.8
55.91
50.22
45.05
40.56
36.82
33.88
31.71
30.19
29.06
27.95
26.44
24.2
21.09
17.17
12.7
7.97
3.18
-1.57
-6.36
-11.31
-16.49
-21.91
-27.45
-32.93
-38.23
-43.29
-48.23
-53.28
-58.78
-64.94
-71.73
-78.65
-84.71
-88.52
-88.62
-83.83
-73.64
-58.39
-39.25
-17.96
3.54
23.52
40.7
54.33
64.13
70.1
72.38
71.27
67.27
61.1
53.75
46.25
39.51
34.1
30.18
27.54
25.83
24.68
23.81
23.03
22.22
21.19
19.73
17.61
14.6
10.65
5.89
0.6
-4.79
-9.92
-14.64
-19.01
-23.37
-28.13
-33.69
-40.27
-47.76
-55.67
-63.05
-68.6
-70.86
-68.59
-61.13
-48.65
-32.19
-13.42
5.81
23.79
39.31
51.66
60.52
65.84
67.69
66.27
61.99
55.53
47.77
39.76
32.4
26.34
21.8
18.6
16.35
14.59
12.95
11.21
9.33
7.28
5.02
2.51
-0.41
-3.87
-8
-12.8
-18.18
-23.9
-29.62
-35.08
-40.09
-44.72
-49.2
-53.92
-59.32
-65.7
-73.08
-80.97
-88.28
-93.35
-94.33
-89.74
-78.94
-62.44
-41.85
-19.29
3.06
23.53
41.09
55.24
65.83
72.86
76.44
76.84
74.49
70.01
64.11
57.55
51.01
45.02
39.88
35.7
32.37
29.71
27.51
25.62
23.89
22.21
20.4
18.25
15.56
12.12
7.89
2.89
-2.73
-8.7
-14.76
-20.68
-26.35
-31.82
-37.29
-43.02
-49.24
-56.12
-63.62
-71.4
-78.74
-84.5
-87.21
-85.43
-78.17
-65.26
-47.54
-26.7
-4.83
16.1
34.63
49.9
61.56
69.55
73.9
74.78
72.55
67.85
61.56
54.61
47.8
41.66
36.42
32.07
28.55
25.75
23.56
21.79
20.19
18.47
16.38
13.81
10.77
7.37
3.71
-0.23
-4.51
-9.29
-14.58
-20.31
-26.23
-32.09
-37.69
-43
-48.1
-53.22
-58.62
-64.52
-70.99
-77.81
-84.32
-89.34
-91.39
-88.99
-81.15
-67.75
-49.67
-28.56
-6.45
14.78
33.67
49.33
61.26
69.25
73.27
73.48
70.34
64.64
57.47
49.94
43.01
37.23
32.75
29.38
26.81
24.78
23.17
21.93
20.99
20.19
19.23
17.71
15.31
11.92
7.62
2.72
-2.4
-7.42
-12.22
-16.87
-21.66
-26.93
-33
-40.01
-47.79
-55.72
-62.73
-67.35
-68.07
-63.79
-54.17
-39.85
-22.25
-3.16
15.67
32.92
47.67
59.32
67.42
71.62
71.8
68.26
61.8
53.61
45.03
37.15
30.63
25.53
21.54
18.14
14.93
11.78
8.81
6.22
4.07
2.18
0.1
-2.69
-6.58
-11.62
-17.5
-23.7
-29.74
-35.32
-40.44
-45.39
-50.58
-56.44
-63.27
-71.07
-79.4
-87.28
-93.25
-95.59
-92.77
-83.94
-69.23
-49.79
-27.52
-4.57
17.18
36.41
52.39
64.83
73.65
78.85
80.49
78.84
74.46
68.2
61.03
53.87
47.35
41.77
37.14
33.31
30.07
27.3
24.93
22.89
21.09
19.36
17.43
15.01
11.83
7.74
2.72
-3.03
-9.18
-15.39
-21.36
-26.95
-32.23
-37.4
-42.78
-48.7
-55.45
-63.08
-71.29
-79.31
-85.82
-89.25
-88.03
-81.14
-68.45
-50.85
-30.04
-8.03
13.29
32.57
49.03
62.28
72.12
78.37
80.97
80.13
76.38
70.65
63.96
57.22
50.99
45.48
40.65
36.41
32.78
29.87
27.77
26.37
25.35
24.18
22.38
19.63
15.92
11.48
6.66
1.72
-3.24
-8.29
-13.55
-19.09
-24.88
-30.73
-36.39
-41.62
-46.29
-50.42
-54.2
-57.98
-62.2
-67.23
-73.22
-79.84
-86.13
-90.61
-91.52
-87.31
-77.16
-61.29
-41.01
-18.32
4.61
25.97
44.53
59.65
71.09
78.73
82.58
82.77
79.76
74.31
67.43
60.14
53.3
47.46
42.84
39.45
37.11
35.55
34.43
33.4
32.15
30.47
28.31
25.69
22.72
19.42
15.76
11.63
6.92
1.63
-4.08
-9.95
-15.68
-21.09
-26.19
-31.2
-36.43
-42.16
-48.55
-55.52
-62.68
-69.28
-74.21
-76.18
-73.92
-66.59
-54.11
-37.24
-17.51
3.21
23.04
40.52
54.66
64.96
71.28
73.75
72.75
68.93
63.1
56.18
49.02
42.29
36.41
31.54
27.69
24.77
22.66
21.22
20.26
19.47
18.49
16.94
14.6
11.4
7.52
3.22
-1.23
-5.71
-10.25
-14.98
-20.03
-25.41
-31.01
-36.64
-42.09
-47.2
-51.99
-56.6
-61.33
-66.56
-72.59
-79.44
-86.62
-93.07
-97.22
-97.4
-92.24
-81.18
-64.68
-44.18
-21.64
0.9
21.81
40.05
55.14
66.91
75.35
80.47
82.32
81.19
77.58
72.25
66.05
59.78
53.99
48.99
44.81
41.37
38.55
36.27
34.48
33.12
32.03
30.94
29.52
27.43
24.46
20.6
16.07
11.2
6.37
1.77
-2.59
-6.88
-11.39
-16.37
-21.88
-27.77
-33.73
-39.42
-44.57
-49.05
-52.95
-56.47
-59.97
-63.87
-68.58
-74.37
-81.14
-88.21
-94.28
-97.64
-96.58
-89.93
-77.48
-60.06
-39.31
-17.21
4.4
24.12
41.03
54.65
64.69
71.07
73.83
73.3
70.09
65.03
59.05
52.96
47.3
42.29
37.94
34.22
31.15
28.87
27.48
26.91
26.84
26.74
26.04
24.34
21.55
17.87
13.73
9.51
5.45
1.56
-2.35
-6.53
-11.12
-16.09
-21.23
-26.19
-30.71
-34.65
-38.13
-41.45
-44.99
-49.13
-54.08
-59.73
-65.58
-70.66
-73.7
-73.32
-68.48
-58.74
-44.47
-26.79
-7.29
12.34
30.58
46.34
58.91
67.87
73
74.29
71.99
66.73
59.51
51.55
44.05
37.83
33.19
29.9
27.48
25.47
23.6
21.85
20.32
18.97
17.63
15.98
13.66
10.47
6.41
1.65
-3.52
-8.82
-14.03
-19.05
-23.85
-28.55
-33.34
-38.51
-44.35
-51.03
-58.41
-65.89
-72.42
-76.6
-76.99
-72.54
-62.85
-48.42
-30.52
-10.88
8.68
26.66
41.98
54.05
62.61
67.65
69.28
67.79
63.7
57.72
50.74
43.63
37.11
31.68
27.54
24.65
22.8
21.68
20.88
20
18.72
16.84
14.36
11.39
8.08
4.52
0.69
-3.51
-8.17
-13.3
-18.81
-24.53
-30.3
-35.96
-41.45
-46.72
-51.81
-56.84
-62.05
-67.74
-74.15
-81.13
-88.01
-93.44
-95.73
-93.24
-84.99
-71.01
-52.42
-31.05
-8.96
12.06
30.8
46.64
59.26
68.56
74.45
76.99
76.46
73.45
68.78
63.29
57.65
52.28
47.31
42.79
38.75
35.34
32.72
30.96
29.87
29.09
28.08
26.39
23.77
20.23
16.04
11.55
7.02
2.55
-1.96
-6.75
-12.02
-17.79
-23.89
-29.99
-35.79
-41.05
-45.78
-50.18
-54.57
-59.34
-64.82
-71.16
-78.11
-84.91
-90.29
-92.67
-90.57
-83.06
-70.14
-52.73
-32.45
-11.21
9.25
27.61
43.03
55.09
63.64
68.69
70.41
69.15
65.45
60.03
53.72
47.28
41.32
36.2
32.06
28.91
26.68
25.29
24.58
24.34
24.22
23.78
22.65
20.57
17.56
13.87
9.86
5.84
1.99
-1.75
-5.56
-9.62
-14.02
-18.69
-23.43
-28.06
-32.44
-36.58
-40.6
-44.76
-49.33
-54.47
-60.01
-65.3
-69.19
-70.24
-67.09
-58.97
-46
-29.17
-10.12
9.34
27.6
43.51
56.31
65.58
71.12
72.94
71.29
66.77
60.27
52.87
45.63
39.34
34.41
30.85
28.36
26.52
24.94
23.39
21.77
20.08
18.3
16.31
13.94
10.96
7.2
2.64
-2.58
-8.2
-13.87
-19.32
-24.42
-29.22
-33.96
-38.97
-44.59
-51
-58.16
-65.61
-72.5
-77.58
-79.42
-76.74
-68.83
-55.87
-38.88
-19.56
0.2
18.77
35.01
48.3
58.37
65.11
68.53
68.79
66.28
61.67
55.75
49.32
43.03
37.3
32.37
28.39
25.43
23.44
22.23
21.47
20.71
19.55
17.72
15.15
11.94
8.28
4.34
0.25
-3.99
-8.5
-13.39
-18.73
-24.41
-30.15
-35.62
-40.57
-45
-49.23
-53.8
-59.19
-65.65
-73
-80.66
-87.56
-92.37
-93.6
-89.94
-80.64
-65.79
-46.49
-24.58
-2.21
18.75
36.98
51.89
63.33
71.37
76.15
77.81
76.68
73.3
68.41
62.82
57.18
51.9
47.14
42.89
39.16
36.02
33.57
31.84
30.67
29.73
28.56
26.75
24.07
20.54
16.38
11.89
7.32
2.75
-1.89
-6.79
-12.05
-17.67
-23.49
-29.23
-34.66
-39.66
-44.28
-48.73
-53.31
-58.35
-64.08
-70.56
-77.54
-84.25
-89.46
-91.61
-89.18
-81.25
-67.81
-49.83
-29.09
-7.62
12.75
30.69
45.48
56.82
64.68
69.18
70.55
69.19
65.69
60.74
55.09
49.32
43.84
38.83
34.34
30.38
27.06
24.51
22.83
21.94
21.54
21.13
20.21
18.4
15.64
12.11
8.21
4.32
0.66
-2.77
-6.18
-9.9
-14.17
-19.06
-24.39
-29.77
-34.82
-39.25
-43.07
-46.5
-49.95
-53.82
-58.39
-63.69
-69.37
-74.62
-78.21
-78.72
-74.88
-66.01
-52.28
-34.75
-15.07
4.99
23.86
40.45
54.05
64.29
70.96
74.04
73.75
70.57
65.29
58.89
52.33
46.38
41.52
37.88
35.31
33.5
32.09
30.83
29.56
28.2
26.71
24.96
22.73
19.74
15.78
10.8
5.03
-1.08
-7.04
-12.5
-17.34
-21.73
-26.03
-30.66
-36.01
-42.29
-49.45
-57.01
-64.09
-69.4
-71.52
-69.26
-62.03
-50.03
-34.22
-16.14
2.55
20.27
35.83
48.41
57.59
63.26
65.57
64.88
61.75
56.86
50.95
44.68
38.67
33.33
28.94
25.61
23.32
21.86
20.92
20.13
19.09
17.56
15.38
12.57
9.22
5.44
1.3
-3.19
-8.02
-13.22
-18.72
-24.4
-30.11
-35.72
-41.11
-46.25
-51.15
-55.94
-60.83
-66.11
-72.08
-78.82
-85.93
-92.44
-96.78
-97.19
-92.19
-81.13
-64.48
-43.72
-20.98
1.61
22.34
40.18
54.67
65.73
73.4
77.74
78.91
77.23
73.27
67.78
61.55
55.31
49.52
44.42
40.07
36.43
33.43
31.02
29.13
27.6
26.19
24.62
22.63
20.02
16.73
12.77
8.21
3.1
-2.48
-8.45
-14.64
-20.83
-26.83
-32.5
-37.84
-43.05
-48.38
-54.17
-60.64
-67.8
-75.26
-82.1
-86.99
-88.35
-84.87
-75.89
-61.68
-43.44
-22.96
-2.12
17.49
34.78
49.14
60.26
68.05
72.53
73.94
72.65
69.21
64.22
58.31
52.04
45.89
40.29
35.53
31.74
28.85
26.63
24.78
22.97
20.97
18.66
15.96
12.86
9.35
5.35
0.82
-4.3
-9.98
-16.08
-22.35
-28.51
-34.34
-39.76
-44.85
-49.83
-54.98
-60.57
-66.74
-73.46
-80.36
-86.62
-91.02
-92.06
-88.41
-79.3
-64.89
-46.28
-25.23
-3.73
16.51
34.31
48.99
60.21
67.82
71.74
72.11
69.39
64.39
58.15
51.66
45.67
40.48
36.08
32.26
28.86
25.87
23.39
21.51
20.19
19.2
18.1
16.42
13.83
10.21
5.7
0.64
-4.58
-9.68
-14.52
-19.19
-23.94
-29.08
-34.87
-41.41
-48.48
-55.44
-61.26
-64.64
-64.37
-59.58
-50.09
-36.46
-19.88
-1.89
15.93
32.23
45.96
56.37
62.98
65.62
64.49
60.25
53.9
46.6
39.36
32.88
27.42
22.95
19.38
16.61
14.6
13.22
12.18
11.06
9.43
6.99
3.69
-0.28
-4.68
-9.27
-13.97
-18.79
-23.79
-29.1
-34.88
-41.25
-48.21
-55.46
-62.17
-67.12
-68.8
-65.92
-57.85
-44.81
-27.95
-8.94
10.4
28.54
44.4
57.27
66.7
72.45
74.5
73.13
68.93
62.79
55.65
48.32
41.31
34.86
29.03
23.83
19.3
15.46
12.27
9.51
6.83
3.83
0.17
-4.34
-9.61
-15.38
-21.33
-27.19
-32.94
-38.76
-45
-51.99
-59.91
-68.48
-76.92
-83.9
-87.82
-87.15
-80.94
-69.13
-52.62
-33
-12.15
8.31
27.18
43.77
57.62
68.36
75.62
79.19
79.18
76.12
70.9
64.51
57.82
51.36
45.36
39.83
34.74
30.1
25.99
22.46
19.47
16.81
14.16
11.11
7.38
2.81
-2.47
-8.17
-13.96
-19.61
-25.15
-30.8
-36.92
-43.82
-51.63
-60.16
-68.85
-76.72
-82.52
-84.87
-82.6
-75.07
-62.4
-45.49
-25.78
-4.93
15.59
34.63
51.38
65.21
75.6
82.19
84.87
83.91
79.96
73.94
66.87
59.57
52.64
46.42
41.02
36.42
32.5
29.1
26.05
23.17
20.31
17.37
14.25
10.83
6.98
2.58
-2.42
-7.96
-13.85
-19.82
-25.59
-31.03
-36.18
-41.21
-46.38
-51.92
-57.93
-64.43
-71.32
-78.3
-84.76
-89.68
-91.7
-89.45
-81.96
-69.08
-51.6
-31.09
-9.43
11.65
30.87
47.45
60.95
71.05
77.51
80.22
79.35
75.42
69.29
61.95
54.37
47.33
41.29
36.44
32.76
30.05
28.05
26.48
25.08
23.66
22.07
20.22
18.02
15.41
12.35
8.84
4.92
0.65
-3.88
-8.61
-13.46
-18.38
-23.32
-28.2
-33
-37.74
-42.54
-47.53
-52.82
-58.24
-63.3
-67.05
-68.26
-65.7
-58.53
-46.65
-30.82
-12.47
6.68
25.03
41.35
54.88
65.18
72.02
75.28
75.09
71.86
66.32
59.41
52.1
45.16
39.07
34
29.93
26.74
24.25
22.26
20.54
18.82
16.85
14.42
11.44
7.9
3.86
-0.6
-5.41
-10.49
-15.77
-21.14
-26.49
-31.7
-36.75
-41.66
-46.47
-51.25
-56.07
-61.07
-66.42
-72.2
-78.21
-83.78
-87.75
-88.73
-85.43
-77.18
-64.14
-47.25
-28.02
-8.02
11.33
29
44.29
56.75
66.06
72.02
74.64
74.12
70.99
65.98
59.95
53.7
47.86
42.79
38.6
35.26
32.65
30.63
29.06
27.77
26.57
25.26
23.69
21.75
19.4
16.61
13.4
