42.39
52.33
58.32
60.23
58.3
53.21
46.05
38.14
30.72
24.66
20.29
17.39
15.45
13.9
12.35
10.66
8.88
7.13
5.43
3.59
1.31
-1.75
-5.76
-10.65
-16.09
-21.62
-26.88
-31.7
-36.21
-40.74
-45.7
-51.46
-58.22
-65.91
-74.04
-81.63
-87.22
-89.2
-86.14
-77.32
-63
-44.4
-23.39
-2
18.06
35.58
49.89
60.68
67.79
71.23
71.2
68.17
62.92
56.42
49.69
43.48
38.28
34.18
31.06
28.7
26.82
25.23
23.76
22.27
20.64
18.69
16.21
12.97
8.74
3.43
-2.81
-9.62
-16.49
-22.91
-28.6
-33.63
-38.34
-43.27
-48.92
-55.61
-63.41
-72.02
-80.74
-88.37
-93.31
-93.86
-88.67
-77.16
-59.86
-38.33
-14.77
8.56
29.77
47.69
61.76
71.88
78.15
80.8
80.19
76.83
71.41
64.8
57.82
51.19
45.4
40.66
36.98
34.26
32.36
31.08
30.21
29.46
28.5
27.04
24.85
21.83
17.99
13.41
8.17
2.39
-3.79
-10.23
-16.73
-23.11
-29.27
-35.19
-41
-47
-53.52
-60.83
-68.86
-77
-84.03
-88.23
-87.82
-81.47
-68.79
-50.5
-28.29
-4.38
19.02
40.12
57.72
71.2
80.3
85.03
85.55
82.33
76.1
67.95
59.09
50.72
43.66
38.27
34.44
31.7
29.54
27.57
25.65
23.8
22.03
20.25
18.18
15.43
11.71
6.92
1.26
-4.88
-11.04
-16.86
-22.18
-27.06
-31.74
-36.58
-41.99
-48.29
-55.59
-63.64
-71.65
-78.29
-81.92
-80.96
-74.4
-62.09
-44.88
-24.39
-2.58
18.65
37.71
53.43
65.02
72.01
74.33
72.37
67
59.47
51.17
43.24
36.4
30.89
26.54
23.03
20.09
17.57
15.39
13.47
11.63
9.53
6.79
3.05
-1.85
-7.81
-14.48
-21.37
-28.03
-34.17
-39.8
-45.24
-51
-57.64
-65.48
-74.4
-83.61
-91.71
-96.83
-97.11
-91.18
-78.67
-60.29
-37.82
-13.55
10.22
31.61
49.44
63.1
72.39
77.37
78.27
75.54
69.94
62.45
54.18
46.16
39.1
33.33
28.76
25.08
21.95
19.17
16.7
14.66
13.11
11.92
10.72
8.9
5.9
1.44
-4.34
-10.86
-17.38
-23.27
-28.27
-32.54
-36.55
-40.88
-46.01
-52.21
-59.49
-67.46
-75.29
-81.62
-84.76
-83.04
-75.38
-61.72
-43.17
-21.73
0.22
20.56
37.82
51.23
60.54
65.86
67.4
65.52
60.73
53.75
45.47
36.84
28.72
21.8
16.45
12.79
10.67
9.75
9.67
10.1
10.79
11.57
12.26
12.61
12.41
11.55
10.16
8.52
7.04
5.92
5.19
4.61
3.89
2.81
1.23
-0.9
-3.71
-7.47
-12.47
-18.9
-26.71
-35.27
-43.3
-49.11
-50.94
-47.41
-37.98
-23.12
-4.31
16.29
36.45
54.38
68.99
79.85
87.03
90.79
91.55
89.78
85.88
80.45
74.29
68.15
62.53
57.57
53.09
49.01
45.24
41.24
36.71
31.79
26.64
21.39
16.07
10.53
5.04
-0.17
-5.98
-12.92
-20.63
-28.63
-36.42
-43.74
-50.62
-56.56
-61.18
-66
-72.12
-79.34
-87.08
-94.3
-99.51
-100.89
-95.59
-81.26
-59.02
-30.96
1.03
34.42
66.58
95.4
113.06
113.4
106.74
99.34
89.71
78.25
65.55
52.21
38.74
25.39
13.32
3.71
-4.68
-12.73
-20.05
-26.41
-31.83
-36.55
-40.83
-44.21
-46.09
-47.77
-50.26
-53.41
-56.94
-60.48
-63.7
-66.42
-68.24
-69.01
-69.89
-71.78
-74.5
-77.33
-79.02
-78.04
-73.08
-63.15
-48.1
-29.25
-8.41
12.64
32.19
48.79
61.35
69.13
71.9
69.88
63.6
54.09
42.81
31.28
20.8
12.27
6.07
2.12
-0.03
-1.02
-1.57
-2.3
-3.65
-5.88
-9.01
-12.94
-17.43
-22.21
-27.04
-31.79
-36.52
-41.46
-46.99
-53.52
-61.19
-69.66
-77.91
-84.36
-87.15
-84.6
-75.79
-60.75
-40.6
-17.16
7.37
30.94
51.92
69.22
82.26
90.84
95.06
95.34
92.3
86.83
79.91
72.44
65.12
58.31
52.13
46.52
41.5
37.15
33.61
30.86
28.61
26.28
23.17
18.73
12.81
5.71
-1.91
-9.41
-16.37
-22.78
-29.05
-35.8
-43.65
-52.94
-63.56
-74.78
-85.24
-93.05
-96.23
-93.15
-83.09
-66.51
-45
-20.89
3.44
26.04
45.67
61.76
74.1
82.58
87.07
87.53
84.27
78.01
69.86
61.05
52.57
44.96
38.33
32.48
27.21
22.51
18.48
15.27
12.88
11.05
9.33
7.2
4.23
0.2
-4.86
-10.66
-16.82
-22.89
-28.54
-33.7
-38.63
-43.88
-50.12
-57.84
-67.07
-77.14
-86.59
-93.44
-95.64
-91.59
-80.61
-63.19
-40.86
-15.8
9.66
33.49
54.19
70.89
83.16
90.91
94.26
93.53
89.34
82.53
74.16
65.28
56.79
49.25
42.86
37.54
33.09
29.33
26.15
23.53
21.4
19.61
17.86
15.73
12.79
8.71
3.4
-2.96
-9.95
-17.04
-23.79
-29.99
-35.75
-41.45
-47.55
-54.52
-62.65
-71.94
-81.98
-91.81
-99.86
-104.2
-102.92
-94.73
-79.46
-58.28
-33.36
-7.33
17.4
39.1
56.8
70.11
78.95
83.37
83.59
80.14
73.89
65.98
57.61
49.72
42.87
37.17
32.5
28.61
25.36
22.69
20.51
18.68
16.86
14.63
11.52
7.3
1.96
-4.2
-10.72
-17.16
-23.29
-29.13
-34.97
-41.26
-48.39
-56.54
-65.44
-74.29
-81.76
-86.16
-85.88
-79.78
-67.57
-49.99
-28.65
-5.65
16.8
36.79
52.93
64.37
70.8
72.41
69.86
64.13
56.37
47.7
39.02
30.95
23.87
18
13.43
10.14
7.96
6.53
5.38
3.94
1.72
-1.56
-5.93
-11.18
-16.92
-22.73
-28.3
-33.54
-38.67
-44.11
-50.42
-58.01
-66.89
-76.44
-85.29
-91.53
-93.13
-88.5
-77.05
-59.39
-37.23
-12.85
11.37
33.52
52.29
66.91
77.01
82.49
83.51
80.56
74.48
66.38
57.44
48.65
40.66
33.71
27.82
22.9
18.86
15.65
13.11
10.96
8.75
5.96
2.22
-2.57
-8.23
-14.36
-20.55
-26.56
-32.41
-38.33
-44.71
-51.93
-60.27
-69.63
-79.38
-88.2
-94.24
-95.5
-90.38
-78.26
-59.72
-36.52
-11.04
14.24
37.32
56.87
72.24
83.19
89.73
91.99
90.3
85.25
77.8
69.1
60.32
52.34
45.57
39.96
35.17
30.86
26.86
23.25
20.21
17.81
15.86
13.91
11.34
7.61
2.5
-3.86
-10.96
-18.22
-25.13
-31.44
-37.24
-42.87
-48.78
-55.41
-63.08
-71.85
-81.35
-90.63
-98.17
-102.04
-100.42
-92.14
-77.11
-56.46
-32.18
-6.68
17.87
39.81
58.16
72.41
82.4
88.16
89.88
87.98
83.16
76.32
68.49
60.65
53.56
47.64
43.01
39.51
36.87
34.76
32.93
31.14
29.16
26.83
24.03
20.66
16.72
12.21
7.15
1.58
-4.41
-10.65
-16.94
-23.04
-28.82
-34.27
-39.53
-44.87
-50.62
-57.09
-64.44
-72.51
-80.68
-87.85
-92.43
-92.75
-87.48
-76.05
-58.94
-37.59
-14.1
9.36
30.96
49.46
64.17
74.78
81.24
83.62
82.25
77.72
70.95
62.98
54.87
47.44
41.19
36.33
32.79
30.32
28.6
27.28
26.05
24.71
23.11
21.14
18.69
15.61
11.8
7.21
1.96
-3.73
-9.53
-15.17
-20.48
-25.45
-30.22
-35.02
-40.11
-45.76
-52.13
-59.18
-66.51
-73.28
-78.24
-79.9
-76.92
-68.56
-54.93
-37.1
-16.83
3.87
23.18
39.71
52.61
61.4
65.89
66.18
62.68
56.3
48.26
39.96
32.54
26.69
22.5
19.62
17.56
15.91
14.44
13.09
11.84
10.58
9.11
7.15
4.47
0.94
-3.37
-8.21
-13.22
-18.04
-22.47
-26.54
-30.53
-34.86
-39.94
-46
-52.93
-60.22
-66.92
-71.71
-73.2
-70.23
-62.2
-49.32
-32.61
-13.63
5.89
24.33
40.4
53.16
61.97
66.52
66.82
63.33
56.93
48.84
40.33
32.49
25.99
21.01
17.33
14.58
12.38
10.53
8.93
7.53
6.16
4.53
2.25
-1.03
-5.43
-10.81
-16.76
-22.76
-28.44
-33.62
-38.41
-43.14
-48.27
-54.22
-61.28
-69.34
-77.78
-85.42
-90.6
-91.58
-86.98
-76.27
-59.95
-39.52
-17.04
5.39
26.06
43.89
58.28
68.99
75.93
79.05
78.49
74.7
68.48
60.9
53.08
45.86
39.68
34.57
30.26
26.48
23.06
20.06
17.58
15.65
14.07
12.41
10.12
6.77
2.18
-3.46
-9.67
-15.89
-21.68
-26.88
-31.66
-36.42
-41.59
-47.56
-54.49
-62.29
-70.55
-78.47
-84.82
-88.09
-86.78
-79.85
-67.11
-49.38
-28.33
-6.04
15.49
34.75
50.82
63.3
72.05
77.11
78.6
76.79
72.26
65.85
58.58
51.44
45.13
39.93
35.72
32.23
29.14
26.32
23.78
21.56
19.59
17.67
15.51
12.86
9.59
5.68
1.21
-3.71
-8.95
-14.37
-19.84
-25.21
-30.47
-35.69
-41.03
-46.74
-53
-59.94
-67.43
-75.03
-81.82
-86.44
-87.4
-83.36
-73.73
-58.81
-39.83
-18.61
2.9
23.03
40.62
54.98
65.73
72.7
75.86
75.39
71.78
65.81
58.48
50.81
43.67
37.63
32.9
29.38
26.78
24.74
22.96
21.23
19.43
17.52
15.39
12.92
9.9
6.2
1.78
-3.22
-8.52
-13.83
-18.96
-23.86
-28.65
-33.51
-38.62
-44.16
-50.27
-57
-64.22
-71.38
-77.49
-81.19
-81.04
-75.99
-65.73
-50.83
-32.59
-12.7
7.17
25.57
41.36
53.68
61.94
65.85
65.59
61.77
55.43
47.83
40.13
33.24
27.62
23.37
20.31
18.15
16.61
15.47
14.57
13.74
12.79
11.46
9.47
6.63
2.89
-1.62
-6.58
-11.68
-16.67
-21.48
-26.26
-31.28
-36.86
-43.21
-50.26
-57.6
-64.37
-69.32
-71.09
-68.52
-61
-48.72
-32.59
-14.1
5.05
23.16
38.79
50.77
58.36
61.26
59.77
54.72
47.33
38.96
30.81
23.66
17.87
13.45
10.24
7.99
6.5
5.55
4.86
4.06
2.74
0.57
-2.61
-6.74
-11.57
-16.8
-22.15
-27.46
-32.76
-38.2
-44.02
-50.52
-57.88
-65.96
-74.14
-81.2
-85.53
-85.48
-79.88
-68.47
-51.96
-31.85
-9.99
11.82
32.07
49.56
63.41
72.96
77.94
78.49
75.33
69.57
62.44
55.05
48.11
41.9
36.43
31.59
27.3
23.57
20.47
18.03
16.11
14.44
12.65
10.33
7.12
2.86
-2.39
-8.33
-14.53
-20.52
-26.07
-31.22
-36.36
-42.04
-48.77
-56.79
-65.75
-74.73
-82.2
-86.37
-85.61
-78.89
-66.15
-48.3
-27.06
-4.45
17.61
37.67
54.75
68.29
77.93
83.54
85.17
83.19
78.28
71.39
63.52
55.58
48.28
42.03
36.98
33.08
30.11
27.77
25.75
23.8
21.77
19.61
17.25
14.56
11.35
7.44
2.72
-2.72
-8.63
-14.64
-20.43
-25.83
-30.9
-35.86
-41.05
-46.81
-53.35
-60.63
-68.24
-75.3
-80.53
-82.4
-79.57
-71.23
-57.41
-39.1
-17.97
3.99
24.96
43.55
58.89
70.55
78.32
82.21
82.45
79.51
74.17
67.4
60.16
53.26
47.21
42.22
38.29
35.3
33.06
31.35
29.9
28.41
26.62
24.3
21.34
17.79
13.78
9.5
5.07
0.49
-4.3
-9.36
-14.65
-20.03
-25.26
-30.18
-34.8
-39.25
-43.8
-48.71
-54.14
-60.03
-66.01
-71.33
-74.87
-75.31
-71.44
-62.58
-48.87
-31.31
-11.55
8.5
27.11
42.93
55.07
62.97
66.42
65.58
61.06
53.93
45.59
37.4
30.4
25.08
21.38
18.89
17.13
15.73
14.49
13.34
12.22
10.98
9.47
7.48
4.83
1.41
-2.81
-7.71
-13.09
-18.67
-24.16
-29.36
-34.27
-39.07
-44.14
-49.87
-56.47
-63.82
-71.3
-77.84
-82.03
-82.48
-78.2
-68.84
-54.9
-37.5
-18.2
1.38
19.78
35.84
48.67
57.67
62.52
63.25
60.32
54.61
47.34
39.83
33.25
28.37
25.5
24.45
24.72
25.72
26.95
28.09
28.94
29.42
29.37
28.6
26.9
24.13
20.31
15.59
10.25
4.59
-1.12
-6.74
-12.23
-17.74
-23.51
-29.82
-36.88
-44.67
-52.75
-60.21
-65.78
-68
-65.67
-58.18
-45.72
-29.32
-10.6
8.58
26.55
41.99
54.06
62.28
66.45
66.65
63.22
56.85
48.55
39.53
30.96
23.71
18.17
14.2
11.33
8.94
6.61
4.24
1.97
0.05
-1.44
-2.75
-4.36
-6.83
-10.53
-15.47
-21.29
-27.45
-33.42
-38.88
-43.84
-48.53
-53.36
-58.78
-65.2
-72.81
-81.36
-90.04
-97.4
-101.6
-100.87
-94.03
-80.91
-62.45
-40.44
-17.02
5.84
26.66
44.52
58.94
69.72
76.79
80.24
80.36
77.66
72.82
66.62
59.84
53.13
46.93
41.54
37.02
33.31
30.28
27.76
25.58
23.61
21.7
19.62
17.1
13.86
9.67
4.53
-1.33
-7.5
-13.51
-19.04
-24.03
-28.74
-33.6
-39.1
-45.6
-53.2
-61.61
-70.08
-77.43
-82.16
-82.75
-78.05
-67.63
-52.05
-32.64
-11.26
10.19
30.07
47.19
60.78
70.41
75.92
77.47
75.55
70.93
64.5
57.19
49.78
42.85
36.86
32.09
28.67
26.48
25.2
24.34
23.45
22.24
20.64
18.71
16.47
13.84
10.58
6.44
1.36
-4.43
-10.55
-16.55
-22.13
-27.21
-31.91
-36.42
-40.98
-45.83
-51.19
-57.24
-63.99
-71.01
-77.39
-81.71
-82.37
-78.02
-68.02
-52.69
-33.29
-11.74
9.9
29.83
46.75
59.91
69.04
74.15
75.5
73.53
68.89
62.44
55.14
47.91
41.45
36.2
32.26
29.56
27.85
26.87
26.31
25.83
25.09
23.8
21.75
18.94
15.45
11.5
7.26
2.84
-1.72
-6.44
-11.28
-16.19
-21.05
-25.78
-30.3
-34.62
-38.87
-43.23
-47.98
-53.36
-59.46
-66.02
-72.22
-76.77
-78.12
-74.87
-66.3
-52.58
-34.84
-14.84
5.5
24.44
40.67
53.34
61.96
66.32
66.55
63.08
56.74
48.62
39.95
31.81
24.96
19.75
16.11
13.75
12.31
11.5
11.15
11.09
11.09
10.82
9.88
7.97
5
1.19
-3.05
-7.29
-11.25
-14.9
-18.5
-22.41
-27.01
-32.54
-39
-46.08
-53.08
-59
-62.59
-62.62
-58.17
-48.98
-35.49
-18.87
-0.75
17.11
33.13
46.08
55.14
59.95
60.56
57.41
51.32
43.29
34.43
25.75
18
11.63
6.74
3.22
0.8
-0.76
-1.72
-2.32
-2.83
-3.59
-4.98
-7.28
-10.58
-14.77
-19.49
-24.33
-28.94
-33.19
-37.2
-41.31
-46.01
-51.77
-58.79
-66.76
-74.7
-81.06
-83.99
-81.89
-73.88
-60.16
-41.9
-20.95
0.63
21
38.76
52.93
62.93
68.48
69.68
66.95
61.15
53.43
44.99
36.9
29.81
23.94
19.16
15.26
12.1
9.7
8.13
7.37
7.08
6.68
5.5
3.06
-0.74
-5.58
-10.88
-16.1
-20.94
-25.43
-29.88
-34.74
-40.44
-47.23
-55.04
-63.29
-70.86
-76.17
-77.53
-73.63
-63.95
-49.01
-30.25
-9.59
10.96
29.78
45.67
57.94
66.22
70.41
70.71
67.59
61.85
54.45
46.44
38.7
31.88
26.3
21.99
18.79
16.49
14.92
13.91
13.26
12.65
11.67
9.9
7.04
3.09
-1.69
-6.87
-11.97
-16.73
-21.16
-25.57
-30.46
-36.35
-43.55
-51.89
-60.51
-67.91
-72.2
-71.66
-65.22
-52.91
-35.85
-15.93
4.77
24.41
41.71
55.83
66.31
72.84
75.31
73.9
69.25
62.4
54.58
46.9
40.16
34.67
30.42
27.2
24.8
23.08
21.93
21.23
20.73
20.09
18.91
16.88
13.82
9.74
4.87
-0.46
-5.89
-11.12
-16.02
-20.66
-25.33
-30.44
-36.4
-43.42
-51.32
-59.39
-66.41
-70.84
-71.18
-66.36
-56.05
-40.8
-22
-1.51
18.63
36.63
51.16
61.49
67.41
69.2
67.45
62.94
56.58
49.25
41.75
34.72
28.55
23.48
19.59
16.85
15.15
14.27
13.91
13.68
13.18
12.05
10.06
7.12
3.32
-1.1
-5.85
-10.67
-15.39
-20
-24.66
-29.66
-35.31
-41.75
-48.79
-55.73
-61.44
-64.53
-63.68
-58.06
-47.62
-33.17
-16.16
1.64
18.55
33.23
44.77
52.61
56.52
56.62
53.3
47.38
39.87
31.92
24.52
18.34
13.68
10.46
8.4
7.16
6.44
5.95
5.43
4.58
3.11
0.81
-2.35
-6.22
-10.52
-14.97
-19.43
-23.93
-28.64
-33.86
-39.85
-46.76
-54.42
-62.22
-69.02
-73.28
-73.43
-68.35
-57.78
-42.47
-23.98
-4.22
15.01
32.32
46.78
57.84
65.16
68.63
68.37
64.87
58.94
51.64
44.04
37.04
31.16
26.51
22.92
20.03
17.53
15.21
13.06
11.11
9.38
7.68
5.74
3.14
-0.39
-4.93
-10.33
-16.21
-22.15
-27.79
-33.01
-37.9
-42.84
-48.31
-54.71
-62.17
-70.24
-77.81
-83.29
-84.93
-81.34
-71.92
-57.07
-38.11
-16.9
4.62
24.78
42.38
56.68
67.34
74.3
77.74
78.06
75.79
71.56
66.03
59.79
53.38
47.24
41.76
37.23
33.81
31.48
30.04
29.14
28.33
27.22
25.52
23.06
19.83
15.89
11.36
6.39
1.11
-4.39
-10.03
-15.76
-21.54
-27.3
-32.97
-38.47
-43.76
-48.91
-54.13
-59.75
-66.07
-73.19
-80.75
-87.81
-92.91
-94.4
-90.86
-81.6
-66.88
-47.94
-26.57
-4.73
15.93
34.25
49.54
61.49
69.96
74.95
76.63
75.37
71.82
66.8
61.18
55.73
50.94
47.01
43.92
41.57
39.88
38.81
38.31
38.26
38.43
38.46
37.97
36.69
34.49
31.48
27.86
23.92
19.89
15.91
11.99
8.05
3.92
-0.44
-4.98
-9.48
-13.7
-17.44
-20.7
-23.67
-26.71
-30.1
-34.01
-38.32
-42.74
-46.92
-50.64
-53.88
-56.87
-60.02
-63.8
-68.61
-74.68
-81.83
-89.44
-96.32
-100.88
-101.46
-96.69
-86
-69.75
-49.32
-26.67
-3.89
17.25
35.6
50.58
62.05
70
74.49
75.67
73.95
70.02
64.78
59.17
53.9
49.38
45.69
42.8
40.63
39.17
38.4
38.19
38.32
38.46
38.27
37.51
36.05
33.91
31.19
27.99
24.39
20.45
16.21
11.76
7.25
2.88
-1.24
-5.1
-8.84
-12.65
-16.68
-20.93
-25.25
-29.45
-33.36
-36.88
-40.1
-43.19
-46.46
-50.27
-54.95
-60.62
-66.98
-73.23
-78.05
-79.92
-77.49
-70.05
-57.74
-41.55
-23.07
-4.05
13.92
29.65
42.36
51.58
57.11
59.01
57.65
53.73
48.2
42.09
36.29
31.38
27.55
24.74
22.74
21.36
20.53
20.21
20.32
20.63
20.78
20.34
19.02
16.75
13.75
10.38
6.99
3.76
0.65
-2.53
-6.04
-10.04
-14.57
-19.49
-24.54
-29.44
-33.96
-38
-41.72
-45.45
-49.62
-54.51
-60.11
-65.86
-70.7
-73.18
-71.9
-65.87
-54.89
-39.7
-21.76
-2.89
15.19
31.18
44.27
54.03
60.23
62.79
61.83
57.82
51.65
44.44
37.36
31.29
26.65
23.48
21.51
20.36
19.68
19.18
18.6
17.72
16.38
14.44
11.85
8.63
4.84
0.57
-4.11
-9.13
-14.45
-20.02
-25.8
-31.66
-37.43
-42.91
-47.99
-52.7
-57.33
-62.32
-68.14
-74.98
-82.5
-89.7
-95.04
-96.78
-93.47
-84.34
-69.62
-50.46
-28.66
-6.22
15.09
33.94
49.58
61.69
70.2
75.23
77
75.83
72.27
67
60.79
54.36
48.3
42.98
38.63
35.33
33.08
31.78
31.19
30.93
30.57
29.66
27.92
25.27
21.8
17.75
13.39
8.87
4.21
-0.7
-6.04
-11.88
-18.19
-24.77
-31.32
-37.58
-43.43
-48.92
-54.26
-59.86
-66.07
-73.15
-80.93
-88.68
-95.07
-98.37
-96.85
-89.37
-75.76
-56.96
-34.79
-11.44
11.03
31.08
47.8
60.81
70.06
75.69
77.96
77.26
74.15
69.32
63.52
57.49
51.78
46.81
42.81
39.85
37.9
36.86
36.49
36.5
36.5
36.1
34.96
32.84
29.7
25.67
21.03
16.1
11.09
6.06
0.91
-4.56
-10.47
-16.77
-23.18
-29.34
-34.94
-39.91
-44.49
-49.12
-54.32
-60.52
-67.81
-75.81
-83.56
-89.59
-92.19
-89.83
-81.61
-67.6
-48.81
-26.99
-4.15
17.83
37.47
53.69
65.87
73.76
77.49
77.52
74.61
69.66
63.61
57.27
51.29
46.08
41.88
38.72
36.51
35.07
34.2
33.7
33.35
32.89
32.01
30.45
28.04
24.8
20.9
16.57
12
7.29
2.41
-2.66
-7.92
-13.28
-18.63
-23.84
-28.82
-33.59
-38.25
-43.03
-48.3
-54.35
-61.29
-68.69
-75.56
-80.36
-81.43
-77.44
-67.87
-53.18
-34.69
-14.22
6.34
25.4
41.78
54.68
63.62
68.33
68.85
65.56
59.28
51.22
42.74
35.08
29.07
24.96
22.54
21.27
20.65
20.29
19.99
19.71
19.33
18.68
17.51
15.54
12.62
8.72
3.98
-1.3
-6.76
-12.08
-17.01
-21.53
-25.82
-30.26
-35.28
-41.23
-48.2
-55.87
-63.36
-69.28
-72.04
-70.21
-63
-50.59
-34.08
-15.22
4.11
22.27
38.12
50.89
60.15
65.55
66.95
64.56
58.99
51.32
42.85
34.82
28.06
22.92
19.23
16.58
14.5
12.73
11.19
9.96
9.02
8.21
7.13
5.31
2.38
-1.81
-7.06
-13
-19.12
-25.01
-30.46
-35.49
-40.37
-45.54
-51.47
-58.52
-66.65
-75.28
-83.25
-88.94
-90.64
-87.01
-77.5
-62.54
-43.46
-22.09
-0.38
19.97
37.71
52.07
62.67
69.39
72.36
71.89
68.55
63.1
56.48
49.65
43.42
38.3
34.4
31.46
29.08
26.91
24.86
23
21.45
20.16
18.8
16.84
13.81
9.47
3.95
-2.36
-8.92
-15.32
-21.31
-26.89
-32.17
-37.4
-42.93
-49.14
-56.32
-64.43
-72.82
-80.21
-84.85
-85
-79.47
-68.07
-51.7
-32.1
-11.31
8.79
26.83
42
53.91
62.42
67.52
69.33
68.16
64.54
59.21
53.05
46.9
41.44
37.05
33.84
31.68
30.27
29.31
28.5
27.57
26.34
24.63
22.33
19.38
15.81
11.69
7.07
2.03
-3.38
-9.03
-14.79
-20.46
-25.9
-31.11
-36.21
-41.5
-47.32
-53.93
-61.4
-69.38
-77.06
-83.16
-86.11
-84.46
-77.31
-64.63
-47.37
-27.23
-6.23
13.8
31.51
46.16
57.45
65.33
69.86
71.2
69.69
65.93
60.76
55.15
49.93
45.61
42.37
40.08
38.48
37.33
36.43
35.63
34.72
33.42
31.46
28.68
25.11
20.97
16.53
11.98
7.37
2.61
-2.44
-7.8
-13.37
-18.95
-24.36
-29.52
-34.56
-39.75
-45.41
-51.72
-58.49
-64.99
-70.06
-72.21
-70.14
-63.1
-51.18
-35.37
-17.26
1.4
19.03
34.45
46.88
55.85
61.08
62.55
60.53
55.67
48.95
41.5
34.42
28.49
24.1
21.22
19.47
18.35
17.41
16.37
15.16
13.82
12.43
10.93
9.13
6.74
3.51
-0.66
-5.68
-11.22
-16.91
-22.37
-27.42
-32.07
-36.53
-41.2
-46.46
-52.63
-59.73
-67.36
-74.64
-80.23
-82.62
-80.47
-73.01
-60.33
-43.38
-23.77
-3.32
16.26
33.72
48.26
59.45
67.14
71.3
72.09
69.9
65.35
59.33
52.77
46.46
40.98
36.54
33.16
30.69
28.96
27.79
26.97
26.24
25.31
23.87
21.72
18.77
15.07
10.78
6.07
1.09
-4.09
-9.41
-14.82
-20.22
-25.44
-30.34
-34.83
-38.97
-43
-47.28
-52.23
-58.17
-65.1
-72.58
-79.59
-84.69
-86.26
-83.02
-74.36
-60.66
-43.19
-23.75
-4.17
14.09
30.16
43.64
54.4
62.39
67.5
69.7
69.13
66.25
61.79
56.6
51.5
47.05
43.55
41.03
39.35
38.3
37.67
37.3
37.06
36.82
36.42
35.63
34.21
31.92
28.62
24.37
19.45
14.3
9.36
4.91
0.96
-2.78
-6.72
-11.21
-16.38
-22.07
-27.85
-33.24
-37.92
-41.78
-44.99
-47.91
-50.96
-54.59
-59.11
-64.7
-71.17
-77.92
-83.82
-87.35
-86.96
-81.52
-70.69
-55.11
-36.19
-15.79
4.34
22.81
38.71
51.59
61.21
67.5
70.53
70.54
68.02
63.66
58.29
52.69
47.52
43.16
39.74
37.21
35.39
34.08
33.08
32.24
31.42
30.48
29.27
27.66
25.58
23
20
16.71
13.22
9.62
5.92
2.11
-1.79
-5.76
-9.76
-13.72
-17.57
-21.26
-24.74
-27.97
-30.91
-33.57
-36.02
-38.34
-40.72
-43.4
-46.67
-50.83
-55.99
-61.95
-68.04
-73.13
-75.76
-74.59
-68.74
-58.09
-43.39
-26.03
-7.71
9.93
25.61
38.47
48.01
54.01
56.48
55.66
52.11
46.63
40.2
33.78
28.12
23.67
20.52
18.49
17.23
16.4
15.77
15.17
14.48
13.56
12.22
10.25
7.45
3.83
-0.46
-5.1
-9.75
-14.16
-18.26
-22.12
-25.87
-29.56
-33.11
-36.31
-38.89
-40.63
-41.49
-41.65
-41.55
-41.79
-43.02
-45.72
-50.08
-55.78
-62
-67.44
-70.57
-69.98
-64.78
-54.84
-40.9
-24.39
-7.01
9.7
24.65
37.25
47.33
54.87
59.88
62.39
62.51
60.57
57.13
52.87
48.49
44.5
41.21
38.68
36.85
35.56
34.68
34.1
33.73
33.46
33.16
32.66
31.8
30.45
28.55
26.14
23.32
20.23
17.03
13.84
10.72
7.64
4.51
1.17
-2.49
-6.51
-10.85
-15.33
-19.8
-24.16
-28.38
-32.6
-36.99
-41.83
-47.37
-53.76
-60.91
-68.3
-74.93
-79.45
-80.36
-76.55
-67.56
-53.86
-36.72
-17.85
0.95
18.22
33.04
44.92
53.78
59.7
62.86
63.49
61.94
58.68
54.34
49.57
44.97
40.97
37.76
35.34
33.6
32.45
31.76
31.39
31.1
30.64
29.7
28.07
25.7
22.66
19.1
15.18
11.01
6.69
2.29
-2.09
-6.39
-10.55
-14.64
-18.74
-22.99
-27.45
-32.08
-36.71
-41.12
-45.1
-48.57
-51.66
-54.67
-58.01
-62.1
-67.18
-73.16
-79.49
-85.12
-88.67
-88.68
-84.02
-74.26
-59.82
-41.92
-22.25
-2.56
15.66
31.38
44.02
53.32
59.22
61.86
61.53
58.78
54.32
48.97
43.5
38.55
34.47
31.41
29.32
28.05
27.44
27.29
27.4
27.53
27.4
26.72
25.28
22.97
19.86
16.12
12.02
7.78
3.6
-0.48
-4.5
-8.58
-12.88
-17.49
-22.36
-27.32
-32.12
-36.53
-40.45
-43.98
-47.45
-51.25
-55.76
-61.02
-66.63
-71.66
-74.83
-74.85
-70.85
-62.67
-50.96
-36.94
-22.01
-7.4
5.94
17.34
26.2
31.92
33.96
32.13
26.79
18.96
10.22
2.41
-2.79
-4.15
-1.17
5.87
15.91
27.34
38.33
47.25
53.1
55.7
55.66
54
51.66
49.12
46.27
42.57
37.52
30.92
23.03
14.45
5.78
-2.63
-10.8
-19.08
-27.94
-37.79
-48.78
-60.63
-72.6
-83.51
-91.85
-96.15
-95.28
-88.82
-77.24
-61.75
-43.99
-25.63
-8.08
7.62
20.68
30.52
36.7
39.05
37.8
33.64
27.62
20.9
14.53
9.21
5.34
3.06
2.33
3.01
4.79
7.21
9.68
11.58
12.47
12.19
10.91
9.04
6.97
4.89
2.78
0.4
-2.46
-5.87
-9.74
-13.89
-18.24
-22.92
-28.22
-34.45
-41.77
-50.02
-58.67
-66.78
-73.09
-76.15
-74.68
-67.9
-55.86
-39.5
-20.41
-0.43
18.8
36.1
50.79
62.49
71.01
76.22
78.12
76.95
73.26
67.86
61.68
55.56
50.14
45.74
42.41
39.99
38.25
36.99
36.04
35.26
34.47
33.43
31.87
29.54
26.29
22.08
17.06
11.42
5.45
-0.57
-6.4
-11.89
-17.05
-22.07
-27.27
-33.01
-39.61
-47.16
-55.35
-63.4
-70.09
-73.94
-73.56
-68.04
-57.24
-41.93
-23.57
-4.02
14.98
32.09
46.55
58.06
66.54
72
74.43
73.92
70.79
65.68
59.47
53.15
47.57
43.26
40.34
38.65
37.81
37.37
36.9
36.06
34.63
32.52
29.76
26.44
22.65
18.45
13.84
8.87
3.6
-1.78
-7.06
-12.09
-16.8
-21.28
-25.76
-30.48
-35.67
-41.47
-47.92
-54.86
-61.89
-68.29
-72.98
-74.68
-72.16
-64.69
-52.35
-36.09
-17.6
1.22
18.67
33.64
45.59
54.35
59.95
62.42
61.89
58.77
53.78
47.95
42.33
37.72
34.45
32.4
31.16
30.29
29.47
28.54
27.46
26.2
24.7
22.84
20.47
17.52
13.94
9.81
5.27
0.54
-4.21
-8.81
-13.18
-17.37
-21.51
-25.78
-30.39
-35.48
-41.1
-47.09
-52.96
-57.91
-60.84
-60.64
-56.45
-47.99
-35.7
-20.67
-4.36
11.7
26.27
38.41
47.61
53.6
56.36
56.08
53.19
48.37
42.49
36.45
31.01
26.67
23.51
21.34
19.76
18.35
16.8
14.98
12.92
10.68
8.33
5.83
3.03
-0.25
-4.16
-8.75
-13.92
-19.4
-24.84
-29.91
-34.44
-38.52
-42.41
-46.54
-51.31
-56.93
-63.37
-70.21
-76.66
-81.58
-83.68
-81.76
-75.09
-63.66
-48.23
-30.25
-11.39
6.76
23.09
36.95
48.09
56.44
62
64.83
65.14
63.29
59.82
55.35
50.44
45.56
41.05
37.14
33.99
31.66
30.06
28.96
28
26.83
25.17
22.91
20.1
16.89
13.4
9.67
5.68
1.36
-3.31
-8.29
-13.46
-18.67
-23.77
-28.67
-33.3
-37.71
-42.02
-46.49
-51.46
-57.17
-63.52
-69.86
-75
-77.42
-75.74
-69.19
-57.9
-42.87
-25.65
-7.87
9.14
24.54
37.91
49.04
57.74
63.79
67.02
67.47
65.53
61.85
57.3
52.69
48.58
45.19
42.45
40.15
38.11
36.27
34.69
33.41
32.41
31.49
30.35
28.73
26.45
23.51
20.02
16.15
12.01
7.65
3.08
-1.65
-6.45
-11.23
-15.92
-20.49
-25.01
-29.49
-33.87
-38.01
-41.75
-45.02
-47.92
-50.71
-53.74
-57.38
-61.86
-67.2
-73.11
-78.92
-83.57
-85.78
-84.31
-78.32
-67.69
-53.1
-35.84
-17.52
0.41
16.87
31.23
43.17
52.55
59.26
63.26
64.63
63.65
60.82
56.79
52.26
47.86
44.09
41.25
39.42
38.47
38.13
38.04
37.86
37.38
36.49
35.17
33.46
31.31
28.65
25.44
21.71
17.59
13.32
9.11
5.12
1.34
-2.33
-6.01
-9.8
-13.71
-17.63
-21.42
-24.98
-28.29
-31.42
-34.53
-37.8
-41.4
-45.47
-50.12
-55.31
-60.82
-66.12
-70.32
-72.37
-71.27
-66.37
-57.61
-45.56
-31.27
-16
-0.95
12.9
24.81
34.21
40.71
44.14
44.6
42.56
38.79
34.2
29.63
25.64
22.47
20.09
18.37
17.21
16.56
16.37
16.46
16.52
16.16
15.04
13.04
10.23
6.87
3.22
-0.51
-4.26
-8.09
-12.06
-16.22
-20.58
-25.09
-29.68
-34.27
-38.76
-43.11
-47.34
-51.61
-56.16
-61.21
-66.75
-72.35
-77.11
-79.78
-79.11
-74.21
-64.9
-51.76
-35.95
-18.89
-1.92
13.9
27.83
39.46
48.49
54.74
58.17
58.88
57.25
53.9
49.6
45.13
41.08
37.73
35.06
32.92
31.14
29.68
28.55
27.8
27.33
26.89
26.14
24.73
22.5
19.43
15.66
11.43
6.99
2.56
-1.76
-5.98
-10.24
-14.72
-19.55
-24.68
-29.91
-34.92
-39.47
-43.47
-47.07
-50.62
-54.54
-59.23
-64.86
-71.3
-77.99
-83.9
-87.7
-88
-83.75
-74.58
-60.97
-44.15
-25.78
-7.57
9.07
23.21
34.43
42.76
48.56
52.47
55.26
57.62
60
62.51
64.91
66.78
67.74
67.59
66.41
64.43
61.92
59.1
56.1
53.02
49.93
46.85
43.66
40.17
36.12
31.37
25.96
20.12
14.23
8.62
3.45
-1.36
-6
-10.75
-15.77
-21.03
-26.37
-31.53
-36.3
-40.59
-44.52
-48.35
-52.49
-57.28
-62.89
-69.11
-75.27
-80.25
-82.71
-81.35
-75.35
-64.57
-49.7
-32.09
-13.38
4.8
21.2
35.02
45.86
53.58
58.2
59.85
58.81
55.62
51.03
45.88
40.93
36.7
33.37
30.89
29.11
27.88
27.14
26.8
26.7
26.56
26.07
24.98
23.18
20.77
17.92
14.79
11.47
7.95
4.13
-0.08
-4.7
-9.64
-14.71
-19.68
-24.33
-28.59
-32.53
-36.35
-40.35
-44.75
-49.63
-54.83
-59.81
-63.73
-65.55
-64.22
-59.05
-49.87
-37.21
-22.14
-6.07
9.6
23.71
35.42
44.25
49.95
52.49
52.06
49.06
44.16
38.2
32.08
26.59
22.28
19.38
17.77
17.12
16.97
16.86
16.46
15.61
14.27
12.53
10.45
8.04
5.24
1.87
-2.16
-6.88
-12.11
-17.58
-22.96
-28.03
-32.75
-37.32
-42.06
-47.33
-53.33
-60.07
-67.18
-73.95
-79.31
-82.03
-80.91
-75.1
-64.42
-49.45
-31.47
-12.16
6.78
23.97
38.51
49.95
58.13
63.1
65.06
64.36
61.56
57.33
52.39
47.38
42.76
38.78
35.55
33.08
31.32
30.19
29.48
28.95
28.29
27.25
25.66
23.44
20.6
17.15
13.13
8.53
3.4
-2.22
-8.2
-14.33
-20.34
-25.95
-30.95
-35.32
-39.26
-43.23
-47.76
-53.33
-60.19
-68.08
-76.2
-83.23
-87.58
-87.72
-82.63
-72.08
-56.79
-38.17
-18.06
1.77
19.94
35.56
48.21
57.74
64.16
67.56
68.18
66.45
63.03
58.69
54.2
50.12
46.74
44.06
41.96
40.27
38.89
37.8
36.92
36.14
35.23
33.89
31.84
28.95
25.26
20.94
16.33
11.73
7.32
3.09
-1.18
-5.74
-10.77
-16.23
-21.84
-27.21
-32.07
-36.38
-40.41
-44.65
-49.63
-55.66
-62.7
-70.21
-77.17
-82.23
-83.94
-81.18
-73.43
-60.94
-44.71
-26.23
-7.13
11.16
27.58
41.42
52.31
60.06
64.66
66.33
65.46
62.66
58.68
54.26
50.02
46.35
43.43
41.22
39.65
38.61
38.02
37.8
37.83
37.85
37.56
36.59
34.71
31.84
28.11
23.83
19.36
15
10.86
6.89
2.85
-1.48
-6.27
-11.47
-16.85
-22.1
-26.93
-31.24
-35.12
-38.83
-42.74
-47.19
-52.4
-58.36
-64.66
-70.48
-74.61
-75.65
-72.42
-64.29
-51.49
-35.05
-16.61
1.95
18.98
33.28
44.18
51.45
55.24
55.88
53.86
49.83
44.57
38.91
33.64
29.35
26.34
24.56
23.76
23.53
23.54
23.51
23.3
22.81
21.97
20.69
18.93
16.69
14.03
10.99
7.62
3.88
-0.23
-4.67
-9.32
-13.95
-18.37
-22.47
-26.3
-30.06
-34.02
-38.45
-43.55
-49.27
-55.25
-60.77
-64.75
-65.97
-63.35
-56.35
-45.15
-30.66
-14.29
2.4
17.99
31.44
42.09
49.6
53.9
55.14
53.71
50.18
45.3
39.81
34.38
29.49
25.41
22.3
20.15
18.86
18.29
18.17
18.19
18.02
17.35
15.94
13.73
10.8
7.35
3.61
-0.24
-4.18
-8.26
-12.63
-17.34
-22.36
-27.53
-32.62
-37.45
-41.92
-46.1
-50.23
-54.68
-59.86
-65.91
-72.48
-78.62
-82.83
-83.48
-79.29
-69.76
-55.43
-37.66
-18.24
1.06
18.85
34.23
46.69
56.04
62.22
65.35
65.74
63.91
60.51
56.29
51.87
47.72
44.09
41.03
38.54
36.57
35.1
34.11
33.52
33.16
32.74
31.94
30.41
27.95
24.52
20.29
15.57
10.74
6.06
1.62
-2.71
-7.19
-12.01
-17.21
-22.62
-27.93
-32.84
-37.21
-41.12
-44.84
-48.7
-53.05
-58.12
-63.95
-70.31
-76.58
-81.73
-84.47
-83.5
-77.95
-67.64
-53.23
-36.02
-17.63
0.39
16.86
31.03
42.53
51.24
57.2
60.52
61.46
60.35
57.68
53.96
49.75
45.52
41.68
38.49
36.07
34.45
33.52
33.12
33.07
33.15
33.16
32.89
32.19
30.96
29.11
26.64
23.56
19.94
15.89
11.58
7.17
2.79
-1.53
-5.85
-10.3
-14.94
-19.75
-24.57
-29.15
-33.31
-36.98
-40.27
-43.42
-46.71
-50.43
-54.82
-60.03
-65.99
-72.29
-78.04
-81.92
-82.47
-78.47
-69.44
-55.87
-39.11
-20.95
-3.11
13.13
27.1
38.56
47.44
53.68
57.17
57.95
56.32
52.97
48.78
44.65
41.16
38.52
36.59
35.09
33.83
32.79
32.09
31.82
31.93
32.16
32.16
31.56
30.15
27.86
24.78
21.04
16.83
12.39
7.96
3.71
-0.26
-3.95
-7.51
-11.08
-14.78
-18.61
-22.49
-26.33
-30.09
-33.77
-37.49
-41.36
-45.54
-50.14
-55.2
-60.58
-65.79
-69.98
-72.07
-70.95
-65.88
-56.74
-44.06
-28.96
-12.77
3.16
17.75
30.16
39.79
46.25
49.38
49.33
46.61
42.09
36.75
31.56
27.17
23.88
21.64
20.24
19.43
19.07
19.04
19.21
19.37
19.2
18.39
16.72
14.12
10.73
6.8
2.6
-1.67
-5.94
-10.27
-14.72
-19.34
-24.02
-28.56
-32.78
-36.53
-39.89
-43.04
-46.32
-50.1
-54.66
-60.11
-66.22
-72.33
-77.33
-79.85
-78.56
-72.64
-62
-47.38
-30.14
-11.84
6.03
22.42
36.59
48.1
56.69
62.24
64.77
64.53
61.99
57.82
52.83
47.75
43.19
39.48
36.7
34.77
33.54
32.9
32.8
33.21
33.99
34.86
35.36
35.01
33.48
30.64
26.7
22.02
17.02
12
7.1
2.23
-2.79
-8.13
-13.82
-19.68
-25.42
-30.7
-35.31
-39.27
-42.84
-46.48
-50.66
-55.77
-61.89
-68.74
-75.55
-81.17
-84.22
-83.39
-77.81
-67.32
-52.56
-34.82
-15.78
2.94
20.02
34.6
46.22
54.74
60.23
62.91
63.11
61.28
57.98
53.83
49.44
45.3
41.75
38.96
36.94
35.6
34.83
34.47
34.37
34.35
34.2
33.68
32.54
30.6
27.79
24.19
20.07
15.76
11.56
7.63
3.93
0.27
-3.64
-7.98
-12.82
-18.01
-23.3
-28.41
-33.13
-37.38
-41.25
-44.9
-48.61
-52.7
-57.48
-63.13
-69.5
-75.98
-81.41
-84.3
-83.15
-76.92
-65.41
-49.36
-30.27
-10.04
9.53
27.02
41.54
52.61
60.12
64.17
65.04
63.21
59.38
54.37
49.02
43.99
39.71
36.33
33.85
32.15
31.14
30.68
30.65
30.83
30.93
30.63
29.63
27.76
25
21.48
17.46
13.21
8.9
4.59
0.21
-4.32
-9
-13.74
-18.33
-22.6
-26.46
-29.96
-33.24
-36.45
-39.79
-43.45
-47.65
-52.42
-57.45
-61.92
-64.55
-63.94
-59.03
-49.53
-36.1
-20.12
-3.23
13.09
27.79
40.19
49.82
56.26
59.22
58.64
54.92
48.89
41.72
34.56
28.31
23.46
20.09
18.02
16.97
16.61
16.59
16.58
16.26
15.4
13.85
11.61
8.74
5.31
1.35
-3.15
-8.22
-13.8
-19.71
-25.63
-31.24
-36.27
-40.69
-44.71
-48.73
-53.23
-58.67
-65.24
-72.74
-80.46
-87.2
-91.4
-91.52
-86.46
-75.91
-60.46
-41.54
-20.98
-0.64
17.99
33.88
46.51
55.67
61.42
63.98
63.79
61.44
57.6
52.97
48.11
43.42
39.14
35.43
32.4
30.17
28.77
28.05
27.72
27.3
26.33
24.51
21.8
18.39
14.58
10.62
6.62
2.48
-1.95
-6.81
-12.12
-17.75
-23.51
-29.13
-34.43
-39.31
-43.87
-48.36
-53.21
-58.86
-65.51
-72.87
-80.01
-85.42
-87.39
-84.51
-76.13
-62.58
-45.07
-25.3
-5.08
14.14
31.29
45.73
57.07
65.16
70
71.78
70.96
68.14
64.02
59.32
54.61
50.31
46.67
43.82
41.81
40.65
40.27
40.52
41.13
41.66
41.66
40.7
38.53
35.13
30.77
25.87
20.86
16.05
11.46
6.9
2.02
-3.45
-9.54
-16.02
-22.45
-28.41
-33.62
-38.14
-42.31
-46.66
-51.74
-57.88
-65.03
-72.6
-79.42
-83.99
-84.72
-80.45
-70.76
-56.18
-38.05
-18.2
1.52
19.58
35.02
47.33
56.39
62.29
65.2
65.4
63.3
59.49
54.7
49.67
44.98
41.01
37.9
35.59
33.99
32.98
32.41
32.09
31.67
30.81
29.23
26.83
23.76
20.24
16.49
12.58
8.43
3.93
-0.97
-6.14
-11.4
-16.54
-21.43
-26.06
-30.5
-34.86
-39.27
-43.91
-48.97
-54.56
-60.42
-65.79
-69.44
-69.93
-66.09
-57.47
-44.51
-28.48
-11.04
6.18
21.87
35.12
45.33
52.12
55.29
54.88
51.32
45.42
38.3
31.1
24.83
20.07
17
15.41
14.85
14.82
14.96
15.06
15.05
14.89
14.45
13.52
11.81
9.12
5.36
0.71
-4.54
-10.03
-15.42
-20.56
-25.43
-30.2
-35.14
-40.56
-46.73
-53.7
-61.13
-68.21
-73.64
-75.93
-73.73
-66.3
-53.73
-37.04
-17.81
2.12
21.1
37.88
51.64
61.92
68.54
71.52
71.11
67.79
62.27
55.41
48.09
41.14
35.19
30.57
27.31
25.17
23.69
22.42
21.03
19.36
17.42
15.28
12.91
10.18
6.85
2.69
-2.4
-8.32
-14.79
-21.43
-27.89
-33.94
-39.56
-44.93
-50.38
-56.31
-63.08
-70.83
-79.34
-87.85
-95.06
-99.32
-98.99
-92.95
-80.97
-63.81
-43.06
-20.69
1.41
21.74
39.33
53.59
64.27
71.3
74.77
75.01
72.59
68.25
62.85
57.14
51.73
46.94
42.92
39.66
37.09
35.14
33.71
32.65
31.7
30.55
28.95
26.73
23.89
20.53
16.79
12.72
8.31
3.46
-1.87
-7.66
-13.74
-19.87
-25.78
-31.27
-36.31
-41.09
-46
-51.53
-58.09
-65.74
-73.95
-81.56
-86.9
-88.22
-84.19
-74.34
-59.24
-40.32
-19.5
1.33
20.69
37.62
51.59
62.41
70
74.41
75.78
74.48
71.09
66.34
61.05
55.93
51.44
47.73
44.73
42.25
40.14
38.41
37.15
36.41
36
35.44
34.15
31.64
27.76
22.78
17.28
11.88
6.95
2.51
-1.69
-6.04
-10.82
-16.08
-21.68
-27.32
-32.72
-37.7
-42.24
-46.45
-50.55
-54.86
-59.69
-65.28
-71.6
-78.22
-84.21
-88.18
-88.61
-84.18
-74.31
-59.38
-40.64
-19.96
0.72
19.77
36.12
49.2
58.78
64.85
67.46
66.9
63.68
58.6
52.6
46.6
41.32
37.13
34.1
32.09
30.86
30.16
29.76
29.46
29.05
28.33
27.13
25.31
22.8
19.62
15.88
11.71
7.25
2.58
-2.25
-7.23
-12.31
-17.4
-22.36
-27.09
-31.61
-36.09
-40.84
-46.12
-52.01
-58.22
-63.99
-68.17
-69.46
-66.71
-59.32
-47.4
-31.86
-14.2
3.85
20.67
35.05
46.29
54.11
58.53
59.77
58.18
54.26
48.68
42.23
35.71
29.83
25.03
21.49
19.18
17.89
17.31
17.06
16.76
16.05
14.66
12.52
9.74
6.54
3.15
-0.33
-3.96
-7.94
-12.44
-17.52
-23.02
-28.65
-34.04
-38.92
-43.29
-47.34
-51.45
-56.07
-61.5
-67.83
-74.77
-81.54
-86.94
-89.47
-87.73
-80.78
-68.53
-51.8
-32.18
-11.61
8.1
25.62
40.17
51.47
59.55
64.56
66.74
66.45
64.17
60.5
56.1
51.53
47.2
43.37
40.13
37.56
35.69
34.55
34.12
34.2
34.44
34.36
33.49
31.51
28.37
24.3
19.71
15.01
10.46
6.07
1.62
-3.17
-8.49
-14.29
-20.27
-26.02
-31.14
-35.49
-39.22
-42.75
-46.65
-51.43
-57.31
-64.06
-70.9
-76.55
-79.5
-78.29
-72.01
-60.55
-44.74
-26.09
-6.46
12.46
29.38
43.57
54.68
62.58
67.25
68.83
67.64
64.29
59.58
54.37
49.33
44.84
40.98
37.66
34.77
32.29
30.31
28.89
27.97
27.28
26.4
24.84
22.28
18.62
14.07
9.09
4.19
-0.24
-4.13
-7.72
-11.44
-15.68
-20.58
-25.97
-31.43
-36.52
-40.97
-44.8
-48.28
-51.82
-55.85
-60.68
-66.35
-72.5
-78.31
-82.43
-83.35
-79.76
-71.03
-57.49
-40.39
-21.47
-2.53
15.03
30.3
42.76
52.12
58.16
60.85
60.39
57.31
52.45
46.75
41.05
35.96
31.79
28.63
26.39
24.9
24
23.49
23.18
22.84
22.25
21.21
19.6
17.36
14.5
11.07
7.17
2.9
-1.59
-6.17
-10.7
-15.07
-19.26
-23.28
-27.23
-31.22
-35.47
-40.18
-45.48
-51.18
-56.67
-60.81
-62.23
-59.66
-52.38
-40.56
-25.19
-7.84
9.77
26.14
40.16
51.17
58.8
62.98
63.78
61.53
56.8
50.34
43.06
35.85
29.43
24.27
20.53
18.09
16.63
15.76
15.03
14.1
12.71
10.73
8.21
5.23
1.96
-1.54
-5.28
-9.39
-13.98
-19.13
-24.72
-30.5
-36.09
-41.24
-45.84
-50.02
-54.09
-58.42
-63.28
-68.77
-74.65
-80.28
-84.61
-86.28
-83.91
-76.51
-63.85
-46.69
-26.64
-5.72
14.1
31.41
45.5
56.16
63.51
67.69
68.9
67.46
63.91
59.01
53.57
48.26
43.52
39.53
36.32
33.86
32.12
30.98
30.21
29.47
28.42
26.8
24.51
21.61
18.22
14.45
10.33
5.85
0.99
-4.23
-9.75
-15.46
-21.22
-26.86
-32.22
-37.19
-41.77
-46.13
-50.62
-55.65
-61.5
-68.07
-74.66
-80.02
-82.55
-80.79
-73.82
-61.68
-45.31
-26.37
-6.74
11.9
28.32
41.89
52.32
59.57
63.7
64.85
63.37
59.89
55.22
50.22
45.58
41.71
38.66
36.29
34.4
32.86
31.66
30.78
30.12
29.39
28.26
26.41
23.68
20.15
16.07
11.75
7.41
3.09
-1.35
-6.11
-11.29
-16.83
-22.53
-28.06
-33.22
-37.89
-42.14
-46.15
-50.18
-54.54
-59.56
-65.4
-71.86
-78.25
-83.31
-85.49
-83.39
-76.19
-64.02
-47.89
-29.45
-10.5
7.39
23.12
36.01
45.77
52.27
55.58
55.92
53.73
49.67
44.54
39.16
34.22
30.19
27.25
25.37
24.39
24.03
24.03
24.08
23.91
23.3
22.13
20.33
17.94
15.03
11.65
7.88
3.81
-0.46
-4.8
-9.1
-13.26
-17.22
-20.95
-24.49
-27.92
-31.37
-35.01
-38.95
-43.17
-47.32
-50.71
-52.35
-51.19
-46.39
-37.63
-25.26
-10.25
6.07
22.23
36.98
49.34
58.68
64.63
67.09
66.23
62.51
56.73
49.86
42.88
36.6
31.45
27.52
24.57
22.28
20.37
18.64
17
15.33
13.5
11.35
8.69
5.39
1.37
-3.4
-8.85
-14.81
-20.99
-27.06
-32.7
-37.72
-42.16
-46.31
-50.61
-55.54
-61.41
-68.23
-75.54
-82.36
-87.24
-88.62
-85.2
-76.38
-62.53
-44.89
-25.25
-5.48
12.91
28.88
41.9
51.77
58.48
62.12
62.94
61.34
57.87
53.18
47.9
42.58
37.68
33.48
30.17
27.76
26.17
25.2
24.52
23.82
22.78
21.19
18.95
16.08
12.63
8.67
4.25
-0.61
-5.83
-11.31
-16.87
-22.33
-27.57
-32.57
-37.47
-42.51
-48.01
-54.19
-61.07
-68.29
-75.04
-80.08
-82.03
-79.66
-72.29
-60.06
-43.91
-25.34
-6.06
12.42
28.98
42.9
53.83
61.61
66.27
67.97
67.1
64.21
59.97
55.08
50.17
45.68
41.88
38.85
36.54
34.82
33.55
32.52
31.54
30.35
28.66
26.26
23.08
19.24
15.03
10.8
6.76
2.89
-1.05
-5.38
-10.32
-15.84
-21.66
-27.33
-32.51
-37.08
-41.21
-45.32
-49.87
-55.22
-61.42
-68.12
-74.51
-79.4
-81.36
-79.08
-71.73
-59.32
-42.75
-23.63
-3.85
14.9
31.45
45.19
55.88
63.45
67.86
69.14
67.56
63.72
58.5
52.89
47.71
43.39
40.02
37.38
35.21
33.35
31.76
30.45
29.38
28.41
27.25
25.57
23.1
19.72
15.56
10.92
6.16
1.57
-2.78
-7.06
-11.57
-16.55
-22.02
-27.7
-33.1
-37.82
-41.63
-44.65
-47.26
-49.92
-53.04
-56.88
-61.55
-66.99
-72.84
-78.33
-82.28
-83.23
-79.85
-71.37
-57.89
-40.44
-20.72
-0.66
18.08
34.31
47.42
57.2
63.66
66.95
67.35
65.29
61.41
56.45
51.21
46.34
42.23
39.01
36.62
34.9
33.75
33.02
32.58
32.2
31.57
30.37
28.37
25.54
22.01
18.04
13.92
9.8
5.7
1.54
-2.8
-7.33
-11.95
-16.52
-20.91
-25.06
-29.05
-33.07
-37.37
-42.16
-47.55
-53.39
-59.14
-63.83
-66.17
-64.87
-59.03
-48.5
-34.01
-16.98
0.9
18.07
33.37
46.1
55.86
62.46
65.82
66.05
63.54
58.95
53.17
47.05
41.32
36.41
32.47
29.5
27.41
26.07
25.33
24.97
24.64
23.92
22.39
19.8
16.15
11.74
6.98
2.29
-2.17
-6.49
-10.93
-15.76
-21.05
-26.66
-32.24
-37.45
-42.12
-46.3
-50.3
-54.55
-59.5
-65.38
-72.15
-79.3
-85.81
-90.3
-91.25
-87.46
-78.41
-64.42
-46.64
-26.7
-6.3
13.09
30.37
44.85
56.13
64.05
68.64
70.21
69.24
66.45
62.54
58.17
53.79
49.64
45.8
42.29
39.15
36.51
34.5
33.16
32.33
31.63
30.59
28.79
26.04
22.41
18.21
13.77
9.33
4.94
0.44
-4.36
-9.6
-15.28
-21.22
-27.13
-32.69
-37.68
-42.05
-45.95
-49.73
-53.85
-58.73
-64.57
-71.11
-77.57
-82.7
-85
-83.14
-76.36
-64.66
-48.87
-30.42
-10.94
8.04
25.36
40.27
52.38
61.49
67.53
70.53
70.72
68.48
64.43
59.31
53.81
48.52
43.76
39.64
36.1
33.09
30.57
28.57
27.08
25.98
24.94
23.55
21.39
18.2
14.02
9.16
4.06
-0.87
-5.45
-9.77
-14.1
-18.73
-23.85
-29.38
-35.03
-40.4
-45.17
-49.17
-52.48
-55.39
-58.29
-61.59
-65.59
-70.4
-75.74
-80.85
-84.52
-85.29
-81.83
-73.36
-59.99
-42.73
-23.2
-3.18
15.83
32.76
46.97
58.07
65.81
70.04
70.9
68.81
64.56
59.1
53.32
47.85
43.02
38.97
35.69
33.19
31.41
30.23
29.38
28.52
27.31
25.53
23.15
20.24
16.96
13.41
9.66
5.69
1.48
-2.98
-7.67
-12.46
-17.24
-21.85
-26.23
-30.43
-34.59
-38.93
-43.62
-48.65
-53.67
-57.97
-60.54
-60.25
-56.17
-47.86
-35.51
-20.01
-2.72
14.78
31.07
45.01
55.9
63.3
67.13
67.52
64.9
59.98
53.65
46.83
40.32
34.69
30.2
26.89
24.6
23.1
22.04
21.06
19.84
18.12
15.81
12.93
9.58
5.86
1.78
-2.68
-7.6
-12.95
-18.63
-24.4
-29.96
-35.09
-39.68
-43.84
-47.82
-51.98
-56.72
-62.25
-68.59
-75.29
-81.49
-85.92
-87.16
-83.97
-75.68
-62.4
-45.02
-25.05
-4.21
15.89
33.97
49.2
61.11
69.54
74.49
76.16
74.94
71.41
66.32
60.42
54.44
48.88
44
39.87
36.46
33.77
31.76
30.4
29.51
28.75
27.66
25.77
22.83
18.84
14.1
9.04
4.04
-0.71
-5.27
-9.87
-14.76
-20.07
-25.72
-31.47
-37.03
-42.14
-46.71
-50.82
-54.7
-58.75
-63.36
-68.84
-75.21
-81.93
-87.93
-91.68
-91.58
-86.47
-75.96
-60.63
-41.78
-21.09
-0.21
19.51
37.13
51.99
63.63
71.75
76.26
77.34
75.51
71.57
66.41
60.9
55.64
50.97
46.98
43.64
40.87
38.67
37.01
35.85
35.03
34.31
33.37
31.95
29.87
27.06
23.54
19.38
14.71
9.71
4.55
-0.58
-5.55
-10.36
-15.1
-19.89
-24.84
-29.97
-35.14
-40.13
-44.79
-49.07
-53.1
-57.17
-61.65
-66.86
-72.96
-79.88
-87.12
-93.76
-98.46
-99.76
-96.39
-87.68
-73.8
-55.73
-35.07
-13.63
6.95
25.44
41.04
53.35
62.19
67.59
69.71
68.92
65.8
61.08
55.59
50.03
44.96
40.64
37.13
34.35
32.2
30.62
29.54
28.84
28.32
27.64
26.4
24.27
21.11
17.02
12.38
7.65
3.25
-0.66
-4.13
-7.47
-10.97
-14.82
-19.02
-23.32
-27.46
-31.21
-34.55
-37.58
-40.56
-43.72
-47.3
-51.44
-56.17
-61.27
-66.2
-70.02
-71.52
-69.52
-63.16
-52.23
-37.26
-19.43
-0.26
18.71
36.15
51.09
62.82
70.92
75.21
75.81
73.19
68.15
61.73
54.97
48.73
43.53
39.6
36.86
35.11
34.07
33.41
32.81
31.98
30.7
28.81
26.26
23.09
19.35
15.14
10.52
5.59
0.42
-4.96
-10.5
-16.18
-21.92
-27.61
-33.12
-38.39
-43.47
-48.58
-54.01
-59.97
-66.36
-72.57
-77.52
-79.79
-78.05
-71.42
-59.81
-43.97
-25.27
-5.39
14.05
31.77
46.87
58.78
67.19
71.96
73.2
71.28
66.93
61.06
54.64
48.5
43.12
38.7
35.15
32.34
30.13
28.45
27.22
26.28
25.38
24.2
22.42
19.86
16.49
12.43
7.87
2.98
-2.13
-7.43
-12.94
-18.67
-24.55
-30.4
-36.01
-41.18
-45.8
-49.9
-53.72
-57.65
-62.12
-67.53
-73.91
-80.8
-87.13
-91.39
-91.93
-87.49
-77.51
-62.38
-43.31
-22
-0.23
20.42
38.81
54.17
66.03
74.16
78.57
79.5
77.51
73.35
67.91
62.04
56.42
51.45
47.28
43.91
41.26
39.27
37.88
37.03
36.51
36.03
35.19
33.59
30.95
27.18
22.42
16.99
11.29
5.68
0.36
-4.67
-9.58
-14.59
-19.9
-25.54
-31.38
-37.16
-42.61
-47.6
-52.12
-56.41
-60.77
-65.57
-71.07
-77.28
-83.83
-89.87
-94.08
-94.96
-91.15
-81.93
-67.45
-48.76
-27.59
-5.85
14.75
32.94
47.94
59.32
66.87
70.59
70.76
67.93
62.98
56.94
50.74
45.02
40.04
35.86
32.36
29.55
27.5
26.26
25.73
25.56
25.22
24.16
22.09
19.01
15.27
11.33
7.57
4.12
0.82
-2.68
-6.7
-11.36
-16.5
-21.74
-26.68
-31
-34.61
-37.66
-40.43
-43.25
-46.43
-50.16
-54.46
-59.09
-63.47
-66.6
-67.25
-64.21
-56.68
-44.56
-28.6
-10.22
8.81
26.82
42.5
55.04
63.99
69.22
70.75
68.81
63.96
57.04
49.18
41.49
34.94
30.06
26.94
25.27
24.52
24.14
23.7
22.98
21.92
20.56
18.89
16.79
14.05
10.46
5.94
0.64
-5.13
-11
-16.71
-22.16
-27.38
-32.47
-37.59
-42.89
-48.57
-54.81
-61.62
-68.65
-75
-79.27
-79.86
-75.46
-65.5
-50.44
-31.61
-10.91
9.72
28.68
44.87
57.64
66.66
71.85
73.36
71.61
67.29
61.24
54.35
47.34
40.75
34.94
30.14
26.46
23.92
22.36
21.42
20.69
19.73
18.24
16.12
13.39
10.14
6.4
2.18
-2.56
-7.79
-13.38
-19.09
-24.67
-29.92
-34.8
-39.42
-44
-48.78
-54.02
-59.89
-66.41
-73.35
-80.02
-85.3
-87.72
-85.87
-78.77
-66.24
-49.07
-28.77
-7.24
13.67
32.51
48.31
60.57
69.09
73.91
75.28
73.69
69.8
64.4
58.28
52.11
46.36
41.31
37.1
33.8
31.35
29.66
28.49
27.51
26.35
24.72
22.46
19.58
16.2
12.45
8.41
4.05
-0.76
-6.1
-11.94
-18.09
-24.27
-30.17
-35.65
-40.71
-45.52
-50.34
-55.41
-60.96
-67.1
-73.76
-80.5
-86.43
-90.22
-90.34
-85.55
-75.28
-59.93
-40.82
-19.79
1.19
20.47
36.92
49.92
59.19
64.7
66.5
64.87
60.4
54
46.83
40.08
34.62
30.81
28.51
27.19
26.27
25.35
24.32
23.23
22.14
21.01
19.6
17.62
14.88
11.37
7.27
2.79
-1.87
-6.68
-11.65
-16.75
-21.84
-26.67
-31
-34.78
-38.24
-41.82
-46.02
-51.14
-57.03
-62.98
-67.77
-69.93
-68.11
-61.5
-50.09
-34.68
-16.68
2.22
20.42
36.66
50.02
59.94
66.1
68.45
67.22
63.01
56.72
49.44
42.25
35.96
31.01
27.44
25
23.34
22.19
21.39
20.87
20.48
19.95
18.83
16.74
13.44
9.01
3.86
-1.51
-6.63
-11.26
-15.46
-19.46
-23.65
-28.37
-33.9
-40.32
-47.42
-54.58
-60.71
-64.42
-64.29
-59.31
-49.26
-34.8
-17.36
1.28
19.4
35.67
49.25
59.66
66.63
70
69.73
66.11
59.81
51.9
43.65
36.17
30.16
25.73
22.56
20.09
17.89
15.74
13.66
11.78
10.08
8.38
6.31
3.53
-0.2
-4.85
-10.19
-15.87
-21.58
-27.1
-32.39
-37.51
-42.59
-47.82
-53.45
-59.78
-66.98
-74.93
-82.87
-89.39
-92.65
-90.89
-83.05
-69.2
-50.59
-29.24
-7.36
13.24
31.38
46.5
58.38
67.01
72.38
74.61
73.95
70.88
66.08
60.28
54.19
48.35
43.12
38.62
34.89
31.85
29.41
27.43
25.73
24.07
22.2
19.85
16.88
13.26
9.08
4.46
-0.51
-5.76
-11.23
-16.77
-22.13
-26.99
-31.02
-34.03
-36.17
-37.89
-40.04
-43.56
-49.23
-57.25
-66.95
-76.75
-84.45
-87.82
-85.23
-76.17
-61.38
-42.51
-21.64
-0.71
18.83
36.05
50.44
61.65
69.43
73.67
74.56
72.6
68.63
63.55
58.11
52.79
47.81
43.25
39.21
35.87
33.44
31.97
31.29
30.99
30.46
29.1
26.47
22.42
17.1
10.93
4.4
-2.04
-8.15
-13.93
-19.57
-25.3
-31.25
-37.36
-43.39
-49.08
-54.2
-58.75
-62.86
-66.84
-71.09
-75.89
-81.3
-86.91
-91.79
-94.56
-93.72
-88.11
-77.28
-61.72
-42.76
-22.16
-1.69
17.22
33.59
46.82
56.57
62.65
65.09
64.2
60.61
55.26
49.17
43.28
38.25
34.36
31.64
29.89
28.84
28.19
27.68
27.1
26.27
25.06
23.4
21.21
18.45
15.09
11.17
6.79
2.12
-2.62
-7.25
-11.67
-15.88
-19.96
-24.07
-28.42
-33.19
-38.43
-43.91
-49.03
-52.85
-54.24
-52.2
-46.18
-36.26
-23.16
-8.02
7.83
23.15
36.83
47.93
55.68
59.59
59.6
56.16
50.2
42.95
35.62
29.11
23.9
20.04
17.32
15.45
14.15
13.22
12.49
11.79
10.93
9.66
7.74
4.94
1.18
-3.46
-8.66
-14.01
-19.15
-23.88
-28.31
-32.79
-37.78
-43.71
-50.67
-58.32
-65.8
-71.8
-74.84
-73.61
-67.32
-56
-40.49
-22.26
-3.06
15.49
32.05
45.75
56.04
62.67
65.65
65.18
61.78
56.21
49.43
42.38
35.88
30.39
26.06
22.76
20.2
18.11
16.27
14.55
12.89
11.19
9.3
7.03
4.16
0.5
-3.99
-9.21
-14.92
-20.81
-26.6
-32.16
-37.57
-43.11
-49.14
-55.98
-63.68
-71.87
-79.66
-85.7
-88.48
-86.63
-79.4
-66.83
-49.88
-30.06
-9.16
11.23
29.88
45.93
58.87
68.33
74.11
76.21
74.89
70.82
64.88
58.1
51.39
45.33
40.16
35.81
32.07
28.77
25.82
23.22
21.01
19.13
17.37
15.42
12.95
9.69
5.55
0.59
-4.99
-10.89
-16.84
-22.61
-28.15
-33.49
-38.82
-44.38
-50.42
-57.08
-64.25
-71.42
-77.62
-81.48
-81.49
-76.47
-65.93
-50.35
-31.08
-10
10.93
30.13
46.52
59.52
68.85
74.4
76.24
74.64
70.23
63.91
56.75
49.65
43.25
37.79
33.24
29.44
26.27
23.72
21.79
20.43
19.42
18.37
16.83
14.39
10.82
6.14
0.61
-5.4
-11.45
-17.2
-22.46
-27.21
-31.68
-36.23
-41.32
-47.37
-54.55
-62.61
-70.81
-77.9
-82.3
-82.54
-77.55
-67.09
-51.75
-32.89
-12.29
8.28
27.25
43.45
56.13
64.89
69.65
70.67
68.49
63.92
57.82
51
44.09
37.48
31.44
26.16
21.82
18.53
16.26
14.76
13.59
12.23
10.21
7.3
3.52
-0.87
-5.59
-10.39
-15.21
-20.12
-25.29
-30.92
-37.15
-44.04
-51.43
-58.79
-65.21
-69.37
-69.88
-65.63
-56.18
-41.98
-24.31
-4.95
14.26
31.78
46.53
57.85
65.42
69.13
69.12
65.78
59.85
52.28
44.12
36.25
29.24
23.33
18.52
14.65
11.57
9.15
7.21
5.51
3.71
1.43
-1.6
-5.46
-9.99
-14.86
-19.71
-24.38
-28.92
-33.67
-39.06
-45.45
-52.91
-60.97
-68.71
-74.74
-77.59
-75.99
-69.29
-57.58
-41.74
-23.21
-3.68
15.21
32.03
45.71
55.49
60.98
62.24
59.73
54.3
47.04
39.04
31.22
24.18
18.2
13.29
9.36
6.28
3.93
2.24
1.02
0.05
-1.01
-2.5
-4.67
-7.59
-11.18
-15.21
-19.42
-23.58
-27.61
-31.54
-35.59
-40.05
-45.18
-51.04
-57.2
-62.7
-66.11
-65.91
-60.91
-50.73
-35.89
-17.74
1.95
21.41
39.09
53.85
64.86
71.62
73.93
72.05
66.68
58.92
50.02
41.14
33.13
26.42
21.15
17.27
14.66
13.16
12.49
12.23
11.81
10.76
8.76
5.79
2.06
-2.14
-6.55
-11.07
-15.69
-20.54
-25.81
-31.72
-38.46
-45.89
-53.37
-59.69
-63.25
-62.52
-56.5
-45.12
-29.27
-10.54
9.22
28.26
45.17
58.89
68.67
74.09
75.09
72.07
65.83
57.5
48.25
39.12
30.83
23.8
18.14
13.83
10.71
8.52
6.93
5.5
3.79
1.45
-1.73
-5.74
-10.4
-15.44
-20.6
-25.72
-30.88
-36.3
-42.37
-49.43
-57.5
-66.17
-74.42
-80.78
-83.62
-81.54
-73.82
-60.56
-42.76
-22.07
-0.4
20.36
38.64
53.35
63.85
69.93
71.79
69.96
65.19
58.4
50.53
42.38
34.61
27.65
21.78
17.12
13.68
11.36
9.94
9.05
8.24
7.01
4.93
1.74
-2.53
-7.66
-13.21
-18.75
-23.99
-28.9
-33.74
-38.96
-45.06
-52.3
-60.53
-69.02
-76.47
-81.19
-81.48
-76.08
-64.59
-47.62
-26.69
-3.86
18.77
39.42
56.89
70.43
79.7
84.63
85.36
82.35
76.34
68.37
59.51
50.75
42.75
35.8
29.88
24.85
20.54
16.9
13.91
11.55
9.67
7.92
5.84
2.97
-0.99
-6.1
-12.09
-18.54
-25.01
-31.17
-36.92
-42.4
-47.9
-53.79
-60.39
-67.79
-75.74
-83.49
-89.75
-92.87
-91.2
-83.61
-69.88
-50.9
-28.44
-4.75
18.01
38.14
54.54
66.65
74.28
77.46
76.48
71.9
64.63
55.84
46.71
38.23
31.02
25.27
20.82
17.38
14.67
12.53
10.86
9.58
8.48
7.22
5.33
2.39
-1.8
-7.13
-13.18
-19.41
-25.33
-30.73
-35.67
-40.48
-45.55
-51.21
-57.52
-64.19
-70.39
-74.83
-75.98
-72.43
-63.38
-48.95
-30.21
-8.91
12.95
33.5
51.24
65.1
74.4
78.89
78.76
74.65
67.58
58.77
49.43
40.54
32.85
26.73
22.31
19.43
17.82
17.08
16.79
16.55
15.96
14.66
12.38
9.05
4.81
-0
-5
-9.93
-14.81
-19.95
-25.83
-32.85
-41.09
-50.1
-58.84
-65.76
-69.14
-67.45
-59.88
-46.56
-28.63
-7.98
13.22
32.98
49.82
62.82
71.53
75.86
75.98
72.3
65.52
56.61
46.64
36.65
27.48
19.63
13.33
8.55
5.12
2.76
1.1
-0.32
-1.98
-4.33
-7.65
-12
-17.17
-22.83
-28.6
-34.25
-39.78
-45.45
-51.66
-58.82
-67.02
-75.85
-84.24
-90.55
-92.96
-89.86
-80.41
-64.78
-44.2
-20.64
3.66
26.58
46.48
62.31
73.55
80.15
82.42
80.96
76.58
70.2
62.73
54.95
47.42
40.54
34.51
29.47
25.46
22.45
20.22
18.44
16.65
14.4
11.34
7.3
2.33
-3.39
-9.58
-15.93
-22.22
-28.36
-34.49
-40.95
-48.21
-56.56
-65.88
-75.32
-83.3
-87.86
-87.19
-80.19
-66.89
-48.46
-26.82
-4.15
17.64
37.11
53.35
65.83
74.24
78.44
78.55
75.01
68.62
60.44
51.64
43.19
35.7
29.37
24.04
19.41
15.28
11.6
8.46
5.93
3.87
1.88
-0.57
-3.97
-8.49
-13.95
-19.9
-25.85
-31.41
-36.46
-41.11
-45.66
-50.47
-55.92
-62.26
-69.52
-77.25
-84.45
-89.56
-90.78
-86.56
-76.1
-59.67
-38.56
-14.79
9.43
32.1
51.72
67.3
78.28
84.48
86.03
83.48
77.71
69.89
61.19
52.66
44.98
38.45
33.09
28.81
25.48
23.05
21.42
20.38
19.54
18.35
16.26
12.91
8.32
2.86
-2.9
-8.4
-13.37
-17.88
-22.27
-27.02
-32.56
-39.14
-46.71
-54.8
-62.42
-68.1
-70.11
-66.93
-57.77
-42.86
-23.55
-1.86
20
40.18
57.37
70.81
80.03
84.81
85.16
81.45
74.52
65.58
56
46.92
39.02
32.46
27.06
22.54
18.74
15.63
13.18
11.18
9.19
6.63
3.02
-1.84
-7.75
-14.25
-20.78
-26.94
-32.6
-37.93
-43.3
-49.17
-55.96
-63.84
-72.54
-81.21
-88.4
-92.35
-91.33
-84.22
-70.85
-52.12
-29.8
-6.06
17.01
37.81
55.29
68.9
78.37
83.62
84.75
82.08
76.28
68.37
59.53
50.85
43.1
36.57
31.13
26.39
21.98
17.73
13.7
10.12
7.18
4.81
2.68
0.23
-3.09
-7.65
-13.43
-20.08
-27.07
-33.86
-40.13
-45.82
-51.14
-56.49
-62.34
-69.1
-76.99
-85.79
-94.65
-102.11
-106.31
-105.43
-98.35
-84.98
-66.4
-44.5
-21.5
0.61
20.44
37.18
50.54
60.52
67.24
70.91
71.8
70.33
67.03
62.57
57.66
53.02
49.19
46.48
44.87
44.04
43.46
42.55
40.86
38.15
34.39
29.66
24.06
17.63
10.36
2.2
-6.8
-16.47
-26.53
-36.59
-46.25
-55.11
-62.88
-69.43
-74.9
-79.62
-84.11
-88.9
-94.35
-100.44
-106.57
-111.62
-114.08
-112.43
-105.61
-93.39
-76.51
-56.5
-35.21
-14.35
4.96
22.15
37.07
49.56
59.33
65.92
69
68.65
65.46
60.48
54.92
49.8
45.72
42.8
40.85
39.53
38.63
38.11
38.04
38.52
39.5
40.68
41.54
41.42
39.72
36.15
30.9
24.58
18.07
12.14
7.22
3.3
-0.03
-3.31
-7.08
-11.72
-17.37
-23.88
-30.73
-36.94
-41.13
-41.72
-37.39
-27.5
-12.35
6.73
27.75
48.43
66.69
80.91
90.02
93.53
91.39
84.03
72.28
57.39
40.81
24.02
8.3
-5.45
-16.81
-25.7
-32.26
-36.71
-39.26
-40.12
-39.56
-37.98
-35.84
-33.66
-31.88
-30.86
-30.79
-31.62
-33.16
-35.08
-37.04
-38.8
-40.36
-41.94
-43.94
-46.77
-50.69
-55.64
-61.09
-66.08
-69.25
-69.13
-64.5
-54.73
-40.07
-21.56
-0.87
20.17
39.9
57.12
71.1
81.48
88.12
91.04
90.51
86.99
81.24
74.17
66.7
59.6
53.37
48.27
44.3
41.31
39.02
37.11
35.27
33.32
31.15
28.76
26.16
23.25
19.88
15.82
10.95
5.32
-0.85
-7.2
-13.4
-19.21
-24.52
-29.37
-33.89
-38.31
-42.99
-48.3
-54.5
-61.42
-68.32
-73.86
-76.39
-74.38
-66.94
-54.09
-36.84
-16.89
3.81
23.42
40.52
54.2
64.07
70.1
72.57
71.93
68.79
63.79
57.63
50.99
44.51
38.72
33.96
30.37
27.88
26.29
25.33
24.72
24.19
23.47
22.32
20.55
18.04
14.79
10.87
6.42
1.57
-3.59
-8.92
-14.26
-19.4
-24.16
-28.48
-32.46
-36.41
-40.71
-45.73
-51.66
-58.38
-65.38
-71.66
-75.9
-76.63
-72.67
-63.5
-49.49
-31.83
-12.29
7.29
25.3
40.59
52.44
60.43
64.42
64.53
61.21
55.28
47.87
40.14
33.07
27.23
22.75
19.4
16.79
14.62
12.76
11.31
10.37
9.92
9.66
9.07
7.58
4.8
0.71
-4.34
-9.77
-15.04
-19.84
-24.16
-28.21
-32.32
-36.78
-41.79
-47.45
-53.67
-60
-65.57
-69.16
-69.44
-65.35
-56.55
-43.47
-27.33
-9.73
7.71
23.6
36.84
46.66
52.54
54.25
51.99
46.39
38.53
29.67
21.06
13.62
7.85
3.82
1.27
-0.18
-0.9
-1.22
-1.39
-1.66
-2.3
-3.57
-5.64
-8.56
-12.18
-16.28
-20.62
-25.05
-29.59
-34.35
-39.6
-45.55
-52.32
-59.71
-67.11
-73.4
-77.12
-76.76
-71.25
-60.26
-44.46
-25.29
-4.64
15.53
33.58
48.34
59.1
65.59
67.86
66.27
61.5
54.49
46.31
38.02
30.47
24.16
19.25
15.63
13.04
11.23
9.93
8.91
7.87
6.44
4.3
1.23
-2.8
-7.55
-12.69
-17.84
-22.82
-27.67
-32.72
-38.44
-45.3
-53.43
-62.45
-71.3
-78.38
-81.85
-80.16
-72.47
-58.98
-40.82
-19.79
2.12
23.12
41.84
57.36
69.15
76.91
80.61
80.47
77.08
71.31
64.23
56.88
50.02
44.07
39.04
34.7
30.83
27.32
24.23
21.72
19.84
18.42
17.07
15.23
12.42
8.36
3.11
-2.95
-9.3
-15.41
-21.01
-26.1
-31.04
-36.39
-42.71
-50.34
-59.18
-68.54
-77.14
-83.29
-85.25
-81.62
-71.8
-56.19
-36.17
-13.74
8.88
29.72
47.4
61.19
70.87
76.62
78.78
77.82
74.31
68.95
62.52
55.79
49.45
43.98
39.6
36.31
33.99
32.43
31.4
30.61
29.74
28.47
26.54
23.91
20.65
16.95
12.91
8.55
3.71
-1.72
-7.71
-14.02
-20.24
-26
-31.1
-35.66
-39.96
-44.45
-49.51
-55.4
-62.19
-69.61
-76.95
-82.96
-86.07
-84.65
-77.63
-64.83
-47.15
-26.34
-4.5
16.44
35.06
50.53
62.45
70.66
75.15
76.06
73.8
69.02
62.59
55.44
48.43
42.23
37.27
33.7
31.41
30.06
29.21
28.42
27.34
25.83
23.89
21.57
18.91
15.86
12.32
8.24
3.59
-1.51
-6.9
-12.4
-17.85
-23.15
-28.29
-33.31
-38.35
-43.59
-49.21
-55.34
-61.89
-68.42
-74.06
-77.54
-77.46
-72.69
-62.77
-48.12
-30.02
-10.27
9.23
26.89
41.57
52.59
59.62
62.52
61.43
56.84
49.64
41.05
32.4
24.82
18.96
14.93
12.42
10.89
9.92
9.23
8.71
8.25
7.68
6.68
4.92
2.18
-1.57
-6.14
-11.18
-16.3
-21.23
-25.89
-30.4
-35.05
-40.21
-46.15
-52.91
-60.1
-66.84
-71.86
-73.72
-71.2
-63.67
-51.28
-34.97
-16.27
3.05
21.34
37.29
49.95
58.76
63.41
63.96
60.8
54.78
47.04
38.83
31.22
24.86
19.94
16.26
13.5
11.32
9.58
8.19
7.05
5.96
4.52
2.34
-0.9
-5.28
-10.52
-16.18
-21.74
-26.86
-31.48
-35.81
-40.31
-45.44
-51.6
-58.88
-66.91
-74.75
-80.89
-83.57
-81.19
-72.89
-58.86
-40.37
-19.38
1.99
21.95
39.29
53.33
63.74
70.38
73.25
72.59
68.92
63.06
56.04
48.8
42.07
36.23
31.34
27.3
23.91
21.08
18.75
16.9
15.39
13.95
12.2
9.7
6.19
1.63
-3.72
-9.41
-14.97
-20.08
-24.71
-29.09
-33.66
-38.93
-45.3
-52.89
-61.37
-69.83
-76.87
-80.81
-80.16
-74.05
-62.44
-46.24
-26.98
-6.44
13.68
32.07
47.79
60.25
69.07
74.15
75.59
73.82
69.5
63.51
56.78
50.12
44.12
39.13
35.24
32.39
30.41
29.1
28.16
27.28
26.15
24.55
22.41
19.75
16.64
13.06
8.95
4.17
-1.29
-7.3
-13.53
-19.61
-25.26
-30.43
-35.3
-40.22
-45.6
-51.75
-58.79
-66.49
-74.15
-80.59
-84.31
-83.79
-78
-66.69
-50.54
-31
-9.9
10.94
30.01
46.23
58.92
67.71
72.52
73.53
71.21
66.26
59.59
52.13
44.75
38.09
32.51
28.11
24.78
22.25
20.26
18.55
16.92
15.21
13.31
11.09
8.44
5.26
1.45
-3
-8
-13.34
-18.74
-23.91
-28.71
-33.16
-37.48
-42
-47.03
-52.69
-58.82
-64.94
-70.19
-73.48
-73.59
-69.49
-60.63
-47.13
-29.89
-10.43
9.48
28.12
44.12
56.57
65.02
69.34
69.72
66.6
60.74
53.12
44.87
37.06
30.49
25.51
22.05
19.72
17.99
16.46
14.91
13.3
11.65
9.87
7.71
4.87
1.1
-3.63
-9.06
-14.75
-20.26
-25.36
-30.06
-34.67
-39.61
-45.3
-52.01
-59.68
-67.79
-75.31
-80.75
-82.46
-79.09
-69.98
-55.45
-36.75
-15.75
5.54
25.35
42.43
56.06
65.9
71.9
74.2
73.13
69.26
63.38
56.36
49.08
42.2
36.15
31.11
27.11
24.05
21.79
20.12
18.76
17.39
15.74
13.62
10.97
7.81
4.18
0.09
-4.45
-9.42
-14.71
-20.12
-25.44
-30.48
-35.19
-39.61
-43.95
-48.5
-53.58
-59.5
-66.35
-73.81
-81.03
-86.6
-88.83
-86.17
-77.75
-63.66
-45
-23.56
-1.38
19.73
38.43
53.87
65.6
73.47
77.55
78.12
75.77
71.26
65.48
59.24
53.14
47.52
42.5
38.1
34.36
31.39
29.26
27.9
27
26.02
24.39
21.76
18.15
13.9
9.48
5.18
1.01
-3.26
-7.93
-13.13
-18.79
-24.64
-30.35
-35.71
-40.64
-45.22
-49.64
-54.14
-59.01
-64.5
-70.67
-77.24
-83.44
-88.04
-89.51
-86.44
-77.96
-64.08
-45.81
-24.88
-3.37
16.79
34.16
47.94
57.86
64
66.63
66.08
62.82
57.44
50.71
43.46
36.5
30.42
25.55
21.92
19.4
17.72
16.55
15.6
14.6
13.36
11.76
9.77
7.4
4.63
1.44
-2.24
-6.41
-10.97
-15.72
-20.36
-24.67
-28.58
-32.17
-35.66
-39.26
-43.17
-47.49
-52.25
-57.32
-62.37
-66.69
-69.29
-68.95
-64.58
-55.56
-42.03
-24.91
-5.69
13.88
32.21
48
60.35
68.71
72.83
72.84
69.26
63
55.26
47.25
39.97
33.98
29.4
26.03
23.51
21.51
19.78
18.19
16.67
15.13
13.46
11.41
8.73
5.21
0.76
-4.48
-10.19
-15.98
-21.53
-26.71
-31.62
-36.6
-42.01
-48.19
-55.16
-62.6
-69.68
-75.15
-77.5
-75.39
-67.97
-55.27
-38.19
-18.36
2.33
22.06
39.47
53.63
64.04
70.48
72.98
71.79
67.45
60.81
52.94
44.88
37.51
31.32
26.42
22.64
19.68
17.26
15.2
13.39
11.77
10.19
8.45
6.26
3.36
-0.41
-5.06
-10.46
-16.33
-22.37
-28.33
-34.02
-39.4
-44.55
-49.65
-54.94
-60.74
-67.29
-74.66
-82.51
-89.97
-95.66
-97.89
-95.15
-86.5
-71.98
-52.57
-30.03
-6.35
16.62
37.44
55.15
69.13
79.01
84.61
86.02
83.72
78.49
71.34
63.32
55.3
47.96
41.67
36.62
32.82
30.11
28.22
26.8
25.52
24.09
22.35
20.21
17.57
14.31
10.3
5.44
-0.23
-6.5
-13.05
-19.54
-25.71
-31.5
-37
-42.47
-48.18
-54.39
-61.25
-68.73
-76.5
-83.85
-89.6
-92.27
-90.32
-82.66
-69.03
-50.23
-27.97
-4.43
18.23
38.37
54.97
67.57
76.02
80.35
80.7
77.48
71.41
63.51
54.9
46.59
39.25
33.15
28.23
24.28
21.04
18.33
15.99
13.83
11.64
9.19
6.31
2.9
-1.03
-5.41
-10.17
-15.22
-20.53
-26.01
-31.56
-37.02
-42.26
-47.18
-51.82
-56.36
-61.04
-66.17
-71.88
-77.96
-83.72
-87.9
-88.87
-85.07
-75.43
-59.89
-39.48
-16.07
8.05
30.77
50.48
66.18
77.35
83.82
85.68
83.33
77.53
69.39
60.22
51.26
43.41
37.12
32.42
29.04
26.67
25.01
23.87
23.08
22.41
21.55
20.1
17.69
14.11
9.38
3.76
-2.34
-8.47
-14.31
-19.76
-24.95
-30.16
-35.8
-42.16
-49.34
-57.01
-64.35
-70.11
-72.76
-70.92
-63.75
-51.19
-34.06
-13.93
7.27
27.65
45.61
60.04
70.26
75.99
77.33
74.69
68.85
60.88
51.98
43.27
35.54
29.17
24.19
20.41
17.61
15.62
14.3
13.39
12.43
10.85
8.16
4.11
-1.18
-7.24
-13.49
-19.47
-25.01
-30.3
-35.77
-41.94
-49.17
-57.44
-66.24
-74.42
-80.44
-82.57
-79.41
-70.25
-55.34
-35.79
-13.37
9.96
32.32
52.18
68.37
80.14
87.08
89.19
86.89
81.05
72.88
63.67
54.62
46.49
39.56
33.72
28.65
24.08
19.97
16.46
13.68
11.58
9.78
7.68
4.65
0.32
-5.27
-11.73
-18.46
-24.96
-30.99
-36.64
-42.21
-48.13
-54.76
-62.35
-70.83
-79.7
-87.91
-93.85
-95.65
-91.65
-80.94
-63.72
-41.36
-16.04
9.76
33.86
54.73
71.51
83.85
91.71
95.2
94.66
90.63
83.99
75.77
67.05
58.7
51.26
44.92
39.65
35.35
31.89
29.21
27.12
25.37
23.58
21.38
18.51
14.85
10.43
5.32
-0.4
-6.67
-13.39
-20.37
-27.3
-33.84
-39.76
-45.04
-49.88
-54.69
-59.93
-66.02
-73.15
-81.18
-89.44
-96.69
-101.2
-101.13
-94.96
-82.1
-63.12
-39.65
-13.98
11.58
35.17
55.59
72.2
84.66
92.76
96.43
95.82
91.5
84.47
76
67.3
59.33
52.61
47.26
43.15
40.06
37.76
36.02
34.61
33.26
31.68
29.65
27.03
23.73
19.76
15.12
9.86
4.12
-1.9
-7.94
-13.72
-19.07
-24
-28.66
-33.31
-38.2
-43.41
-48.86
-54.33
-59.52
-64.23
-68.37
-72.05
-75.49
-79
-82.92
-87.59
-93.19
-99.57
-106.03
-111.19
-113.19
-110.08
-100.45
-83.91
-61.38
-34.83
-6.82
20.15
44.11
63.84
78.8
88.88
94.22
95.17
92.31
86.46
78.68
70.15
61.95
54.89
49.36
45.36
42.61
40.69
39.24
38.01
36.87
35.72
34.4
32.66
30.25
26.96
22.74
17.74
12.27
6.63
1.06
-4.35
-9.63
-14.88
-20.12
-25.36
-30.55
-35.73
-41.02
-46.58
-52.45
-58.31
-63.34
-66.22
-65.5
-59.97
-49.16
-33.56
-14.53
6.07
26.3
44.56
59.67
70.91
77.87
80.42
78.76
73.48
65.55
56.25
46.94
38.75
32.39
27.99
25.23
23.52
22.24
20.92
19.32
17.37
15.1
12.49
9.46
5.82
1.37
-3.99
-10.18
-16.89
-23.71
-30.17
-36.03
-41.32
-46.33
-51.57
-57.51
-64.45
-72.35
-80.7
-88.43
-93.99
-95.59
-91.58
-81.02
-64.04
-41.9
-16.79
8.74
32.4
52.54
68.29
79.43
86.08
88.58
87.34
82.93
76.1
67.83
59.11
50.85
43.62
37.64
32.88
29.14
26.27
24.13
22.57
21.3
19.92
17.99
15.17
11.36
6.7
1.44
-4.2
-10.07
-16.18
-22.5
-28.94
-35.3
-41.34
-46.87
-51.86
-56.49
-61.1
-66.09
-71.88
-78.62
-86.06
-93.32
-98.89
-100.88
-97.49
-87.61
-71.2
-49.47
-24.5
1.28
25.68
47.16
64.82
78.33
87.6
92.73
93.94
91.66
86.61
79.72
71.98
64.29
57.28
51.29
46.41
42.6
39.77
37.81
36.53
35.68
34.9
33.8
32.03
29.41
25.92
21.69
16.93
11.87
6.67
1.44
-3.76
-8.9
-13.97
-18.99
-23.98
-28.95
-33.92
-38.85
-43.69
-48.35
-52.71
-56.7
-60.29
-63.57
-66.76
-70.22
-74.36
-79.54
-85.85
-92.89
-99.67
-104.53
-105.54
-100.96
-89.79
-72.19
-49.51
-23.88
2.27
26.82
48.25
65.68
78.74
87.33
91.57
91.74
88.39
82.32
74.55
66.1
57.84
50.38
43.97
38.65
34.34
30.96
28.47
26.82
25.86
25.27
24.56
23.18
20.7
17.01
12.34
7.19
2.09
-2.55
-6.69
-10.55
-14.5
-18.86
-23.72
-28.88
-33.99
-38.64
-42.63
-45.95
-48.89
-51.83
-55.22
-59.43
-64.6
-70.51
-76.4
-80.98
-82.61
-79.71
-71.24
-57.1
-38.29
-16.56
5.96
27.33
46.12
61.41
72.66
79.59
82.1
80.4
75.12
67.36
58.46
49.72
42.13
36.2
31.99
29.21
27.44
26.29
25.46
24.73
23.94
22.9
21.43
19.32
16.37
12.44
7.58
1.99
-3.99
-10
-15.75
-21.11
-26.15
-31.03
-35.98
-41.28
-47.16
-53.78
-61
-68.16
-74.03
-76.98
-75.4
-68.23
-55.34
-37.7
-17.04
4.61
25.34
43.71
58.76
69.9
76.81
79.39
77.87
72.87
65.4
56.63
47.72
39.51
32.52
26.87
22.53
19.35
17.16
15.74
14.78
13.89
12.69
10.9
8.41
5.2
1.32
-3.2
-8.29
-13.88
-19.76
-25.72
-31.51
-36.99
-42.13
-47
-51.79
-56.78
-62.37
-68.89
-76.43
-84.51
-91.96
-97.01
-97.71
-92.49
-80.68
-62.8
-40.39
-15.69
8.97
31.6
50.83
65.91
76.61
83.03
85.46
84.37
80.38
74.29
66.98
59.32
52.01
45.46
39.86
35.21
31.45
28.48
26.2
24.48
23.07
21.65
19.84
17.35
14.04
9.95
5.24
0.13
-5.23
-10.77
-16.47
-22.27
-28.02
-33.53
-38.62
-43.27
-47.65
-52.1
-57
-62.66
-69.19
-76.36
-83.5
-89.42
-92.57
-91.28
-84.28
-71.17
-52.57
-30.14
-6.11
17.29
38.29
55.78
69.31
78.83
84.46
86.41
85.02
80.83
74.61
67.29
59.77
52.75
46.61
41.48
37.31
34.03
31.56
29.78
28.49
27.34
25.88
23.7
20.54
16.42
11.59
6.4
1.2
-3.85
-8.81
-13.88
-19.31
-25.2
-31.42
-37.7
-43.63
-48.92
-53.42
-57.28
-60.85
-64.6
-69.01
-74.37
-80.59
-87.07
-92.65
-95.77
-94.76
-88.32
-75.94
-58.12
-36.3
-12.56
10.91
32.23
50.09
63.81
73.24
78.51
79.98
78.1
73.51
66.99
59.45
51.81
44.82
38.97
34.39
30.95
28.42
26.57
25.28
24.44
23.88
23.28
22.19
20.27
17.36
13.58
9.3
4.89
0.63
-3.46
-7.5
-11.68
-16.1
-20.69
-25.28
-29.67
-33.77
-37.6
-41.36
-45.34
-49.8
-54.81
-60.05
-64.67
-67.32
-66.5
-60.97
-50.21
-34.68
-15.76
4.64
24.56
42.35
56.91
67.59
74.15
76.56
75.08
70.26
62.97
54.39
45.68
37.86
31.55
26.9
23.74
21.66
20.26
19.19
18.18
16.99
15.44
13.34
10.56
6.97
2.51
-2.81
-8.84
-15.29
-21.77
-27.91
-33.47
-38.44
-43.04
-47.68
-52.77
-58.64
-65.33
-72.5
-79.3
-84.41
-86.25
-83.37
-74.89
-60.87
-42.34
-21.08
0.85
21.59
39.77
54.59
65.7
72.99
76.55
76.66
73.77
68.55
61.8
54.35
46.96
40.24
34.56
30.11
26.88
24.67
23.22
22.12
20.99
19.5
17.42
14.64
11.22
7.25
2.89
-1.72
-6.52
-11.5
-16.68
-22.1
-27.71
-33.35
-38.84
-43.97
-48.66
-53.01
-57.31
-62.03
-67.63
-74.3
-81.73
-88.89
-94.16
-95.62
-91.59
-81.21
-64.75
-43.68
-20.2
3.32
24.88
43.23
57.84
68.65
75.85
79.67
80.37
78.29
73.99
68.22
61.81
55.53
49.91
45.21
41.38
38.28
35.73
33.68
32.17
31.21
30.63
30.09
29.05
26.99
23.65
19.11
13.78
8.23
2.93
-1.86
-6.21
-10.39
-14.77
-19.65
-25.13
-31.06
-37.1
-42.82
-47.85
-52.07
-55.6
-58.83
-62.26
-66.42
-71.7
-78.16
-85.42
-92.49
-97.84
-99.64
-96.27
-86.8
-71.37
-51.22
-28.33
-4.87
17.28
36.78
52.87
65.15
73.48
77.89
78.61
76.18
71.36
65.08
58.27
51.69
45.83
40.9
36.94
33.85
31.54
29.9
28.78
27.94
27
25.57
23.32
20.17
16.27
11.97
7.61
3.4
-0.66
-4.72
-8.97
-13.51
-18.3
-23.14
-27.83
-32.2
-36.16
-39.76
-43.19
-46.72
-50.68
-55.31
-60.54
-65.85
-70.16
-72.03
-69.99
-63.03
-50.95
-34.47
-15.09
5.36
25.09
42.66
57.07
67.73
74.29
76.7
75.19
70.37
63.24
55.08
47.16
40.4
35.26
31.6
28.98
26.85
24.87
22.95
21.2
19.69
18.37
16.95
15.03
12.25
8.42
3.57
-2.06
-8.1
-14.19
-20.02
-25.46
-30.55
-35.53
-40.71
-46.43
-52.9
-60.04
-67.36
-73.89
-78.23
-78.83
-74.4
-64.33
-48.99
-29.75
-8.6
12.34
31.3
47.18
59.51
68.2
73.35
75.08
73.56
69.19
62.67
54.94
47.05
39.87
33.96
29.48
26.24
23.9
22.07
20.45
18.85
17.19
15.37
13.26
10.67
7.38
3.21
-1.84
-7.6
-13.73
-19.85
-25.66
-31.06
-36.13
-41.1
-46.21
-51.73
-57.82
-64.61
-72
-79.59
-86.46
-91.21
-92.21
-87.98
-77.75
-61.75
-41.24
-18.25
5.01
26.59
45.16
60.02
70.95
77.95
81.15
80.79
77.38
71.68
64.68
57.42
50.73
45.05
40.43
36.67
33.49
30.75
28.41
26.47
24.81
23.19
21.26
18.71
15.37
11.26
6.5
1.26
-4.33
-10.13
-16.01
-21.78
-27.3
-32.49
-37.45
-42.41
-47.69
-53.58
-60.24
-67.57
-75.07
-81.82
-86.42
-87.3
-83.07
-73.05
-57.53
-37.87
-16.09
5.61
25.47
42.36
55.73
65.42
71.42
73.86
72.95
69.1
62.96
55.42
47.45
39.91
33.4
28.15
24.13
21.13
18.77
16.72
14.81
12.94
10.96
8.7
5.87
2.37
-1.84
-6.69
-12.06
-17.57
-22.91
-28.01
-32.97
-38.1
-43.31
-48.42
-53.32
-58.07
-62.44
-66.43
-70.38
-74.7
-79.67
-84.16
-86.33
-84.35
-76.9
-62.96
-42.9
-18.73
6.47
29.11
47.54
61.4
71.1
77.68
83.32
90
98.64
108.98
119.37
129.15
137.67
144.1
141.18
124.83
96.82
64.43
39.64
23.17
13.13
7.36
2.66
-2.71
-8.71
-14.87
-21.01
-27.53
-35.58
-44.75
-54.12
-62.85
-70.28
-75.45
-78.12
-78.9
-79
-79.77
-80.6
-79.87
-75.89
-67.44
-53.98
-36.26
-16.18
3.71
20.79
33.83
42.49
46.82
47.2
44.37
39.18
32.59
25.45
18.43
12.29
7.51
4.22
2.22
1.31
1.24
1.84
2.96
4.37
5.95
7.44
8.49
8.64
7.5
4.83
0.64
-4.77
-10.93
-17.25
-23.25
-28.61
-33.29
-37.58
-41.96
-47.05
-53.3
-60.71
-68.68
-75.9
-80.68
-81.3
-76.64
-66.49
-51.62
-33.57
-14.13
5.06
22.83
38.45
51.54
61.82
69.11
73.28
74.4
72.83
69.21
64.37
59.13
54.1
49.58
45.62
42.1
38.9
36.01
33.5
31.41
29.67
28.02
26.12
23.58
20.13
15.72
10.45
4.59
-1.56
-7.71
-13.64
-19.21
-24.41
-29.33
-34.16
-39.19
-44.74
-51.05
-58.13
-65.55
-72.29
-76.9
-77.77
-73.67
-64.1
-49.58
-31.45
-11.52
8.41
26.9
43.03
56.28
66.4
73.22
76.74
77.13
74.85
70.6
65.2
59.4
53.79
48.67
44.18
40.36
37.22
34.73
32.86
31.48
30.38
29.28
27.87
25.83
22.96
19.23
14.86
10.15
5.46
0.97
-3.4
-7.9
-12.79
-18.16
-23.81
-29.34
-34.35
-38.66
-42.35
-45.83
-49.57
-54.04
-59.53
-66.06
-73.2
-80.09
-85.38
-87.46
-84.89
-76.82
-63.3
-45.42
-24.96
-3.94
15.84
33.12
47.19
57.78
64.84
68.45
68.9
66.64
62.38
56.92
51.06
45.4
40.34
36.06
32.59
29.87
27.82
26.26
24.96
23.68
22.18
20.35
18.14
15.6
12.76
9.58
5.98
1.89
-2.68
-7.6
-12.68
-17.67
-22.4
-26.79
-30.91
-34.87
-38.91
-43.27
-48.18
-53.67
-59.44
-64.74
-68.4
-69.03
-65.46
-57.09
-44.17
-27.79
-9.58
8.66
25.35
39.39
50.16
57.41
61.15
61.56
58.99
54.03
47.45
40.21
33.2
27.16
22.5
19.3
17.35
16.29
15.68
15.13
14.39
13.32
11.91
10.15
7.99
5.29
1.89
-2.34
-7.37
-12.94
-18.67
-24.15
-29.15
-33.63
-37.84
-42.14
-46.96
-52.6
-59.19
-66.58
-74.23
-81.2
-86.23
-87.92
-85.1
-77.17
-64.27
-47.43
-28.17
-8.26
10.73
27.63
41.74
52.75
60.55
65.18
66.77
65.64
62.3
57.45
51.86
46.24
41.13
36.82
33.41
30.79
28.81
27.27
25.95
24.62
23.09
21.21
18.9
16.18
13.11
9.78
6.21
2.39
-1.75
-6.27
-11.15
-16.26
-21.41
-26.38
-31
-35.3
-39.43
-43.74
-48.61
-54.33
-60.88
-67.72
-73.76
-77.49
-77.37
-72.26
-61.83
-46.71
-28.32
-8.5
11
28.76
43.9
55.93
64.64
69.97
72.04
71.14
67.83
62.81
56.83
50.55
44.41
38.68
33.54
29.11
25.54
22.87
21.02
19.73
18.63
17.35
15.63
13.39
10.73
7.89
5.11
2.54
0.14
-2.35
-5.3
-9
-13.56
-18.76
-24.17
-29.33
-33.95
-38.02
-41.81
-45.76
-50.29
-55.69
-61.97
-68.8
-75.4
-80.55
-82.76
-80.64
-73.3
-60.78
-44
-24.66
-4.64
14.37
31.2
45.12
55.75
62.86
66.31
66.21
63
57.5
50.79
43.94
37.75
32.63
28.58
25.38
22.73
20.43
18.42
16.7
15.32
14.25
13.32
12.22
10.58
8.03
4.39
-0.29
-5.64
-11.16
-16.38
-21.05
-25.24
-29.26
-33.52
-38.33
-43.83
-49.86
-55.98
-61.44
-65.23
-66.24
-63.46
-56.33
-44.88
-29.87
-12.61
5.35
22.5
37.57
49.64
58.06
62.54
63.05
59.96
53.94
45.99
37.23
28.7
21.17
15.03
10.29
6.73
4.04
1.96
0.34
-0.95
-2.07
-3.29
-4.91
-7.25
-10.5
-14.64
-19.45
-24.59
-29.71
-34.56
-39.08
-43.45
-48.02
-53.24
-59.5
-66.9
-74.96
-82.58
-88.12
-89.76
-86.03
-76.32
-61.04
-41.59
-19.85
2.19
22.93
41.23
56.36
67.88
75.54
79.32
79.46
76.52
71.31
64.78
57.8
51.06
44.98
39.69
35.17
31.28
27.91
24.97
22.41
20.12
17.94
15.58
12.75
9.19
4.78
-0.41
-6.15
-12.16
-18.18
-24.08
-29.82
-35.56
-41.48
-47.86
-55.01
-63.05
-71.82
-80.62
-88.15
-92.72
-92.56
-86.45
-74.1
-56.34
-34.9
-11.94
10.52
30.97
48.48
62.61
73.15
79.99
83.14
82.82
79.54
74.1
67.51
60.68
54.36
48.95
44.56
41.1
38.34
36.05
34.02
32.01
29.85
27.37
24.46
21.11
17.4
13.37
9.04
4.29
-1.06
-7.08
-13.69
-20.55
-27.2
-33.27
-38.64
-43.56
-48.57
-54.25
-61.04
-68.98
-77.54
-85.65
-91.77
-94.22
-91.52
-82.86
-68.32
-48.99
-26.69
-3.52
18.56
38.06
54.07
66.15
74.15
78.18
78.48
75.56
70.14
63.16
55.64
48.44
42.16
37.03
32.93
29.62
26.83
24.4
22.27
20.43
18.83
17.24
15.3
12.65
9.02
4.42
-0.93
-6.63
-12.31
-17.68
-22.65
-27.27
-31.73
-36.3
-41.35
-47.2
-54.01
-61.53
-68.96
-74.96
-77.88
-76.24
-69.13
-56.58
-39.51
-19.55
1.45
21.71
39.83
54.78
65.86
72.68
75.14
73.5
68.44
60.99
52.39
43.78
36.02
29.57
24.51
20.67
17.82
15.73
14.18
12.98
11.88
10.56
8.66
5.82
1.85
-3.25
-9.17
-15.44
-21.5
-26.99
-31.88
-36.48
-41.41
-47.29
-54.54
-63.05
-72.07
-80.2
-85.62
-86.53
-81.64
-70.54
-53.92
-33.32
-10.82
11.57
32.18
49.9
64.05
74.27
80.39
82.43
80.69
75.8
68.7
60.52
52.3
44.8
38.38
33.08
28.74
25.14
22.15
19.67
17.64
15.93
14.31
12.5
10.17
7.07
3.04
-1.93
-7.7
-13.99
-20.46
-26.77
-32.67
-38.08
-43.08
-47.95
-53.19
-59.33
-66.68
-75.05
-83.49
-90.37
-93.73
-91.8
-83.58
-69.13
-49.59
-26.8
-2.85
20.3
41.14
58.64
72.19
81.57
86.83
88.24
86.31
81.74
75.32
67.91
60.33
53.19
46.92
41.71
37.59
34.44
32.06
30.21
28.57
26.83
24.71
22.03
18.75
14.93
10.68
6.09
1.18
-4.09
-9.71
-15.57
-21.46
-27.14
-32.46
-37.44
-42.28
-47.32
-52.89
-59.21
-66.35
-74.09
-81.83
-88.52
-92.72
-92.83
-87.54
-76.25
-59.37
-38.3
-15.06
8.2
29.61
47.9
62.35
72.69
78.94
81.31
80.22
76.33
70.46
63.49
56.24
49.28
42.94
37.35
32.57
28.64
25.65
23.62
22.42
21.76
21.19
20.23
18.49
15.81
12.23
7.91
3.1
-2.03
-7.37
-12.86
-18.45
-24.08
-29.69
-35.15
-40.34
-45.15
-49.62
-53.93
-58.44
-63.56
-69.47
-75.82
-81.6
-85.21
-84.88
-79.21
-67.7
-50.92
-30.39
-8.12
13.87
33.93
50.92
64.1
73.09
77.7
78.05
74.6
68.24
60.12
51.5
43.49
36.74
31.5
27.59
24.62
22.23
20.17
18.39
16.92
15.73
14.63
13.22
11.08
7.84
3.42
-1.95
-7.82
-13.68
-19.17
-24.21
-28.99
-33.84
-39.14
-45.18
-52.08
-59.64
-67.23
-73.71
-77.56
-77.19
-71.38
-59.78
-43.06
-22.83
-1.22
19.68
38.18
53.23
64.29
71.22
74.06
73.1
68.87
62.2
54.11
45.67
37.79
31.04
25.65
21.57
18.57
16.35
14.61
13.09
11.57
9.89
7.93
5.59
2.71
-0.84
-5.16
-10.22
-15.81
-21.6
-27.2
-32.36
-37.04
-41.35
-45.58
-50.06
-55.15
-61.16
-68.23
-76.14
-84.12
-90.79
-94.37
-93.1
-85.81
-72.32
-53.55
-31.27
-7.63
15.34
36.07
53.56
67.25
76.88
82.4
83.94
81.94
77.14
70.52
63.12
55.83
49.28
43.7
39.08
35.27
32.11
29.5
27.38
25.64
24.09
22.46
20.47
17.91
14.69
10.89
6.58
1.84
-3.32
-8.89
-14.81
-20.95
-27.05
-32.86
-38.21
-43.12
-47.78
-52.56
-57.9
-64.13
-71.28
-78.81
-85.52
-89.74
-89.66
-83.91
-72.03
-54.69
-33.51
-10.58
12.03
32.68
50.29
64.2
74.1
79.89
81.7
80.03
75.65
69.53
62.62
55.7
49.24
43.46
38.46
34.29
31.03
28.75
27.41
26.78
26.44
25.83
24.42
21.9
18.28
13.87
9.17
4.6
0.35
-3.72
-7.94
-12.65
-17.98
-23.78
-29.73
-35.45
-40.69
-45.39
-49.72
-53.95
-58.44
-63.53
-69.42
-75.99
-82.6
-88.04
-90.67
-88.81
-81.26
-67.8
-49.27
-27.43
-4.45
17.63
37.21
53.25
65.19
72.78
76.03
75.24
71.01
64.3
56.22
47.92
40.29
33.91
28.96
25.3
22.66
20.75
19.38
18.51
18.06
17.92
17.73
17.03
15.34
12.37
8.15
2.99
-2.57
-8.03
-13.04
-17.52
-21.62
-25.67
-30.08
-35.2
-41.23
-48.07
-55.22
-61.75
-66.35
-67.61
-64.36
-55.99
-42.72
-25.56
-6.11
13.79
32.45
48.56
61.28
70.12
74.9
75.63
72.63
66.5
58.22
48.95
39.86
31.89
25.5
20.7
17.15
14.39
12.09
10.08
8.35
6.86
5.4
3.63
1.11
-2.44
-7.07
-12.5
-18.32
-24.11
-29.54
-34.52
-39.1
-43.51
-48.1
-53.35
-59.66
-67.17
-75.42
-83.26
-88.88
-90.32
-86.03
-75.44
-59.11
-38.64
-16.08
6.51
27.48
45.72
60.56
71.63
78.7
81.76
80.98
76.85
70.18
62
53.42
45.41
38.59
33.2
29.1
25.97
23.43
21.19
19.11
17.1
15.11
13.05
10.78
8.13
4.89
0.92
-3.86
-9.34
-15.26
-21.25
-26.99
-32.31
-37.25
-42.09
-47.18
-52.86
-59.32
-66.55
-74.17
-81.38
-86.95
-89.31
-86.97
-78.91
-64.98
-46.08
-23.96
-0.8
21.29
40.69
56.44
68.16
75.89
79.83
80.34
77.83
72.88
66.23
58.69
51.07
43.99
37.9
32.98
29.21
26.49
24.62
23.3
22.22
20.97
19.2
16.66
13.29
9.2
4.64
-0.15
-5
-9.9
-14.9
-20.08
-25.42
-30.82
-36.13
-41.21
-46.07
-50.86
-55.93
-61.62
-68.13
-75.29
-82.37
-88.15
-91.04
-89.56
-82.67
-70.21
-52.93
-32.35
-10.39
11.03
30.33
46.36
58.5
66.5
70.44
70.64
67.64
62.12
54.86
46.71
38.48
30.9
24.5
19.56
16.06
13.74
12.22
11.11
10.13
9.14
8.02
6.66
4.87
2.49
-0.59
-4.31
-8.47
-12.78
-17.04
-21.18
-25.21
-29.23
-33.3
-37.38
-41.42
-45.47
-49.66
-54.16
-59.01
-63.83
-67.75
-69.42
-67.42
-60.7
-48.95
-32.84
-13.83
6.18
25.32
42.12
55.63
65.34
71.07
72.85
70.91
65.83
58.51
50.12
41.83
34.63
29.05
25.22
22.97
22.05
22.31
23.68
26.07
29.14
32.22
34.48
35.11
33.66
30.23
25.37
19.83
14.24
8.87
3.62
-1.89
-8.02
-15.06
-23.09
-32.03
-41.52
-50.88
-58.97
-64.38
-65.66
-61.78
-52.5
-38.52
-21.3
-2.68
15.57
32
45.63
55.87
62.38
65.07
64.08
59.9
53.33
45.42
37.24
29.68
23.31
18.33
14.67
12.04
10.12
8.6
7.21
5.79
4.27
2.6
0.7
-1.57
-4.47
-8.2
-12.86
-18.32
-24.23
-30.16
-35.76
-40.86
-45.54
-50.09
-54.85
-60.19
-66.34
-73.3
-80.64
-87.44
-92.26
-93.45
-89.56
-79.83
-64.51
-44.85
-22.74
-0.23
20.92
39.52
54.88
66.68
74.75
79.05
79.68
77.03
71.81
64.96
57.47
50.15
43.58
38.02
33.53
30.07
27.56
25.84
24.65
23.62
22.34
20.47
17.82
14.4
10.29
5.64
0.54
-4.98
-10.88
-17.07
-23.44
-29.8
-36.02
-42.02
-47.87
-53.73
-59.82
-66.37
-73.52
-81.23
-89.1
-96.26
-101.46
-103.2
-100.16
-91.64
-77.83
-59.83
-39.38
-18.43
1.24
18.32
32
41.85
47.78
49.9
48.63
44.67
39.01
32.84
27.35
23.56
22.16
23.41
27.22
33.19
40.79
49.36
58.19
66.48
73.4
78.14
80.14
79.22
75.64
70.04
63.26
56.04
48.8
41.56
33.9
25.19
14.88
2.72
-11.01
-25.55
-39.9
-53.07
-64.41
-73.73
-81.29
-87.68
-93.61
-99.68
-106.09
-112.44
-117.58
-119.83
-117.35
-108.75
-93.57
-72.5
-47.14
-19.68
7.67
32.95
54.62
71.51
82.89
88.51
88.68
84.29
76.72
67.48
57.99
49.32
42.1
36.59
32.73
30.3
28.9
28.11
27.56
26.99
26.42
26.06
26.23
27.16
28.79
30.78
32.53
33.45
33.1
31.31
28.16
23.77
18.3
11.78
4.26
-4.15
-13.22
-22.63
-32.09
-41.38
-50.27
-58.34
-64.82
-68.58
-68.4
-63.36
-53.26
-38.86
-21.71
-3.87
12.65
26.25
35.93
41.26
42.24
39.27
33.04
24.55
15.09
6
-1.62
-7.1
-10.41
-11.96
-12.31
-11.87
-10.76
-8.81
-5.89
-2.06
2.3
6.59
10.18
12.62
13.76
13.73
12.85
11.4
9.49
6.94
3.39
-1.66
-8.57
-17.4
-27.76
-38.76
-49.12
-57.32
-61.9
-61.7
-56.17
-45.57
-30.98
-14.06
3.19
18.88
31.46
39.85
43.51
42.41
36.97
28.12
17.22
5.86
-4.43
-12.52
-17.9
-20.75
-21.71
-21.59
-21.03
-20.38
-19.72
-19.03
-18.43
-18.24
-18.85
-20.56
-23.35
-26.81
-30.32
-33.24
-35.24
-36.39
-37.18
-38.3
-40.47
-44.17
-49.53
-56.14
-62.99
-68.55
-70.95
-68.42
-59.78
-44.82
-24.4
-0.22
25.59
50.99
74.36
94.56
110.91
123.01
130.69
133.97
133.12
128.68
121.47
112.47
102.67
92.87
83.63
75.19
67.57
60.61
54.13
47.97
42
36.13
30.25
24.29
18.21
12.03
5.78
-0.5
-6.76
-12.93
-18.92
-24.6
-29.86
-34.68
-39.19
-43.61
-48.24
-53.36
-59.16
-65.69
-72.75
-79.78
-85.75
-89.29
-88.87
-83.25
-71.9
-55.26
-34.65
-12
10.71
31.77
50.03
64.79
75.76
82.87
86.22
86.12
83.11
77.88
71.25
63.93
56.49
49.27
42.45
36.13
30.37
25.23
20.74
16.8
13.26
9.91
6.55
3.11
-0.45
-4.12
-7.92
-11.92
-16.26
-21.01
-26.16
-31.61
-37.13
-42.47
-47.42
-51.84
-55.74
-59.3
-62.87
-66.94
-71.93
-77.91
-84.4
-90.24
-93.73
-93.08
-86.91
-74.78
-57.35
-36.19
-13.41
8.98
29.41
46.89
60.91
71.24
77.76
80.54
79.87
76.34
70.83
64.36
57.87
52.02
47.14
43.27
40.2
37.69
35.53
33.58
31.79
30.08
28.34
26.37
23.91
20.77
16.84
12.22
7.11
1.75
-3.59
-8.78
-13.74
-18.5
-23.15
-27.89
-32.98
-38.71
-45.22
-52.41
-59.71
-66.12
-70.23
-70.65
-66.29
-56.84
-42.82
-25.5
-6.55
12.33
29.75
44.65
56.34
64.35
68.48
68.78
65.7
60.08
52.95
45.39
38.28
32.17
27.3
23.63
20.92
18.9
17.25
15.74
14.19
12.49
10.57
8.31
5.55
2.12
-2.1
-7.06
-12.52
-18.12
-23.47
-28.34
-32.73
-36.92
-41.36
-46.54
-52.77
-60
-67.74
-75.03
-80.51
-82.75
-80.51
-73.09
-60.58
-43.84
-24.33
-3.79
16.14
34.09
49.13
60.69
68.51
72.53
73
70.42
65.55
59.3
52.58
46.14
40.47
35.81
32.14
29.35
27.22
25.54
24.07
22.59
20.88
18.79
16.26
13.31
9.99
6.37
2.45
-1.76
-6.35
-11.34
-16.72
-22.4
-28.22
-33.99
-39.53
-44.76
-49.73
-54.67
-59.94
-65.86
-72.54
-79.57
-85.99
-90.34
-91.06
-86.86
-77.13
-62.19
-43.19
-21.86
-0.13
20.26
38.02
52.42
63.15
70.24
73.87
74.34
72.04
67.56
61.63
55.08
48.64
42.86
38.02
34.14
31.14
28.91
27.32
26.23
25.42
24.58
23.42
21.65
19.1
15.72
11.53
6.62
1.12
-4.8
-10.91
-16.98
-22.81
-28.3
-33.46
-38.46
-43.53
-48.95
-54.94
-61.54
-68.52
-75.17
-80.38
-82.76
-80.97
-74.17
-62.27
-46.04
-26.89
-6.56
13.27
31.24
46.37
58.05
65.96
70
70.38
67.56
62.32
55.64
48.48
41.66
35.69
30.77
26.84
23.75
21.29
19.32
17.75
16.5
15.41
14.23
12.62
10.28
6.96
2.6
-2.61
-8.28
-13.94
-19.23
-23.98
-28.35
-32.71
-37.49
-43.06
-49.51
-56.62
-63.78
-70.06
-74.27
-75.21
-71.93
-63.98
-51.62
-35.74
-17.75
0.76
18.28
33.53
45.53
53.65
57.61
57.5
53.83
47.5
39.68
31.52
23.99
17.62
12.58
8.74
5.86
3.71
2.11
0.89
-0.19
-1.42
-3.1
-5.48
-8.66
-12.56
-16.98
-21.62
-26.23
-30.64
-34.82
-39
-43.5
-48.75
-55.01
-62.19
-69.69
-76.37
-80.76
-81.35
-76.99
-67.27
-52.61
-34.27
-13.98
6.4
25.23
41.32
53.9
62.64
67.51
68.74
66.83
62.45
56.45
49.66
42.83
36.47
30.85
26.04
22.03
18.74
16.13
14.09
12.42
10.8
8.78
5.97
2.14
-2.64
-8.06
-13.68
-19.11
-24.21
-29.12
-34.19
-39.83
-46.35
-53.82
-61.93
-69.92
-76.6
-80.51
-80.19
-74.63
-63.57
-47.64
-28.24
-7.16
13.79
33.09
49.67
62.8
72.09
77.38
78.79
76.78
72.12
65.79
58.75
51.77
45.3
39.47
34.26
29.6
25.55
22.22
19.69
17.87
16.44
14.93
12.86
9.84
5.75
0.69
-5.06
-11.13
-17.19
-22.98
-28.37
-33.42
-38.41
-43.75
-49.89
-57.06
-65.06
-73.1
-79.83
-83.59
-82.8
-76.39
-64.17
-46.9
-26.14
-3.87
17.92
37.57
54
66.67
75.41
80.32
81.63
79.75
75.28
69.03
61.93
54.88
48.54
43.2
38.88
35.38
32.44
29.88
27.62
25.61
23.8
22.03
20.02
17.41
13.87
9.28
3.73
-2.42
-8.76
-14.93
-20.78
-26.37
-31.89
-37.56
-43.56
-50.06
-57.12
-64.63
-72.12
-78.65
-82.86
-83.23
-78.58
-68.5
-53.51
-34.99
-14.75
5.4
23.97
39.91
52.46
61.15
65.67
66.03
62.71
56.61
49.02
41.21
34.22
28.57
24.33
21.23
18.91
17.07
15.56
14.27
13.07
11.73
9.95
7.42
3.95
-0.42
-5.49
-10.92
-16.35
-21.53
-26.39
-31.03
-35.71
-40.81
-46.65
-53.36
-60.74
-68.06
-74.1
-77.39
-76.49
-70.47
-59.16
-43.28
-24.24
-3.8
16.32
34.69
50.27
62.35
70.5
74.54
74.58
71.12
65.04
57.48
49.55
42.16
35.79
30.53
26.22
22.61
19.55
17
14.97
13.4
12.13
10.82
9.04
6.46
2.89
-1.64
-6.9
-12.58
-18.36
-24.01
-29.42
-34.6
-39.75
-45.17
-51.2
-58.05
-65.54
-73.02
-79.25
-82.69
-81.81
-75.55
-63.68
-46.9
-26.64
-4.75
16.95
36.93
54.14
67.9
77.86
83.84
85.9
84.36
79.85
73.3
65.7
57.97
50.76
44.44
39.15
34.94
31.82
29.69
28.36
27.45
26.5
25.04
22.81
19.71
15.88
11.51
6.79
1.83
-3.36
-8.82
-14.54
-20.43
-26.31
-31.91
-37.05
-41.71
-46.09
-50.57
-55.57
-61.36
-67.88
-74.61
-80.58
-84.49
-84.96
-80.88
-71.68
-57.51
-39.33
-18.66
2.69
23.02
40.99
55.74
66.85
74.21
77.93
78.3
75.78
71.01
64.8
58
51.4
45.6
40.89
37.3
34.68
32.83
31.59
30.85
30.49
30.29
29.9
28.89
26.89
23.74
19.56
14.75
9.77
5.01
0.61
-3.54
-7.7
-12.14
-16.92
-21.92
-26.86
-31.42
-35.41
-38.87
-42.06
-45.4
-49.31
-54.08
-59.78
-66
-71.86
-76.03
-76.98
-73.41
-64.65
-50.94
-33.36
-13.58
6.55
25.41
41.76
54.8
64.07
69.38
70.83
68.78
63.89
57.06
49.32
41.66
34.86
29.38
25.31
22.46
20.5
19.1
18.03
17.15
16.34
15.45
14.23
12.43
9.91
6.63
2.69
-1.73
-6.45
-11.35
-16.32
-21.25
-26.08
-30.73
-35.25
-39.73
-44.35
-49.32
-54.8
-60.78
-66.99
-72.75
-77.02
-78.58
-76.28
-69.41
-57.99
-42.75
-25.06
-6.52
11.31
27.18
40.22
49.94
56.07
58.64
57.9
54.38
48.84
42.18
35.27
28.81
23.34
19.13
16.26
14.67
14.07
14.08
14.19
13.92
12.96
11.2
8.73
5.71
2.28
-1.53
-5.74
-10.4
-15.46
-20.75
-26.07
-31.22
-36.05
-40.51
-44.65
-48.6
-52.57
-56.86
-61.79
-67.55
-74.04
-80.66
-86.26
-89.25
-88.04
-81.5
-69.39
-52.47
-32.31
-10.89
9.93
28.7
44.52
56.91
65.67
70.79
72.45
71.07
67.38
62.26
56.6
51.07
46.09
41.74
37.98
34.78
32.18
30.31
29.23
28.81
28.69
28.31
27.14
24.87
21.45
17.18
12.5
7.84
3.45
-0.68
-4.75
-9.1
-13.99
-19.46
-25.36
-31.34
-37
-42.04
-46.39
-50.28
-54.15
-58.54
-63.85
-70.13
-76.89
-83.05
-87.13
-87.56
-83.16
-73.45
-58.82
-40.51
-20.19
0.36
19.64
36.59
50.57
61.28
68.58
72.47
73.11
70.92
66.56
60.89
54.74
48.82
43.56
39.17
35.71
33.18
31.51
30.6
30.22
30.04
29.67
28.73
26.93
24.17
20.57
16.39
11.94
7.46
3.04
-1.4
-6.03
-10.98
-16.22
-21.55
-26.65
-31.26
-35.29
-38.91
-42.54
-46.71
-51.81
-57.9
-64.57
-70.81
-75.23
-76.29
-72.76
-64.07
-50.54
-33.33
-14.17
5.13
22.99
38.26
50.24
58.5
62.85
63.3
60.22
54.36
46.82
38.81
31.42
25.36
20.87
17.83
15.9
14.69
13.91
13.35
12.87
12.36
11.69
10.61
8.89
6.3
2.78
-1.54
-6.34
-11.22
-15.86
-20.15
-24.2
-28.28
-32.71
-37.74
-43.48
-49.85
-56.53
-62.85
-67.84
-70.31
-69.08
-63.33
-52.88
-38.3
-20.83
-2.13
16.13
32.48
45.85
55.53
61.18
62.77
60.6
55.33
47.93
39.56
31.37
24.28
18.82
15.04
12.65
11.15
10.11
9.22
8.42
7.66
6.85
5.69
3.72
0.53
-4.04
-9.76
-16.07
-22.25
-27.79
-32.52
-36.67
-40.78
-45.47
-51.19
-58.14
-66.12
-74.37
-81.67
-86.39
-86.85
-81.82
-70.85
-54.55
-34.45
-12.55
9.12
28.96
45.9
59.39
69.18
75.18
77.44
76.26
72.2
66.14
59.06
51.94
45.47
40.03
35.7
32.33
29.7
27.59
25.84
24.32
22.93
21.53
19.92
17.79
14.82
10.78
5.65
-0.35
-6.77
-13.09
-18.99
-24.4
-29.6
-35.04
-41.15
-48.2
-56.17
-64.67
-72.89
-79.61
-83.32
-82.53
-76.17
-64.01
-46.8
-26.16
-4.15
17.26
36.6
52.94
65.85
75.14
80.71
82.6
81.08
76.72
70.38
63.09
55.81
49.26
43.82
39.55
36.3
33.84
31.93
30.36
28.97
27.58
25.98
23.92
21.19
17.67
13.4
8.51
3.21
-2.35
-8.03
-13.75
-19.45
-25
-30.3
-35.33
-40.25
-45.39
-51.18
-57.92
-65.48
-73.1
-79.42
-82.71
-81.35
-74.39
-61.78
-44.5
-24.21
-2.83
17.87
36.54
52.26
64.42
72.64
76.72
76.73
73.14
66.8
58.85
50.5
42.77
36.33
31.42
27.94
25.56
23.9
22.63
21.53
20.47
19.34
17.98
16.18
13.69
10.28
5.88
0.64
-5.12
-10.97
-16.57
-21.73
-26.54
-31.3
-36.44
-42.35
-49.23
-56.9
-64.63
-71.24
-75.3
-75.42
-70.72
-61.07
-47.1
-30.07
-11.5
7.09
24.38
39.26
50.87
58.53
61.88
61.02
56.55
49.56
41.38
33.33
26.37
20.94
17
14.2
12.14
10.54
9.33
8.5
7.97
7.45
6.52
4.69
1.7
-2.45
-7.43
-12.79
-18.1
-23.11
-27.82
-32.41
-37.2
-42.51
-48.62
-55.65
-63.37
-71.08
-77.54
-81.16
-80.32
-73.93
-61.8
-44.74
-24.42
-2.83
18.14
37.04
52.95
65.34
73.88
78.38
78.86
75.68
69.63
61.87
53.69
46.18
40.06
35.5
32.29
30.03
28.31
26.85
25.54
24.3
23.05
21.6
19.71
17.08
13.51
8.91
3.39
-2.79
-9.26
-15.6
-21.53
-26.93
-31.93
-36.84
-42.1
-48.11
-55.15
-63.2
-71.74
-79.79
-85.85
-88.27
-85.56
-76.93
-62.51
-43.46
-21.67
0.7
21.69
39.94
54.67
65.65
72.92
76.69
77.27
75.08
70.72
64.93
58.55
52.34
46.92
42.65
39.57
37.52
36.19
35.29
34.56
33.83
32.96
31.81
30.2
27.9
24.79
20.87
16.33
11.44
6.46
1.47
-3.55
-8.72
-14.11
-19.59
-24.93
-29.83
-34.19
-38.18
-42.24
-46.95
-52.74
-59.53
-66.61
-72.58
-75.64
-74.06
-66.67
-53.32
-34.9
-13.21
9.56
31.34
50.54
66.21
77.93
85.59
89.27
89.2
85.77
79.62
71.61
62.73
53.86
45.62
38.35
32.12
26.89
22.6
19.15
16.38
13.99
11.56
8.69
5.08
0.63
-4.57
-10.38
-16.68
-23.43
-30.59
-38.03
-45.43
-52.42
-58.69
-64.14
-68.92
-73.35
-77.78
-82.54
-87.8
-93.65
-99.95
-106.23
-111.57
-114.58
-113.68
-107.54
-95.54
-78.09
-56.54
-32.86
-9.17
12.75
31.59
46.57
57.26
63.55
65.59
63.92
59.45
53.43
47.18
41.78
37.82
35.38
34.09
33.45
33.03
32.62
32.08
31.31
30.06
28.02
24.87
20.43
14.75
8.12
0.95
-6.32
-13.33
-19.88
-25.92
-31.58
-37.1
-42.85
-49.2
-56.46
-64.67
-73.4
-81.7
-88.09
-90.83
-88.46
-80.19
-66.27
-47.96
-27.15
-5.88
14.1
31.49
45.45
55.43
61.13
62.57
60.21
54.95
48
40.61
33.7
27.76
22.86
18.81
15.45
12.72
10.64
9.24
8.34
7.62
6.58
4.76
1.83
-2.31
-7.46
-13.2
-19.06
-24.64
-29.77
-34.59
-39.51
-45.14
-52.04
-60.52
-70.31
-80.45
-89.33
-94.92
-95.34
-89.29
-76.55
-58.01
-35.48
-11.2
12.63
34.25
52.47
66.57
76.25
81.5
82.62
80.17
75
68.14
60.63
53.41
47.17
42.25
38.68
36.2
34.39
32.79
31.1
29.22
27.18
25.02
22.66
19.87
16.34
11.86
6.38
0.15
-6.48
-13.11
-19.49
-25.52
-31.26
-36.84
-42.5
-48.48
-55.05
-62.39
-70.38
-78.47
-85.49
-89.85
-89.78
-83.94
-71.84
-54.04
-32.09
-8.08
15.82
37.79
56.51
71.17
81.4
87.14
88.68
86.63
81.89
75.52
68.54
61.76
55.7
50.59
46.44
43.18
40.69
38.8
37.27
35.84
34.18
32.03
29.27
25.93
22.14
18.09
13.85
9.36
4.48
-0.98
-7.07
-13.62
-20.34
-26.83
-32.82
-38.24
-43.3
-48.42
-54.08
-60.66
-68.19
-76.12
-83.32
-88.12
-88.74
-83.71
-72.4
-55.24
-33.69
-9.82
14.13
36.24
55.15
70.11
80.83
87.34
89.87
88.79
84.68
78.3
70.6
62.57
55.13
48.91
44.14
40.71
38.26
36.42
34.84
33.35
31.81
30.12
28.12
25.62
22.46
18.53
13.84
8.45
2.53
-3.73
-10.08
-16.31
-22.2
-27.68
-32.8
-37.79
-42.99
-48.76
-55.35
-62.69
-70.3
-77.18
-81.95
-83.12
-79.45
-70.37
-56.15
-37.95
-17.45
3.45
23.01
39.91
53.2
62.29
66.89
67.05
63.25
56.42
47.89
39.06
31.12
24.77
20.12
16.87
14.55
12.78
11.42
10.46
9.88
9.52
8.98
7.79
5.55
2.06
-2.55
-7.91
-13.52
-18.93
-23.89
-28.39
-32.7
-37.27
-42.62
-49.12
-56.83
-65.29
-73.46
-79.79
-82.52
-80.1
-71.63
-57.21
-37.99
-15.94
6.64
27.67
45.68
59.83
69.82
75.64
77.36
75.26
69.89
62.18
53.39
44.82
37.45
31.74
27.64
24.76
22.66
21.05
19.77
18.76
17.89
16.9
15.47
13.31
10.24
6.22
1.33
-4.3
-10.46
-16.93
-23.41
-29.59
-35.21
-40.22
-44.79
-49.38
-54.55
-60.79
-68.27
-76.62
-84.83
-91.34
-94.29
-92.01
-83.44
-68.56
-48.41
-24.94
-0.51
22.61
42.72
58.83
70.61
78.16
81.78
81.9
79.03
73.89
67.36
60.34
53.63
47.73
42.8
38.8
35.6
33.12
31.32
30.09
29.22
28.36
27.15
25.3
22.72
19.48
15.67
11.36
6.53
1.15
-4.75
-11.03
-17.39
-23.53
-29.2
-34.36
-39.17
-43.97
-49.2
-55.26
-62.32
-70.19
-78.11
-84.75
-88.42
-87.41
-80.52
-67.51
-49.21
-27.37
-4.24
18.04
37.79
53.98
66.16
74.27
78.44
78.95
76.26
71.03
64.12
56.55
49.22
42.85
37.77
34.01
31.34
29.44
28.03
26.9
25.89
24.86
23.69
22.15
20.02
17.12
13.34
8.76
3.58
-1.92
-7.44
-12.76
-17.78
-22.53
-27.18
-31.92
-37.03
-42.72
-49.14
-56.19
-63.41
-69.92
-74.5
-75.77
-72.54
-64.18
-50.84
-33.54
-13.98
5.9
24.24
39.65
51.24
58.61
61.72
60.84
56.5
49.57
41.18
32.58
24.85
18.68
14.23
11.3
9.45
8.27
7.51
7.04
6.76
6.46
5.87
4.62
2.42
-0.85
-5.08
-9.94
-14.98
-19.81
-24.19
-28.16
-32.02
-36.26
-41.39
-47.68
-55.01
-62.77
-69.82
-74.7
-75.9
-72.24
-63.23
-49.25
-31.51
-11.75
8.13
26.45
41.96
53.84
61.65
65.21
64.67
60.57
53.86
45.77
37.57
30.32
24.56
20.35
17.38
15.24
13.6
12.29
11.26
10.45
9.68
8.65
6.97
4.32
0.55
-4.27
-9.83
-15.72
-21.49
-26.84
-31.75
-36.44
-41.37
-47.01
-53.72
-61.46
-69.63
-77.04
-82.07
-82.99
-78.46
-67.96
-52.03
-32.12
-10.29
11.4
31.24
48.1
61.41
70.98
76.84
79.15
78.25
74.69
69.18
62.59
55.76
49.39
43.95
39.65
36.44
34.12
32.36
30.89
29.48
28.01
26.42
24.63
22.48
19.77
16.29
11.92
6.71
0.92
-5.06
-10.79
-15.99
-20.59
-24.8
-29.04
-33.81
-39.58
-46.57
-54.68
-63.32
-71.42
-77.48
-79.93
-77.46
-69.49
-56.4
-39.49
-20.65
-1.88
15.18
29.49
40.6
48.41
52.98
54.44
53.01
49.16
43.65
37.39
31.32
26.14
22.24
19.7
18.39
18.05
18.28
18.56
18.33
17.1
14.65
11.15
7.08
3.12
-0.1
-2.19
-3.06
-2.86
-1.9
-0.56
0.8
1.84
2.33
2.12
1.18
-0.47
-2.81
-5.81
-9.46
-13.65
-18.2
-22.83
-27.29
-31.43
-35.29
-39.09
-43.21
-48.01
-53.74
-60.35
-67.39
-73.91
-78.55
-79.77
-76.22
-67.19
-52.9
-34.51
-13.89
6.87
25.97
42.17
54.86
63.87
69.2
70.94
69.28
64.64
57.79
49.82
41.93
35.11
29.94
26.48
24.39
23.17
22.41
21.84
21.35
20.85
20.15
18.99
17.08
14.27
10.63
6.45
2.12
-1.99
-5.75
-9.23
-12.72
-16.59
-21.17
-26.63
-32.99
-39.98
-47.1
-53.5
-58.13
-59.88
-57.9
-51.86
-42.11
-29.62
-15.75
-1.87
10.87
21.67
30.01
35.55
38.05
37.45
33.92
28.02
20.66
12.92
5.79
-0.02
-4.22
-6.87
-8.19
-8.47
-7.91
-6.75
-5.31
-4.03
-3.46
-4.05
-6
-9.16
-13.14
-17.43
-21.58
-25.36
-28.77
-32.02
-35.48
-39.59
-44.72
-50.9
-57.66
-63.87
-67.88
-67.89
-62.57
-51.45
-35.14
-15.19
6.39
27.57
46.6
62.25
73.74
80.72
83.27
81.85
77.22
70.33
62.13
53.46
44.96
37.12
30.26
24.52
19.88
16.15
13.03
10.18
7.36
4.34
0.99
-2.8
-7.12
-11.97
-17.24
-22.72
-28.28
-33.94
-39.95
-46.67
-54.44
-63.18
-72.25
-80.35
-85.81
-86.91
-82.42
-71.97
-56.19
-36.55
-14.98
6.55
26.4
43.44
56.95
66.57
72.17
73.81
71.84
66.85
59.7
51.34
42.72
34.6
27.51
21.71
17.23
13.85
11.21
8.86
6.37
3.41
-0.2
-4.51
-9.38
-14.62
-20
-25.37
-30.72
-36.27
-42.4
-49.47
-57.5
-65.97
-73.65
-78.78
-79.59
-74.8
-64.07
-48.18
-28.75
-7.81
12.67
31.15
46.59
58.48
66.63
71.14
72.26
70.43
66.2
60.27
53.34
46.16
39.38
33.49
28.74
25.12
22.36
20.05
17.76
15.13
11.97
8.23
3.95
-0.83
-6.06
-11.71
-17.84
-24.55
-31.97
-40.21
-49.18
-58.47
-67.16
-73.91
-77.13
-75.39
-67.84
-54.51
-36.45
-15.43
6.38
26.96
44.81
59.02
69.21
75.33
77.48
75.98
71.33
64.4
56.27
48.01
40.46
34.01
28.69
24.31
20.71
17.87
15.8
14.43
13.45
12.34
10.5
7.49
3.14
-2.35
-8.53
-14.87
-20.94
-26.53
-31.69
-36.76
-42.19
-48.48
-55.89
-64.3
-72.96
-80.51
-85.15
-85.06
-78.93
-66.44
-48.42
-26.69
-3.51
18.94
39
55.71
68.63
77.67
82.81
84.18
82.04
77.03
70.07
62.27
54.64
47.86
42.19
37.56
33.73
30.48
27.69
25.35
23.39
21.67
19.94
17.84
15.04
11.29
6.52
0.82
-5.5
-12
-18.24
-23.87
-28.79
-33.18
-37.42
-42.01
-47.42
-53.92
-61.39
-69.28
-76.47
-81.44
-82.54
-78.42
-68.45
-53.01
-33.37
-11.42
10.79
31.45
49.23
63.25
73.02
78.34
79.34
76.43
70.44
62.43
53.63
45.1
37.58
31.39
26.48
22.61
19.51
17
15.03
13.55
12.41
11.31
9.83
7.56
4.25
-0.07
-5.15
-10.56
-15.89
-20.89
-25.53
-29.98
-34.55
-39.56
-45.23
-51.59
-58.41
-65.07
-70.59
-73.7
-73.09
-67.73
-57.27
-42.23
-23.87
-3.98
15.59
33.24
47.81
58.54
65.06
67.28
65.45
60.18
52.47
43.49
34.43
26.23
19.42
14.12
10.18
7.33
5.31
3.88
2.87
2.03
1.05
-0.44
-2.78
-6.18
-10.62
-15.83
-21.35
-26.73
-31.66
-36.15
-40.44
-44.99
-50.27
-56.54
-63.72
-71.24
-78.01
-82.57
-83.34
-79.07
-69.18
-54.04
-34.9
-13.61
7.86
27.81
44.99
58.58
68.12
73.38
74.41
71.67
65.98
58.46
50.27
42.36
35.31
29.33
24.37
20.32
17.09
14.57
12.69
11.25
9.97
8.49
6.44
3.52
-0.38
-5.17
-10.56
-16.13
-21.52
-26.5
-31.14
-35.71
-40.64
-46.37
-53.16
-60.95
-69.21
-76.9
-82.51
-84.41
-81.24
-72.33
-57.97
-39.36
-18.31
3.21
23.46
41.1
55.32
65.65
71.97
74.36
73.17
68.95
62.48
54.72
46.64
39.15
32.85
27.99
24.45
21.88
19.91
18.27
16.88
15.74
14.77
13.75
12.25
9.86
6.32
1.69
-3.7
-9.32
-14.72
-19.63
-24.06
-28.3
-32.73
-37.73
-43.61
-50.46
-58.12
-66.08
-73.36
-78.58
-80.18
-76.79
-67.75
-53.3
-34.64
-13.59
7.79
27.72
44.85
58.37
67.89
73.32
74.8
72.74
67.82
60.93
53.04
45.08
37.74
31.4
26.16
21.92
18.55
15.91
13.95
12.6
11.67
10.83
9.59
7.51
4.32
0.05
-4.97
-10.31
-15.55
-20.5
-25.18
-29.81
-34.67
-40
-45.98
-52.65
-59.82
-66.93
-73.01
-76.7
-76.6
-71.6
-61.33
-46.28
-27.78
-7.61
12.32
30.33
45.15
55.96
62.37
64.35
62.31
57.02
49.55
41.08
32.7
25.2
19.01
14.22
10.7
8.24
6.61
5.59
4.92
4.26
3.24
1.52
-1.12
-4.71
-9.08
-13.94
-18.97
-23.98
-28.96
-34.11
-39.79
-46.3
-53.72
-61.73
-69.5
-75.73
-78.89
-77.6
-70.97
-58.91
-42.23
-22.44
-1.44
18.9
37
51.75
62.52
69.01
71.24
69.55
64.62
57.4
49
40.48
32.64
25.92
20.41
16.03
12.64
10.12
8.36
7.14
6.14
4.88
2.93
-0.02
-4.05
-9.01
-14.55
-20.26
-25.78
-30.97
-35.92
-40.97
-46.57
-53.19
-61.05
-69.91
-78.94
-86.71
-91.4
-91.23
-85
-72.43
-54.33
-32.41
-8.81
14.35
35.35
53.04
66.74
76.13
81.18
82.1
79.41
73.91
66.61
58.59
50.8
43.91
38.22
33.69
30.09
27.13
24.63
22.53
20.82
19.4
18.03
16.28
13.7
9.97
5.03
-0.89
-7.31
-13.72
-19.71
-25.09
-29.98
-34.7
-39.74
-45.61
-52.7
-61.04
-70.17
-78.97
-85.79
-88.75
-86.24
-77.37
-62.33
-42.33
-19.37
4.33
26.73
46.32
62.18
73.87
81.3
84.63
84.26
80.77
74.96
67.73
59.98
52.47
45.78
40.26
36.03
33.06
31.15
30.02
29.29
28.59
27.58
26
23.68
20.51
16.44
11.49
5.78
-0.43
-6.82
-13.06
-18.93
-24.34
-29.38
-34.22
-39.04
-44.05
-49.49
-55.63
-62.65
-70.43
-78.33
-85.07
-88.88
-88.02
-81.23
-68.24
-49.88
-27.89
-4.41
18.45
39.03
56.15
69.15
77.73
81.92
81.98
78.51
72.34
64.52
56.16
48.27
41.55
36.32
32.52
29.86
27.97
26.56
25.45
24.52
23.6
22.43
20.68
18.07
14.49
9.97
4.76
-0.86
-6.63
-12.35
-17.9
-23.21
-28.24
-33.03
-37.69
-42.48
-47.74
-53.73
-60.51
-67.66
-74.19
-78.65
-79.44
-75.23
-65.43
-50.41
-31.4
-10.24
11.13
30.95
47.86
60.94
69.62
73.68
73.27
68.97
61.76
52.86
43.59
35.08
28.06
22.85
19.33
17.15
15.83
15
14.41
13.88
13.25
12.29
10.69
8.17
4.54
-0.19
-5.83
-12.03
-18.38
-24.48
-30.08
-35.1
-39.7
-44.27
-49.35
-55.45
-62.79
-71.08
-79.38
-86.15
-89.52
-87.74
-79.72
-65.41
-45.89
-23.14
0.49
22.85
42.37
58.18
69.97
77.73
81.58
81.7
78.47
72.54
64.85
56.48
48.45
41.52
36.11
32.26
29.79
28.33
27.49
26.89
26.21
25.18
23.57
21.23
18.03
13.97
9.14
3.7
-2.12
-8.07
-13.97
-19.7
-25.22
-30.51
-35.61
-40.59
-45.62
-50.97
-56.97
-63.82
-71.4
-79
-85.32
-88.63
-87.24
-79.98
-66.62
-48.06
-26.05
-2.79
19.64
39.61
56.05
68.42
76.56
80.59
80.86
77.99
72.79
66.17
58.98
51.96
45.63
40.32
36.16
33.14
31.08
29.78
28.95
28.36
27.76
26.89
25.51
23.33
20.23
16.2
11.43
6.21
0.77
-4.72
-10.22
-15.74
-21.26
-26.68
-31.86
-36.74
-41.38
-46.04
-51.13
-56.98
-63.73
-71.04
-77.99
-83.15
-84.88
-81.73
-72.93
-58.65
-40
-18.75
3.08
23.65
41.56
55.9
66.19
72.31
74.42
72.95
68.54
62.09
54.54
46.84
39.78
33.87
29.43
26.44
24.69
23.83
23.42
23.05
22.39
21.28
19.65
17.53
14.94
11.87
8.26
4.07
-0.63
-5.68
-10.86
-15.95
-20.86
-25.65
-30.42
-35.37
-40.65
-46.39
-52.64
-59.32
-66.07
-72.1
-76.24
-77.14
-73.63
-65.14
-51.92
-35.03
-16.05
3.28
21.38
37.08
49.56
58.28
62.98
63.64
60.57
54.46
46.37
37.56
29.27
22.45
17.58
14.63
13.16
12.58
12.32
11.98
11.35
10.34
8.87
6.82
4.08
0.59
-3.58
-8.27
-13.23
-18.25
-23.15
-27.89
-32.52
-37.22
-42.26
-47.95
-54.52
-61.96
-69.79
-77
-82.18
-83.76
-80.47
-71.75
-57.88
-40
-19.78
0.95
20.53
37.72
51.69
61.99
68.46
71.14
70.28
66.41
60.28
52.82
44.99
37.65
31.42
26.61
23.24
21.11
19.86
19.08
18.35
17.37
15.92
13.9
11.25
7.97
4.06
-0.46
-5.48
-10.84
-16.28
-21.56
-26.54
-31.19
-35.63
-40.08
-44.82
-50.11
-56.18
-63.11
-70.66
-78.16
-84.38
-87.75
-86.66
-80.02
-67.62
-50.29
-29.67
-7.8
13.42
32.55
48.65
61.2
69.95
74.79
75.86
73.58
68.74
62.34
55.42
48.83
43.1
38.48
34.98
32.51
30.95
30.09
29.65
29.26
28.48
26.97
24.56
21.31
17.4
13.06
8.46
3.64
-1.43
-6.77
-12.32
-17.92
-23.39
-28.59
-33.5
-38.23
-43
-48.03
-53.53
-59.64
-66.35
-73.38
-80.02
-85.08
-87.05
-84.48
-76.4
-62.71
-44.32
-22.93
-0.6
20.72
39.49
54.76
66.06
73.32
76.67
76.43
73.15
67.54
60.51
53.03
45.98
40.01
35.44
32.26
30.2
28.92
28.02
27.21
26.23
24.93
23.18
20.94
18.19
14.94
11.16
6.82
1.92
-3.5
-9.26
-15.15
-20.96
-26.54
-31.89
-37.09
-42.27
-47.63
-53.39
-59.73
-66.61
-73.56
-79.56
-83.14
-82.68
-76.94
-65.55
-49.16
-29.33
-8.08
12.59
31.12
46.41
57.88
65.17
68.18
67.07
62.38
55.08
46.46
37.85
30.35
24.6
20.65
18.17
16.64
15.59
14.78
14.11
13.55
12.95
12
10.28
7.43
3.27
-2.04
-8.09
-14.32
-20.29
-25.79
-30.91
-36
-41.44
-47.57
-54.55
-62.29
-70.38
-77.94
-83.66
-85.95
-83.29
-74.74
-60.31
-41.1
-19.06
3.57
24.74
43.02
57.65
68.35
75.09
77.93
77.06
72.9
66.23
58.11
49.73
42.18
36.14
31.8
28.93
27.06
25.72
24.54
23.34
22.04
20.56
18.79
16.48
13.36
9.22
4.02
-2.07
-8.68
-15.34
-21.65
-27.35
-32.46
-37.21
-41.97
-47.17
-53.18
-60.19
-68.16
-76.56
-84.42
-90.29
-92.46
-89.45
-80.38
-65.34
-45.42
-22.49
1.25
23.76
43.44
59.34
71.03
78.49
81.97
81.88
78.81
73.47
66.73
59.46
52.45
46.28
41.31
37.63
35.12
33.5
32.42
31.48
30.34
28.74
26.52
23.67
20.26
16.36
12.06
7.39
2.39
-2.94
-8.54
-14.32
-20.17
-25.95
-31.57
-37
-42.31
-47.68
-53.39
-59.71
-66.76
-74.25
-81.36
-86.73
-88.71
-85.73
-76.89
-62.27
-42.99
-20.94
1.76
23.28
42.3
58.04
70.04
78.07
81.97
81.93
78.47
72.54
65.35
58.01
51.36
45.76
41.27
37.76
35.1
33.21
32
31.23
30.56
29.58
28
25.69
22.66
19
14.74
9.94
4.64
-1.03
-6.8
-12.49
-17.96
-23.28
-28.58
-34
-39.54
-45.16
-50.85
-56.69
-62.8
-69.07
-74.9
-79.08
-80.03
-76.31
-67.11
-52.67
-34.24
-13.73
6.83
25.73
41.78
54.26
62.81
67.25
67.67
64.48
58.51
50.91
42.94
35.63
29.65
25.19
22.1
20.07
18.82
18.11
17.83
17.82
17.86
17.57
16.58
14.48
11.1
6.49
0.93
-5.1
-11.09
-16.67
-21.74
-26.46
-31.18
-36.36
-42.32
-49.14
-56.51
-63.67
-69.47
-72.53
-71.55
-65.64
-54.67
-39.33
-21.03
-1.54
17.39
34.28
48.07
58.08
63.91
65.47
63.08
57.47
49.81
41.43
33.54
26.92
21.85
18.17
15.5
13.53
12.02
10.88
10.02
9.24
8.23
6.59
4
0.27
-4.57
-10.28
-16.48
-22.76
-28.8
-34.47
-39.9
-45.46
-51.62
-58.76
-66.84
-75.24
-82.71
-87.51
-87.87
-82.49
-71.02
-54.18
-33.6
-11.44
10.21
29.71
46.11
58.99
68.32
74.15
76.62
75.94
72.5
66.98
60.25
53.21
46.61
40.93
36.33
32.79
30.12
28.15
26.67
25.49
24.33
22.91
20.93
18.13
14.35
9.57
3.94
-2.27
-8.71
-15.02
-20.96
-26.41
-31.44
-36.24
-41.06
-46.19
-51.88
-58.34
-65.58
-73.27
-80.59
-86.24
-88.65
-86.38
-78.58
-65.26
-47.35
-26.46
-4.48
16.8
35.93
51.98
64.42
73.08
78.07
79.68
78.34
74.63
69.26
62.98
56.54
50.56
45.42
41.32
38.23
36
34.41
33.27
32.33
31.35
30.04
28.11
25.35
21.68
17.22
12.29
7.28
2.5
-1.9
-6.09
-10.4
-15.2
-20.62
-26.52
-32.46
-37.97
-42.68
-46.55
-49.87
-53.14
-56.9
-61.6
-67.41
-74.11
-80.99
-86.86
-90.14
-89.27
-83.08
-71.23
-54.34
-33.94
-12.01
9.5
29.01
45.52
58.56
67.97
73.76
76.08
75.28
71.93
66.86
60.99
55.12
49.8
45.21
41.3
37.93
35.03
32.68
31.01
30.05
29.66
29.44
28.83
27.37
24.77
21.13
16.79
12.21
7.75
3.52
-0.61
-4.93
-9.61
-14.65
-19.79
-24.71
-29.22
-33.26
-36.97
-40.55
-44.24
-48.25
-52.86
-58.3
-64.6
-71.3
-77.3
-80.95
-80.53
-74.82
-63.63
-47.89
-29.39
-10.14
8.11
24.2
37.54
47.84
54.92
58.65
58.98
56.2
50.96
44.24
37.17
30.75
25.64
22.06
19.84
18.56
17.73
16.98
16.15
15.21
14.2
13.1
11.71
9.76
6.97
3.24
-1.33
-6.43
-11.68
-16.81
-21.65
-26.23
-30.66
-35.1
-39.74
-44.81
-50.48
-56.79
-63.44
-69.7
-74.4
-76.17
-73.8
-66.66
-54.88
-39.32
-21.39
-2.66
15.37
31.45
44.71
54.54
60.69
63.17
62.31
58.67
53.03
46.25
39.2
32.64
27.12
22.98
20.26
18.77
18.17
18.02
17.9
17.44
16.39
14.67
12.27
9.3
5.81
1.84
-2.61
-7.57
-12.97
-18.65
-24.4
-30.02
-35.41
-40.53
-45.44
-50.26
-55.17
-60.44
-66.35
-73.04
-80.3
-87.35
-92.81
-94.98
-92.25
-83.7
-69.42
-50.56
-29.03
-6.91
13.93
32.21
47.23
58.68
66.5
70.81
71.83
70.04
66.09
60.76
54.84
48.99
43.68
39.22
35.75
33.3
31.82
31.17
31.1
31.26
31.23
30.6
29.02
26.4
22.82
18.6
14.13
9.72
5.47
1.26
-3.2
-8.2
-13.87
-20.06
-26.46
-32.61
-38.19
-43.09
-47.49
-51.84
-56.66
-62.42
-69.28
-76.9
-84.36
-90.22
-92.79
-90.54
-82.62
-69.07
-50.92
-29.87
-7.85
13.37
32.5
48.66
61.36
70.35
75.55
77.15
75.62
71.71
66.37
60.5
54.87
49.9
45.78
42.5
39.96
38.1
36.84
36.1
35.68
35.29
34.53
33.02
30.5
26.96
22.57
17.68
12.59
7.47
2.32
-3.01
-8.63
-14.53
-20.54
-26.37
-31.75
-36.57
-40.93
-45.18
-49.79
-55.26
-61.84
-69.34
-77
-83.45
-87.03
-86.12
-79.75
-67.79
-51.14
-31.38
-10.43
9.93
28.28
43.67
55.49
63.4
67.22
67.05
63.34
56.95
49.06
40.97
33.85
28.42
24.88
22.97
22.14
21.78
21.48
21.04
20.47
19.8
19.01
17.93
16.3
13.82
10.34
5.88
0.67
-4.92
-10.5
-15.81
-20.77
-25.51
-30.34
-35.63
-41.77
-48.9
-56.89
-65.06
-72.27
-77.01
-77.74
-73.33
-63.4
-48.55
-30.19
-10.2
9.58
27.67
43.04
55.06
63.31
67.48
67.53
63.78
57.08
48.71
40.1
32.48
26.57
22.55
20.14
18.86
18.18
17.71
17.16
16.33
15.09
13.31
10.9
7.81
4
-0.51
-5.67
-11.33
-17.25
-23.18
-28.88
-34.26
-39.39
-44.57
-50.18
-56.63
-64.17
-72.66
-81.46
-89.29
-94.45
-95.12
-89.9
-78.23
-60.72
-38.97
-15.24
8.19
29.45
47.34
61.36
71.47
77.85
80.76
80.48
77.41
72.13
65.4
58.09
51.07
45.02
40.36
37.17
35.22
34.16
33.53
32.94
32.07
30.68
28.62
25.77
22.09
17.59
12.39
6.66
0.59
-5.64
-11.92
-18.19
-24.4
-30.49
-36.4
-42.13
-47.84
-53.82
-60.45
-67.97
-76.25
-84.56
-91.57
-95.54
-94.73
-87.95
-74.93
-56.46
-34.24
-10.48
12.69
33.55
51.02
64.64
74.35
80.29
82.63
81.6
77.62
71.35
63.72
55.82
48.67
42.94
38.88
36.27
34.62
33.4
32.28
31.12
29.76
28
25.6
22.3
17.91
12.34
5.66
-1.79
-9.59
-17.33
-24.79
-31.84
-38.49
-44.89
-51.23
-57.7
-64.22
-70.67
-77.15
-83.99
-91.49
-99.69
-108.07
-115.58
-120.61
-120.74
-114.12
-100.38
-80.92
-58.16
-34.75
-13.01
5.41
19.58
30.63
39.73
47.09
51.92
53.59
52.43
49.64
46.82
45.55
49.2
59.93
77.16
97.86
118.67
137.45
153.65
167.7
180.46
195.54
215.46
239.66
264.97
288.11
307.57
323.58
337.17
329.47
289.83
222.86
