1626689831.00
64.000000
-0.00
-0.00
-0.00
-0.00
-0.00
-0.00
-0.00
-0.00
-0.00
-0.00
0.00
0.01
0.01
-0.00
-0.03
-0.05
-0.05
0.00
0.13
0.36
0.66
1.01
1.37
1.72
2.06
2.40
2.79
3.24
3.80
4.42
5.06
5.66
6.20
6.68
7.15
7.68
8.31
9.14
10.09
11.04
11.88
12.56
13.14
13.76
14.65
15.96
17.91
20.32
22.90
25.38
27.58
29.57
31.68
34.32
37.81
42.54
48.15
54.10
59.83
64.97
69.58
74.14
79.34
85.71
93.76
103.00
112.62
121.73
129.77
136.75
143.30
150.75
157.77
166.64
177.95
191.79
206.97
220.57
228.25
225.36
208.53
176.87
132.76
80.05
23.07
-34.94
-92.44
-149.16
-205.23
-260.37
-313.74
-363.87
-409.83
-450.91
-486.50
-515.74
-537.23
-549.22
-549.96
-538.37
-514.21
-478.67
-433.88
-382.45
-327.02
-269.84
-212.63
-156.66
-102.95
-52.37
-5.90
35.58
71.43
101.35
125.50
144.38
158.69
169.15
176.37
180.75
182.57
182.07
179.51
175.23
169.65
163.18
156.15
148.81
141.30
133.69
126.02
118.33
110.69
103.16
95.80
88.68
81.83
75.25
68.95
62.95
57.25
51.86
46.78
42.03
37.59
33.45
29.61
26.07
22.81
19.83
17.11
14.67
12.48
10.54
8.83
7.35
6.07
4.97
4.05
3.27
2.62
2.09
1.65
1.30
1.01
0.79
0.61
0.48
0.37
0.29
0.24
0.21
0.19
0.18
0.18
0.20
0.22
0.25
0.28
0.32
0.36
0.40
0.45
0.49
0.54
0.59
0.64
0.70
0.76
0.82
0.89
0.97
1.05
1.14
1.25
1.37
1.50
1.64
1.81
1.99
2.20
2.42
2.68
2.95
3.26
3.59
3.96
4.36
4.80
5.27
5.78
6.32
6.91
7.54
8.22
8.93
9.70
10.50
11.36
12.25
13.20
14.19
15.26
16.38
17.56
18.80
20.08
21.34
22.55
23.59
24.39
24.80
24.71
24.03
22.67
20.62
17.86
14.47
10.49
6.09
1.43
-3.28
-7.78
-11.86
-15.31
-18.02
-19.94
-21.12
-21.65
-21.67
-21.29
-20.58
-19.61
-18.41
-17.04
-15.58
-14.12
-12.76
-11.61
-10.67
-9.85
-9.00
-7.95
-6.68
-5.25
-3.86
-2.68
-2.01
-1.87
-2.05
-2.17
-1.88
-1.03
0.20
1.45
2.31
2.19
1.00
-0.86
-2.68
-3.78
-3.87
-3.18
-2.34
-2.04
-3.32
-6.38
-10.71
-15.36
-19.37
-22.23
-24.02
-25.29
-26.87
-30.57
-37.93
-49.86
-66.09
-84.67
-102.20
-114.76
-119.71
-111.58
-90.72
-61.16
-28.92
0.32
23.08
38.54
47.81
52.66
54.59
53.80
50.71
46.32
42.13
39.51
39.18
40.91
43.89
47.08
49.21
49.72
48.71
46.65
44.14
41.61
39.19
36.72
33.80
29.68
23.98
16.90
9.09
1.51
-5.09
-10.40
-14.64
-18.40
-22.50
-27.49
-33.54
-40.54
-48.23
-56.28
-64.27
-71.51
-76.99
-79.52
-77.92
-71.48
-60.23
-44.98
-27.22
-8.61
9.23
25.09
38.11
47.74
53.72
56.01
54.91
51.08
45.51
39.39
33.85
29.71
27.33
26.53
26.77
27.37
27.80
27.77
27.27
26.44
25.35
23.95
21.95
19.07
15.06
9.94
3.97
-2.40
-8.72
-14.71
-20.38
-26.01
-32.02
-38.74
-46.36
-54.76
-63.49
-71.75
-78.39
-82.07
-81.51
-75.82
-64.79
-49.14
-30.33
-10.29
9.11
26.33
40.41
50.86
57.60
60.83
60.95
58.60
54.57
49.76
44.98
40.88
37.86
36.02
35.25
35.23
35.59
35.92
35.89
35.28
34.02
32.11
29.58
26.43
22.57
17.89
12.31
5.86
-1.25
-8.67
-16.01
-22.98
-29.42
-35.41
-41.15
-46.95
-53.18
-60.20
-68.27
-77.34
-86.88
-95.69
-102.05
-104.10
-100.32
-90.15
-74.14
-53.89
-31.58
-9.40
10.90
28.21
42.09
52.48
59.56
63.60
64.96
64.16
61.81
58.69
55.53
52.89
51.10
50.20
50.01
50.26
50.66
50.96
50.93
50.36
49.08
46.96
43.97
40.20
35.76
30.81
25.45
19.71
13.63
7.24
0.59
-6.23
-13.07
-19.82
-26.31
-32.51
-38.51
-44.64
-51.37
-59.11
-68.00
-77.55
-86.59
-93.45
-96.33
-93.88
-85.52
-71.70
-53.68
-33.30
-12.42
7.41
25.08
39.98
51.80
60.35
65.57
67.52
66.54
63.30
58.76
53.95
49.76
46.73
44.94
44.19
44.15
44.51
45.02
45.51
45.70
45.29
43.94
41.51
38.03
33.81
29.16
24.27
19.14
13.53
7.26
0.35
-6.93
-14.12
-20.82
-26.88
-32.48
-38.05
-44.04
-50.85
-58.62
-67.22
-76.15
-84.52
-91.05
-94.27
-92.86
-86.05
-73.93
-57.45
-38.28
-18.32
0.70
17.47
31.22
41.57
48.38
51.69
51.73
48.98
44.30
38.79
33.63
29.75
27.57
26.94
27.25
27.77
27.95
27.67
27.12
26.54
26.01
25.21
23.58
20.63
16.13
10.31
3.72
-3.07
-9.62
-15.84
-21.87
-27.95
-34.34
-41.23
-48.78
-57.00
-65.64
-74.05
-81.06
-85.26
-85.18
-79.90
-69.27
-54.08
-35.83
-16.31
2.79
20.19
35.06
46.94
55.57
60.85
62.83
61.86
58.55
53.79
48.59
43.82
40.09
37.60
36.30
35.90
36.11
36.61
37.08
37.21
36.70
35.29
32.90
29.55
25.46
20.78
15.68
10.15
4.16
-2.28
-9.09
-16.05
-22.93
-29.52
-35.73
-41.64
-47.45
-53.49
-60.17
-67.84
-76.66
-86.30
-95.82
-103.64
-107.85
-106.71
-99.24
-85.55
-66.90
-45.29
-22.91
-1.62
17.37
33.41
46.25
55.80
62.05
65.11
65.35
63.41
60.16
56.50
53.15
50.57
48.90
48.05
47.82
48.03
48.50
49.09
49.55
49.59
48.82
46.97
43.91
39.76
34.81
29.44
23.94
18.46
12.96
7.34
1.45
-4.78
-11.31
-17.99
-24.60
-30.94
-36.93
-42.73
-48.74
-55.51
-63.54
-73.02
-83.58
-94.19
-103.29
-109.12
-110.10
-105.36
-94.89
-79.61
-61.03
-40.94
-20.95
-2.27
14.28
28.17
39.04
46.60
50.77
51.78
50.28
47.24
43.70
40.56
38.33
37.22
37.14
37.96
39.55
41.77
44.39
47.02
49.19
50.43
50.42
49.11
46.66
43.32
39.36
34.93
30.17
25.19
20.18
15.38
10.98
7.07
3.58
0.25
-3.27
-7.38
-12.40
-18.54
-25.78
-33.71
-41.41
-47.51
-50.49
-49.10
-42.88
-32.35
-18.87
-4.22
9.97
22.52
32.83
40.66
45.90
48.44
48.21
45.32
40.21
33.63
26.56
19.90
14.33
10.16
7.33
5.51
4.25
3.14
1.86
0.28
-1.61
-3.68
-5.76
-7.60
-8.96
-9.64
-9.58
-8.92
-8.12
-7.79
-8.62
-11.18
-15.74
-22.26
-30.31
-39.13
-47.65
-54.59
-58.67
-58.77
-54.34
-45.41
-32.79
-17.73
-1.70
13.91
28.03
39.90
49.06
55.20
58.23
58.17
55.40
50.55
44.52
38.33
32.83
28.55
25.53
23.48
21.94
20.51
19.04
17.53
16.07
14.62
12.97
10.75
7.60
3.34
-1.99
-8.17
-14.84
-21.67
-28.41
-34.96
-41.37
-47.84
-54.76
-62.48
-71.23
-80.82
-90.51
-98.98
-104.56
-105.64
-101.14
-90.85
-75.52
-56.71
-36.31
-16.10
2.54
18.83
32.41
43.17
51.04
55.99
58.05
57.56
55.10
51.48
47.54
43.91
40.98
38.86
37.54
36.91
36.79
36.93
37.05
36.84
36.02
34.46
32.15
29.15
25.56
21.45
16.83
11.65
5.90
-0.41
-7.19
-14.21
-21.20
-27.92
-34.23
-40.21
-46.10
-52.32
-59.32
-67.37
-76.34
-85.53
-93.66
-99.00
-99.87
-95.10
-84.47
-68.74
-49.53
-28.75
-8.21
10.74
27.25
40.86
51.36
58.67
62.90
64.36
63.58
61.26
58.12
54.80
51.74
49.23
47.36
46.17
45.62
45.58
45.84
46.12
46.02
45.16
43.23
40.16
36.06
31.24
26.02
20.61
15.05
9.25
3.14
-3.28
-9.80
-16.12
-22.03
-27.48
-32.68
-38.03
-43.98
-50.90
-58.89
-67.70
-76.59
-84.40
-89.68
-91.00
-87.35
-78.43
-64.79
-47.78
-29.12
-10.54
6.53
21.19
32.89
41.41
46.64
48.62
47.70
44.54
40.14
35.62
31.93
29.57
28.51
28.31
28.40
28.31
27.88
27.12
26.15
24.95
23.33
21.01
17.75
13.47
8.33
2.67
-3.16
-8.90
-14.48
-20.04
-25.90
-32.38
-39.81
-48.34
-57.77
-67.42
-76.18
-82.54
-85.03
-82.57
-74.79
-62.20
-46.01
-27.77
-9.04
8.88
24.98
38.55
49.10
56.24
59.88
60.18
57.68
53.25
47.88
42.59
38.11
34.85
32.82
31.79
31.37
31.15
30.83
30.18
29.07
27.45
25.27
22.51
19.15
15.12
10.38
4.91
-1.23
-7.87
-14.81
-21.73
-28.44
-34.84
-40.97
-47.10
-53.58
-60.82
-69.05
-78.11
-87.27
-95.21
-100.26
-100.76
-95.63
-84.71
-68.86
-49.69
-29.11
-8.85
9.86
26.24
39.86
50.48
57.99
62.41
64.06
63.48
61.36
58.36
55.01
51.68
48.65
46.18
44.52
43.82
44.03
44.82
45.64
45.92
45.23
43.45
40.69
37.18
33.08
28.40
23.05
17.00
10.37
3.48
-3.31
-9.75
-15.83
-21.77
-27.94
-34.72
-42.41
-51.15
-60.88
-71.19
-81.16
-89.43
-94.34
-94.36
-88.60
-77.11
-60.93
-41.76
-21.49
-1.73
16.37
32.12
45.08
54.92
61.42
64.51
64.48
61.94
57.77
52.91
48.18
44.14
41.05
38.94
37.64
36.88
36.39
35.89
35.22
34.27
32.96
31.16
28.70
25.38
21.08
15.86
9.96
3.73
-2.53
-8.69
-14.83
-21.16
-27.96
-35.38
-43.42
-51.93
-60.55
-68.68
-75.42
-79.66
-80.25
-76.33
-67.58
-54.40
-37.87
-19.47
-0.80
16.70
31.87
43.86
52.12
56.42
56.96
54.36
49.64
43.98
38.50
33.97
30.74
28.77
27.76
27.33
27.14
26.96
26.61
25.97
24.91
23.26
20.83
17.42
12.91
7.28
0.70
-6.55
-14.09
-21.61
-28.92
-35.98
-42.95
-50.16
-58.00
-66.71
-76.14
-85.57
-93.68
-98.77
-99.25
-94.09
-83.15
-67.28
-47.96
-27.02
-6.19
13.09
29.73
42.99
52.46
58.04
60.02
58.99
55.77
51.25
46.29
41.56
37.55
34.57
32.70
31.92
32.03
32.69
33.45
33.87
33.62
32.52
30.58
27.90
24.55
20.52
15.74
10.12
3.71
-3.30
-10.51
-17.54
-24.14
-30.27
-36.09
-41.96
-48.27
-55.44
-63.64
-72.75
-82.11
-90.48
-96.25
-97.74
-93.73
-83.84
-68.72
-49.84
-29.06
-8.18
11.37
28.68
43.20
54.62
62.73
67.49
69.04
67.87
64.76
60.66
56.50
52.90
50.16
48.27
47.06
46.31
45.86
45.59
45.31
44.82
43.89
42.31
39.96
36.75
32.66
27.72
22.00
15.66
8.86
1.80
-5.32
-12.36
-19.19
-25.73
-32.00
-38.16
-44.57
-51.64
-59.69
-68.62
-77.77
-85.84
-91.15
-92.12
-87.72
-77.84
-63.31
-45.59
-26.39
-7.25
10.58
26.24
39.09
48.67
54.72
57.29
56.77
53.88
49.57
44.79
40.32
36.67
34.06
32.40
31.44
30.90
30.51
30.14
29.66
28.93
27.67
25.56
22.33
17.92
12.58
6.76
1.00
-4.34
-9.22
-13.87
-18.72
-24.19
-30.63
-38.15
-46.60
-55.49
-63.94
-70.72
-74.52
-74.18
-69.07
-59.24
-45.43
-28.90
-11.16
6.24
21.98
35.05
44.84
51.13
53.99
53.74
50.86
46.06
40.21
34.32
29.33
25.86
24.02
23.44
23.44
23.42
23.02
22.20
21.08
19.70
17.99
15.72
12.66
8.65
3.71
-2.01
-8.26
-14.77
-21.24
-27.44
-33.32
-39.00
-44.82
-51.25
-58.76
-67.58
-77.49
-87.65
-96.66
-102.76
-104.27
-100.05
-89.85
-74.41
-55.26
-34.32
-13.45
5.88
22.67
36.40
46.82
53.91
57.81
58.85
57.57
54.69
50.98
47.25
44.10
41.92
40.82
40.67
41.21
42.10
42.97
43.45
43.19
41.95
39.61
36.24
32.05
27.27
22.05
16.42
10.32
3.71
-3.27
-10.32
-17.02
-23.04
-28.36
-33.26
-38.32
-44.14
-51.17
-59.47
-68.62
-77.65
-85.19
-89.68
-89.70
-84.35
-73.59
-58.23
-39.75
-19.88
-0.19
18.10
34.14
47.31
57.14
63.34
65.95
65.46
62.77
58.93
54.93
51.39
48.66
46.85
45.98
46.05
47.01
48.61
50.42
51.85
52.31
51.41
49.04
45.32
40.60
35.29
29.75
24.20
18.67
12.99
6.92
0.27
-6.97
-14.55
-22.08
-29.16
-35.58
-41.41
-47.04
-53.00
-59.78
-67.59
-76.18
-84.69
-91.73
-95.61
-94.75
-88.20
-75.95
-59.03
-39.26
-18.72
0.74
17.82
31.81
42.39
49.47
53.05
53.32
50.74
46.16
40.74
35.67
31.86
29.71
29.03
29.29
29.87
30.31
30.51
30.55
30.60
30.65
30.45
29.59
27.60
24.24
19.50
13.68
7.24
0.64
-5.76
-11.83
-17.58
-23.18
-28.87
-34.91
-41.51
-48.78
-56.57
-64.36
-71.16
-75.64
-76.47
-72.66
-64.02
-51.14
-35.33
-18.14
-1.07
14.72
28.41
39.40
47.24
51.58
52.39
50.05
45.40
39.58
33.73
28.73
25.10
22.85
21.71
21.26
21.06
20.82
20.43
19.81
18.87
17.41
15.18
11.88
7.41
1.91
-4.27
-10.67
-16.90
-22.76
-28.32
-33.79
-39.49
-45.72
-52.71
-60.63
-69.33
-78.28
-86.46
-92.40
-94.54
-91.63
-83.15
-69.51
-51.98
-32.33
-12.43
6.23
22.57
36.04
46.34
53.34
57.05
57.68
55.76
52.10
47.72
43.55
40.26
38.12
37.02
36.68
36.72
36.86
36.85
36.52
35.74
34.37
32.36
29.62
26.06
21.63
16.31
10.23
3.64
-3.11
-9.69
-15.89
-21.73
-27.42
-33.27
-39.61
-46.71
-54.70
-63.47
-72.56
-81.03
-87.52
-90.43
-88.43
-80.84
-67.93
-50.91
-31.52
-11.65
7.20
24.02
38.22
49.49
57.66
62.58
64.35
63.31
60.16
55.80
51.22
47.21
44.33
42.78
42.45
42.97
43.82
44.45
44.44
43.58
41.83
39.30
36.13
32.40
28.09
23.18
17.69
11.73
5.50
-0.80
-7.05
-13.21
-19.36
-25.59
-32.04
-38.82
-46.11
-54.00
-62.50
-71.22
-79.29
-85.39
-88.00
-85.79
-78.14
-65.33
-48.54
-29.49
-10.01
8.38
24.65
38.17
48.65
55.91
59.95
60.91
59.26
55.78
51.41
47.11
43.59
41.18
39.81
39.18
38.90
38.64
38.20
37.50
36.49
35.12
33.25
30.70
27.26
22.80
17.37
11.24
4.81
-1.44
-7.26
-12.66
-17.93
-23.50
-29.70
-36.73
-44.56
-52.98
-61.60
-69.74
-76.40
-80.30
-80.16
-75.13
-65.09
-50.85
-33.90
-16.02
1.18
16.52
29.28
39.07
45.66
48.96
49.10
46.54
42.16
37.08
32.36
28.79
26.63
25.64
25.22
24.83
24.14
23.11
21.95
20.84
19.71
18.18
15.74
12.02
6.95
0.91
-5.53
-11.83
-17.76
-23.43
-29.24
-35.69
-43.22
-52.01
-61.85
-72.06
-81.43
-88.35
-91.11
-88.44
-79.86
-65.98
-48.25
-28.63
-8.99
9.24
25.14
38.20
48.10
54.56
57.45
56.93
53.64
48.63
43.15
38.35
34.93
33.07
32.47
32.59
32.91
33.04
32.83
32.22
31.21
29.78
27.82
25.20
21.74
17.33
12.00
5.94
-0.51
-6.93
-13.03
-18.71
-24.13
-29.65
-35.71
-42.66
-50.74
-59.90
-69.79
-79.58
-87.96
-93.29
-94.01
-89.07
-78.32
-62.65
-43.70
-23.41
-3.48
14.82
30.77
43.93
54.06
60.98
64.70
65.46
63.77
60.39
56.18
51.92
48.21
45.44
43.77
43.19
43.53
44.50
45.67
46.54
46.64
45.65
43.46
40.17
36.00
31.23
26.01
20.41
14.49
8.35
2.12
-4.02
-10.03
-15.96
-21.99
-28.24
-34.79
-41.62
-48.76
-56.32
-64.35
-72.66
-80.49
-86.52
-89.11
-86.85
-79.10
-66.27
-49.66
-31.05
-12.13
5.83
22.05
36.00
47.32
55.63
60.71
62.66
61.98
59.48
56.12
52.68
49.75
47.58
46.26
45.75
45.93
46.60
47.43
48.07
48.10
47.24
45.36
42.47
38.66
34.04
28.67
22.62
15.97
8.86
1.56
-5.64
-12.44
-18.68
-24.36
-29.68
-34.94
-40.51
-46.76
-53.90
-61.88
-70.22
-78.00
-83.82
-86.24
-84.09
-76.92
-65.15
-50.01
-33.05
-15.86
0.37
14.83
26.98
36.36
42.52
45.20
44.45
40.91
35.70
30.17
25.51
22.42
20.95
20.68
21.00
21.42
21.77
22.06
22.30
22.35
21.76
20.05
16.89
12.26
6.57
0.43
-5.62
-11.25
-16.47
-21.56
-26.86
-32.76
-39.49
-47.15
-55.52
-64.01
-71.54
-76.66
-77.89
-74.18
-65.27
-51.82
-35.23
-17.18
0.70
17.16
31.30
42.56
50.56
55.20
56.62
55.24
51.76
47.01
41.83
36.96
32.96
30.05
28.19
27.07
26.28
25.47
24.50
23.43
22.32
21.14
19.54
17.06
13.26
7.99
1.52
-5.57
-12.67
-19.35
-25.48
-31.29
-37.14
-43.47
-50.66
-58.93
-68.24
-78.07
-87.29
-94.30
-97.36
-95.07
-86.93
-73.47
-56.17
-36.92
-17.56
0.57
16.66
30.30
41.31
49.49
54.71
56.99
56.63
54.26
50.71
46.90
43.54
41.11
39.68
39.03
38.80
38.58
38.11
37.31
36.21
34.87
33.19
30.91
27.64
23.10
17.28
10.47
3.21
-3.96
-10.66
-16.79
-22.46
-27.90
-33.39
-39.18
-45.51
-52.60
-60.44
-68.68
-76.43
-82.34
-84.83
-82.57
-74.88
-62.03
-45.17
-26.04
-6.48
11.94
28.18
41.68
52.21
59.61
63.83
65.00
63.58
60.41
56.56
53.03
50.52
49.14
48.64
48.51
48.32
47.87
47.13
46.14
44.87
43.17
40.84
37.71
33.70
28.82
23.11
16.66
9.62
2.16
-5.44
-12.94
-20.14
-27.01
-33.69
-40.37
-47.30
-54.67
-62.62
-71.14
-79.98
-88.42
-95.31
-99.16
-98.57
-92.67
-81.53
-66.17
-48.28
-29.72
-12.04
3.72
17.03
27.63
35.35
40.06
41.78
40.82
37.88
33.90
29.86
26.54
24.33
23.27
23.15
23.68
24.57
25.57
26.43
26.88
26.60
25.29
22.73
18.91
14.01
8.43
2.63
-2.99
-8.17
-12.93
-17.56
-22.53
-28.38
-35.55
-44.12
-53.64
-63.06
-70.84
-75.25
-74.85
-68.96
-57.92
-42.94
-25.74
-8.05
8.73
23.69
36.23
45.95
52.48
55.62
55.48
52.57
47.86
42.44
37.34
33.21
30.25
28.28
26.94
25.94
25.14
24.57
24.24
23.96
23.34
21.82
18.94
14.49
8.66
1.96
-5.02
-11.79
-18.06
-23.89
-29.51
-35.35
-41.83
-49.35
-58.09
-67.82
-77.79
-86.70
-92.89
-94.77
-91.25
-82.05
-67.88
-50.12
-30.50
-10.65
8.18
25.17
39.81
51.67
60.33
65.48
67.04
65.44
61.51
56.41
51.28
47.01
44.03
42.34
41.63
41.46
41.41
41.18
40.59
39.56
38.08
36.05
33.35
29.78
25.16
19.48
12.94
5.96
-0.96
-7.50
-13.54
-19.31
-25.16
-31.52
-38.71
-46.89
-55.99
-65.62
-74.92
-82.65
-87.32
-87.56
-82.55
-72.25
-57.48
-39.65
-20.40
-1.29
16.51
32.16
45.14
55.10
61.90
65.55
66.34
64.85
61.86
58.26
54.83
52.08
50.21
49.12
48.56
48.24
47.93
47.53
46.97
46.13
44.83
42.88
40.03
36.16
31.24
25.38
18.84
11.93
4.97
-1.80
-8.27
-14.49
-20.64
-26.98
-33.82
-41.41
-49.90
-59.17
-68.72
-77.56
-84.32
-87.56
-86.10
-79.48
-68.06
-52.94
-35.60
-17.55
-0.10
15.78
29.35
40.05
47.52
51.58
52.44
50.62
46.96
42.40
37.83
33.90
30.91
28.86
27.56
26.73
26.17
25.75
25.36
24.82
23.83
22.05
19.12
14.84
9.26
2.68
-4.42
-11.50
-18.19
-24.41
-30.37
-36.56
-43.48
-51.43
-60.26
-69.30
-77.35
-82.97
-84.75
-81.81
-73.91
-61.67
-46.32
-29.40
-12.43
3.41
17.29
28.71
37.33
42.94
45.48
45.17
42.56
38.48
33.85
29.43
25.68
22.72
20.48
18.79
17.50
16.50
15.58
14.39
12.55
9.74
5.85
1.04
-4.38
-10.09
-15.90
-21.79
-27.93
-34.63
-42.15
-50.60
-59.73
-68.72
-76.28
-80.77
-80.72
-75.28
-64.55
-49.59
-32.11
-13.93
3.42
18.96
32.19
42.85
50.77
55.75
57.65
56.57
53.00
47.76
41.91
36.48
32.17
29.32
27.78
27.10
26.66
25.86
24.30
21.74
18.19
13.81
8.84
3.50
-2.08
-7.89
-14.02
-20.70
-28.13
-36.48
-45.68
-55.29
-64.37
-71.58
-75.37
-74.45
-68.14
-56.64
-41.01
-22.84
-3.91
14.23
30.39
43.80
53.95
60.65
63.92
64.10
61.84
57.98
53.38
48.71
44.44
40.79
37.81
35.50
33.80
32.61
31.74
30.87
29.58
27.46
24.18
19.65
14.08
7.88
1.52
-4.70
-10.73
-16.85
-23.52
-31.18
-40.08
-50.03
-60.33
-69.79
-76.89
-80.04
-78.01
-70.33
-57.47
-40.74
-21.92
-2.84
15.03
30.73
43.69
53.61
60.25
63.51
63.46
60.56
55.71
50.02
44.65
40.47
37.78
36.39
35.70
35.04
33.94
32.27
30.24
28.09
25.98
23.73
20.93
17.17
12.20
6.10
-0.78
-8.07
-15.43
-22.60
-29.25
-34.97
-39.46
-42.70
-45.19
-47.74
-51.05
-55.18
-59.25
-61.68
-60.83
-55.73
-46.46
-34.07
-20.07
-5.85
7.55
19.48
29.43
36.90
41.41
42.73
41.10
37.28
32.37
27.51
23.59
21.02
19.73
19.34
19.38
19.38
19.06
18.25
16.89
14.91
12.21
8.73
4.43
-0.58
-6.06
-11.77
-17.49
-23.24
-29.23
-35.89
-43.60
-52.50
-62.23
-71.82
-79.78
-84.43
-84.33
-78.73
-67.81
-52.63
-34.83
-16.15
1.94
18.39
32.49
43.72
51.64
55.92
56.61
54.15
49.50
43.85
38.41
34.04
31.08
29.40
28.50
27.88
27.16
26.24
25.16
24.01
22.67
20.82
18.02
13.92
8.53
2.20
-4.49
-11.01
-17.12
-22.98
-29.00
-35.70
-43.44
-52.30
-61.99
-71.80
-80.63
-87.05
-89.64
-87.29
-79.58
-66.95
-50.60
-32.15
-13.29
4.58
20.47
33.76
44.11
51.35
55.46
56.66
55.45
52.59
48.94
45.32
42.31
40.09
38.57
37.42
36.36
35.26
34.19
33.30
32.67
32.17
31.41
29.92
27.24
23.16
17.74
11.36
4.54
-2.21
-8.55
-14.43
-20.08
-25.98
-32.69
-40.57
-49.65
-59.35
-68.55
-75.69
-79.21
-77.89
-71.26
-59.72
-44.39
-26.78
-8.44
9.29
25.42
39.22
50.16
57.85
62.09
62.98
61.00
57.00
52.02
47.06
42.82
39.64
37.48
36.08
35.09
34.26
33.47
32.70
31.98
31.22
30.21
28.56
25.88
21.86
16.48
10.02
3.02
-3.93
-10.44
-16.38
-21.95
-27.55
-33.56
-40.31
-47.93
-56.29
-64.91
-72.88
-78.87
-81.39
-79.20
-71.80
-59.57
-43.85
-26.42
-9.07
6.76
20.21
30.80
38.29
42.59
43.74
42.06
38.24
33.20
27.93
23.24
19.60
17.14
15.67
14.90
14.50
14.23
13.86
13.24
12.17
10.51
8.15
5.08
1.42
-2.66
-6.95
-11.37
-15.94
-20.88
-26.54
-33.25
-41.15
-49.95
-58.77
-66.26
-70.86
-71.23
-66.69
-57.37
-44.22
-28.63
-12.14
3.88
18.39
30.61
40.06
46.41
49.56
49.63
47.03
42.40
36.63
30.61
25.14
20.70
17.48
15.32
13.96
13.08
12.42
11.71
10.63
8.85
6.10
2.30
-2.34
-7.42
-12.54
-17.47
-22.28
-27.31
-33.09
-40.11
-48.60
-58.43
-68.88
-78.74
-86.43
-90.31
-89.15
-82.44
-70.59
-54.74
-36.46
-17.30
1.39
18.53
33.26
44.87
52.86
57.09
57.89
56.06
52.57
48.38
44.18
40.30
36.84
33.83
31.29
29.25
27.72
26.58
25.57
24.35
22.54
19.83
16.08
11.32
5.85
0.02
-5.77
-11.38
-16.86
-22.53
-28.86
-36.26
-44.93
-54.67
-64.78
-74.08
-81.01
-83.95
-81.70
-73.83
-60.90
-44.21
-25.53
-6.57
11.35
27.28
40.64
51.01
58.11
61.89
62.62
60.92
57.67
53.74
49.86
46.47
43.76
41.73
40.31
39.40
38.87
38.60
38.38
37.96
37.02
35.23
32.34
28.24
23.05
17.02
10.56
4.00
-2.40
-8.57
-14.57
-20.58
-26.92
-33.95
-41.98
-51.07
-60.74
-69.94
-77.07
-80.47
-78.86
-71.82
-59.88
-44.34
-26.83
-8.93
8.09
23.34
36.17
46.14
52.94
56.49
57.01
55.06
51.50
47.24
43.14
39.73
37.17
35.36
34.02
32.88
31.79
30.71
29.59
28.30
26.60
24.18
20.81
16.40
11.05
5.05
-1.24
-7.48
-13.47
-19.17
-24.72
-30.39
-36.49
-43.31
-50.94
-59.13
-67.25
-74.20
-78.64
-79.32
-75.38
-66.68
-53.82
-38.00
-20.70
-3.38
12.75
26.75
37.86
45.56
49.55
49.87
47.03
41.98
35.90
29.98
25.09
21.64
19.58
18.61
18.31
18.32
18.38
18.24
17.66
16.38
14.19
11.04
6.96
2.20
-2.96
-8.24
-13.48
-18.67
-23.96
-29.70
-36.32
-44.21
-53.47
-63.65
-73.64
-81.78
-86.25
-85.61
-79.23
-67.55
-51.86
-33.91
-15.39
2.37
18.46
32.28
43.24
50.88
54.94
55.57
53.45
49.62
45.23
41.19
37.98
35.67
34.10
33.03
32.31
31.86
31.63
31.50
31.19
30.32
28.43
25.21
20.57
14.80
8.40
1.96
-4.13
-9.81
-15.32
-21.08
-27.46
-34.68
-42.78
-51.68
-61.06
-70.32
-78.41
-83.92
-85.30
-81.42
-71.95
-57.62
-40.03
-21.08
-2.54
14.40
29.13
41.36
50.89
57.46
60.86
61.12
58.73
54.63
49.95
45.72
42.59
40.71
39.89
39.74
39.87
40.02
40.01
39.72
39.03
37.81
35.96
33.44
30.23
26.29
21.61
16.18
10.05
3.37
-3.60
-10.52
-17.10
-23.18
-28.84
-34.45
-40.54
-47.66
-56.04
-65.30
-74.39
-81.66
-85.29
-83.85
-76.72
-64.33
-48.02
-29.56
-10.69
7.18
23.12
36.49
46.82
53.75
57.16
57.30
54.84
50.76
46.11
41.68
37.97
35.10
33.00
31.52
30.48
29.70
29.01
28.24
27.23
25.83
23.92
21.36
18.07
13.97
9.11
3.66
-2.11
-7.90
-13.48
-18.75
-23.85
-29.12
-35.03
-41.97
-50.12
-59.12
-68.05
-75.45
-79.69
-79.32
-73.58
-62.60
-47.42
-29.73
-11.42
5.80
20.66
32.42
40.69
45.39
46.66
44.98
41.15
36.27
31.44
27.54
24.87
23.26
22.18
21.17
20.04
18.91
18.03
17.42
16.82
15.68
13.42
9.70
4.61
-1.42
-7.79
-13.94
-19.66
-25.08
-30.69
-37.10
-44.81
-53.86
-63.68
-73.04
-80.33
-83.92
-82.68
-76.24
-65.06
-50.22
-33.12
-15.17
2.40
18.56
32.42
43.29
50.69
54.43
54.74
52.23
47.87
42.78
38.02
34.34
32.01
30.86
30.35
29.88
29.00
27.60
25.90
24.21
22.77
21.50
20.07
17.97
14.79
10.35
4.80
-1.45
-7.95
-14.27
-20.27
-26.01
-31.83
-38.18
-45.48
-53.98
-63.50
-73.38
-82.41
-89.03
-91.66
-89.19
-81.25
-68.34
-51.71
-32.94
-13.67
4.78
21.44
35.66
47.02
55.26
60.33
62.43
62.04
59.93
56.94
53.88
51.23
49.18
47.60
46.23
44.87
43.45
42.06
40.78
39.60
38.32
36.63
34.26
31.02
26.85
21.82
16.05
9.71
3.02
-3.74
-10.33
-16.62
-22.69
-28.80
-35.37
-42.72
-51.00
-59.99
-69.01
-77.00
-82.58
-84.41
-81.46
-73.36
-60.58
-44.26
-26.01
-7.45
10.04
25.52
38.42
48.42
55.40
59.40
60.66
59.69
57.16
53.86
50.48
47.53
45.31
43.94
43.34
43.31
43.59
43.84
43.76
43.13
41.83
39.80
37.05
33.56
29.33
24.42
18.99
13.22
7.30
1.34
-4.68
-10.79
-16.95
-23.01
-28.79
-34.23
-39.46
-44.95
-51.27
-58.79
-67.44
-76.44
-84.42
-89.68
-90.67
-86.47
-77.01
-63.11
-46.21
-27.92
-9.73
7.22
22.09
34.26
43.24
48.76
50.84
49.94
46.92
42.83
38.67
35.15
32.61
31.06
30.27
29.97
29.91
29.87
29.69
29.21
28.32
26.86
24.71
21.74
17.92
13.38
8.38
3.31
-1.57
-6.17
-10.69
-15.52
-21.11
-27.78
-35.60
-44.31
-53.37
-61.95
-68.99
-73.32
-73.87
-69.94
-61.44
-48.94
-33.60
-16.88
-0.19
15.29
28.73
39.59
47.51
52.25
53.79
52.38
48.64
43.55
38.19
33.55
30.24
28.37
27.67
27.60
27.65
27.38
26.55
25.08
22.96
20.32
17.28
13.95
10.29
6.11
1.17
-4.69
-11.36
-18.46
-25.42
-31.85
-37.66
-43.19
-49.04
-55.86
-63.99
-73.32
-83.16
-92.28
-99.13
-102.09
-99.88
-91.91
-78.46
-60.72
-40.45
-19.61
0.04
17.26
31.37
42.22
49.96
54.84
57.16
57.22
55.50
52.62
49.44
46.75
45.13
44.69
45.12
45.84
46.33
46.32
45.76
44.77
43.42
41.69
39.44
36.55
32.95
28.65
23.75
18.36
12.60
6.56
0.26
-6.28
-13.02
-19.83
-26.54
-33.04
-39.40
-45.94
-53.15
-61.29
-70.09
-78.51
-84.89
-87.42
-84.73
-76.32
-62.74
-45.31
-25.76
-5.77
13.20
30.04
43.95
54.43
61.29
64.72
65.30
63.86
61.30
58.42
55.76
53.63
52.07
51.04
50.41
50.14
50.15
50.36
50.59
50.52
49.71
47.77
44.44
39.78
34.21
28.33
22.75
17.80
13.46
9.40
5.16
0.40
-4.92
-10.56
-16.20
-21.60
-26.77
-31.95
-37.52
-43.86
-51.16
-59.42
-68.33
-77.17
-84.85
-89.96
-91.07
-87.16
-77.98
-64.23
-47.40
-29.28
-11.48
4.87
19.11
30.89
39.86
45.72
48.33
47.92
45.23
41.27
37.18
33.78
31.53
30.48
30.41
30.94
31.68
32.31
32.60
32.45
31.78
30.52
28.56
25.77
22.02
17.31
11.79
5.79
-0.29
-6.13
-11.57
-16.62
-21.47
-26.37
-31.59
-37.35
-43.80
-50.97
-58.69
-66.47
-73.46
-78.53
-80.40
-78.03
-70.96
-59.47
-44.59
-27.82
-10.77
5.15
18.91
29.88
37.72
42.31
43.79
42.58
39.40
35.22
31.00
27.45
24.95
23.44
22.62
22.08
21.55
20.95
20.34
19.83
19.46
19.13
18.58
17.46
15.44
12.28
7.95
2.66
-3.25
-9.35
-15.29
-20.89
-26.18
-31.39
-36.89
-43.09
-50.35
-58.84
-68.33
-78.09
-86.83
-92.89
-94.62
-90.87
-81.32
-66.71
-48.55
-28.76
-9.19
8.75
24.18
36.63
45.94
52.09
55.30
55.92
54.54
51.84
48.50
45.05
41.85
39.16
37.14
35.89
35.47
35.78
36.61
37.58
38.31
38.41
37.62
35.80
32.91
29.06
24.42
19.20
13.64
7.91
2.09
-3.86
-9.98
-16.27
-22.60
-28.81
-34.80
-40.71
-46.87
-53.79
-61.73
-70.47
-79.07
-86.01
-89.56
-88.27
-81.49
-69.56
-53.66
-35.45
-16.62
1.46
17.86
32.04
43.74
52.78
59.08
62.71
63.91
63.13
60.94
57.99
54.90
52.14
49.96
48.47
47.57
47.14
47.03
47.13
47.33
47.46
47.19
46.10
43.82
40.20
35.42
30.00
24.55
19.49
14.92
10.55
5.98
0.84
-4.94
-11.14
-17.38
-23.34
-28.83
-33.92
-38.83
-43.82
-49.24
-55.43
-62.61
-70.79
-79.43
-87.40
-93.10
-94.81
-91.32
-82.35
-68.71
-52.03
-34.16
-16.76
-0.89
12.89
24.28
33.05
38.91
41.72
41.61
39.19
35.41
31.39
28.07
26.03
25.34
25.66
26.42
27.07
27.24
26.81
25.88
24.63
23.14
21.35
19.07
16.05
12.16
7.44
2.11
-3.55
-9.26
-14.84
-20.22
-25.49
-30.77
-36.27
-42.24
-48.90
-56.25
-63.98
-71.28
-76.91
-79.48
-77.77
-71.16
-59.83
-44.74
-27.38
-9.43
7.63
22.64
34.89
44.01
49.86
52.51
52.23
49.58
45.36
40.60
36.30
33.21
31.64
31.36
31.81
32.32
32.36
31.74
30.56
29.09
27.54
25.91
24.03
21.62
18.47
14.48
9.70
4.22
-1.84
-8.33
-15.10
-21.91
-28.55
-34.91
-41.11
-47.57
-54.84
-63.39
-73.24
-83.73
-93.43
-100.46
-102.89
-99.40
-89.67
-74.53
-55.69
-35.24
-15.14
3.19
18.88
31.63
41.37
48.24
52.44
54.31
54.26
52.81
50.47
47.74
45.06
42.80
41.21
40.41
40.37
40.87
41.60
42.21
42.38
41.89
40.62
38.55
35.74
32.29
28.32
23.90
19.07
13.79
8.02
1.75
-4.92
-11.84
-18.80
-25.60
-32.17
-38.63
-45.29
-52.55
-60.72
-69.68
-78.74
-86.58
-91.49
-91.86
-86.71
-75.96
-60.51
-41.96
-22.16
-2.78
14.98
30.35
42.97
52.65
59.31
63.00
63.97
62.73
60.04
56.80
53.74
51.35
49.72
48.69
48.03
47.56
47.22
46.98
46.72
46.19
45.06
43.13
40.39
37.07
33.48
29.79
25.96
21.71
16.71
10.81
4.14
-2.87
-9.74
-16.09
-21.85
-27.27
-32.79
-38.93
-46.10
-54.52
-64.04
-74.01
-83.23
-90.09
-92.90
-90.39
-82.20
-68.95
-52.16
-33.69
-15.28
1.79
16.77
29.17
38.64
44.88
47.71
47.35
44.44
40.00
35.16
30.87
27.72
25.83
24.98
24.76
24.81
24.90
25.00
25.16
25.36
25.36
24.78
23.14
20.16
15.86
10.60
4.89
-0.79
-6.23
-11.52
-16.97
-22.97
-29.89
-37.90
-46.95
-56.65
-66.14
-74.20
-79.31
-80.09
-75.69
-66.11
-52.25
-35.67
-18.11
-1.09
14.39
27.74
38.60
46.64
51.57
53.25
51.93
48.33
43.54
38.68
34.63
31.78
30.07
29.13
28.55
28.03
27.41
26.66
25.69
24.37
22.44
19.64
15.77
10.79
4.91
-1.51
-8.07
-14.42
-20.42
-26.18
-31.95
-38.13
-45.13
-53.31
-62.79
-73.37
-84.37
-94.58
-102.42
-106.21
-104.64
-97.12
-84.00
-66.51
-46.36
-25.42
-5.28
12.92
28.45
40.93
50.23
56.32
59.36
59.73
58.03
55.06
51.67
48.61
46.28
44.76
43.82
43.19
42.62
42.04
41.48
40.94
40.29
39.26
37.50
34.73
30.80
25.73
19.67
12.86
5.58
-1.79
-8.96
-15.76
-22.20
-28.60
-35.40
-43.07
-51.84
-61.59
-71.70
-81.06
-88.19
-91.55
-89.85
-82.43
-69.55
-52.35
-32.59
-12.19
7.18
24.39
38.81
50.16
58.35
63.37
65.43
65.02
62.89
59.93
56.91
54.32
52.34
50.98
50.23
50.14
50.76
51.97
53.38
54.39
54.40
53.08
50.44
46.82
42.61
38.06
33.15
27.67
21.37
14.17
6.25
-1.92
-9.79
-16.91
-23.12
-28.64
-34.04
-39.99
-47.11
-55.65
-65.37
-75.45
-84.58
-91.11
-93.51
-90.65
-82.23
-68.84
-51.84
-32.96
-13.90
4.02
19.88
33.18
43.66
51.14
55.59
57.14
56.17
53.36
49.54
45.60
42.30
40.08
39.01
38.83
39.10
39.34
39.29
38.82
37.97
36.74
35.01
32.58
29.20
24.78
19.41
13.36
7.00
0.64
-5.48
-11.37
-17.10
-22.86
-28.87
-35.37
-42.59
-50.60
-59.17
-67.61
-74.77
-79.23
-79.67
-75.26
-65.97
-52.57
-36.43
-19.12
-2.10
13.44
26.66
36.93
43.86
47.35
47.65
45.46
41.73
37.50
33.62
30.57
28.44
27.05
26.12
25.41
24.77
24.13
23.39
22.38
20.87
18.61
15.37
11.03
5.66
-0.55
-7.27
-14.14
-20.87
-27.28
-33.44
-39.60
-46.22
-53.79
-62.58
-72.33
-82.09
-90.26
-94.96
-94.61
-88.41
-76.61
-60.47
-41.76
-22.33
-3.68
13.21
27.74
39.55
48.41
54.18
56.94
57.06
55.22
52.26
49.04
46.24
44.20
42.96
42.26
41.75
41.18
40.38
39.34
38.01
36.34
34.21
31.45
27.96
23.73
18.82
13.34
7.35
0.96
-5.69
-12.36
-18.82
-24.91
-30.69
-36.51
-42.90
-50.44
-59.38
-69.50
-79.94
-89.29
-95.82
-97.95
-94.59
-85.51
-71.38
-53.58
-33.92
-14.18
4.22
20.35
33.70
44.08
51.51
56.09
58.12
58.07
56.55
54.26
51.84
49.74
48.14
47.02
46.26
45.72
45.33
45.06
44.84
44.51
43.85
42.64
40.66
37.79
33.98
29.26
23.72
17.51
10.82
3.88
-3.06
-9.84
-16.36
-22.73
-29.16
-36.00
-43.63
-52.25
-61.67
-71.22
-79.66
-85.45
-87.10
-83.63
-74.79
-61.23
-44.25
-25.48
-6.61
10.99
26.35
38.87
48.30
54.63
58.08
59.07
58.18
56.11
53.57
51.14
49.15
47.66
46.51
45.45
44.24
42.78
41.10
39.35
37.63
35.94
34.14
31.91
28.88
24.79
19.55
13.33
6.52
-0.42
-7.13
-13.42
-19.35
-25.17
-31.22
-37.84
-45.28
-53.60
-62.59
-71.61
-79.59
-85.19
-87.06
-84.24
-76.48
-64.33
-49.03
-32.15
-15.19
0.62
14.43
25.69
34.03
39.24
41.40
40.83
38.20
34.34
30.10
26.16
22.92
20.50
18.85
17.81
17.18
16.76
16.36
15.71
14.55
12.65
9.88
6.25
1.87
-3.04
-8.28
-13.71
-19.32
-25.23
-31.68
-38.92
-47.06
-55.89
-64.77
-72.61
-78.06
-79.82
-77.00
-69.43
-57.64
-42.72
-26.00
-8.80
7.74
22.69
35.26
44.83
51.02
53.82
53.66
51.32
47.79
43.96
40.44
37.49
35.11
33.18
31.55
30.14
28.90
27.72
26.40
24.65
22.14
18.61
13.99
8.39
2.05
-4.66
-11.38
-17.91
-24.18
-30.38
-36.90
-44.23
-52.79
-62.67
-73.36
-83.74
-92.10
-96.65
-95.94
-89.37
-77.32
-61.05
-42.27
-22.66
-3.59
13.94
29.22
41.66
50.79
56.37
58.52
57.82
55.19
51.67
48.11
45.01
42.47
40.33
38.41
36.58
34.90
33.47
32.35
31.36
30.14
28.20
25.12
20.72
15.16
8.86
2.33
-4.00
-9.97
-15.65
-21.32
-27.39
-34.27
-42.33
-51.70
-62.08
-72.55
-81.57
-87.27
-88.02
-82.96
-72.36
-57.51
-40.27
-22.46
-5.44
10.00
23.45
34.63
43.17
48.72
51.19
50.87
48.48
44.98
41.19
37.64
34.44
31.42
28.38
25.18
21.91
18.72
15.74
12.88
9.84
6.16
1.38
-4.77
-12.29
-20.93
-30.25
-39.80
-49.10
-57.83
-65.77
-72.86
-79.15
-84.72
-89.58
-93.56
-96.27
-97.04
-94.96
-89.03
-78.44
-62.83
-42.60
-18.88
6.56
31.77
54.97
74.84
90.64
102.09
109.23
112.28
111.67
108.05
102.30
95.43
88.35
81.73
75.87
70.79
66.36
62.40
58.79
55.48
52.41
49.43
46.29
42.63
38.09
32.45
25.73
18.19
10.26
2.42
-5.00
-11.95
-18.67
-25.58
-33.11
-41.52
-50.64
-59.81
-67.85
-73.28
-74.73
-71.28
-62.83
-50.20
-34.77
-18.19
-1.93
12.89
25.52
35.42
42.26
45.86
46.38
44.38
40.70
36.36
32.23
28.84
26.30
24.45
22.96
21.62
20.32
19.07
17.85
16.50
14.76
12.30
8.93
4.64
-0.31
-5.59
-10.89
-16.13
-21.44
-27.11
-33.54
-41.08
-49.86
-59.72
-70.00
-79.58
-86.97
-90.67
-89.51
-83.03
-71.54
-56.12
-38.28
-19.62
-1.61
14.63
28.29
38.87
46.20
50.39
51.90
51.42
49.80
47.76
45.79
44.04
42.42
40.75
38.90
36.86
34.70
32.51
30.33
28.10
25.68
22.85
19.43
15.25
10.35
4.95
-0.63
-6.07
-11.30
-16.51
-22.21
-29.01
-37.33
-47.18
-57.98
-68.58
-77.47
-83.09
-84.27
-80.39
-71.59
-58.59
-42.49
-24.52
-5.85
12.42
29.25
43.58
54.48
61.33
64.01
63.07
59.61
55.02
50.63
47.41
45.79
45.67
46.58
47.82
48.72
48.78
47.68
45.43
42.28
38.55
34.61
30.60
26.49
22.10
17.27
12.00
6.42
0.76
-4.89
-10.61
-16.69
-23.51
-31.34
-40.27
-50.10
-60.21
-69.61
-77.01
-81.05
-80.61
-75.15
-64.84
-50.58
-33.71
-15.75
1.93
18.20
32.24
43.45
51.46
56.12
57.57
56.33
53.17
48.99
44.66
40.75
37.55
35.03
32.99
31.22
29.61
28.15
26.83
25.49
23.84
21.46
18.02
13.42
7.88
1.83
-4.27
-10.13
-15.76
-21.33
-27.19
-33.65
-40.89
-48.95
-57.58
-66.18
-73.70
-78.77
-80.00
-76.37
-67.63
-54.44
-38.17
-20.58
-3.36
12.12
24.86
34.37
40.43
43.22
43.17
40.95
37.38
33.22
29.15
25.59
22.75
20.63
19.12
18.04
17.17
16.30
15.15
13.40
10.80
7.21
2.71
-2.44
-7.87
-13.26
-18.48
-23.64
-29.05
-35.08
-42.12
-50.35
-59.61
-69.30
-78.22
-84.79
-87.35
-84.64
-76.27
-62.83
-45.79
-27.04
-8.36
8.88
23.82
36.00
45.20
51.33
54.48
54.96
53.32
50.33
46.74
43.15
39.93
37.10
34.58
32.22
29.97
27.89
26.04
24.38
22.68
20.55
17.56
13.40
8.10
1.95
-4.55
-10.91
-16.88
-22.49
-28.12
-34.38
-41.91
-51.12
-61.93
-73.55
-84.45
-92.72
-96.41
-94.25
-85.96
-72.29
-54.76
-35.12
-14.98
4.46
22.32
37.85
50.38
59.38
64.58
66.14
64.72
61.30
56.97
52.68
49.00
46.16
44.01
42.24
40.53
38.75
36.91
35.16
33.57
32.04
30.24
27.72
24.13
19.40
13.76
7.68
1.63
-4.14
-9.60
-15.02
-20.75
-27.16
-34.54
-43.05
-52.63
-62.79
-72.55
-80.42
-84.70
-83.96
-77.43
-65.38
-48.96
-29.90
-10.00
9.20
26.60
41.49
53.38
61.95
67.09
68.96
68.08
65.31
61.57
57.68
54.12
50.99
48.13
45.35
42.53
39.75
37.23
35.13
33.44
31.97
30.31
28.05
24.91
20.84
15.98
10.62
5.04
-0.62
-6.32
-12.15
-18.19
-24.47
-31.04
-37.96
-45.39
-53.46
-62.03
-70.52
-77.78
-82.37
-82.92
-78.63
-69.49
-56.27
-40.31
-23.06
-5.90
10.06
23.89
34.82
42.28
45.99
46.10
43.26
38.50
32.96
27.57
22.95
19.30
16.55
14.52
13.06
12.06
11.39
10.83
10.07
8.79
6.75
3.85
0.19
-4.10
-8.81
-13.79
-18.95
-24.24
-29.74
-35.64
-42.26
-49.83
-58.23
-66.82
-74.38
-79.34
-80.29
-76.39
-67.68
-55.09
-40.07
-24.23
-8.93
4.91
16.74
26.27
33.23
37.49
39.06
38.24
35.69
32.28
28.84
25.93
23.75
22.17
20.95
19.97
19.13
18.37
17.51
16.16
14.01
10.87
6.92
2.56
-1.81
-5.97
-10.07
-14.47
-19.65
-25.98
-33.61
-42.41
-51.85
-60.93
-68.22
-72.08
-71.09
-64.51
-52.60
-36.56
-18.22
0.50
18.09
33.51
46.16
55.67
61.85
64.65
64.33
61.51
57.00
51.64
46.07
40.62
35.41
30.53
26.11
22.32
19.20
16.63
14.20
11.51
8.23
4.25
-0.28
-5.10
-10.02
-14.98
-20.07
-25.52
-31.69
-38.88
-47.28
-56.75
-66.54
-75.40
-81.69
-83.84
-80.84
-72.52
-59.66
-43.71
-26.35
-9.19
6.60
20.28
31.47
40.00
45.78
48.81
49.20
47.28
43.63
39.04
34.38
30.30
27.09
24.63
22.51
20.31
17.76
14.84
11.72
8.59
5.50
2.35
-1.13
-5.21
-10.17
-16.21
-23.46
-31.92
-41.33
-51.00
-59.85
-66.44
-69.36
-67.56
-60.69
-49.25
-34.40
-17.70
-0.68
15.34
29.39
40.85
49.30
54.56
56.64
55.80
52.53
47.54
41.60
35.47
29.72
24.62
20.17
16.22
12.61
9.25
6.20
3.53
1.17
-1.08
-3.64
-6.91
-11.23
-16.75
-23.44
-31.07
-39.28
-47.48
-54.76
-59.98
-61.91
-59.51
-52.36
-40.77
-25.76
-8.87
8.29
24.23
37.93
48.69
56.22
60.46
61.59
60.05
56.46
51.61
46.39
41.56
37.60
34.67
32.55
30.80
28.96
26.73
24.04
20.96
17.60
13.93
9.84
5.15
-0.21
-6.24
-12.88
-20.17
-28.26
-37.24
-46.97
-56.73
-65.28
-70.97
-72.23
-68.10
-58.48
-44.29
-27.12
-8.87
8.78
24.58
37.76
47.91
54.81
58.36
58.66
56.17
51.64
46.14
40.64
35.89
32.14
29.24
26.86
24.63
22.30
19.76
16.94
13.80
10.27
6.37
2.18
-2.19
-6.62
-11.14
-15.92
-21.29
-27.59
-35.05
-43.61
-52.71
-61.27
-67.77
-70.57
-68.43
-60.90
-48.53
-32.75
-15.39
1.78
17.41
30.59
40.77
47.55
50.71
50.35
46.97
41.55
35.25
29.18
24.02
19.98
16.87
14.29
11.89
9.46
6.94
4.34
1.68
-1.01
-3.77
-6.69
-9.94
-13.77
-18.57
-24.75
-32.61
-42.14
-52.85
-63.60
-72.75
-78.47
-79.25
-74.28
-63.77
-48.84
-31.19
-12.62
5.34
21.65
35.68
47.04
55.40
60.51
62.33
61.14
57.59
52.57
47.03
41.73
37.13
33.37
30.35
27.85
25.61
23.30
20.62
17.27
13.04
7.86
1.76
-5.09
-12.53
-20.42
-28.74
-37.55
-46.95
-56.83
-66.72
-75.64
-82.21
-84.95
-82.75
-75.24
-62.96
-47.17
-29.44
-11.34
5.84
21.18
34.02
43.95
50.80
54.73
56.17
55.74
54.05
51.55
48.46
44.85
40.86
36.74
32.86
29.54
26.93
24.90
23.09
21.10
18.64
15.61
12.08
8.19
4.01
-0.42
-5.14
-10.26
-15.97
-22.62
-30.54
-39.95
-50.66
-61.84
-72.06
-79.49
-82.37
-79.54
-70.79
-56.91
-39.45
-20.25
-0.94
17.30
33.72
47.84
59.25
67.54
72.48
74.19
73.20
70.31
66.37
62.06
57.78
53.78
50.23
47.31
45.13
43.64
42.57
41.47
39.84
37.24
33.39
28.24
21.96
14.97
7.75
0.81
-5.59
-11.45
-17.06
-22.87
-29.29
-36.59
-44.77
-53.58
-62.39
-70.19
-75.71
-77.63
-74.93
-67.28
-55.14
-39.65
-22.35
-4.78
11.72
26.06
37.41
45.15
49.01
49.15
46.27
41.39
35.67
30.03
25.04
20.89
17.54
14.96
13.15
12.15
11.91
12.15
12.38
12.02
10.61
7.93
4.06
-0.64
-5.74
-10.87
-15.91
-20.95
-26.29
-32.29
-39.19
-46.94
-55.04
-62.48
-68.00
-70.26
-68.24
-61.52
-50.41
-35.85
-19.18
-1.89
14.66
29.35
41.38
50.25
55.74
57.96
57.30
54.41
50.08
45.13
40.25
35.91
32.29
29.33
26.84
24.64
22.55
20.45
18.15
15.41
11.96
7.66
2.52
-3.24
-9.32
-15.47
-21.62
-27.84
-34.32
-41.26
-48.79
-56.93
-65.54
-74.19
-82.07
-87.99
-90.59
-88.63
-81.52
-69.43
-53.41
-35.01
-15.94
2.32
18.74
32.73
44.00
52.41
57.88
60.46
60.40
58.22
54.68
50.64
46.76
43.36
40.35
37.50
34.56
31.54
28.71
26.41
24.80
23.70
22.57
20.74
17.63
12.95
6.81
-0.35
-7.92
-15.27
-21.91
-27.66
-32.68
-37.48
-42.81
-49.36
-57.44
-66.75
-76.28
-84.41
-89.27
-89.27
-83.45
-71.81
-55.29
-35.54
-14.57
5.73
23.85
38.80
50.14
57.88
62.35
64.09
63.78
62.09
59.66
56.94
54.26
51.78
49.54
47.61
46.03
44.81
43.85
42.94
41.74
39.96
37.40
34.03
30.01
25.57
20.90
16.16
11.36
6.46
1.39
-3.90
-9.41
-15.05
-20.70
-26.22
-31.55
-36.79
-42.18
-48.08
-54.75
-62.18
-69.85
-76.67
-81.12
-81.67
-77.23
-67.57
-53.43
-36.28
-17.88
0.16
16.66
30.86
42.28
50.61
55.61
57.33
56.20
53.04
48.88
44.61
40.76
37.41
34.39
31.46
28.62
26.04
23.98
22.55
21.61
20.77
19.48
17.27
13.90
9.37
3.95
-1.97
-7.94
-13.62
-18.81
-23.56
-28.14
-32.97
-38.47
-44.92
-52.28
-60.04
-67.29
-72.78
-75.30
-73.90
-68.19
-58.44
-45.44
-30.37
-14.54
0.85
14.71
26.23
34.80
40.13
42.25
41.56
38.74
34.60
29.90
25.21
20.89
17.02
13.56
10.46
7.63
5.04
2.65
0.42
-1.70
-3.74
-5.75
-7.80
-10.06
-12.69
-15.88
-19.72
-24.10
-28.84
-33.79
-39.06
-44.99
-51.95
-59.97
-68.36
-75.69
-80.10
-79.92
-74.28
-63.41
-48.52
-31.32
-13.56
3.36
18.47
31.11
40.78
47.15
50.16
50.06
47.54
43.55
39.08
34.96
31.63
29.12
27.18
25.48
23.80
22.17
20.76
19.73
19.00
18.16
16.61
13.74
9.32
3.51
-3.09
-9.77
-15.98
-21.56
-26.80
-32.26
-38.58
-46.15
-54.96
-64.44
-73.51
-80.78
-84.81
-84.39
-78.93
-68.55
-54.06
-36.82
-18.36
-0.17
16.56
30.99
42.60
51.13
56.54
58.97
58.76
56.48
52.72
48.11
43.12
38.09
33.24
28.76
24.89
21.83
19.75
18.62
18.21
18.04
17.50
16.07
13.40
9.49
4.60
-0.76
-6.12
-11.12
-15.71
-20.10
-24.73
-30.13
-36.74
-44.68
-53.58
-62.57
-70.26
-75.06
-75.61
-71.10
-61.56
-47.80
-31.19
-13.25
4.60
21.29
36.02
48.19
57.31
63.03
65.28
64.38
61.04
56.25
51.00
46.06
41.82
38.35
35.46
32.99
30.84
28.97
27.35
25.90
24.39
22.54
20.07
16.79
12.75
8.21
3.55
-0.85
-4.80
-8.38
-11.99
-16.09
-21.17
-27.49
-35.11
-43.77
-52.94
-61.75
-69.03
-73.43
-73.72
-69.11
-59.57
-45.88
-29.47
-12.08
4.60
19.29
31.14
39.76
45.09
47.36
46.98
44.50
40.61
36.01
31.38
27.25
23.96
21.62
20.16
19.32
18.73
18.00
16.75
14.75
11.91
8.31
4.14
-0.44
-5.31
-10.40
-15.69
-21.16
-26.84
-32.87
-39.44
-46.67
-54.27
-61.42
-66.74
-68.66
-65.90
-58.00
-45.50
-29.76
-12.51
4.58
20.25
33.62
44.15
51.47
55.39
55.96
53.57
48.92
42.95
36.59
30.59
25.39
21.17
17.87
15.34
13.39
11.78
10.16
8.12
5.29
1.48
-3.27
-8.61
-14.04
-19.10
-23.58
-27.60
-31.58
-36.15
-41.92
-49.23
-57.97
-67.32
-75.81
-81.57
-82.81
-78.41
-68.29
-53.43
-35.51
-16.44
2.22
19.35
34.27
46.52
55.72
61.57
64.01
63.35
60.28
55.71
50.58
45.62
41.26
37.63
34.65
32.14
29.91
27.83
25.73
23.48
20.93
17.97
14.57
10.74
6.55
2.01
-2.93
-8.35
-14.33
-20.89
-28.03
-35.75
-44.10
-53.08
-62.48
-71.60
-79.31
-84.04
-84.24
-78.83
-67.50
-50.70
-29.42
-5.07
20.57
45.28
66.56
82.03
90.16
90.86
85.64
77.05
67.79
59.77
53.73
49.46
46.33
43.88
42.01
40.79
40.19
39.86
39.30
38.04
35.87
32.89
29.28
25.24
20.78
15.78
10.14
3.83
-3.01
-10.16
-17.46
-24.93
-32.77
-41.27
-50.55
-60.30
-69.60
-77.06
-81.05
-80.20
-73.87
-62.27
-46.46
-28.01
-8.59
10.37
27.76
42.76
54.76
63.29
68.18
69.62
68.19
64.79
60.34
55.61
51.06
46.88
43.10
39.73
36.81
34.39
32.45
30.85
29.27
27.35
24.71
21.15
16.67
11.43
5.73
-0.12
-5.93
-11.60
-17.21
-23.00
-29.27
-36.37
-44.51
-53.55
-62.83
-71.12
-76.73
-78.00
-73.76
-63.81
-48.98
-30.93
-11.64
7.03
23.67
37.32
47.39
53.63
56.07
55.24
52.07
47.75
43.46
39.94
37.40
35.52
33.80
31.87
29.64
27.28
25.04
22.99
20.97
18.63
15.63
11.76
7.06
1.73
-3.97
-9.84
-15.80
-21.87
-28.18
-34.91
-42.34
-50.61
-59.63
-68.82
-77.04
-82.76
-84.47
-81.15
-72.65
-59.74
-43.83
-26.52
-9.22
7.06
21.55
33.60
42.62
48.13
50.04
48.85
45.51
41.27
37.20
33.93
31.54
29.75
28.22
26.76
25.39
24.27
23.49
22.96
22.38
21.38
19.58
16.74
12.78
7.76
1.88
-4.57
-11.28
-17.99
-24.59
-31.08
-37.68
-44.73
-52.58
-61.50
-71.42
-81.76
-91.32
-98.46
-101.38
-98.75
-90.10
-76.01
-57.96
-37.78
-17.24
2.28
19.80
34.64
46.29
54.40
58.99
60.52
59.83
57.88
55.53
53.26
51.23
49.44
47.88
46.68
45.98
45.85
46.18
46.63
46.79
46.26
44.77
42.24
38.71
34.39
29.51
24.40
19.35
14.48
9.71
4.77
-0.63
-6.65
-13.19
-19.89
-26.38
-32.37
-37.85
-43.09
-48.49
-54.49
-61.39
-69.27
-77.83
-86.35
-93.65
-98.23
-98.63
-93.83
-83.61
-68.64
-50.33
-30.37
-10.34
8.56
25.51
39.98
51.53
59.85
64.81
66.63
65.91
63.54
60.50
57.57
55.24
53.65
52.71
52.23
52.00
51.88
51.79
51.65
51.37
50.74
49.49
47.34
44.09
39.81
34.75
29.33
23.96
18.87
14.01
9.14
3.92
-1.90
-8.32
-15.12
-21.97
-28.48
-34.37
-39.54
-44.06
-48.14
-52.10
-56.32
-61.19
-66.99
-73.75
-81.02
-87.81
-92.64
-93.92
-90.36
-81.48
-67.76
-50.53
-31.62
-12.88
4.25
18.83
30.38
38.73
43.91
46.09
45.67
43.31
39.91
36.41
33.60
31.88
31.23
31.25
31.46
31.43
31.03
30.38
29.71
29.17
28.69
27.90
26.36
23.72
19.93
15.26
10.20
5.25
0.64
-3.68
-8.06
-12.96
-18.80
-25.88
-34.21
-43.62
-53.57
-63.21
-71.30
-76.45
-77.40
-73.40
-64.50
-51.53
-35.93
-19.32
-3.11
11.70
24.46
34.78
42.33
46.88
48.35
47.02
43.54
38.90
34.16
30.16
27.35
25.72
24.90
24.47
24.09
23.60
23.00
22.30
21.44
20.22
18.34
15.51
11.58
6.63
0.96
-5.03
-11.00
-16.79
-22.46
-28.25
-34.41
-41.17
-48.71
-57.07
-66.16
-75.61
-84.60
-91.85
-95.80
-95.07
-88.84
-77.22
-61.28
-42.65
-23.15
-4.35
12.65
27.20
38.86
47.35
52.53
54.49
53.70
50.88
46.97
42.85
39.16
36.25
34.20
32.93
32.35
32.32
32.73
33.37
33.90
33.91
32.96
30.66
26.85
21.60
15.26
8.31
1.26
-5.53
-11.89
-17.86
-23.65
-29.50
-35.72
-42.63
-50.58
-59.86
-70.52
-82.12
-93.58
-103.25
-109.21
-109.81
-104.17
-92.43
-75.80
-56.19
-35.61
-15.73
2.45
18.57
32.70
44.95
55.27
63.47
69.30
72.75
74.16
74.15
73.42
72.45
71.35
69.89
67.80
64.92
61.42
57.61
53.85
50.31
46.93
43.42
39.49
34.91
29.64
23.84
17.73
11.59
5.57
-0.26
-6.03
-11.94
-18.23
-25.17
-32.96
-41.70
-51.24
-61.00
-69.95
-76.64
-79.60
-77.77
-70.84
-59.41
-44.70
-28.21
-11.27
5.08
20.03
32.80
42.59
48.73
50.96
49.61
45.64
40.34
34.94
30.29
26.76
24.31
22.71
21.72
21.17
20.92
20.82
20.63
20.03
18.63
16.09
12.23
7.10
1.07
-5.36
-11.65
-17.53
-23.08
-28.74
-35.16
-42.84
-51.92
-61.88
-71.55
-79.31
-83.48
-82.75
-76.53
-65.14
-49.66
-31.65
-12.76
5.53
22.08
36.04
46.85
54.19
57.98
58.50
56.35
52.38
47.55
42.69
38.31
34.60
31.44
28.60
25.90
23.29
20.80
18.48
16.18
13.60
10.33
6.05
0.69
-5.51
-12.13
-18.79
-25.27
-31.63
-38.21
-45.43
-53.72
-63.23
-73.68
-84.15
-93.15
-98.83
-99.52
-94.25
-83.17
-67.48
-49.09
-29.92
-11.39
5.71
21.11
34.63
45.89
54.33
59.40
60.93
59.22
54.97
48.98
41.99
34.61
27.45
21.32
16.99
15.07
15.65
18.18
21.67
25.05
27.57
28.90
28.99
27.86
25.39
21.39
15.76
8.73
0.83
-7.31
-15.20
-22.77
-30.34
-38.43
-47.58
-57.97
-69.21
-80.20
-89.28
-94.51
-94.28
-87.77
-75.27
-58.08
-38.10
-17.22
3.04
21.70
38.17
51.98
62.72
70.06
73.99
74.85
73.25
69.80
64.89
58.81
51.87
44.72
38.39
34.05
32.57
34.14
38.03
42.87
47.10
49.49
49.41
46.92
42.52
36.84
30.49
23.87
17.27
10.87
4.76
-1.10
-6.85
-12.84
-19.56
-27.52
-37.04
-48.05
-59.81
-70.99
-79.75
-84.33
-83.48
-76.90
-65.28
-50.03
-32.81
-15.01
2.36
18.64
33.18
45.20
53.85
58.48
58.98
56.04
50.93
45.12
39.77
35.49
32.28
29.90
28.12
26.98
26.67
27.31
28.65
30.04
30.53
29.30
25.96
20.70
14.25
7.56
1.41
-3.84
-8.38
-12.87
-18.11
-24.82
-33.31
-43.43
-54.42
-65.07
-73.83
-79.11
-79.64
-74.76
-64.61
-50.16
-32.96
-14.77
2.75
18.31
31.07
40.59
46.78
49.85
50.29
48.78
46.08
42.79
39.32
35.81
32.22
28.50
24.74
21.10
17.81
15.02
12.66
10.49
8.13
5.23
1.54
-3.02
-8.31
-14.06
-19.86
-25.33
-30.24
-34.67
-39.01
-43.98
-50.32
-58.58
-68.64
-79.61
-89.84
-97.17
-99.64
-95.99
-86.00
-70.58
-51.35
-30.27
-9.09
10.81
28.47
43.25
54.71
62.54
66.67
67.37
65.23
61.11
55.97
50.62
45.63
41.20
37.34
33.97
31.09
28.85
27.45
26.96
27.20
27.71
27.81
26.86
24.40
20.33
14.87
8.47
1.59
-5.39
-12.29
-19.05
-25.76
-32.61
-39.89
-47.95
-57.02
-67.01
-77.33
-86.79
-93.78
-96.65
-94.17
-85.86
-72.11
-54.10
-33.45
-11.85
9.24
28.71
45.84
60.10
71.13
78.63
82.48
82.91
80.53
76.32
71.40
66.76
62.98
60.21
58.26
56.83
55.71
54.81
54.05
53.19
51.81
49.33
45.25
39.43
32.17
24.13
16.15
8.82
2.35
-3.51
-9.32
-15.64
-22.82
-30.86
-39.50
-48.36
-57.17
-65.84
-74.41
-82.91
-91.21
-98.90
-105.24
-109.20
-109.58
-105.20
-95.21
-79.30
-57.87
-32.14
-4.11
23.60
48.07
66.63
77.56
80.64
77.23
69.92
61.60
54.50
49.64
46.83
45.17
43.84
42.47
41.16
40.16
39.52
38.92
37.86
35.86
32.67
28.34
23.07
17.19
10.96
4.57
-1.89
-8.46
-15.27
-22.51
-30.41
-39.08
-48.41
-57.89
-66.61
-73.28
-76.47
-75.01
-68.27
-56.42
-40.43
-21.85
-2.53
15.71
31.27
42.96
50.13
52.75
51.43
47.26
41.59
35.68
30.41
26.32
23.58
22.24
22.25
23.48
25.60
28.10
30.32
31.60
31.41
29.44
25.56
19.86
12.66
4.41
-4.25
-12.73
-20.56
-27.61
-34.17
-40.79
-48.13
-56.61
-66.09
-75.69
-83.89
-88.87
-89.04
-83.51
-72.33
-56.42
-37.24
-16.43
4.50
24.27
41.83
56.30
67.01
73.61
76.11
74.97
71.01
65.26
58.73
52.27
46.42
41.40
37.17
33.52
30.28
27.39
24.89
22.82
21.05
19.27
16.97
13.72
9.28
3.76
-2.46
-8.89
-15.17
-21.15
-26.94
-32.82
-39.17
-46.37
-54.77
-64.46
-75.13
-85.80
-94.90
-100.51
-100.91
-95.11
-83.19
-66.20
-45.86
-24.00
-2.25
18.09
36.00
50.58
61.13
67.24
69.00
67.11
62.78
57.42
52.27
48.15
45.33
43.67
42.72
42.05
41.33
40.44
39.38
38.21
36.94
35.45
33.47
30.70
26.90
21.96
15.99
9.26
2.15
-5.05
-12.22
-19.41
-26.79
-34.55
-42.84
-51.76
-61.30
-71.31
-81.21
-89.99
-96.18
-98.16
-94.64
-85.07
-69.97
-50.73
-29.31
-7.73
12.33
29.68
43.55
53.54
59.50
61.59
60.35
56.68
51.65
46.33
41.46
37.37
34.05
31.31
28.99
27.04
25.51
24.36
23.39
22.21
20.40
17.57
13.54
8.33
2.13
-4.80
-12.22
-19.87
-27.60
-35.33
-43.08
-50.99
-59.25
-67.88
-76.55
-84.41
-90.17
-92.38
-89.86
-82.07
-69.29
-52.52
-33.18
-12.83
7.09
25.25
40.47
51.79
58.56
60.69
58.73
53.80
47.34
40.71
34.88
30.32
26.99
24.57
22.64
20.86
18.99
16.88
14.40
11.39
7.77
3.52
-1.25
-6.42
-11.84
-17.49
-23.54
-30.28
-38.09
-47.29
-57.88
-69.43
-80.87
-90.53
-96.50
-97.04
-91.19
-79.08
-61.87
-41.43
-19.78
1.36
20.72
37.45
50.91
60.68
66.45
68.27
66.56
62.14
56.04
49.32
42.83
37.12
32.44
28.80
26.07
24.08
22.59
21.33
19.90
17.86
14.81
10.58
5.28
-0.70
-6.89
-12.93
-18.80
-24.80
-31.46
-39.38
-48.92
-60.04
-72.11
-83.84
-93.47
-99.08
-99.04
-92.50
-79.56
-61.33
-39.58
-16.34
6.50
27.42
45.36
59.62
69.80
75.82
77.93
76.75
73.20
68.43
63.50
59.19
55.81
53.20
50.95
48.63
46.03
43.23
40.47
37.95
35.63
33.14
29.96
25.59
19.86
12.97
5.43
-2.17
-9.37
-16.03
-22.42
-29.03
-36.46
-45.19
-55.40
-66.75
-78.29
-88.47
-95.37
-97.17
-92.63
-81.51
-64.70
-43.97
-21.48
0.78
21.31
39.17
53.81
64.89
72.16
75.63
75.63
72.95
68.72
64.07
59.89
56.61
54.23
52.49
51.04
49.65
48.23
46.79
45.32
43.74
41.82
39.19
35.48
30.37
23.82
16.11
7.80
-0.44
-8.14
-15.13
-21.74
-28.53
-36.14
-45.01
-55.18
-66.37
-77.92
-88.82
-97.79
-103.36
-104.10
-99.01
-87.86
-71.31
-50.85
-28.47
-6.20
14.24
31.57
45.03
54.20
59.05
59.94
57.60
53.11
47.64
42.21
37.50
33.73
30.81
28.44
26.39
24.53
22.80
21.18
19.51
17.60
15.22
12.23
8.62
4.50
-0.03
-4.91
-10.20
-16.05
-22.66
-30.25
-38.93
-48.64
-58.94
-68.98
-77.41
-82.63
-83.10
-77.79
-66.61
-50.43
-30.92
-10.12
10.05
28.03
42.81
53.81
60.80
63.84
63.28
59.82
54.36
47.96
41.59
35.95
31.39
27.95
25.42
23.48
21.77
19.98
17.82
15.11
11.69
7.54
2.73
-2.64
-8.38
-14.34
-20.46
-26.81
-33.64
-41.36
-50.38
-60.91
-72.60
-84.38
-94.47
-100.70
-101.18
-94.85
-81.88
-63.57
-41.97
-19.28
2.66
22.50
39.43
52.93
62.69
68.61
70.90
70.05
66.91
62.44
57.55
52.93
48.95
45.59
42.68
39.97
37.39
35.06
33.18
31.80
30.66
29.19
26.70
22.67
17.01
10.09
2.56
-4.90
-11.89
-18.37
-24.68
-31.39
-39.13
-48.39
-59.31
-71.48
-83.83
-94.73
-102.18
-104.30
-99.82
-88.53
-71.31
-49.96
-26.69
-3.65
17.54
35.87
50.87
62.34
70.27
74.70
75.84
74.22
70.63
66.13
61.69
58.01
55.35
53.60
52.39
51.38
50.35
49.31
48.28
47.20
45.90
44.00
41.17
37.15
31.93
25.69
18.76
11.50
4.16
-3.14
-10.46
-17.91
-25.62
-33.67
-42.13
-51.05
-60.54
-70.58
-80.88
-90.60
-98.32
-102.30
-100.97
-93.50
-80.17
-62.30
-41.81
-20.67
-0.41
18.00
33.97
47.07
56.88
63.06
65.59
64.91
61.97
57.98
54.07
50.99
48.94
47.67
46.66
45.44
43.82
41.91
40.03
38.41
37.04
35.61
33.62
30.61
26.38
21.08
15.05
8.74
2.44
-3.75
-9.90
-16.24
-22.99
-30.36
-38.47
-47.39
-57.02
-66.98
-76.46
-84.24
-88.80
-88.77
-83.28
-72.33
-56.83
-38.37
-18.85
-0.01
16.78
30.61
40.93
47.48
50.29
49.75
46.66
42.05
37.07
32.60
29.11
26.65
24.97
23.79
22.96
22.47
22.27
22.18
21.79
20.55
18.03
14.01
8.64
2.35
-4.33
-10.91
-17.12
-23.03
-28.96
-35.40
-42.86
-51.67
-61.85
-72.82
-83.49
-92.20
-97.14
-96.76
-90.26
-77.84
-60.69
-40.67
-19.76
0.32
18.35
33.59
45.62
54.17
59.13
60.61
59.09
55.36
50.44
45.41
41.11
38.01
36.19
35.37
35.12
34.99
34.70
34.05
32.98
31.43
29.32
26.54
23.02
18.75
13.79
8.24
2.23
-4.12
-10.67
-17.28
-23.79
-30.11
-36.27
-42.39
-48.76
-55.79
-63.87
-73.13
-83.26
-93.21
-101.35
-105.71
-104.58
-97.08
-83.50
-65.14
-43.99
-22.10
-1.12
17.82
34.14
47.50
57.69
64.62
68.36
69.25
67.90
65.09
61.56
57.96
54.74
52.21
50.57
49.85
49.90
50.37
50.79
50.70
49.82
48.12
45.77
43.04
40.06
36.80
33.00
28.41
22.88
16.53
9.71
2.92
-3.43
-9.25
-14.72
-20.30
-26.56
-33.94
-42.70
-52.72
-63.34
-73.15
-80.19
-82.44
-78.67
-69.25
-56.37
-43.46
-34.06
-30.56
-33.39
-41.11
-51.03
-60.25
-66.31
-67.58
-63.25
-53.30
-38.40
-19.92
0.34
20.34
38.30
52.95
63.67
70.44
73.70
74.08
72.29
68.97
64.66
59.84
54.91
50.23
46.08
42.65
40.00
38.06
36.65
35.54
34.49
33.25
31.59
29.32
26.25
22.30
17.44
11.77
5.49
-1.13
-7.76
-14.20
-20.36
-26.35
-32.48
-39.10
-46.47
-54.64
-63.32
-71.87
-79.37
-84.65
-86.63
-84.41
-77.50
-66.07
-50.88
-33.26
-14.86
2.65
17.84
29.71
37.80
42.19
43.31
41.86
38.61
34.30
29.61
25.10
21.21
18.25
16.35
15.39
15.11
15.14
15.12
14.70
13.64
11.77
9.01
5.41
1.11
-3.60
-8.50
-13.40
-18.38
-23.65
-29.62
-36.64
-44.92
-54.31
-64.20
-73.47
-80.62
-84.07
-82.61
-75.71
-63.74
-47.92
-29.91
-11.41
6.14
21.73
34.75
44.78
51.56
54.97
55.16
52.61
48.16
42.86
37.70
33.38
30.13
27.81
26.04
24.54
23.21
22.11
21.26
20.52
19.46
17.52
14.20
9.35
3.22
-3.63
-10.56
-17.05
-22.96
-28.53
-34.32
-41.00
-49.15
-58.94
-69.92
-81.00
-90.49
-96.53
-97.50
-92.56
-81.79
-66.18
-47.31
-26.92
-6.60
12.37
29.03
42.69
52.82
59.20
61.91
61.46
58.72
54.71
50.42
46.53
43.40
41.07
39.38
38.10
37.01
35.99
34.94
33.76
32.31
30.39
27.78
24.27
19.75
14.25
8.04
1.56
-4.71
-10.45
-15.60
-20.50
-25.68
-31.70
-38.98
-47.65
-57.49
-67.84
-77.57
-85.22
-89.13
-87.90
-80.76
-67.94
-50.63
-30.64
-9.96
9.76
27.40
42.33
54.14
62.57
67.45
68.88
67.39
63.88
59.42
55.02
51.26
48.30
45.96
43.95
42.11
40.38
38.86
37.57
36.39
35.01
33.04
30.16
26.20
21.21
15.40
9.07
2.51
-4.08
-10.60
-17.07
-23.61
-30.43
-37.77
-45.84
-54.71
-64.19
-73.63
-81.94
-87.63
-89.20
-85.48
-76.13
-61.72
-43.71
-23.95
-4.29
13.79
29.30
41.61
50.34
55.29
56.54
54.57
50.31
44.94
39.63
35.18
31.91
29.65
28.02
26.67
25.39
24.13
22.88
21.55
19.88
17.57
14.38
10.25
5.42
0.19
-5.10
-10.34
-15.65
-21.37
-27.92
-35.59
-44.44
-54.16
-63.93
-72.54
-78.48
-80.31
-77.01
-68.30
-54.82
-37.97
-19.54
-1.23
15.59
30.02
41.46
49.50
53.90
54.68
52.26
47.51
41.59
35.60
30.39
26.32
23.32
21.17
19.61
18.55
17.92
17.55
17.10
16.05
13.91
10.37
5.54
-0.20
-6.29
-12.31
-18.12
-23.93
-30.17
-37.28
-45.60
-55.27
-66.13
-77.60
-88.57
-97.43
-102.29
-101.47
-94.10
-80.39
-61.70
-40.09
-17.78
3.39
22.19
37.93
50.27
59.02
64.13
65.79
64.54
61.23
56.94
52.65
49.03
46.30
44.26
42.55
40.87
39.16
37.56
36.23
35.17
34.03
32.23
29.17
24.48
18.27
11.09
3.74
-3.06
-9.01
-14.34
-19.74
-26.08
-34.08
-44.03
-55.55
-67.66
-78.83
-87.25
-91.27
-89.68
-82.07
-68.91
-51.45
-31.38
-10.47
9.76
28.18
44.00
56.69
65.92
71.58
73.83
73.14
70.29
66.20
61.77
57.68
54.31
51.71
49.68
47.97
46.40
44.90
43.48
42.11
40.58
38.51
35.45
31.03
25.18
18.18
10.57
2.95
-4.19
-10.71
-16.78
-22.87
-29.53
-37.28
-46.37
-56.78
-68.00
-79.01
-88.33
-94.30
-95.43
-90.83
-80.53
-65.45
-47.13
-27.27
-7.40
11.27
27.89
41.76
52.31
59.12
62.19
61.97
59.33
55.37
51.02
46.93
43.32
40.16
37.36
34.90
32.86
31.30
30.18
29.25
28.06
26.18
23.26
19.23
14.22
8.56
2.63
-3.26
-8.93
-14.37
-19.79
-25.56
-32.14
-39.89
-48.82
-58.38
-67.46
-74.52
-78.01
-76.75
-70.29
-58.95
-43.79
-26.23
-7.82
10.06
26.26
39.83
50.11
56.65
59.36
58.63
55.29
50.46
45.25
40.49
36.56
33.40
30.71
28.17
25.68
23.27
21.06
19.05
17.07
14.77
11.77
7.79
2.82
-2.93
-9.11
-15.41
-21.66
-27.93
-34.54
-41.92
-50.50
-60.44
-71.39
-82.33
-91.63
-97.33
-97.73
-91.95
-80.21
-63.73
-44.38
-24.03
-4.22
13.99
29.88
42.90
52.54
58.51
60.90
60.27
57.58
53.85
49.95
46.39
43.35
40.81
38.68
36.90
35.45
34.24
33.14
31.94
30.37
28.15
25.00
20.73
15.30
8.88
1.90
-5.10
-11.60
-17.39
-22.66
-28.00
-34.16
-41.81
-51.24
-62.19
-73.72
-84.32
-92.16
-95.48
-93.05
-84.51
-70.54
-52.64
-32.68
-12.47
6.66
23.85
38.63
50.65
59.60
65.25
67.60
66.96
63.98
59.56
54.64
50.07
46.44
44.01
42.70
42.25
42.22
42.18
41.80
40.89
39.39
37.27
34.49
30.96
26.57
21.32
15.32
8.83
2.11
-4.63
-11.33
-18.03
-24.79
-31.65
-38.68
-46.06
-54.12
-63.11
-73.04
-83.20
-92.16
-97.95
-98.68
-93.24
-81.65
-65.06
-45.37
-24.57
-4.28
14.45
31.00
44.93
55.77
63.10
66.68
66.73
63.99
59.57
54.70
50.35
47.00
44.66
43.07
41.87
40.89
40.05
39.34
38.65
37.72
36.21
33.81
30.40
26.08
21.11
15.81
10.46
5.18
-0.01
-5.24
-10.67
-16.50
-22.88
-29.99
-37.93
-46.78
-56.46
-66.60
-76.33
-84.32
-89.01
-88.95
-83.35
-72.32
-56.91
-38.78
-19.78
-1.50
14.90
28.66
39.29
46.52
50.25
50.70
48.46
44.43
39.66
35.03
31.11
28.08
25.77
23.98
22.51
21.35
20.51
19.92
19.34
18.38
16.55
13.49
9.10
3.61
-2.51
-8.70
-14.59
-20.13
-25.59
-31.44
-38.19
-46.15
-55.24
-64.87
-73.91
-80.83
-84.00
-82.15
-74.71
-62.12
-45.68
-27.16
-8.34
9.42
25.18
38.29
48.17
54.31
56.44
54.81
50.41
44.64
39.04
34.62
31.72
30.04
28.95
27.94
26.80
25.63
24.66
23.93
23.29
22.30
20.37
16.89
11.38
3.66
-5.97
-16.74
-27.47
-36.93
-44.25
-49.34
-52.89
-56.23
-60.70
-67.10
-75.31
-84.14
-91.70
-95.89
-95.05
-88.34
-75.96
-58.99
-39.06
-17.96
2.74
21.85
38.56
52.30
62.72
69.57
72.91
73.07
70.76
66.91
62.43
58.02
54.07
50.66
47.68
44.96
42.43
40.08
38.01
36.27
34.84
33.50
31.81
29.23
25.25
19.70
12.83
5.28
-2.22
-9.19
-15.56
-21.70
-28.20
-35.53
-43.95
-53.43
-63.71
-74.29
-84.33
-92.62
-97.63
-97.85
-92.28
-80.83
-64.44
-44.79
-23.80
-3.18
15.87
32.60
46.55
57.37
64.76
68.60
69.14
67.04
63.26
58.83
54.55
50.90
47.98
45.64
43.64
41.80
40.00
38.24
36.51
34.79
33.01
30.98
28.45
25.14
20.83
15.41
9.05
2.11
-5.00
-11.89
-18.43
-24.72
-31.14
-38.12
-46.07
-55.15
-65.24
-75.72
-85.56
-93.30
-97.32
-96.21
-89.26
-76.66
-59.54
-39.70
-19.01
0.87
18.77
33.85
45.57
53.49
57.41
57.58
54.69
49.90
44.41
39.22
34.88
31.46
28.70
26.27
23.99
21.88
20.09
18.78
17.90
17.15
16.00
13.88
10.48
5.85
0.41
-5.24
-10.67
-15.80
-20.91
-26.49
-33.03
-40.75
-49.58
-59.06
-68.35
-76.28
-81.44
-82.47
-78.44
-69.12
-55.13
-37.83
-18.92
-0.06
17.36
32.34
44.13
52.23
56.38
56.73
53.88
48.88
42.99
37.30
32.51
28.80
25.96
23.69
21.80
20.26
19.05
18.01
16.78
14.86
11.90
7.79
2.76
-2.78
-8.47
-14.08
-19.65
-25.41
-31.67
-38.82
-47.17
-56.90
-67.78
-79.00
-89.07
-96.15
-98.42
-94.72
-84.91
-69.87
-51.25
-30.94
-10.67
8.31
25.15
39.30
50.36
58.05
62.34
63.46
62.04
58.93
55.01
50.98
47.29
44.08
41.31
38.97
37.10
35.73
34.75
33.86
32.50
30.05
26.08
20.52
13.77
6.44
-0.78
-7.51
-13.73
-19.84
-26.44
-34.13
-43.30
-53.88
-65.32
-76.53
-86.00
-92.06
-93.24
-88.64
-78.14
-62.53
-43.28
-22.23
-1.14
18.53
35.76
49.94
60.70
67.93
71.67
72.23
70.21
66.42
61.81
57.18
53.12
49.84
47.33
45.41
43.89
42.66
41.57
40.44
38.94
36.63
33.10
28.10
21.73
14.40
6.69
-0.82
-7.87
-14.58
-21.38
-28.90
-37.64
-47.85
-59.29
-71.21
-82.33
-91.03
-95.62
-94.75
-87.78
-75.04
-57.78
-37.82
-17.11
2.69
20.47
35.51
47.36
55.70
60.34
61.41
59.42
55.28
50.14
44.99
40.51
36.94
34.21
32.13
30.53
29.33
28.41
27.54
26.36
24.45
21.50
17.42
12.40
6.79
0.98
-4.76
-10.40
-16.15
-22.36
-29.48
-37.84
-47.51
-58.12
-68.72
-77.83
-83.67
-84.64
-79.77
-69.07
-53.55
-34.90
-15.09
4.11
21.40
35.91
47.08
54.63
58.46
58.80
56.23
51.64
46.09
40.55
35.69
31.82
28.91
26.75
25.05
23.53
21.95
20.14
17.90
15.05
11.43
7.00
1.89
-3.67
-9.34
-14.95
-20.52
-26.42
-33.23
-41.50
-51.46
-62.70
-74.04
-83.69
-89.68
-90.30
-84.69
-72.99
-56.32
-36.45
-15.27
5.51
24.57
41.00
54.22
63.87
69.87
72.41
71.97
69.28
65.16
60.39
55.55
50.99
46.81
43.02
39.66
36.74
34.32
32.35
30.53
28.42
25.50
21.35
15.90
9.40
2.33
-4.78
-11.59
-18.07
-24.43
-31.11
-38.63
-47.38
-57.45
-68.50
-79.58
-89.15
-95.39
-96.58
-91.67
-80.62
-64.39
-44.69
-23.50
-2.56
16.80
33.74
47.72
58.37
65.49
69.14
69.72
67.97
64.84
61.27
57.93
55.16
52.96
51.15
49.53
47.98
46.42
44.86
43.23
41.43
39.27
36.54
33.05
28.66
23.37
17.29
10.64
3.73
-3.19
-9.93
-16.51
-23.06
-29.84
-37.10
-45.10
-53.99
-63.76
-74.01
-83.86
-91.95
-96.58
-96.22
-89.94
-77.79
-60.81
-40.73
-19.46
1.36
20.61
37.58
51.82
62.96
70.69
74.93
75.91
74.27
70.93
66.82
62.75
59.15
56.21
53.91
52.17
50.89
49.94
49.17
48.35
47.21
45.54
43.13
39.87
35.71
30.67
24.85
18.38
11.41
4.08
-3.46
-11.07
-18.56
-25.78
-32.66
-39.32
-46.03
-53.16
-61.03
-69.75
-79.03
-88.09
-95.74
-100.53
-101.12
-96.61
-86.80
-72.33
-54.46
-34.74
-14.72
4.31
21.33
35.54
46.31
53.28
56.45
56.28
53.68
49.74
45.45
41.53
38.27
35.68
33.59
31.82
30.30
29.02
27.95
27.02
26.02
24.61
22.45
19.24
14.92
9.68
3.92
-1.91
-7.48
-12.72
-17.82
-23.16
-29.16
-36.17
-44.33
-53.45
-62.95
-71.79
-78.64
-82.09
-81.01
-74.82
-63.73
-48.65
-30.96
-12.24
6.08
22.74
36.77
47.41
54.18
56.96
56.06
52.26
46.72
40.65
35.12
30.78
27.74
25.70
24.20
22.81
21.31
19.69
17.98
16.14
13.97
11.14
7.37
2.60
-2.96
-8.84
-14.60
-19.99
-25.13
-30.43
-36.44
-43.61
-52.12
-61.80
-72.08
-81.94
-90.04
-94.79
-94.77
-89.03
-77.50
-61.06
-41.33
-20.28
0.27
18.92
34.80
47.42
56.53
62.09
64.23
63.33
60.13
55.54
50.54
45.84
41.86
38.58
35.81
33.33
31.07
29.12
27.60
26.50
25.58
24.38
22.35
19.09
14.41
8.46
1.62
-5.58
-12.68
-19.37
-25.61
-31.68
-38.07
-45.34
-53.87
-63.65
-74.11
-84.10
-92.04
-96.23
-95.31
-88.63
-76.45
-59.83
-40.36
-19.71
0.67
19.69
36.55
50.65
61.45
68.62
72.11
72.27
69.85
65.84
61.26
56.96
53.47
50.94
49.21
47.90
46.62
45.09
43.24
41.11
38.80
36.31
33.46
29.99
25.65
20.36
14.27
7.68
0.99
-5.50
-11.70
-17.72
-23.88
-30.59
-38.24
-47.07
-57.06
-67.72
-78.05
-86.62
-91.78
-92.08
-86.71
-75.81
-60.44
-42.24
-23.03
-4.39
12.52
26.85
37.98
45.43
48.97
48.79
45.57
40.49
34.86
29.88
26.19
23.96
22.84
22.33
21.96
21.43
20.66
19.71
18.69
17.76
17.05
16.63
16.51
16.53
16.34
15.47
13.37
9.60
3.92
-3.72
-13.23
-24.49
-37.45
-52.08
-68.16
-85.05
-101.48
-115.57
-125.12
-128.13
-123.45
-111.23
-93.02
-71.41
-49.25
-29.00
-12.19
0.59
9.35
14.31
15.59
13.32
7.89
0.14
-8.66
-17.08
-24.03
-29.18
-32.96
-36.35
-40.40
-45.74
-52.30
-59.37
-65.85
-70.79
-73.75
-75.04
-75.68
-77.11
-80.85
-87.96
-98.60
-111.50
-123.76
-131.04
-128.50
-112.28
-81.13
-37.33
13.72
65.14
110.92
147.73
175.59
196.92
214.83
231.54
247.59
262.11
273.60
280.73
282.67
279.09
270.08
256.11
238.27
218.15
197.61
178.35
161.41
146.97
134.54
123.18
111.89
99.86
86.48
71.50
54.95
37.16
18.64
-0.05
-18.51
-36.57
-54.29
-71.85
-89.42
-107.07
-124.67
-141.72
-157.34
-170.25
-178.98
-182.32
-179.67
-171.29
-158.13
-141.37
-122.11
-101.10
-79.01
-56.70
-35.56
-17.35
-3.73
4.40
7.39
6.83
5.22
5.17
8.63
16.40
27.85
41.24
54.32
64.98
71.84
74.48
73.28
69.05
62.69
54.97
46.58
38.17
30.30
23.40
17.64
12.88
8.73
4.68
0.14
-5.39
-12.34
-20.88
-30.68
-40.84
-49.91
-56.16
-58.18
-55.30
-47.89
-37.23
-25.01
-12.80
-1.60
8.31
17.11
25.12
32.36
38.43
42.57
43.97
42.01
36.58
28.06
17.26
5.20
-7.14
-18.94
-29.71
-39.26
-47.59
-54.83
-61.13
-66.54
-71.16
-75.16
-78.90
-82.86
-87.45
-92.88
-98.97
-105.35
-111.70
-118.10
-125.12
-133.65
-144.38
-157.39
-171.94
-186.56
-199.46
-208.89
-213.45
-212.20
-204.61
-190.63
-170.69
-145.79
-117.38
-87.25
-57.24
-29.08
-4.14
16.62
32.76
44.41
52.13
56.80
59.33
60.42
60.47
59.67
58.21
56.32
54.38
52.74
51.58
50.77
49.98
48.74
46.66
43.55
39.39
34.33
28.54
22.13
15.14
7.49
-0.96
-10.41
-21.01
-32.76
-45.24
-57.49
-67.93
-74.59
-75.62
-69.83
-57.16
-38.79
-16.79
6.50
29.05
49.47
67.00
81.29
92.14
99.33
102.81
102.72
99.63
94.38
87.88
80.94
74.07
67.59
61.71
56.69
52.78
50.09
48.42
47.24
45.82
43.51
40.01
35.40
30.02
24.20
18.01
11.37
4.02
-4.22
-13.55
-24.16
-36.23
-49.55
-63.13
-75.03
-82.81
-84.39
-78.98
-67.46
-51.85
-34.37
-16.47
1.48
19.70
38.23
56.31
72.48
85.25
93.75
98.11
99.17
98.03
95.52
92.09
88.02
83.62
79.33
75.62
72.92
71.28
70.40
69.69
68.52
66.39
63.12
58.80
53.69
48.10
42.17
35.96
29.36
22.30
14.78
6.88
-1.20
-9.22
-16.93
-24.26
-31.31
-38.35
-45.88
-54.38
-64.09
-74.76
-85.46
-94.62
-100.37
-101.02
-95.59
-84.11
-67.56
-47.54
-25.81
-3.86
17.21
36.60
53.66
67.74
78.20
84.70
87.34
86.76
84.02
80.31
76.64
73.64
71.47
69.93
68.63
67.13
65.14
62.63
59.78
57.00
54.67
53.00
51.88
50.89
49.46
47.15
43.80
39.53
34.64
29.38
23.84
17.96
11.63
4.88
-2.16
-9.27
-16.28
-23.10
-29.75
-36.28
-42.69
-48.97
-55.18
-61.52
-68.34
-76.03
-84.69
-93.94
-102.66
-109.20
-111.74
-108.84
-99.89
-85.32
-66.43
-45.06
-23.09
-2.11
16.75
32.76
45.49
54.78
60.69
63.57
64.00
62.65
60.14
56.95
53.36
49.61
45.99
42.88
40.67
39.64
39.78
40.77
42.02
42.90
42.92
41.84
39.71
36.76
33.27
29.50
25.61
21.68
17.71
13.62
9.29
4.56
-0.65
-6.35
-12.37
-18.45
-24.31
-29.78
-34.87
-39.79
-44.91
-50.63
-57.22
-64.62
-72.32
-79.26
-83.97
-84.91
-80.96
-71.81
-58.16
-41.53
-23.81
-6.72
8.52
21.33
31.51
39.05
43.91
46.07
45.69
43.19
39.28
34.78
30.40
26.62
23.66
21.53
20.17
19.53
19.50
19.93
20.47
20.75
20.45
19.41
17.71
15.58
13.22
10.71
7.91
4.64
0.75
-3.71
-8.53
-13.43
-18.19
-22.82
-27.44
-32.28
-37.48
-43.13
-49.25
-55.74
-62.28
-68.18
-72.37
-73.57
-70.69
-63.29
-51.75
-37.21
-21.23
-5.27
9.52
22.43
32.99
40.88
45.87
47.93
47.34
44.68
40.72
36.22
31.78
27.80
24.47
21.90
20.11
19.00
18.37
17.89
17.19
16.02
14.29
12.13
9.73
7.23
4.61
1.71
-1.68
-5.67
-10.20
-15.06
-20.00
-24.81
-29.39
-33.75
-37.98
-42.22
-46.76
-52.06
-58.51
-66.31
-75.06
-83.59
-90.18
-92.94
-90.46
-82.30
-69.11
-52.42
-34.12
-15.93
0.94
15.77
28.17
37.86
44.57
48.12
48.61
46.43
42.36
37.33
32.24
27.77
24.28
21.92
20.61
20.20
20.44
21.03
21.63
21.95
21.81
21.16
20.04
18.45
16.32
13.50
9.83
5.27
0.01
-5.61
-11.23
-16.59
-21.70
-26.82
-32.31
-38.54
-45.65
-53.52
-61.72
-69.51
-75.86
-79.58
-79.52
-74.89
-65.49
-51.90
-35.32
-17.29
0.64
17.27
31.72
43.39
51.87
56.89
58.39
56.73
52.62
47.09
41.22
35.89
31.55
28.30
25.88
24.00
22.41
21.04
19.98
19.35
19.11
19.02
18.59
17.27
14.62
10.58
5.43
-0.26
-5.89
-11.01
-15.55
-19.74
-24.03
-28.93
-34.84
-41.91
-49.96
-58.45
-66.45
-72.81
-76.28
-75.89
-71.11
-61.98
-49.18
-33.82
-17.25
-0.83
14.20
26.88
36.53
42.82
45.70
45.48
42.75
38.29
32.98
27.63
22.85
18.95
15.94
13.65
11.88
10.52
9.54
8.97
8.67
8.31
7.44
5.60
2.60
-1.38
-5.87
-10.33
-14.43
-18.18
-22.01
-26.54
-32.31
-39.50
-47.70
-55.92
-62.68
-66.36
-65.67
-59.96
-49.49
-35.34
-19.05
-2.28
13.58
27.43
38.52
46.30
50.46
50.98
48.21
42.96
36.26
29.23
22.80
17.54
13.66
10.97
9.08
7.45
5.64
3.32
0.41
-3.01
-6.76
-10.73
-14.91
-19.41
-24.41
-30.04
-36.40
-43.58
-51.60
-60.32
-69.29
-77.64
-84.06
-87.08
-85.41
-78.37
-66.15
-49.80
-30.98
-11.49
7.07
23.53
37.16
47.56
54.55
58.12
58.47
56.07
51.68
46.28
40.83
36.08
32.39
29.73
27.82
26.22
24.59
22.69
20.42
17.75
14.60
10.94
6.72
1.90
-3.50
-9.51
-16.23
-23.90
-32.75
-42.83
-53.75
-64.54
-73.72
-79.59
-80.73
-76.35
-66.48
-51.94
-34.01
-14.24
5.86
24.86
41.55
54.93
64.44
69.94
71.80
70.81
67.88
63.92
59.63
55.46
51.64
48.25
45.24
42.58
40.17
37.94
35.80
33.63
31.25
28.45
24.99
20.76
15.77
10.28
4.61
-0.92
-6.19
-11.44
-17.18
-24.04
-32.49
-42.60
-53.83
-65.01
-74.56
-80.73
-82.06
-77.67
-67.50
-52.31
-33.47
-12.70
8.28
28.04
45.48
59.89
70.84
78.15
81.85
82.27
80.01
75.91
70.95
65.98
61.60
58.07
55.32
53.15
51.32
49.69
48.17
46.70
45.12
43.18
40.55
36.96
32.24
26.51
20.13
13.61
7.41
1.77
-3.46
-8.71
-14.47
-21.16
-28.90
-37.60
-46.95
-56.44
-65.39
-72.81
-77.52
-78.35
-74.43
-65.56
-52.31
-35.85
-17.71
0.62
17.80
32.78
44.74
53.09
57.58
58.37
56.07
51.63
46.15
40.61
35.70
31.74
28.71
26.41
24.56
22.96
21.50
20.17
18.96
17.72
16.24
14.21
11.41
7.80
3.53
-1.20
-6.22
-11.50
-17.10
-23.12
-29.63
-36.63
-44.05
-51.74
-59.36
-66.22
-71.29
-73.30
-71.14
-64.24
-52.87
-38.01
-21.10
-3.58
13.33
28.67
41.66
51.57
57.77
59.99
58.49
54.13
48.19
42.02
36.65
32.60
29.91
28.30
27.34
26.67
26.03
25.33
24.50
23.53
22.30
20.60
18.16
14.70
10.11
4.50
-1.79
-8.33
-14.72
-20.79
-26.62
-32.47
-38.72
-45.66
-53.47
-62.04
-70.94
-79.36
-86.13
-89.90
-89.47
-84.06
-73.67
-59.05
-41.56
-22.80
-4.24
13.02
28.21
40.91
50.76
57.59
61.28
61.97
60.07
56.31
51.59
46.82
42.77
39.91
38.30
37.69
37.61
37.55
37.11
36.10
34.46
32.23
29.40
25.92
21.73
16.83
11.39
5.67
-0.03
-5.55
-10.87
-16.14
-21.55
-27.22
-33.16
-39.34
-45.79
-52.66
-60.09
-67.99
-75.79
-82.38
-86.30
-86.15
-81.06
-70.97
-56.69
-39.63
-21.34
-3.14
13.96
29.32
42.49
53.04
60.54
64.76
65.76
64.05
60.54
56.33
52.39
49.32
47.24
45.96
45.13
44.49
43.97
43.54
43.12
42.44
41.14
38.86
35.49
31.19
26.33
21.26
16.21
11.13
5.80
0.04
-6.19
-12.62
-18.89
-24.65
-29.82
-34.62
-39.49
-44.94
-51.32
-58.76
-67.01
-75.48
-83.18
-88.92
-91.43
-89.72
-83.34
-72.55
-58.21
-41.65
-24.24
-7.23
8.39
21.81
32.42
39.79
43.80
44.66
42.98
39.54
35.22
30.83
26.94
23.93
21.90
20.77
20.30
20.21
20.20
20.03
19.55
18.68
17.36
15.52
13.07
9.95
6.18
1.89
-2.70
-7.40
-12.14
-17.04
-22.31
-28.22
-34.87
-42.16
-49.76
-57.20
-63.91
-69.17
-72.19
-72.10
-68.16
-60.02
-47.93
-32.82
-16.13
0.59
15.95
28.97
39.11
46.14
50.04
50.98
49.36
45.90
41.47
37.03
33.30
30.68
29.16
28.47
28.27
28.23
28.10
27.69
26.83
25.37
23.25
20.53
17.26
13.50
9.21
4.30
-1.29
-7.45
-13.92
-20.29
-26.16
-31.29
-35.73
-39.75
-43.85
-48.59
-54.48
-61.81
-70.43
-79.64
-88.11
-94.12
-96.01
-92.63
-83.75
-70.10
-53.09
-34.39
-15.47
2.54
18.88
32.92
44.13
52.06
56.53
57.79
56.55
53.75
50.38
47.14
44.38
42.10
40.21
38.59
37.23
36.18
35.43
34.86
34.20
33.14
31.40
28.80
25.31
20.98
15.98
10.48
4.69
-1.25
-7.18
-13.04
-18.78
-24.47
-30.22
-36.21
-42.70
-49.83
-57.53
-65.33
-72.33
-77.27
-78.91
-76.32
-69.21
-58.04
-43.82
-27.82
-11.23
5.04
20.28
33.93
45.39
54.06
59.50
61.65
60.91
58.12
54.31
50.41
47.03
44.38
42.40
40.89
39.70
38.71
37.77
36.74
35.41
33.64
31.31
28.37
24.78
20.47
15.42
9.69
3.52
-2.78
-8.85
-14.53
-19.96
-25.42
-31.29
-37.81
-45.02
-52.78
-60.70
-68.13
-74.15
-77.61
-77.35
-72.61
-63.28
-50.06
-34.27
-17.49
-1.15
13.69
26.36
36.42
43.56
47.61
48.61
47.01
43.57
39.23
34.82
30.85
27.50
24.72
22.42
20.65
19.49
18.97
18.89
18.84
18.26
16.71
13.98
10.12
5.42
0.22
-5.17
-10.57
-15.88
-21.14
-26.47
-32.12
-38.43
-45.67
-53.90
-62.75
-71.25
-78.01
-81.45
-80.31
-74.01
-62.88
-48.01
-30.94
-13.21
3.90
19.51
32.97
43.74
51.38
55.59
56.37
54.19
49.93
44.73
39.67
35.49
32.44
30.38
28.89
27.58
26.20
24.74
23.33
22.10
20.99
19.71
17.81
14.86
10.61
5.14
-1.18
-7.88
-14.49
-20.76
-26.65
-32.26
-37.82
-43.65
-50.11
-57.53
-66.00
-75.15
-83.92
-90.75
-93.89
-91.95
-84.36
-71.51
-54.60
-35.29
-15.28
4.00
21.41
36.14
47.65
55.61
60.07
61.41
60.29
57.56
54.02
50.39
47.11
44.40
42.26
40.56
39.08
37.69
36.31
35.02
33.89
32.93
32.04
30.94
29.31
26.88
23.50
19.21
14.19
8.67
2.87
-3.03
-8.97
-14.96
-21.17
-27.85
-35.30
-43.70
-52.94
-62.43
-71.11
-77.53
-80.21
-78.02
-70.54
-58.23
-42.30
-24.37
-6.11
11.18
26.56
39.49
49.60
56.64
60.51
61.29
59.45
55.73
51.02
46.15
41.75
38.15
35.44
33.54
32.27
31.41
30.78
30.16
29.38
28.29
26.69
24.37
21.16
17.02
12.07
6.59
0.94
-4.59
-9.88
-15.00
-20.11
-25.45
-31.22
-37.61
-44.78
-52.81
-61.44
-69.99
-77.27
-81.81
-82.24
-77.73
-68.29
-54.71
-38.31
-20.60
-2.93
13.55
27.96
39.55
47.78
52.36
53.41
51.45
47.33
42.03
36.43
31.23
26.84
23.46
21.16
19.93
19.64
20.04
20.71
21.07
20.57
18.80
15.60
11.14
5.81
0.05
-5.80
-11.53
-17.15
-22.73
-28.44
-34.52
-41.25
-48.87
-57.29
-66.00
-73.80
-79.09
-80.27
-76.32
-67.19
-53.80
-37.73
-20.59
-3.67
12.27
26.72
39.17
48.97
55.46
58.26
57.64
54.46
49.92
45.17
40.92
37.38
34.36
31.57
28.89
26.36
24.22
22.63
21.53
20.62
19.37
17.28
14.02
9.55
4.13
-1.78
-7.78
-13.59
-19.18
-24.72
-30.50
-36.82
-43.90
-51.81
-60.44
-69.31
-77.53
-83.81
-86.65
-84.75
-77.45
-64.98
-48.52
-29.81
-10.70
7.31
23.26
36.69
47.36
55.06
59.61
60.99
59.53
55.94
51.16
46.16
41.64
37.89
34.91
32.52
30.57
28.99
27.79
26.93
26.26
25.48
24.21
22.16
19.18
15.29
10.67
5.55
0.16
-5.34
-10.86
-16.34
-21.84
-27.49
-33.57
-40.39
-48.23
-57.10
-66.49
-75.34
-82.10
-85.10
-83.02
-75.30
-62.39
-45.59
-26.69
-7.48
10.59
26.54
39.85
50.22
57.45
61.44
62.29
60.41
56.57
51.72
46.78
42.40
38.87
36.16
34.06
32.41
31.17
30.39
30.05
30.01
29.90
29.22
27.51
24.48
20.13
14.71
8.67
2.51
-3.43
-9.04
-14.51
-20.27
-26.89
-34.80
-44.12
-54.45
-64.73
-73.52
-79.17
-80.34
-76.31
-67.20
-53.93
-37.92
-20.75
-3.90
11.49
24.54
34.65
41.42
44.74
44.85
42.35
38.08
32.98
27.84
23.20
19.34
16.38
14.36
13.31
13.15
13.65
14.38
14.81
14.41
12.85
10.04
6.19
1.62
-3.33
-8.39
-13.48
-18.74
-24.45
-30.98
-38.64
-47.40
-56.72
-65.40
-71.84
-74.40
-71.91
-64.06
-51.50
-35.62
-18.13
-0.69
15.41
29.24
40.20
47.89
52.14
53.05
51.10
47.02
41.72
36.03
30.59
25.74
21.63
18.21
15.41
13.18
11.44
10.15
9.15
8.20
6.97
5.11
2.36
-1.39
-6.01
-11.24
-16.74
-22.32
-28.05
-34.29
-41.58
-50.29
-60.33
-70.85
-80.31
-86.72
-88.29
-83.93
-73.62
-58.37
-39.92
-20.25
-1.16
15.99
30.36
41.52
49.31
53.76
55.02
53.45
49.62
44.27
38.24
32.34
27.17
23.05
20.00
17.83
16.27
15.05
13.93
12.67
11.05
8.81
5.80
1.96
-2.63
-7.83
-13.50
-19.63
-26.34
-33.89
-42.47
-51.98
-61.73
-70.43
-76.32
-77.71
-73.47
-63.47
-48.63
-30.64
-11.48
7.16
24.02
38.39
49.85
58.18
63.20
64.92
63.61
59.89
54.65
48.87
43.38
38.68
34.93
31.91
29.33
26.85
24.30
21.60
18.74
15.71
12.43
8.83
4.79
0.21
-5.07
-11.23
-18.48
-26.94
-36.50
-46.54
-55.94
-63.16
-66.58
-64.99
-57.91
-45.83
-30.03
-12.26
5.76
22.60
37.32
49.39
58.51
64.49
67.29
67.05
64.20
59.45
53.71
47.88
42.65
38.39
35.10
32.54
30.44
28.51
26.61
24.59
22.24
19.30
15.52
10.83
5.33
-0.61
-6.61
-12.41
-18.04
-23.85
-30.33
-37.93
-46.69
-56.01
-64.63
-70.83
-72.87
-69.56
-60.60
-46.70
-29.32
-10.26
8.76
26.40
41.65
53.84
62.51
67.45
68.85
67.22
63.44
58.49
53.25
48.34
44.05
40.45
37.44
34.93
32.83
31.07
29.51
27.94
26.05
23.51
20.07
15.67
10.44
4.70
-1.21
-7.04
-12.78
-18.60
-24.85
-31.89
-39.94
-48.96
-58.47
-67.54
-74.84
-78.87
-78.35
-72.58
-61.67
-46.57
-28.82
-10.22
7.55
23.19
35.82
44.99
50.53
52.55
51.33
47.44
41.69
35.06
28.59
23.12
19.10
16.58
15.23
14.53
14.02
13.33
12.24
10.56
8.20
5.07
1.29
-2.93
-7.36
-11.86
-16.53
-21.75
-28.00
-35.68
-44.81
-54.85
-64.68
-72.80
-77.61
-77.83
-72.80
-62.68
-48.33
-31.15
-12.76
5.26
21.65
35.48
46.15
53.36
57.05
57.44
55.08
50.77
45.47
40.08
35.25
31.28
28.17
25.78
24.00
22.80
22.11
21.75
21.33
20.33
18.30
15.02
10.56
5.24
-0.61
-6.62
-12.63
-18.58
-24.60
-30.95
-38.00
-46.11
-55.34
-65.29
-74.90
-82.59
-86.60
-85.50
-78.62
-66.24
-49.53
-30.12
-9.72
10.21
28.53
44.34
56.82
65.35
69.64
69.98
67.25
62.75
57.83
53.38
49.74
46.75
43.98
41.16
38.24
35.41
32.94
30.97
29.45
28.08
26.41
24.00
20.52
15.88
10.26
4.11
-2.07
-7.83
-12.99
-17.67
-22.33
-27.57
-33.98
-41.89
-51.22
-61.32
-70.95
-78.51
-82.31
-81.04
-74.15
-62.06
-45.98
-27.63
-8.74
9.31
25.57
39.42
50.40
58.20
62.61
63.77
62.16
58.58
53.97
49.13
44.64
40.81
37.72
35.38
33.67
32.45
31.52
30.67
29.66
28.29
26.33
23.54
19.76
15.01
9.50
3.62
-2.21
-7.69
-12.75
-17.54
-22.38
-27.63
-33.69
-40.79
-48.97
-57.89
-66.71
-74.21
-78.92
-79.56
-75.39
-66.46
-53.62
-38.18
-21.65
-5.38
9.53
22.25
32.14
38.73
41.84
41.67
38.86
34.42
29.49
24.99
21.46
18.98
17.28
16.06
15.09
14.36
13.95
13.86
13.91
13.66
12.62
10.38
6.83
2.18
-3.14
-8.64
-13.99
-19.12
-24.26
-29.83
-36.28
-43.78
-52.06
-60.25
-66.95
-70.60
-69.86
-64.08
-53.50
-39.19
-22.69
-5.61
10.68
25.19
37.20
46.18
51.76
53.77
52.47
48.58
43.20
37.49
32.39
28.35
25.34
23.02
21.03
19.18
17.51
16.11
15.05
14.19
13.23
11.75
9.37
5.89
1.31
-4.12
-10.00
-15.92
-21.61
-27.01
-32.35
-38.01
-44.49
-52.09
-60.77
-69.93
-78.41
-84.64
-87.00
-84.30
-76.17
-63.17
-46.68
-28.44
-10.11
7.04
22.19
34.86
44.68
51.40
54.88
55.31
53.22
49.47
45.02
40.71
37.10
34.40
32.53
31.25
30.27
29.35
28.32
27.13
25.76
24.23
22.46
20.27
17.39
13.60
8.83
3.25
-2.77
-8.77
-14.45
-19.73
-24.84
-30.20
-36.31
-43.53
-51.93
-61.15
-70.35
-78.28
-83.43
-84.36
-80.09
-70.43
-56.08
-38.51
-19.52
-0.82
16.30
31.08
43.21
52.56
59.08
62.73
63.60
62.06
58.77
54.57
50.34
46.68
43.88
41.87
40.39
39.15
37.99
36.94
36.04
35.30
34.56
33.51
31.79
29.12
25.41
20.77
15.44
9.73
3.91
-1.82
-7.33
-12.56
-17.53
-22.35
-27.18
-32.29
-38.00
-44.64
-52.37
-61.00
-69.78
-77.40
-82.20
-82.61
-77.68
-67.42
-52.78
-35.36
-16.91
1.04
17.40
31.36
42.36
49.92
53.81
54.15
51.50
46.79
41.14
35.57
30.83
27.29
25.00
23.76
23.25
23.12
23.09
23.00
22.78
22.38
21.72
20.62
18.82
16.12
12.44
7.91
2.81
-2.53
-7.89
-13.23
-18.64
-24.37
-30.64
-37.63
-45.28
-53.06
-59.85
-64.08
-64.28
-59.80
-51.30
-40.84
-31.22
-25.00
-23.66
-27.12
-33.94
-41.96
-48.96
-53.14
-53.29
-48.80
-39.70
-26.60
-10.74
6.14
22.05
35.13
43.95
47.81
46.86
42.10
35.04
27.31
20.18
14.29
9.66
5.96
2.84
0.24
-1.68
-2.66
-2.58
-1.68
-0.55
0.06
-0.56
-2.78
-6.52
-11.31
-16.50
-21.50
-26.09
-30.47
-35.22
-41.02
-48.39
-57.40
-67.54
-77.82
-86.80
-92.93
-94.81
-91.55
-82.96
-69.62
-52.76
-33.98
-14.94
2.99
18.78
31.77
41.53
47.88
50.86
50.81
48.39
44.48
40.05
35.84
32.27
29.39
27.04
25.04
23.34
22.06
21.33
21.14
21.19
20.97
19.87
17.45
13.62
8.61
2.93
-2.89
-8.56
-14.05
-19.57
-25.40
-31.78
-38.89
-46.73
-55.06
-63.33
-70.55
-75.38
-76.43
-72.64
-63.69
-50.19
-33.44
-15.10
3.27
20.46
35.63
48.22
57.86
64.33
67.64
68.05
66.13
62.59
58.17
53.57
49.31
45.76
43.13
41.40
40.41
39.86
39.39
38.73
37.73
36.39
34.77
32.96
30.95
28.63
25.81
22.32
18.01
12.84
6.84
0.27
-6.50
-13.01
-18.88
-24.05
-28.85
-33.95
-40.07
-47.46
-55.59
-62.94
-67.54
-67.39
-61.36
-49.45
-32.89
-13.57
6.51
25.72
42.90
57.25
68.19
75.34
78.64
78.47
75.49
70.43
63.89
56.39
48.59
41.59
36.81
35.57
38.49
45.01
53.60
62.27
69.50
74.58
77.64
79.18
79.51
78.64
76.33
72.42
67.02
60.55
53.48
46.02
37.99
28.83
17.85
4.60
-10.81
-27.46
-43.76
-57.83
-67.97
-73.13
-73.16
-68.64
-60.62
-50.21
-38.41
-26.06
-13.94
-2.91
6.13
12.43
15.60
15.72
13.36
9.44
4.94
0.66
-2.94
-5.79
-8.01
-9.82
-11.29
-12.42
-13.06
-13.17
-12.78
-12.07
-11.30
-10.63
-10.21
-10.12
-10.46
-11.42
-13.21
-16.09
-20.25
-25.75
-32.40
-39.70
-46.77
-52.40
-55.29
-54.31
-48.87
-39.12
-25.96
-10.83
4.64
19.01
31.21
40.63
47.03
50.38
50.87
48.77
44.54
38.79
32.20
25.50
19.31
14.06
9.97
6.97
4.82
3.16
1.57
-0.32
-2.79
-6.01
-9.97
-14.55
-19.52
-24.62
-29.64
-34.54
-39.50
-44.95
-51.37
-59.06
-67.79
-76.59
-83.87
-87.76
-86.73
-80.06
-68.12
-52.21
-34.15
-15.79
1.35
16.24
28.22
36.92
42.15
43.97
42.69
38.93
33.59
27.69
22.20
17.78
14.70
12.82
11.67
10.73
9.57
7.99
6.05
3.91
1.74
-0.38
-2.48
-4.65
-7.04
-9.82
-13.24
-17.54
-22.94
-29.46
-36.76
-44.03
-50.03
-53.35
-52.80
-47.71
-38.22
-25.23
-10.11
5.68
20.90
34.62
46.24
55.25
61.23
63.96
63.52
60.42
55.46
49.59
43.70
38.34
33.84
30.23
27.46
25.39
23.77
22.29
20.53
18.13
14.87
10.73
5.93
0.73
-4.58
-9.90
-15.35
-21.26
-28.05
-36.06
-45.34
-55.41
-65.26
-73.39
-78.14
-78.11
-72.55
-61.69
-46.65
-29.12
-10.92
6.47
22.01
35.15
45.56
52.95
57.07
57.86
55.61
51.11
45.44
39.77
34.95
31.32
28.79
27.01
25.64
24.51
23.60
22.89
22.23
21.30
19.63
16.87
12.90
7.82
1.99
-4.20
-10.45
-16.62
-22.72
-28.82
-35.03
-41.47
-48.32
-55.85
-64.30
-73.67
-83.41
-92.37
-98.85
-101.02
-97.55
-87.99
-73.01
-54.09
-33.12
-11.89
8.20
26.18
41.43
53.52
62.20
67.41
69.44
68.89
66.57
63.33
59.89
56.70
53.97
51.76
50.02
48.71
47.79
47.22
46.95
46.91
46.92
46.74
46.05
44.54
41.97
38.31
33.72
28.54
23.14
17.86
12.82
7.97
3.15
-1.89
-7.31
-13.14
-19.27
-25.51
-31.57
-37.29
-42.58
-47.54
-52.44
-57.68
-63.70
-70.85
-79.15
-88.22
-97.04
-104.10
-107.65
-106.23
-99.08
-86.40
-69.30
-49.42
-28.49
-7.95
11.16
28.17
42.58
53.99
62.06
66.69
68.14
66.97
64.07
60.33
56.54
53.17
50.40
48.21
46.47
45.15
44.29
43.99
44.29
45.00
45.74
45.95
45.14
43.05
39.76
35.63
31.16
26.73
22.51
18.37
14.05
9.27
3.86
-2.13
-8.50
-14.96
-21.20
-26.98
-32.21
-37.00
-41.70
-46.88
-53.12
-60.81
-69.77
-79.08
-87.21
-92.32
-92.87
-88.08
-78.08
-63.87
-46.88
-28.61
-10.37
6.82
22.18
35.13
45.24
52.30
56.34
57.63
56.66
54.01
50.36
46.35
42.57
39.43
37.15
35.72
34.98
34.73
34.77
34.96
35.21
35.35
35.11
34.20
32.35
29.48
25.77
21.54
17.21
13.02
9.03
5.04
0.78
-3.92
-9.01
-14.21
-19.16
-23.53
-27.27
-30.52
-33.60
-36.93
-40.87
-45.71
-51.61
-58.42
-65.65
-72.31
-77.13
-78.73
-76.02
-68.60
-56.83
-41.82
-25.03
-7.97
8.11
22.29
34.01
42.90
48.81
51.74
51.92
49.83
46.14
41.63
37.02
32.88
29.56
27.18
25.69
24.96
24.78
24.95
25.28
25.60
25.76
25.62
25.00
23.75
21.82
19.23
16.21
13.05
9.99
7.12
4.30
1.23
-2.40
-6.75
-11.72
-16.99
-22.12
-26.79
-30.86
-34.48
-38.00
-41.84
-46.35
-51.69
-57.70
-63.87
-69.35
-73.04
-73.83
-70.88
-63.85
-53.09
-39.51
-24.40
-9.09
5.30
17.92
28.24
35.95
40.94
43.23
43.05
40.86
37.30
33.05
28.83
25.18
22.45
20.69
19.79
19.55
19.73
20.21
20.90
21.68
22.33
22.55
22.02
20.58
18.30
15.45
12.33
9.14
5.85
2.26
-1.81
-6.40
-11.30
-16.16
-20.65
-24.59
-28.01
-31.07
-34.08
-37.30
-41.00
-45.39
-50.55
-56.32
-62.17
-67.17
-70.15
-69.97
-65.92
-57.83
-46.25
-32.19
-16.90
-1.58
12.73
25.22
35.29
42.49
46.57
47.61
46.03
42.57
38.16
33.67
29.76
26.67
24.45
22.93
21.95
21.42
21.23
21.28
21.38
21.28
20.77
19.73
18.14
16.05
13.53
10.67
7.52
4.16
0.63
-3.08
-7.00
-11.13
-15.38
-19.56
-23.49
-27.07
-30.38
-33.70
-37.44
-41.94
-47.43
-53.77
-60.46
-66.56
-70.88
-72.19
-69.54
-62.60
-51.75
-38.05
-22.87
-7.64
6.44
18.55
28.13
34.89
38.66
39.50
37.72
33.91
28.88
23.57
18.80
15.12
12.76
11.54
11.12
11.09
11.17
11.29
11.46
11.73
12.01
12.04
11.46
9.93
7.27
3.58
-0.84
-5.55
-10.17
-14.53
-18.66
-22.86
-27.43
-32.62
-38.49
-44.99
-51.86
-58.71
-64.91
-69.59
-71.71
-70.27
-64.68
-54.92
-41.73
-26.37
-10.35
4.95
18.49
29.61
37.95
43.32
45.70
45.23
42.29
37.51
31.74
25.91
20.82
17.01
14.69
13.68
13.60
13.99
14.41
14.59
14.39
13.83
12.96
11.81
10.33
8.40
5.85
2.64
-1.15
-5.28
-9.47
-13.56
-17.60
-21.88
-26.84
-32.87
-40.15
-48.55
-57.57
-66.37
-73.86
-78.81
-80.06
-76.76
-68.64
-56.07
-40.11
-22.27
-4.21
12.51
26.73
37.69
45.07
48.90
49.48
47.36
43.27
38.09
32.65
27.71
23.70
20.75
18.71
17.31
16.31
15.61
15.21
15.16
15.38
15.62
15.46
14.50
12.41
9.15
4.97
0.29
-4.42
-8.91
-13.22
-17.65
-22.68
-28.75
-36.15
-44.85
-54.49
-64.30
-73.15
-79.67
-82.55
-80.81
-74.15
-62.95
-48.27
-31.53
-14.26
2.22
16.82
28.79
37.67
43.38
46.17
46.67
45.67
44.04
42.45
41.34
40.91
41.13
41.93
43.18
44.73
46.28
47.45
47.81
47.00
44.89
41.62
37.51
33.01
28.46
24.01
19.57
14.88
9.61
3.50
-3.57
-11.61
-20.52
-30.22
-40.67
-51.70
-62.85
-73.15
-81.27
-85.70
-85.19
-79.14
-67.68
-51.53
-31.78
-9.74
12.84
33.76
50.47
60.67
63.15
58.37
48.53
36.79
26.19
18.66
14.68
13.60
14.35
16.15
18.75
22.21
26.54
31.29
35.60
38.50
39.23
37.61
34.00
29.10
23.59
17.89
12.07
6.05
-0.21
-6.57
-12.80
-18.72
-24.38
-29.94
-35.42
-40.39
-43.90
-44.71
-41.63
-34.03
-22.01
-6.49
11.12
29.22
46.23
60.84
72.07
79.27
82.29
81.46
77.66
72.13
66.31
61.47
58.50
57.79
59.07
61.75
65.02
68.19
70.85
73.03
75.06
77.40
80.34
83.89
87.68
91.12
93.60
94.60
93.84
91.14
86.39
79.49
70.36
59.12
46.22
32.55
19.36
8.06
-0.16
-4.62
-5.34
-2.93
1.63
7.34
13.37
19.17
24.27
28.19
30.44
30.54
28.36
24.11
18.40
12.05
5.84
0.33
-4.18
-7.64
-10.11
-11.81
-12.98
-13.92
-14.90
-16.08
-17.50
-19.06
-20.76
-22.71
-25.16
-28.37
-32.48
-37.37
-42.71
-48.12
-53.29
-58.14
-62.79
-67.53
-72.58
-78.11
-84.01
-89.98
-95.57
-100.29
-103.67
-105.33
-105.03
-102.49
-97.41
-89.49
-78.58
-64.90
-49.13
-32.42
-16.13
-1.64
9.94
17.87
21.86
22.05
19.01
13.66
7.17
0.79
-4.43
-7.73
-8.88
-8.15
-6.27
-4.38
-3.79
-5.71
-10.85
-19.08
-29.41
-40.19
-49.66
-56.53
-60.45
-61.94
-62.14
-62.24
-63.05
-64.86
-67.47
-70.58
-74.02
-77.85
-82.26
-87.41
-93.42
-100.20
-107.55
-115.04
-121.85
-126.71
-128.08
-124.43
-114.81
-99.18
-78.57
-54.78
-29.90
-5.88
15.82
34.23
48.78
59.21
65.60
68.32
68.08
65.80
62.49
59.01
55.99
53.78
52.56
52.35
53.13
54.79
57.09
59.69
62.07
63.76
64.39
63.83
62.21
59.78
56.75
53.14
48.77
43.47
37.21
30.30
23.27
16.70
10.87
5.67
0.62
-4.85
-11.35
-19.20
-28.63
-39.74
-52.37
-65.62
-77.58
-85.57
-86.90
-80.12
-65.84
-46.62
-25.93
-6.65
9.84
23.81
36.23
47.67
57.71
65.12
68.76
68.36
64.77
59.55
54.26
49.89
46.72
44.59
43.17
42.21
41.53
41.22
41.23
41.46
41.63
41.33
40.12
37.68
33.89
28.90
23.02
16.62
10.04
3.51
-2.81
-8.85
-14.64
-20.30
-26.06
-32.19
-39.04
-46.81
-55.49
-64.60
-73.15
-79.64
-82.38
-79.93
-71.67
-58.01
-40.41
-20.90
-1.56
16.03
30.99
43.01
52.10
58.32
61.67
62.22
60.20
56.19
51.05
45.74
41.13
37.73
35.69
34.91
35.10
35.96
37.19
38.50
39.57
40.04
39.58
37.91
34.96
30.81
25.71
20.01
14.03
8.02
2.17
-3.45
-8.83
-14.04
-19.19
-24.47
-30.07
-36.22
-43.13
-50.96
-59.76
-69.23
-78.65
-86.76
-91.94
-92.59
-87.57
-76.64
-60.50
-40.60
-18.69
3.58
24.91
44.28
60.95
74.27
83.81
89.39
91.16
89.68
85.74
80.36
74.54
69.22
65.07
62.48
61.55
62.09
63.71
65.90
68.04
69.49
69.59
67.86
64.06
58.32
51.09
43.03
34.81
26.88
19.32
11.92
4.35
-3.67
-12.15
-20.83
-29.32
-37.24
-44.43
-50.98
-57.15
-63.38
-70.16
-77.88
-86.76
-96.46
-105.99
-113.64
-117.22
-114.76
-105.03
-87.99
-64.73
-37.27
-8.25
19.50
43.28
61.06
71.82
75.88
74.66
70.18
64.32
58.36
52.86
47.98
43.83
40.72
38.99
38.73
39.58
40.78
41.54
41.33
40.06
38.04
35.61
33.05
30.32
27.17
23.29
18.51
12.94
6.96
1.02
-4.53
-9.62
-14.45
-19.38
-24.73
-30.68
-37.26
-44.41
-51.95
-59.56
-66.55
-71.90
-74.32
-72.64
-66.26
-55.38
-40.98
-24.52
-7.55
8.68
23.23
35.36
44.39
49.73
51.08
48.63
43.25
36.35
29.49
23.92
20.23
18.28
17.45
17.01
16.45
15.62
14.71
13.95
13.39
12.80
11.71
9.62
6.20
1.48
-4.21
-10.38
-16.60
-22.70
-28.72
-34.86
-41.41
-48.54
-56.32
-64.60
-72.87
-80.21
-85.29
-86.63
-83.01
-73.97
-60.02
-42.56
-23.52
-4.74
12.35
26.94
38.69
47.45
53.16
55.73
55.28
52.21
47.35
41.70
36.29
31.85
28.71
26.78
25.75
25.21
24.82
24.35
23.64
22.62
21.24
19.38
16.88
13.53
9.15
3.69
-2.69
-9.60
-16.49
-22.93
-28.74
-34.10
-39.49
-45.46
-52.49
-60.62
-69.42
-77.92
-84.74
-88.40
-87.64
-81.75
-70.78
-55.49
-37.21
-17.54
1.94
19.85
35.14
47.06
55.15
59.26
59.59
56.74
51.64
45.45
39.34
34.19
30.51
28.35
27.43
27.22
27.22
27.02
26.41
25.31
23.73
21.67
19.05
15.77
11.68
6.72
0.99
-5.24
-11.58
-17.61
-23.12
-28.15
-33.05
-38.40
-44.79
-52.64
-61.87
-71.79
-81.08
-87.98
-90.78
-88.21
-79.88
-66.35
-48.96
-29.50
-9.68
9.07
25.80
39.88
50.92
58.66
63.02
64.19
62.66
59.21
54.67
49.82
45.26
41.36
38.37
36.42
35.55
35.63
36.39
37.44
38.33
38.64
38.05
36.35
33.37
29.10
23.61
17.16
10.17
3.13
-3.55
-9.67
-15.37
-21.01
-27.12
-34.17
-42.36
-51.56
-61.21
-70.36
-77.79
-82.16
-82.29
-77.43
-67.52
-53.21
-35.85
-17.07
1.44
18.25
32.28
42.77
49.27
51.67
50.29
45.88
39.58
32.67
26.25
21.03
17.25
14.80
13.46
13.01
13.31
14.13
15.10
15.67
15.23
13.31
9.72
4.64
-1.43
-7.86
-14.07
-19.63
-24.46
-28.73
-32.92
-37.64
-43.43
-50.47
-58.27
-65.67
-70.94
-72.33
-68.56
-59.32
-45.32
-28.08
-9.44
8.86
25.47
39.48
50.28
57.45
60.75
60.26
56.49
50.39
43.19
36.11
30.01
25.32
21.94
19.52
17.70
16.23
15.03
14.04
13.10
11.93
10.14
7.37
3.47
-1.49
-7.28
-13.52
-19.90
-26.23
-32.54
-39.05
-46.20
-54.44
-64.09
-75.01
-86.37
-96.66
-103.88
-106.11
-102.08
-91.55
-75.41
-55.35
-33.37
-11.24
9.66
28.40
44.31
56.85
65.57
70.26
71.14
68.84
64.39
58.89
53.31
48.34
44.31
41.27
39.15
37.76
36.94
36.48
36.17
35.72
34.78
32.99
30.05
25.82
20.39
14.05
7.23
0.34
-6.39
-12.95
-19.56
-26.48
-34.01
-42.36
-51.66
-61.87
-72.66
-83.19
-92.14
-97.75
-98.37
-92.90
-81.29
-64.56
-44.53
-23.25
-2.53
16.34
32.62
45.82
55.61
61.78
64.30
63.52
60.20
55.48
50.59
46.51
43.85
42.67
42.70
43.51
44.71
46.12
47.60
48.96
49.90
49.96
48.79
46.25
42.47
37.79
32.49
26.69
20.36
13.40
5.87
-1.98
-9.71
-16.96
-23.53
-29.56
-35.48
-41.86
-49.23
-57.93
-67.83
-78.25
-87.85
-94.90
-97.62
-94.71
-85.76
-71.37
-53.02
-32.56
-11.79
7.92
25.65
40.81
52.94
61.62
66.56
67.73
65.58
60.98
55.11
49.16
44.07
40.39
38.23
37.39
37.50
38.14
38.90
39.44
39.50
38.84
37.33
34.83
31.26
26.58
20.83
14.21
7.03
-0.30
-7.40
-14.01
-20.07
-25.65
-31.02
-36.50
-42.46
-49.24
-57.01
-65.56
-74.16
-81.49
-85.92
-85.87
-80.31
-69.15
-53.33
-34.51
-14.63
4.50
21.57
35.73
46.54
53.81
57.54
57.97
55.63
51.34
46.10
40.94
36.67
33.71
32.08
31.45
31.38
31.45
31.33
30.89
30.02
28.60
26.51
23.61
19.80
15.12
9.70
3.68
-2.79
-9.60
-16.63
-23.71
-30.66
-37.29
-43.54
-49.60
-55.87
-62.88
-71.00
-80.18
-89.66
-98.03
-103.47
-104.25
-99.20
-88.13
-71.84
-51.89
-30.17
-8.48
11.75
29.54
44.26
55.51
63.12
67.12
67.82
65.83
61.98
57.21
52.40
48.23
45.09
43.15
42.37
42.61
43.59
44.93
46.11
46.54
45.77
43.55
39.99
35.44
30.29
24.80
19.01
12.77
5.97
-1.33
-8.85
-16.19
-23.03
-29.26
-35.02
-40.61
-46.38
-52.71
-59.92
-68.17
-77.28
-86.53
-94.56
-99.57
-99.76
-93.93
-81.90
-64.61
-43.86
-21.77
-0.24
19.31
36.06
49.62
59.88
66.92
70.92
72.22
71.24
68.55
64.83
60.81
57.20
54.59
53.24
53.14
53.98
55.30
56.66
57.69
58.17
57.92
56.82
54.78
51.75
47.80
43.04
37.66
31.88
25.95
20.15
14.69
9.66
4.99
0.48
-4.16
-9.14
-14.49
-20.10
-25.78
-31.31
-36.62
-41.71
-46.70
-51.79
-57.25
-63.45
-70.74
-79.29
-88.82
-98.39
-106.33
-110.68
-109.65
-102.23
-88.56
-69.98
-48.54
-26.49
-5.69
12.67
28.02
40.14
48.95
54.39
56.49
55.52
52.16
47.41
42.40
38.04
34.89
33.02
32.20
32.05
32.24
32.57
32.90
33.08
32.91
32.12
30.43
27.68
23.89
19.23
14.04
8.67
3.40
-1.65
-6.49
-11.27
-16.17
-21.34
-26.90
-32.96
-39.64
-46.99
-54.85
-62.67
-69.44
-73.80
-74.31
-69.97
-60.49
-46.46
-29.28
-10.73
7.34
23.47
36.67
46.48
52.77
55.70
55.54
52.73
47.88
41.80
35.40
29.56
24.94
21.82
20.13
19.46
19.29
19.12
18.64
17.70
16.34
14.64
12.67
10.41
7.73
4.48
0.50
-4.28
-9.77
-15.74
-21.88
-27.88
-33.58
-39.02
-44.49
-50.43
-57.33
-65.45
-74.67
-84.26
-92.95
-99.03
-100.80
-96.99
-87.17
-71.92
-52.75
-31.60
-10.49
9.03
25.94
39.75
50.29
57.57
61.70
62.96
61.75
58.64
54.32
49.50
44.85
40.94
38.20
36.77
36.57
37.24
38.28
39.23
39.66
39.32
38.13
36.04
33.13
29.47
25.10
20.06
14.35
7.96
0.93
-6.58
-14.33
-22.00
-29.33
-36.19
-42.68
-49.09
-55.86
-63.34
-71.71
-80.62
-89.16
-95.90
-99.16
-97.46
-89.97
-76.85
-59.17
-38.70
-17.42
2.93
21.08
36.32
48.34
57.05
62.50
64.86
64.51
62.06
58.26
53.96
49.85
46.41
43.88
42.28
41.51
41.38
41.60
41.84
41.78
41.16
39.81
37.73
34.95
31.62
27.78
23.45
18.57
13.03
6.78
-0.10
-7.37
-14.64
-21.54
-27.89
-33.70
-39.31
-45.19
-51.86
-59.65
-68.52
-78.00
-87.02
-94.13
-97.74
-96.52
-89.89
-78.12
-62.36
-44.24
-25.46
-7.48
8.66
22.23
32.77
39.94
43.61
43.93
41.36
36.71
31.00
25.25
20.30
16.65
14.45
13.52
13.56
14.25
15.34
16.58
17.71
18.35
18.08
16.51
13.51
9.24
4.09
-1.41
-6.82
-11.88
-16.59
-21.12
-25.87
-31.24
-37.56
-44.90
-52.93
-60.91
-67.67
-71.90
-72.42
-68.50
-60.13
-47.94
-33.09
-16.92
-0.75
14.33
27.46
37.92
45.14
48.75
48.77
45.69
40.49
34.42
28.72
24.25
21.43
20.11
19.80
19.91
19.88
19.40
18.39
16.88
14.88
12.33
9.07
4.92
-0.13
-5.87
-11.90
-17.77
-23.12
-27.89
-32.30
-36.79
-41.91
-48.20
-56.02
-65.41
-75.92
-86.50
-95.57
-101.23
-101.76
-96.14
-84.34
-67.47
-47.33
-26.01
-5.29
13.61
30.05
43.73
54.47
62.13
66.69
68.40
67.87
65.98
63.66
61.59
60.05
58.94
57.93
56.69
55.08
53.13
50.95
48.71
46.48
44.18
41.70
38.83
35.37
31.13
26.02
20.10
13.58
6.79
0.01
-6.59
-13.05
-19.60
-26.56
-34.20
-42.68
-51.86
-61.29
-70.08
-76.93
-80.42
-79.22
-72.62
-60.73
-44.55
-25.70
-5.95
13.08
30.29
44.97
56.71
65.24
70.36
72.10
70.76
67.07
62.00
56.56
51.50
47.23
43.75
40.92
38.57
36.63
35.09
33.89
32.79
31.50
29.70
27.20
23.93
19.99
15.49
10.56
5.33
-0.03
-5.40
-10.71
-16.05
-21.60
-27.60
-34.20
-41.30
-48.56
-55.28
-60.56
-63.41
-62.87
-58.28
-49.39
-36.53
-20.57
-2.77
15.38
32.44
47.24
58.96
67.13
71.61
72.55
70.38
65.81
59.76
53.18
46.93
41.56
37.27
34.03
31.64
29.92
28.72
27.80
26.86
25.42
23.07
19.54
14.83
9.21
3.12
-3.03
-8.98
-14.65
-20.15
-25.72
-31.67
-38.27
-45.57
-53.26
-60.58
-66.35
-69.23
-68.08
-62.25
-51.91
-37.92
-21.66
-4.66
11.72
26.38
38.57
47.77
53.59
55.85
54.66
50.52
44.30
37.10
30.00
23.79
18.88
15.28
12.79
11.06
9.76
8.57
7.17
5.23
2.42
-1.44
-6.36
-12.10
-18.24
-24.41
-30.38
-36.29
-42.57
-49.79
-58.41
-68.49
-79.44
-90.03
-98.58
-103.32
-102.83
-96.38
-84.17
-67.22
-47.13
-25.69
-4.45
15.35
32.87
47.55
59.00
67.03
71.65
73.21
72.28
69.58
65.77
61.35
56.62
51.74
46.83
42.09
37.73
33.94
30.80
28.20
25.83
23.20
19.80
15.29
9.56
2.86
-4.37
-11.61
-18.51
-25.03
-31.49
-38.43
-46.43
-55.81
-66.34
-77.16
-86.76
-93.26
-94.90
-90.54
-80.05
-64.31
-45.03
-24.10
-3.22
16.47
34.27
49.80
62.70
72.57
79.12
82.38
82.71
80.82
77.52
73.49
69.18
64.79
60.45
56.32
52.64
49.74
47.84
46.98
46.93
47.21
47.22
46.38
44.38
41.15
36.94
32.12
27.09
22.06
17.01
11.71
5.87
-0.74
-8.18
-16.30
-24.75
-33.04
-40.71
-47.46
-53.34
-58.73
-64.35
-70.96
-79.10
-88.75
-99.13
-108.73
-115.63
-117.92
-114.31
-104.42
-88.86
-69.02
-46.69
-23.68
-1.48
18.77
36.30
50.58
61.32
68.50
72.34
73.41
72.40
70.08
67.04
63.68
60.16
56.58
53.04
49.81
47.26
45.70
45.24
45.62
46.28
46.48
45.56
43.19
39.44
34.70
29.56
24.53
19.90
15.69
11.69
7.58
3.06
-2.09
-7.99
-14.60
-21.74
-29.15
-36.58
-43.91
-51.28
-59.05
-67.58
-76.91
-86.48
-95.04
-100.85
-102.25
-98.15
-88.41
-73.88
-56.11
-36.89
-17.84
-0.15
15.39
28.33
38.34
45.21
48.82
49.27
46.98
42.63
37.16
31.51
26.44
22.43
19.58
17.73
16.60
15.86
15.33
14.87
14.37
13.69
12.59
10.81
8.13
4.49
-0.01
-5.11
-10.49
-15.90
-21.22
-26.48
-31.83
-37.43
-43.52
-50.28
-57.87
-66.35
-75.38
-84.14
-91.21
-94.89
-93.65
-86.61
-73.93
-56.75
-36.84
-16.05
4.05
22.36
38.23
51.22
61.06
67.60
70.89
71.26
69.24
65.48
60.69
55.49
50.40
45.72
41.62
38.12
35.08
32.42
30.04
27.94
26.09
24.41
22.69
20.62
17.89
14.31
9.84
4.63
-1.06
-6.98
-12.93
-18.81
-24.63
-30.50
-36.50
-42.75
-49.41
-56.63
-64.57
-73.10
-81.68
-89.18
-94.02
-94.55
-89.57
-78.85
-63.16
-44.08
-23.48
-3.01
16.10
33.06
47.23
58.13
65.35
68.87
69.08
66.85
63.17
58.94
54.70
50.70
47.01
43.72
40.99
38.99
37.75
37.13
36.80
36.39
35.58
34.17
32.07
29.27
25.87
22.00
17.84
13.52
9.09
4.36
-0.91
-6.93
-13.68
-20.87
-28.04
-34.74
-40.76
-46.20
-51.50
-57.22
-63.83
-71.43
-79.55
-87.14
-92.68
-94.52
-91.35
-82.65
-68.84
-51.19
-31.47
-11.46
7.35
23.89
37.47
47.64
54.15
56.96
56.37
52.97
47.69
41.52
35.38
29.89
25.26
21.46
18.34
15.85
14.11
13.32
13.59
14.74
16.27
17.41
17.37
15.63
12.11
7.19
1.53
-4.22
-9.61
-14.55
-19.31
-24.33
-30.07
-36.78
-44.47
-52.73
-60.80
-67.56
-71.74
-72.26
-68.42
-60.18
-48.14
-33.39
-17.19
-0.78
14.80
28.63
39.91
47.92
52.25
52.86
50.27
45.39
39.34
33.12
27.43
22.56
18.52
15.16
12.37
10.15
8.58
7.59
6.96
6.17
4.62
1.87
-2.17
-7.21
-12.69
-18.06
-22.96
-27.43
-31.75
-36.38
-41.71
-48.03
-55.48
-63.92
-72.88
-81.39
-88.01
-91.06
-89.11
-81.42
-68.24
-50.80
-30.93
-10.54
8.77
25.89
40.14
51.13
58.65
62.63
63.25
61.03
56.77
51.45
45.93
40.83
36.35
32.39
28.75
25.24
21.91
18.94
16.63
15.08
14.15
13.39
12.13
9.79
6.05
1.03
-4.73
-10.60
-16.06
-21.00
-25.74
-30.91
-37.11
-44.69
-53.55
-63.15
-72.50
-80.37
-85.40
-86.31
-82.19
-72.76
-58.52
-40.74
-21.19
-1.67
16.34
31.94
44.67
54.43
61.26
65.23
66.50
65.43
62.57
58.60
54.14
49.63
45.26
41.07
37.09
33.48
30.48
28.31
27.01
26.37
25.90
24.96
22.96
19.45
14.36
7.95
0.82
-6.34
-12.88
-18.52
-23.38
-27.95
-32.89
-38.73
-45.60
-53.13
-60.46
-66.40
-69.66
-69.16
-64.26
-54.90
-41.67
-25.65
-8.23
9.18
25.34
39.28
50.32
58.04
62.25
63.03
60.77
56.19
50.19
43.74
37.65
32.41
28.20
25.01
22.72
21.24
20.42
20.06
19.76
19.01
17.27
14.22
9.85
4.49
-1.34
-7.12
-12.48
-17.37
-21.98
-26.77
-32.25
-38.92
-46.93
-55.97
-65.00
-72.50
-76.71
-76.14
-70.09
-58.87
-43.76
-26.58
-9.24
6.66
20.09
30.54
37.84
42.09
43.49
42.39
39.24
34.69
29.48
24.39
20.08
16.95
15.09
14.33
14.26
14.44
14.44
13.94
12.73
10.69
7.84
4.25
0.08
-4.60
-9.75
-15.49
-21.95
-29.29
-37.51
-46.41
-55.42
-63.59
-69.70
-72.43
-70.70
-63.98
-52.44
-36.98
-19.06
-0.35
17.53
33.18
45.66
54.42
59.35
60.73
59.09
55.09
49.48
42.97
36.23
29.88
24.45
20.26
17.39
15.65
14.55
13.52
12.01
9.66
6.35
2.23
-2.41
-7.29
-12.12
-16.81
-21.41
-26.17
-31.49
-37.85
-45.56
-54.43
-63.66
-71.78
-76.87
-77.15
-71.49
-59.82
-43.21
-23.51
-2.86
16.83
34.29
48.77
59.98
67.75
72.04
72.87
70.56
65.73
59.37
52.50
46.00
40.34
35.63
31.73
28.46
25.75
23.60
22.02
20.84
19.63
17.79
14.70
9.98
3.62
-3.90
-11.82
-19.42
-26.29
-32.61
-39.08
-46.65
-55.81
-66.30
-76.72
-84.90
-88.55
-85.90
-76.22
-59.86
-38.16
-13.16
12.66
36.65
56.41
70.22
77.51
78.91
75.96
70.49
63.98
57.34
50.89
44.81
39.31
34.73
31.36
29.22
27.94
26.92
25.49
23.10
19.46
14.50
8.49
1.87
-4.83
-11.16
-16.88
-22.05
-27.00
-32.22
-38.23
-45.38
-53.69
-62.72
-71.41
-78.20
-81.32
-79.25
-71.19
-57.38
-39.23
-18.92
0.99
18.15
30.94
38.67
41.59
40.70
37.32
32.79
28.14
24.00
20.65
18.18
16.61
15.94
16.11
16.95
18.16
19.34
20.09
20.12
19.30
17.70
15.44
12.65
9.38
5.60
1.25
-3.77
-9.60
-16.39
-24.28
-33.17
-42.55
-51.32
-57.96
-60.87
-58.85
-51.55
-39.55
-24.21
-7.20
9.87
25.72
39.35
50.07
57.39
61.12
61.43
58.86
54.25
48.52
42.54
36.93
32.09
28.23
25.41
23.60
22.66
22.23
21.85
20.94
18.95
15.54
10.67
4.67
-1.88
-8.35
-14.26
-19.55
-24.51
-29.75
-35.98
-43.72
-53.01
-63.23
-73.07
-80.64
-83.97
-81.51
-72.67
-58.01
-39.14
-18.24
2.59
21.74
38.30
51.84
62.18
69.19
72.79
73.13
70.73
66.45
61.35
56.32
51.91
48.21
45.01
42.04
39.18
36.49
34.08
31.98
29.99
27.70
24.61
20.33
14.73
8.05
0.78
-6.49
-13.28
-19.43
-25.12
-30.87
-37.25
-44.73
-53.43
-63.04
-72.74
-81.36
-87.48
-89.72
-87.04
-78.99
-65.87
-48.71
-29.03
-8.50
11.35
29.32
44.60
56.71
65.47
70.97
73.55
73.76
72.27
69.74
66.73
63.58
60.48
57.52
54.75
52.24
50.03
48.12
46.43
44.75
42.89
40.64
37.87
34.51
30.50
25.78
20.26
13.97
7.06
-0.18
-7.36
-14.18
-20.53
-26.58
-32.68
-39.28
-46.74
-55.23
-64.63
-74.37
-83.49
-90.64
-94.29
-93.11
-86.35
-74.10
-57.38
-37.85
-17.44
2.09
19.52
34.12
45.56
53.74
58.68
60.52
59.61
56.56
52.20
47.45
43.09
39.65
37.25
35.69
34.55
33.39
31.91
30.04
27.91
25.72
23.61
21.47
18.95
15.62
11.17
5.56
-0.85
-7.51
-13.87
-19.66
-24.93
-30.03
-35.43
-41.53
-48.52
-56.27
-64.30
-71.80
-77.61
-80.47
-79.24
-73.20
-62.38
-47.64
-30.47
-12.64
4.20
18.84
30.63
39.37
45.13
48.13
48.60
46.85
43.37
38.80
33.89
29.42
25.97
23.87
23.15
23.56
24.70
26.08
27.18
27.60
27.09
25.57
23.11
19.84
15.87
11.33
6.30
0.88
-4.77
-10.48
-16.11
-21.53
-26.68
-31.56
-36.19
-40.75
-45.49
-50.77
-57.00
-64.34
-72.62
-81.07
-88.35
-92.83
-92.85
-87.39
-76.33
-60.57
-41.78
-21.91
-2.71
14.61
29.40
41.35
50.29
56.06
58.59
58.08
55.07
50.50
45.43
40.79
37.17
34.78
33.49
33.01
33.09
33.54
34.22
35.00
35.63
35.84
35.30
33.80
31.26
27.84
23.83
19.54
15.17
10.71
5.96
0.69
-5.20
-11.56
-18.03
-24.16
-29.68
-34.66
-39.47
-44.66
-50.76
-58.02
-66.31
-75.03
-83.14
-89.24
-91.85
-89.77
-82.42
-70.02
-53.61
-34.74
-15.08
3.91
21.21
36.22
48.55
57.98
64.41
67.89
68.66
67.22
64.15
60.08
55.58
51.09
46.98
43.50
40.87
39.17
38.31
38.05
37.99
37.68
36.75
35.03
32.57
29.57
26.32
23.02
19.70
16.22
12.32
7.75
2.41
-3.62
-10.08
-16.60
-22.85
-28.60
-33.88
-38.93
-44.17
-50.05
-56.87
-64.50
-72.24
-78.83
-82.69
-82.37
-77.03
-66.72
-52.44
-35.84
-18.74
-2.80
10.78
21.32
28.63
32.78
34.08
32.94
29.93
25.72
21.07
16.76
13.42
11.36
10.52
10.60
11.14
11.81
12.44
13.00
13.47
13.64
13.23
11.87
9.37
5.76
1.34
-3.46
-8.23
-12.65
-16.61
-20.17
-23.59
-27.26
-31.61
-36.97
-43.34
-50.33
-56.97
-61.93
-63.73
-61.26
-54.07
-42.57
-27.93
-11.70
4.60
19.74
32.83
43.25
50.49
54.20
54.29
51.11
45.50
38.56
31.44
25.02
19.71
15.62
12.59
10.45
9.09
8.37
8.10
7.95
7.50
6.31
4.08
0.69
-3.76
-9.02
-14.72
-20.45
-25.91
-30.84
-35.23
-39.26
-43.32
-47.95
-53.65
-60.68
-68.89
-77.50
-85.22
-90.43
-91.59
-87.66
-78.43
-64.53
-47.30
-28.40
-9.43
8.32
23.88
36.61
46.10
52.15
54.86
54.62
52.13
48.30
44.07
40.18
37.05
34.79
33.21
32.09
31.23
30.56
30.12
29.88
29.69
29.23
28.06
25.85
22.42
17.84
12.37
6.31
-0.03
-6.41
-12.62
-18.50
-24.04
-29.37
-34.90
-41.18
-48.73
-57.70
-67.54
-77.03
-84.39
-87.81
-85.94
-78.31
-65.48
-48.79
-29.98
-10.72
7.65
24.20
38.30
49.48
57.41
61.89
63.01
61.25
57.40
52.47
47.40
42.89
39.26
36.50
34.40
32.74
31.35
30.20
29.29
28.60
28.03
27.39
26.41
24.81
22.36
18.96
14.69
9.85
4.87
0.14
-4.12
-8.02
-11.94
-16.44
-22.01
-28.93
-37.11
-46.05
-54.86
-62.32
-67.06
-67.76
-63.57
-54.32
-40.68
-24.01
-6.02
11.64
27.65
41.13
51.62
58.83
62.68
63.29
61.07
56.73
51.17
45.33
39.98
35.56
32.23
29.88
28.32
27.27
26.51
25.80
24.99
23.83
22.13
19.63
16.17
11.74
6.49
0.77
-5.03
-10.66
-16.04
-21.34
-26.84
-32.83
-39.52
-46.90
-54.81
-62.79
-70.08
-75.65
-78.24
-76.68
-70.25
-58.94
-43.60
-25.73
-7.19
10.30
25.39
37.23
45.39
49.74
50.45
47.95
43.00
36.56
29.75
23.49
18.38
14.60
12.05
10.43
9.42
8.70
7.98
6.95
5.32
2.92
-0.32
-4.24
-8.59
-13.09
-17.59
-22.11
-26.82
-32.06
-38.19
-45.49
-54.05
-63.62
-73.48
-82.39
-88.74
-90.87
-87.54
-78.37
-63.96
-45.84
-25.96
-6.25
11.82
27.30
39.77
49.01
54.93
57.54
57.05
54.00
49.23
43.70
38.25
33.44
29.45
26.24
23.66
21.67
20.29
19.51
19.22
19.09
18.63
17.34
14.89
11.17
6.36
0.78
-5.19
-11.27
-17.39
-23.69
-30.50
-38.13
-46.75
-56.27
-66.19
-75.54
-83.01
-87.16
-86.65
-80.75
-69.48
-53.75
-35.06
-15.20
4.23
22.07
37.60
50.42
60.28
67.00
70.49
70.88
68.56
64.24
58.80
53.13
47.97
43.83
40.90
39.08
38.11
37.57
37.10
36.47
35.59
34.44
32.92
30.78
27.65
23.16
17.23
10.13
2.53
-4.82
-11.35
-16.94
-21.91
-26.81
-32.20
-38.40
-45.47
-53.18
-61.04
-68.24
-73.61
-75.82
-73.55
-66.03
-53.37
-36.58
-17.40
2.22
20.58
36.57
49.62
59.56
66.37
70.09
70.83
68.95
65.04
59.95
54.61
49.79
46.03
43.46
41.99
41.30
41.04
40.95
40.82
40.52
39.90
38.80
37.00
34.31
30.57
25.74
19.93
13.43
6.62
-0.05
-6.29
-12.01
-17.36
-22.67
-28.32
-34.58
-41.65
-49.50
-57.96
-66.57
-74.50
-80.49
-83.09
-81.00
-73.54
-60.97
-44.45
-25.77
-6.83
10.80
26.04
38.23
47.04
52.28
53.98
52.45
48.40
42.85
36.94
31.67
27.62
24.93
23.37
22.56
22.13
21.80
21.41
20.82
19.87
18.34
16.02
12.73
8.44
3.27
-2.53
-8.63
-14.73
-20.69
-26.58
-32.64
-39.26
-46.68
-54.79
-62.94
-69.92
-74.21
-74.36
-69.46
-59.53
-45.51
-29.00
-11.79
4.61
19.18
31.38
40.94
47.61
51.16
51.55
49.13
44.69
39.36
34.26
30.19
27.40
25.72
24.69
23.88
23.04
22.09
21.08
20.02
18.81
17.22
14.90
11.52
6.89
1.06
-5.64
-12.68
-19.48
-25.66
-31.08
-35.93
-40.58
-45.48
-51.07
-57.73
-65.63
-74.61
-83.89
-92.02
-97.10
-97.27
-91.37
-79.37
-62.45
-42.58
-21.88
-2.13
15.59
30.68
42.90
52.09
58.14
61.10
61.29
59.35
56.13
52.52
49.21
46.60
44.74
43.47
42.52
41.64
40.71
39.70
38.60
37.40
35.92
33.92
31.12
27.31
22.47
16.72
10.38
3.79
-2.73
-8.94
-14.76
-20.24
-25.60
-31.20
-37.46
-44.67
-52.83
-61.39
-69.28
-74.99
-77.06
-74.41
-66.72
-54.52
-39.03
-21.80
-4.30
12.30
27.22
39.97
50.26
57.86
62.59
64.39
63.46
60.37
55.96
51.22
47.02
43.85
41.74
40.34
39.19
37.93
36.47
34.95
33.54
32.24
30.79
28.73
25.62
21.33
16.04
10.19
4.28
-1.39
-6.79
-12.14
-17.68
-23.61
-29.98
-36.75
-43.98
-51.69
-59.77
-67.71
-74.49
-78.66
-78.70
-73.61
-63.27
-48.58
-31.24
-13.17
3.92
18.88
31.13
40.45
46.67
49.71
49.59
46.69
41.85
36.23
30.96
26.85
24.16
22.62
21.77
21.19
20.68
20.28
20.06
19.97
19.75
18.98
17.25
14.33
10.26
5.28
-0.22
-5.90
-11.55
-17.19
-23.01
-29.31
-36.39
-44.38
-53.14
-62.12
-70.27
-76.21
-78.43
-75.76
-67.75
-54.88
-38.50
-20.43
-2.53
13.74
27.43
38.00
45.17
48.80
48.98
46.13
41.13
35.17
29.49
25.03
22.22
20.95
20.74
21.04
21.43
21.67
21.69
21.46
20.90
19.84
18.06
15.34
11.57
6.74
1.03
-5.25
-11.73
-18.02
-23.86
-29.09
-33.80
-38.21
-42.75
-47.95
-54.28
-61.99
-70.72
-79.45
-86.52
-90.07
-88.57
-81.33
-68.77
-52.18
-33.40
-14.20
3.98
20.21
33.93
44.84
52.76
57.70
59.85
59.71
57.95
55.27
52.29
49.42
46.92
44.83
43.11
41.68
40.40
39.20
37.99
36.69
35.24
33.52
31.34
28.43
24.50
19.39
13.15
6.13
-1.14
-8.03
-14.09
-19.15
-23.41
-27.35
-31.55
-36.62
-42.92
-50.47
-58.85
-67.14
-74.00
-77.96
-77.74
-72.59
-62.51
-48.31
-31.38
-13.34
4.31
20.46
34.42
45.83
54.49
60.27
63.09
63.00
60.42
56.05
50.90
46.02
42.21
39.89
39.00
39.19
39.92
40.74
41.35
41.58
41.43
40.86
39.89
38.45
36.49
33.97
30.95
27.54
23.89
20.14
16.33
12.44
8.37
4.01
-0.70
-5.74
-11.03
-16.46
-21.89
-27.20
-32.28
-37.07
-41.65
-46.24
-51.22
-57.02
-63.96
-72.04
-80.71
-88.85
-94.85
-97.03
-94.06
-85.43
-71.58
-53.86
-34.11
-14.25
4.16
20.09
32.96
42.52
48.69
51.52
51.27
48.55
44.23
39.38
34.91
31.42
29.01
27.44
26.35
25.50
24.85
24.50
24.49
24.67
24.64
23.85
21.83
18.35
13.54
7.84
1.88
-3.77
-8.75
-13.03
-16.94
-21.04
-25.88
-31.81
-38.84
-46.61
-54.36
-61.11
-65.72
-67.15
-64.68
-58.01
-47.48
-33.96
-18.69
-3.05
11.74
24.69
35.10
42.46
46.50
47.20
44.86
40.24
34.35
28.27
22.91
18.77
15.95
14.22
13.22
12.60
12.08
11.45
10.60
9.43
7.88
5.87
3.31
0.11
-3.70
-7.96
-12.46
-16.90
-21.11
-25.06
-28.96
-33.16
-38.03
-43.90
-51.00
-59.31
-68.41
-77.34
-84.63
-88.58
-87.71
-81.23
-69.38
-53.34
-34.85
-15.75
2.48
18.83
32.65
43.57
51.25
55.52
56.47
54.60
50.74
45.89
40.98
36.68
33.29
30.83
29.12
27.95
27.12
26.50
25.97
25.39
24.59
23.33
21.41
18.70
15.17
10.94
6.23
1.23
-3.91
-9.10
-14.27
-19.37
-24.43
-29.57
-35.12
-41.48
-48.95
-57.40
-66.11
-73.79
-78.85
-79.80
-75.75
-66.62
-53.15
-36.66
-18.75
-0.89
15.70
30.16
41.93
50.63
56.09
58.37
57.80
55.02
50.93
46.45
42.42
39.36
37.39
36.32
35.77
35.34
34.80
34.05
33.11
31.97
30.51
28.52
25.75
22.06
17.46
12.16
6.47
0.72
-4.85
-10.22
-15.45
-20.77
-26.45
-32.75
-39.90
-47.92
-56.45
-64.74
-71.53
-75.36
-74.92
-69.42
-58.91
-44.32
-27.24
-9.48
7.33
22.00
33.84
42.53
47.95
50.16
49.43
46.33
41.74
36.68
32.10
28.55
26.12
24.50
23.24
22.01
20.70
19.38
18.13
16.87
15.35
13.22
10.19
6.19
1.42
-3.79
-9.04
-14.04
-18.80
-23.56
-28.80
-35.01
-42.50
-51.10
-60.04
-68.00
-73.34
-74.59
-70.81
-61.99
-48.92
-33.04
-15.96
0.80
16.02
28.76
38.32
44.26
46.52
45.50
42.03
37.19
32.01
27.25
23.25
20.02
17.43
15.35
13.77
12.74
12.25
12.15
12.08
11.55
10.07
7.35
3.37
-1.61
-7.08
-12.62
-17.95
-23.12
-28.44
-34.34
-41.21
-49.29
-58.41
-67.95
-76.75
-83.25
-85.78
-83.05
-74.57
-60.92
-43.60
-24.61
-5.85
11.29
26.10
38.33
47.90
54.66
58.42
59.13
57.10
53.13
48.29
43.65
39.92
37.34
35.72
34.66
33.80
32.99
32.21
31.50
30.77
29.77
28.14
25.51
21.67
16.69
10.89
4.75
-1.27
-6.85
-12.01
-17.01
-22.37
-28.62
-36.15
-45.01
-54.74
-64.38
-72.54
-77.69
-78.48
-74.12
-64.61
-50.77
-34.06
-16.16
1.40
17.49
31.47
43.03
52.03
58.37
62.03
63.10
61.96
59.17
55.46
51.56
48.07
45.38
43.65
42.86
42.81
43.17
43.53
43.56
42.98
41.67
39.65
36.97
33.75
30.03
25.83
21.19
16.13
10.69
4.94
-1.03
-7.13
-13.23
-19.27
-25.20
-31.13
-37.26
-43.85
-51.15
-59.17
-67.53
-75.32
-81.25
-83.77
-81.66
-74.28
-61.92
-45.75
-27.50
-8.98
8.31
23.43
35.90
45.54
52.20
55.78
56.35
54.29
50.41
45.81
41.58
38.44
36.57
35.66
35.15
34.60
33.81
32.91
32.09
31.41
30.68
29.44
27.21
23.66
18.79
12.92
6.59
0.30
-5.67
-11.36
-17.03
-23.07
-29.81
-37.34
-45.53
-53.87
-61.61
-67.72
-71.08
-70.70
-65.99
-57.01
-44.48
-29.60
-13.80
1.62
15.58
27.29
36.13
41.71
43.89
42.88
39.34
34.23
28.66
23.53
19.40
16.36
14.19
12.51
11.04
9.65
8.38
7.28
6.30
5.21
3.61
1.15
-2.36
-6.82
-11.91
-17.22
-22.50
-27.80
-33.42
-39.84
-47.49
-56.51
-66.53
-76.60
-85.27
-90.86
-91.86
-87.36
-77.35
-62.74
-45.08
-26.13
-7.46
9.82
25.07
37.94
48.17
55.50
59.69
60.74
59.05
55.43
50.99
46.73
43.38
41.11
39.66
38.56
37.39
36.02
34.55
33.16
31.92
30.65
28.97
26.43
22.70
17.73
11.75
5.19
-1.40
-7.60
-13.23
-18.39
-23.50
-29.05
-35.53
-43.19
-51.99
-61.50
-70.88
-78.93
-84.25
-85.47
-81.63
-72.46
-58.53
-41.18
-22.17
-3.24
14.25
29.49
42.16
52.23
59.75
64.76
67.33
67.65
66.06
63.16
59.58
55.96
52.75
50.15
48.20
46.83
45.90
45.28
44.84
44.38
43.64
42.35
40.26
37.29
33.51
29.12
24.38
19.46
14.34
8.91
2.97
-3.52
-10.39
-17.30
-23.80
-29.57
-34.57
-39.07
-43.64
-48.92
-55.45
-63.36
-72.14
-80.62
-87.10
-89.77
-87.26
-79.07
-65.75
-48.72
-29.85
-10.89
6.80
22.39
35.39
45.53
52.62
56.64
57.78
56.51
53.56
49.76
45.88
42.50
39.85
37.92
36.46
35.18
33.87
32.49
31.11
29.85
28.66
27.28
25.29
22.20
17.72
11.88
5.00
-2.32
-9.51
-16.06
-21.68
-26.34
-30.20
-33.63
-37.12
-41.18
-46.20
-52.25
-58.90
-65.23
-69.90
-71.50
-68.89
-61.62
-50.00
-35.08
-18.36
-1.39
14.49
28.31
39.46
47.59
52.52
54.29
53.24
50.02
45.53
40.71
36.31
32.69
29.79
27.35
25.04
22.68
20.28
17.99
15.94
14.12
12.36
10.37
7.83
4.53
0.44
-4.31
-9.39
-14.49
-19.33
-23.81
-28.01
-32.23
-36.87
-42.36
-48.97
-56.73
-65.16
-73.30
-79.71
-82.85
-81.44
-74.89
-63.50
-48.36
-31.03
-13.07
4.20
19.83
33.18
43.77
51.24
55.48
56.65
55.27
52.10
47.96
43.62
39.60
36.24
33.68
31.89
30.78
30.21
29.96
29.86
29.66
29.13
28.05
26.23
23.55
20.01
15.71
10.80
5.50
0.03
-5.45
-10.81
-16.05
-21.21
-26.40
-31.72
-37.24
-43.02
-49.21
-55.99
-63.49
-71.52
-79.35
-85.63
-88.74
-87.14
-80.07
-67.76
-51.41
-32.82
-13.80
4.23
20.37
34.11
45.09
53.00
57.63
59.08
57.88
54.96
51.44
48.25
45.88
44.35
43.40
42.74
42.25
41.97
41.94
42.07
42.13
41.77
40.70
38.79
36.07
32.70
28.81
24.51
19.85
14.80
9.39
3.63
-2.40
-8.61
-14.84
-20.96
-26.88
-32.58
-38.19
-43.92
-50.09
-56.85
-64.07
-71.13
-76.96
-80.22
-79.64
-74.42
-64.51
-50.63
-34.07
-16.34
1.14
17.19
30.95
41.78
49.25
53.24
53.95
51.91
47.96
43.04
38.02
33.60
30.20
27.99
26.87
26.62
26.83
27.15
27.22
26.83
25.85
24.23
21.96
19.03
15.46
11.33
6.72
1.77
-3.34
-8.46
-13.46
-18.30
-23.04
-27.91
-33.19
-39.15
-45.91
-53.30
-60.67
-66.99
-71.00
-71.51
-67.73
-59.53
-47.54
-32.93
-17.18
-1.73
12.26
23.98
32.93
38.84
41.64
41.46
38.73
34.15
28.63
23.09
18.32
14.73
12.37
10.98
10.18
9.68
9.29
8.97
8.65
8.12
7.02
4.98
1.73
-2.69
-7.97
-13.60
-19.14
-24.33
-29.24
-34.21
-39.71
-46.16
-53.69
-61.94
-70.00
-76.50
-79.94
-79.03
-73.17
-62.57
-48.17
-31.40
-13.71
3.62
19.58
33.37
44.32
51.87
55.75
56.08
53.48
48.97
43.65
38.51
34.14
30.74
28.22
26.36
24.96
23.92
23.14
22.55
21.97
21.16
19.80
17.57
14.29
9.93
4.74
-0.86
-6.39
-11.51
-16.23
-20.86
-26.01
-32.23
-39.87
-48.85
-58.61
-68.09
-75.92
-80.62
-80.91
-76.03
-66.00
-51.64
-34.44
-16.18
1.48
17.34
30.71
41.32
49.13
54.12
56.33
55.92
53.33
49.32
44.83
40.73
37.60
35.60
34.52
33.99
33.66
33.36
33.06
32.74
32.31
31.57
30.18
27.89
24.55
20.23
15.18
9.71
4.10
-1.45
-6.89
-12.24
-17.67
-23.36
-29.61
-36.72
-44.87
-53.93
-63.28
-71.79
-77.94
-80.21
-77.52
-69.51
-56.68
-40.27
-21.89
-3.24
14.30
29.68
42.27
51.66
57.68
60.37
59.97
57.07
52.47
47.12
41.92
37.52
34.23
32.00
30.58
29.70
29.10
28.68
28.37
28.07
27.58
26.55
24.66
21.61
17.35
12.06
6.12
-0.04
-6.13
-12.07
-17.98
-24.10
-30.70
-37.96
-45.94
-54.51
-63.29
-71.52
-78.15
-81.88
-81.56
-76.41
-66.41
-52.28
-35.38
-17.35
0.21
16.05
29.33
39.54
46.49
50.16
50.76
48.76
44.88
39.99
35.02
30.69
27.42
25.29
24.13
23.68
23.70
24.00
24.46
24.87
24.90
24.17
22.31
19.11
14.65
9.26
3.40
-2.47
-8.07
-13.38
-18.63
-24.25
-30.56
-37.65
-45.12
-52.06
-57.17
-59.12
-56.94
-50.26
-39.52
-25.74
-10.32
5.32
19.92
32.51
42.37
49.01
52.21
52.07
49.08
44.07
38.06
32.02
26.63
22.14
18.49
15.41
12.71
10.35
8.43
7.01
5.98
4.98
3.47
0.96
-2.83
-7.88
-13.82
-20.19
-26.54
-32.59
-38.33
-44.05
-50.18
-57.23
-65.47
-74.79
-84.44
-93.06
-98.92
-100.26
-95.87
-85.46
-69.79
-50.46
-29.45
-8.64
10.53
27.13
40.61
50.65
57.09
59.98
59.68
56.91
52.65
47.95
43.66
40.22
37.67
35.82
34.39
33.24
32.31
31.66
31.23
30.80
30.02
28.45
25.79
21.92
16.97
11.23
5.03
-1.32
-7.62
-13.81
-19.95
-26.30
-33.22
-41.07
-49.97
-59.55
-68.86
-76.39
-80.43
-79.58
-73.18
-61.55
-45.85
-27.75
-8.93
9.23
25.79
40.16
51.94
60.80
66.50
68.99
68.55
65.77
61.51
56.67
52.02
48.13
45.24
43.43
42.64
42.66
43.23
43.95
44.39
44.09
42.76
40.29
36.82
32.61
27.93
22.97
17.80
12.37
6.65
0.64
-5.55
-11.72
-17.68
-23.28
-28.58
-33.82
-39.39
-45.75
-53.16
-61.55
-70.30
-78.25
-83.90
-85.68
-82.49
-73.97
-60.70
-43.95
-25.41
-6.70
10.89
26.48
39.52
49.60
56.44
59.97
60.39
58.34
54.70
50.44
46.40
43.08
40.70
39.20
38.40
38.06
37.96
37.82
37.35
36.29
34.47
31.83
28.44
24.43
19.92
15.04
9.86
4.49
-0.99
-6.49
-11.95
-17.40
-22.87
-28.43
-34.09
-39.92
-45.99
-52.43
-59.24
-66.16
-72.54
-77.29
-79.13
-76.94
-70.10
-58.76
-43.87
-26.85
-9.34
7.23
21.76
33.46
41.89
46.76
48.08
46.14
41.61
35.53
29.04
23.21
18.75
15.90
14.45
13.94
13.83
13.75
13.52
13.10
12.53
11.77
10.67
8.94
6.33
2.72
-1.80
-6.93
-12.26
-17.46
-22.37
-27.14
-32.07
-37.58
-43.96
-51.29
-59.25
-67.17
-74.02
-78.60
-79.71
-76.52
-68.73
-56.67
-41.22
-23.69
-5.52
11.90
27.43
40.26
49.89
56.16
59.18
59.30
57.12
53.38
48.88
44.40
40.52
37.56
35.56
34.38
33.83
33.74
34.00
34.48
34.94
35.01
34.33
32.57
29.65
25.69
21.01
15.98
10.88
5.81
0.70
-4.62
-10.26
-16.14
-22.06
-27.68
-32.83
-37.49
-41.89
-46.43
-51.57
-57.65
-64.87
-73.06
-81.55
-89.14
-94.20
-95.11
-90.68
-80.66
-65.81
-47.71
-28.23
-9.05
8.61
24.07
36.95
47.00
54.07
58.05
59.10
57.69
54.59
50.72
46.95
43.91
41.88
40.78
40.35
40.26
40.30
40.40
40.56
40.79
40.97
40.84
40.12
38.56
36.11
32.90
29.20
25.32
21.43
17.51
13.35
8.72
3.47
-2.32
-8.41
-14.43
-20.01
-24.93
-29.10
-32.70
-36.07
-39.74
-44.32
-50.31
-57.88
-66.63
-75.51
-82.99
-87.39
-87.34
-82.13
-71.86
-57.40
-40.10
-21.51
-3.09
13.95
28.67
40.52
49.22
54.78
57.45
57.67
56.03
53.20
49.89
46.73
44.19
42.50
41.64
41.39
41.46
41.62
41.73
41.68
41.33
40.47
38.84
36.24
32.68
28.31
23.46
18.42
13.37
8.30
3.13
-2.19
-7.63
-13.09
-18.54
-24.04
-29.78
-35.87
-42.33
-48.91
-55.22
-60.96
-66.02
-70.52
-74.60
-78.13
-80.52
-80.76
-77.80
-70.91
-60.11
-46.10
-30.13
-13.50
2.60
17.30
29.93
39.93
46.77
50.14
50.20
47.67
43.84
40.21
38.01
37.86
39.58
42.39
45.28
47.35
48.13
47.51
45.70
42.97
39.52
35.46
30.83
25.69
20.12
14.25
8.18
2.00
-4.20
-10.37
-16.54
-22.84
-29.51
-36.82
-44.91
-53.62
-62.33
-70.03
-75.58
-77.93
-76.49
-71.13
-62.26
-50.60
-37.05
-22.64
-8.46
4.37
14.78
21.96
25.51
25.60
22.93
18.55
13.65
9.15
5.63
3.26
1.87
1.19
1.00
1.17
1.70
2.53
3.51
4.36
4.67
4.02
2.08
-1.29
-5.97
-11.61
-17.70
-23.77
-29.48
-34.82
-39.99
-45.42
-51.60
-58.92
-67.51
-77.08
-86.87
-95.66
-102.03
-104.68
-102.74
-96.01
-85.00
-70.74
-54.66
-38.30
-23.27
-11.03
-2.68
1.28
1.13
-2.06
-6.76
-11.58
-15.77
-19.47
-23.56
-29.04
-36.33
-44.58
-51.62
-54.18
-48.82
-32.71
-4.29
36.35
87.44
145.59
206.22
264.32
315.50
356.93
387.70
408.27
419.46
421.51
413.71
395.20
365.97
327.67
283.33
236.37
189.05
141.64
92.83
41.06
-13.68
-68.90
-119.98
-161.71
-190.38
-205.27
-208.88
-205.66
-200.06
-194.96
-191.06
-187.56
-183.44
-178.46
-173.24
-168.62
-164.81
-161.01
-155.77
-147.84
-136.88
-123.72
-109.95
-97.32
-86.98
-79.24
-73.64
-69.31
-65.47
-61.73
-58.17
-55.21
-53.31
-52.71
-53.28
-54.59
-56.18
-57.80
-59.59
-62.06
-65.82
-71.20
-77.95
-85.05
-90.87
-93.54
-91.47
-83.81
-70.68
-53.16
-32.96
-12.02
7.93
25.57
40.10
51.09
58.44
62.24
62.79
60.64
56.58
51.52
46.39
41.92
38.59
36.52
35.58
35.46
35.78
36.12
36.16
35.59
34.20
31.80
28.32
23.84
18.56
12.76
6.69
0.51
-5.78
-12.26
-19.07
-26.36
-34.20
-42.66
-51.50
-60.15
-67.43
-71.89
-71.97
-66.60
-55.52
-39.32
-19.16
3.62
27.53
50.89
71.55
87.15
95.66
96.27
89.89
78.98
66.71
55.72
47.43
41.84
38.16
35.58
33.73
32.69
32.52
32.95
33.19
32.30
29.61
24.97
18.84
11.98
5.21
-1.09
-6.93
-12.71
-18.98
-26.21
-34.62
-44.13
-54.34
-64.57
-73.85
-80.90
-84.34
-82.96
-76.04
-63.73
-46.98
-27.41
-6.85
13.02
30.97
46.16
58.13
66.55
71.30
72.50
70.61
66.52
61.37
56.31
52.12
49.11
47.09
45.59
44.21
42.77
41.39
40.26
39.43
38.67
37.42
35.07
31.23
25.84
19.28
12.16
5.05
-1.65
-7.87
-13.75
-19.63
-25.86
-32.83
-40.80
-49.83
-59.58
-69.10
-76.97
-81.49
-81.15
-75.09
-63.40
-47.10
-27.85
-7.50
12.26
30.16
45.38
57.45
66.17
71.53
73.77
73.32
70.84
67.07
62.78
58.60
54.95
52.05
49.93
48.50
47.64
47.20
47.02
46.90
46.55
45.67
44.00
41.46
38.12
34.13
29.69
24.86
19.65
13.95
7.75
1.16
-5.61
-12.27
-18.60
-24.51
-30.11
-35.66
-41.51
-47.94
-55.04
-62.46
-69.39
-74.57
-76.54
-74.03
-66.36
-53.65
-36.89
-17.69
2.11
20.78
37.03
50.08
59.59
65.59
68.34
68.28
66.02
62.33
57.98
53.61
49.64
46.26
43.46
41.18
39.38
38.10
37.32
36.92
36.65
36.08
34.83
32.62
29.41
25.40
20.96
16.46
12.16
8.13
4.23
0.19
-4.20
-9.08
-14.39
-19.92
-25.40
-30.59
-35.35
-39.77
-44.14
-48.91
-54.54
-61.24
-68.78
-76.30
-82.43
-85.62
-84.52
-78.41
-67.45
-52.59
-35.32
-17.31
-0.05
15.26
27.78
36.99
42.65
44.82
43.89
40.58
35.86
30.73
26.07
22.43
20.03
18.85
18.66
19.23
20.25
21.40
22.34
22.76
22.43
21.23
19.16
16.29
12.70
8.48
3.70
-1.51
-6.99
-12.51
-17.94
-23.10
-28.00
-32.70
-37.40
-42.37
-47.93
-54.31
-61.52
-69.15
-76.36
-81.93
-84.46
-82.84
-76.48
-65.57
-50.99
-34.09
-16.35
0.88
16.48
29.63
39.72
46.40
49.67
49.84
47.59
43.78
39.32
34.96
31.21
28.36
26.50
25.57
25.36
25.57
25.83
25.76
25.09
23.64
21.42
18.58
15.39
12.12
9.02
6.15
3.33
0.27
-3.38
-7.75
-12.72
-17.87
-22.76
-27.05
-30.71
-33.98
-37.28
-41.02
-45.54
-51.02
-57.35
-64.04
-70.11
-74.16
-74.73
-70.68
-61.67
-48.32
-31.96
-14.28
3.17
19.18
32.96
44.01
52.07
57.04
59.10
58.71
56.52
53.23
49.47
45.69
42.24
39.43
37.51
36.66
36.84
37.80
39.04
40.02
40.28
39.55
37.83
35.27
32.09
28.46
24.47
20.12
15.41
10.34
5.00
-0.52
-6.04
-11.39
-16.50
-21.33
-26.04
-30.79
-35.84
-41.39
-47.52
-54.11
-60.65
-66.25
-69.72
-69.85
-65.78
-57.26
-44.83
-29.66
-13.24
2.97
17.80
30.39
40.20
46.90
50.36
50.71
48.39
44.13
38.81
33.33
28.42
24.47
21.53
19.39
17.72
16.22
14.80
13.50
12.47
11.77
11.25
10.56
9.29
7.09
3.87
-0.18
-4.70
-9.30
-13.76
-18.01
-22.21
-26.59
-31.38
-36.79
-42.88
-49.56
-56.44
-62.80
-67.59
-69.62
-67.90
-61.88
-51.76
-38.41
-23.21
-7.61
7.18
20.27
31.09
39.28
44.49
46.54
45.49
41.80
36.33
30.13
24.15
19.04
15.02
12.00
9.70
7.94
6.62
5.73
5.17
4.71
3.94
2.37
-0.38
-4.43
-9.56
-15.24
-20.91
-26.08
-30.62
-34.81
-39.24
-44.61
-51.45
-59.82
-69.16
-78.35
-85.86
-90.15
-90.01
-84.85
-74.84
-60.86
-44.20
-26.33
-8.65
7.70
21.81
33.07
41.10
45.80
47.36
46.31
43.36
39.32
34.92
30.72
27.13
24.41
22.69
21.94
22.00
22.55
23.23
23.63
23.35
22.05
19.47
15.50
10.23
4.08
-2.40
-8.58
-14.05
-18.74
-22.99
-27.38
-32.49
-38.73
-46.13
-54.30
-62.36
-69.04
-72.95
-72.88
-68.10
-58.64
-45.23
-29.11
-11.74
5.54
21.61
35.58
46.71
54.44
58.42
58.71
55.86
50.93
45.14
39.69
35.32
32.29
30.38
29.18
28.41
28.08
28.48
29.87
32.32
35.46
38.51
40.56
40.85
39.01
35.13
29.63
23.10
16.06
8.89
1.77
-5.24
-12.24
-19.36
-26.82
-34.71
-42.86
-50.63
-56.94
-60.43
-59.90
-54.71
-45.01
-31.72
-16.27
-0.19
15.17
28.83
40.07
48.43
53.54
55.27
53.73
49.45
43.27
36.21
29.29
23.21
18.33
14.62
11.83
9.70
8.03
6.78
5.88
5.15
4.27
2.80
0.40
-3.06
-7.41
-12.33
-17.49
-22.74
-28.18
-34.08
-40.73
-48.27
-56.49
-64.80
-72.31
-77.92
-80.57
-79.39
-73.94
-64.29
-51.09
-35.45
-18.77
-2.46
12.30
24.67
34.15
40.54
43.87
44.38
42.53
38.96
34.44
29.74
25.47
22.03
19.53
17.92
17.02
16.58
16.29
15.78
14.72
12.81
9.92
6.08
1.50
-3.52
-8.67
-13.75
-18.76
-23.89
-29.48
-35.92
-43.50
-52.18
-61.47
-70.34
-77.35
-80.92
-79.73
-73.13
-61.39
-45.56
-27.27
-8.18
10.34
27.31
42.03
53.89
62.37
67.12
68.21
66.29
62.42
57.81
53.39
49.66
46.66
44.17
42.01
40.12
38.59
37.51
36.83
36.24
35.23
33.18
29.55
24.09
16.96
8.72
0.13
-8.07
-15.41
-21.78
-27.46
-32.91
-38.58
-44.80
-51.66
-58.90
-65.86
-71.51
-74.54
-73.71
-68.13
-57.63
-42.85
-25.10
-6.03
12.68
29.61
43.74
54.41
61.40
64.86
65.37
63.84
61.36
58.91
57.21
56.59
57.01
58.18
59.66
60.96
61.62
61.34
60.01
57.76
54.84
51.52
47.90
43.97
39.58
34.59
28.96
22.73
16.07
9.13
2.06
-4.98
-11.84
-18.43
-24.77
-31.05
-37.61
-44.75
-52.55
-60.63
-68.11
-73.75
-76.22
-74.52
-68.19
-57.48
-43.28
-26.86
-9.66
6.99
22.01
34.60
44.22
50.52
53.39
52.96
49.72
44.51
38.38
32.36
27.29
23.58
21.26
20.08
19.68
19.78
20.22
20.89
21.56
21.84
21.17
18.93
14.78
8.78
1.50
-6.19
-13.43
-19.68
-24.96
-29.75
-34.76
-40.67
-47.88
-56.37
-65.65
-74.82
-82.62
-87.63
-88.57
-84.67
-75.83
-62.73
-46.68
-29.27
-12.06
3.63
16.90
27.18
34.27
38.27
39.50
38.47
35.82
32.21
28.32
24.76
21.90
19.85
18.49
17.58
16.92
16.48
16.37
16.64
17.17
17.53
17.15
15.54
12.47
8.11
2.87
-2.77
-8.45
-14.01
-19.46
-24.84
-30.23
-35.67
-41.27
-47.18
-53.51
-60.22
-66.91
-72.73
-76.47
-76.83
-72.81
-64.04
-51.01
-34.91
-17.34
0.12
16.22
30.22
41.79
50.89
57.57
61.84
63.71
63.38
61.29
58.23
55.17
53.06
52.52
53.69
56.26
59.60
63.00
65.87
67.74
68.26
67.17
64.34
59.78
53.72
46.60
38.89
31.03
23.24
15.61
8.09
0.63
-6.71
-13.87
-20.79
-27.50
-34.18
-41.05
-48.31
-56.04
-64.08
-72.02
-79.21
-84.78
-87.82
-87.43
-83.06
-74.59
-62.49
-47.76
-31.78
-16.05
-1.92
9.58
17.91
23.01
25.21
25.11
23.42
20.77
17.62
14.23
10.73
7.22
3.91
1.11
-0.83
-1.69
-1.48
-0.51
0.70
1.55
1.55
0.45
-1.84
-5.23
-9.61
-14.89
-21.14
-28.47
-36.98
-46.58
-56.92
-67.43
-77.41
-86.12
-92.83
-96.92
-97.84
-95.41
-89.81
-81.65
-71.61
-59.93
-46.06
-28.68
-6.21
22.33
56.77
95.60
136.69
178.10
218.81
258.80
298.49
337.73
375.08
407.66
431.78
444.12
442.91
428.54
403.36
370.76
333.98
295.30
255.85
216.11
176.45
137.47
99.82
63.71
28.50
-7.29
-45.65
-88.42
-136.54
-189.40
-244.51
-297.65
-343.77
-378.45
-399.42
-407.34
-405.47
-398.17
-389.06
-379.63
-369.15
-355.68
-337.56
-314.47
-287.48
-258.38
-228.73
-199.33
-170.41
-142.13
-115.15
-90.68
-70.18
-54.74
-44.50
-38.56
-35.26
-32.80
-29.82
-25.78
-20.90
-15.87
-11.34
-7.65
-4.65
-1.97
0.77
3.70
6.66
9.21
10.84
11.09
9.72
6.67
2.08
-3.67
-10.11
-16.73
-23.10
-29.03
-34.63
-40.30
-46.64
-54.13
-62.82
-72.22
-81.13
-87.92
-90.95
-88.88
-80.91
-66.77
-46.89
-22.39
4.68
31.52
55.06
72.77
83.47
87.54
86.66
82.94
78.09
73.04
68.11
63.48
59.50
56.71
55.39
55.33
55.86
56.10
55.50
53.99
51.95
49.81
47.85
45.92
43.54
40.16
35.39
29.22
22.01
14.40
7.06
0.43
-5.41
-10.81
-16.36
-22.75
-30.42
-39.44
-49.33
-58.99
-66.92
-71.48
-71.34
-65.77
-54.92
-39.75
-21.73
-2.50
16.50
34.16
49.68
62.42
71.91
77.81
80.12
79.21
75.86
71.13
66.10
61.66
58.28
56.02
54.59
53.59
52.71
51.92
51.40
51.39
51.88
52.53
52.59
51.25
47.93
42.59
35.76
28.35
21.26
15.00
9.56
4.39
-1.11
-7.61
-15.44
-24.65
-35.07
-46.09
-56.45
-64.13
-66.74
-62.41
-50.70
-33.21
-13.07
6.21
22.16
34.13
43.08
50.42
56.90
62.09
64.81
64.09
60.00
53.74
47.01
41.22
36.85
33.55
30.67
27.77
24.90
22.48
21.04
20.65
20.91
21.00
20.07
17.61
13.69
8.87
3.89
-0.74
-4.99
-9.33
-14.47
-21.06
-29.44
-39.48
-50.52
-61.44
-70.74
-76.75
-78.03
-73.73
-63.94
-49.71
-32.73
-14.87
2.33
17.83
31.03
41.51
48.90
52.87
53.38
50.84
46.17
40.48
34.76
29.61
25.20
21.47
18.31
15.72
13.79
12.53
11.81
11.32
10.65
9.41
7.35
4.36
0.50
-4.05
-9.07
-14.29
-19.50
-24.63
-29.75
-35.05
-40.84
-47.32
-54.49
-61.92
-68.65
-73.28
-74.28
-70.44
-61.32
-47.52
-30.59
-12.56
4.54
19.18
30.53
38.37
42.84
44.25
42.87
38.93
32.71
24.61
15.21
5.34
-4.11
-12.34
-18.82
-23.44
-26.36
-27.96
-28.68
-29.02
-29.59
-31.01
-33.60
-37.03
-40.06
-40.76
-37.23
-28.44
-14.82
1.69
18.46
33.20
44.97
54.49
64.03
76.67
95.42
122.41
158.41
202.66
253.03
306.34
358.66
405.61
442.81
466.42
473.97
465.07
441.62
407.36
366.85
324.14
281.93
241.37
202.45
164.75
127.89
91.69
55.81
19.55
-18.22
-58.85
-103.27
-151.18
-200.54
-247.56
-287.59
-316.46
-332.06
-334.97
-328.27
-316.22
-302.66
-289.87
-278.42
-267.78
-257.35
-247.13
-237.76
-230.07
-224.46
-220.60
-217.54
-213.98
-208.75
-201.00
-190.30
-176.49
-159.59
-139.77
-117.42
-93.24
-68.33
-44.15
-22.27
-4.11
9.37
17.90
21.93
22.52
21.04
18.84
16.96
15.98
15.97
16.68
17.76
18.94
20.11
21.31
22.51
23.53
24.02
23.52
21.72
18.53
14.21
9.25
4.18
-0.64
-5.22
-9.83
-15.02
-21.23
-28.70
-37.15
-45.82
-53.50
-58.76
-60.25
-57.07
-48.98
-36.52
-20.85
-3.54
13.84
29.98
43.92
55.08
63.08
67.68
68.79
66.60
61.70
55.04
47.75
40.85
35.05
30.66
27.63
25.76
24.75
24.31
24.10
23.78
23.02
21.54
19.22
15.98
11.87
7.00
1.57
-4.10
-9.66
-14.85
-19.56
-24.06
-28.86
-34.62
-41.92
-50.97
-61.43
-72.29
-81.99
-88.67
-90.61
-86.70
-76.72
-61.48
-42.52
-21.69
-0.83
18.56
35.38
48.91
58.75
64.81
67.37
67.02
64.56
60.86
56.65
52.49
48.72
45.56
43.10
41.32
40.14
39.36
38.82
38.34
37.82
37.13
36.11
34.48
31.96
28.29
23.44
17.62
11.23
4.80
-1.26
-6.75
-11.75
-16.55
-21.53
-27.01
-33.17
-40.05
-47.55
-55.40
-63.02
-69.52
-73.62
-74.00
-69.55
-59.89
-45.53
-27.82
-8.58
10.36
27.56
42.12
53.66
62.07
67.41
69.80
69.46
66.83
62.54
57.42
52.36
48.13
45.19
43.61
43.14
43.29
43.55
43.53
43.04
42.05
40.60
38.71
36.32
33.31
29.59
25.19
20.25
15.02
9.73
4.52
-0.61
-5.74
-11.02
-16.58
-22.50
-28.79
-35.45
-42.41
-49.41
-55.93
-61.10
-63.83
-63.05
-58.07
-48.85
-36.06
-20.89
-4.78
10.87
24.88
36.39
44.79
49.72
51.10
49.18
44.60
38.31
31.39
24.85
19.37
15.26
12.47
10.71
9.66
9.05
8.75
8.66
8.62
8.36
7.47
5.59
2.51
-1.70
-6.65
-11.77
-16.56
-20.75
-24.51
-28.28
-32.67
-38.17
-44.96
-52.76
-60.86
-68.19
-73.45
-75.39
-73.06
-66.04
-54.65
-39.92
-23.36
-6.63
8.87
22.17
32.78
40.48
45.25
47.11
46.24
43.08
38.36
33.06
28.11
24.21
21.69
20.52
20.42
21.07
22.12
23.27
24.21
24.66
24.43
23.43
21.70
19.27
16.14
12.22
7.47
1.96
-4.04
-10.13
-15.92
-21.17
-25.84
-30.13
-34.37
-38.93
-44.20
-50.36
-57.33
-64.50
-70.74
-74.56
-74.52
-69.64
-59.80
-45.77
-28.99
-11.12
6.34
22.21
35.75
46.48
54.22
58.99
61.06
60.94
59.26
56.67
53.66
50.57
47.55
44.67
42.06
39.90
38.44
37.83
38.02
38.74
39.50
39.81
39.28
37.77
35.35
32.24
28.67
24.77
20.59
16.06
11.16
5.94
0.53
-4.90
-10.17
-15.17
-19.90
-24.42
-28.82
-33.27
-38.00
-43.23
-49.14
-55.55
-61.82
-66.71
-68.73
-66.47
-59.21
-47.23
-31.75
-14.55
2.59
18.26
31.65
42.33
50.06
54.63
55.97
54.27
50.19
44.79
39.28
34.65
31.45
29.68
28.91
28.59
28.20
27.50
26.48
25.31
24.18
23.14
22.05
20.60
18.41
15.25
11.11
6.28
1.20
-3.73
-8.30
-12.59
-16.83
-21.33
-26.34
-31.99
-38.27
-44.98
-51.67
-57.61
-61.81
-63.21
-60.98
-54.74
-44.77
-31.91
-17.43
-2.68
11.03
22.64
31.37
36.79
38.81
37.73
34.18
29.00
23.05
17.08
11.66
7.16
3.74
1.45
0.17
-0.32
-0.34
-0.16
-0.05
-0.25
-0.98
-2.47
-4.91
-8.34
-12.62
-17.38
-22.22
-26.81
-31.00
-34.95
-38.97
-43.44
-48.72
-54.95
-62.00
-69.29
-75.85
-80.37
-81.50
-78.22
-70.20
-57.89
-42.45
-25.41
-8.25
7.78
21.83
33.30
41.79
46.98
48.80
47.51
43.74
38.49
32.79
27.54
23.25
19.98
17.52
15.58
13.94
12.61
11.67
11.19
11.07
10.91
10.23
8.49
5.38
0.94
-4.46
-10.21
-15.74
-20.58
-24.64
-28.09
-31.38
-35.06
-39.61
-45.33
-52.13
-59.49
-66.41
-71.57
-73.59
-71.35
-64.32
-52.79
-37.73
-20.65
-3.10
13.56
28.36
40.68
50.17
56.59
59.84
60.03
57.60
53.35
48.30
43.49
39.69
37.26
36.09
35.76
35.83
35.93
35.96
35.90
35.73
35.32
34.35
32.44
29.36
25.08
19.87
14.19
8.57
3.32
-1.42
-5.84
-10.21
-14.89
-20.17
-26.26
-33.22
-40.89
-48.79
-56.01
-61.31
-63.36
-61.12
-54.21
-43.11
-29.03
-13.62
1.49
14.93
25.79
33.58
38.16
39.64
38.34
34.79
29.64
23.70
17.78
12.63
8.75
6.29
5.16
5.04
5.60
6.56
7.79
9.13
10.31
11.00
10.78
9.40
6.90
3.62
0.07
-3.37
-6.61
-9.92
-13.85
-18.88
-25.28
-32.82
-40.79
-48.07
-53.33
-55.34
-53.24
-46.80
-36.44
-23.19
-8.42
6.48
20.27
32.01
41.04
46.92
49.48
48.86
45.60
40.58
34.80
29.19
24.34
20.47
17.52
15.34
13.82
