1626190976.00
64.000000
-0.00
-0.00
-0.00
-0.00
-0.00
-0.00
-0.00
-0.00
-0.00
-0.00
0.00
0.01
0.01
-0.00
-0.03
-0.05
-0.05
0.00
0.13
0.36
0.66
1.01
1.37
1.72
2.06
2.40
2.79
3.24
3.80
4.42
5.06
5.66
6.20
6.68
7.15
7.68
8.31
9.14
10.09
11.04
11.88
12.56
13.14
13.76
14.65
15.96
17.91
20.32
22.90
25.38
27.58
29.57
31.68
34.32
37.81
42.54
48.15
54.10
59.83
64.97
69.58
74.14
79.34
85.71
93.76
103.00
112.62
121.73
129.77
136.75
143.30
150.75
157.77
166.64
177.95
191.79
206.97
220.57
228.25
225.36
208.53
176.87
132.76
80.05
23.07
-34.94
-92.44
-149.16
-205.23
-260.37
-313.74
-363.87
-409.83
-450.91
-486.50
-515.74
-537.23
-549.22
-549.96
-538.37
-514.21
-478.67
-433.88
-382.45
-327.02
-269.84
-212.63
-156.66
-102.95
-52.37
-5.90
35.58
71.42
101.35
125.50
144.39
158.71
169.18
176.40
180.75
182.51
181.93
179.28
174.93
169.31
162.83
155.81
148.49
140.97
133.31
125.57
117.79
110.08
102.53
95.20
88.12
81.28
74.65
68.22
62.02
56.10
50.55
45.42
40.72
36.38
32.28
28.30
24.39
20.58
17.01
13.84
11.19
9.05
7.28
5.64
3.86
1.84
-0.35
-2.46
-4.18
-5.28
-5.74
-5.84
-6.00
-6.63
-7.92
-9.76
-11.73
-13.36
-14.30
-14.48
-14.19
-13.85
-13.90
-14.68
-16.42
-19.19
-22.72
-26.19
-28.20
-27.05
-21.50
-11.47
1.57
15.04
26.19
33.16
35.66
34.71
31.97
28.82
25.88
23.15
20.43
17.71
15.27
13.44
12.28
11.54
10.78
9.64
8.05
6.23
4.55
3.31
2.58
2.17
1.73
0.93
-0.35
-1.85
-2.96
-2.87
-0.87
3.28
9.14
15.71
21.72
26.05
28.15
28.08
26.41
23.91
21.20
18.64
16.30
14.17
12.29
10.82
9.96
9.85
10.48
11.58
12.74
13.52
13.59
12.76
11.11
8.62
5.40
1.64
-2.40
-6.43
-10.16
-13.42
-16.09
-18.22
-19.89
-21.17
-22.06
-22.57
-22.67
-22.33
-21.62
-20.60
-19.44
-18.32
-17.43
-16.91
-16.69
-16.50
-15.84
-14.13
-10.92
-6.12
-0.10
6.41
12.48
17.30
20.34
21.45
20.75
18.55
15.22
11.15
6.77
2.48
-1.30
-4.25
-6.19
-7.08
-7.04
-6.27
-5.02
-3.58
-2.22
-1.11
-0.36
-0.01
-0.02
-0.32
-0.82
-1.44
-2.19
-3.13
-4.31
-5.77
-7.53
-9.60
-11.97
-14.68
-17.45
-20.22
-23.02
-26.00
-29.33
-33.20
-37.67
-42.56
-47.33
-51.07
-52.64
-50.91
-45.10
-35.09
-21.53
-5.68
10.86
26.61
40.45
51.72
60.23
66.00
69.13
69.74
68.00
64.24
59.00
52.99
46.92
41.34
36.55
32.62
29.45
26.94
25.04
23.75
23.01
22.58
22.07
21.00
19.00
15.93
11.95
7.46
2.92
-1.32
-5.15
-8.74
-12.40
-16.41
-20.87
-25.65
-30.45
-34.93
-38.90
-42.40
-45.66
-49.05
-52.91
-57.45
-62.70
-68.36
-73.77
-77.87
-79.36
-76.98
-69.96
-58.31
-42.89
-25.23
-7.05
10.17
25.47
38.39
48.79
56.61
61.82
64.40
64.44
62.33
58.65
54.15
49.50
45.18
41.39
38.11
35.25
32.80
30.81
29.40
28.56
28.10
27.65
26.77
25.12
22.56
19.19
15.27
11.08
6.89
2.81
-1.19
-5.23
-9.50
-14.12
-19.12
-24.38
-29.65
-34.65
-39.16
-43.14
-46.74
-50.30
-54.18
-58.73
-64.03
-69.84
-75.49
-79.93
-81.93
-80.34
-74.44
-64.19
-50.24
-33.84
-16.44
0.55
16.01
29.19
39.60
47.01
51.36
52.82
51.79
48.86
44.75
40.12
35.57
31.51
28.22
25.81
24.27
23.40
22.93
22.54
22.01
21.23
20.18
18.88
17.31
15.39
13.00
10.03
6.49
2.48
-1.82
-6.25
-10.71
-15.15
-19.58
-24.04
-28.62
-33.45
-38.67
-44.38
-50.39
-56.16
-60.72
-62.84
-61.39
-55.74
-45.99
-32.95
-17.91
-2.26
12.75
26.21
37.43
45.96
51.46
53.85
53.35
50.57
46.37
41.71
37.35
33.73
30.93
28.79
27.07
25.59
24.29
23.16
22.15
21.10
19.76
17.80
14.93
11.04
6.18
0.64
-5.24
-11.06
-16.55
-21.62
-26.39
-31.18
-36.39
-42.33
-49.03
-56.18
-62.97
-68.28
-70.83
-69.52
-63.70
-53.42
-39.46
-23.16
-6.07
10.38
25.11
37.47
47.16
54.06
58.16
59.53
58.39
55.18
50.50
45.05
39.51
34.41
30.10
26.73
24.27
22.54
21.23
19.97
18.44
16.40
13.80
10.70
7.23
3.43
-0.72
-5.34
-10.53
-16.34
-22.68
-29.33
-36.01
-42.47
-48.58
-54.35
-59.94
-65.65
-71.82
-78.73
-86.50
-94.88
-103.18
-110.25
-114.64
-114.95
-110.19
-100.14
-85.44
-67.48
-47.96
-28.54
-10.42
5.73
19.75
31.71
41.81
50.17
56.93
62.23
66.34
69.57
72.16
74.23
75.75
76.59
76.64
75.91
74.60
72.92
71.02
68.91
66.40
63.23
59.16
54.16
48.37
42.08
35.61
29.15
22.77
16.42
10.02
3.53
-2.99
-9.42
-15.61
-21.47
-27.00
-32.32
-37.68
-43.42
-49.84
-57.02
-64.65
-71.92
-77.56
-80.15
-78.44
-71.77
-60.24
-44.73
-26.68
-7.70
10.66
27.23
41.17
52.02
59.60
63.93
65.24
63.97
60.71
56.17
51.04
45.89
41.09
36.83
33.19
30.20
27.88
26.18
24.96
23.94
22.80
21.24
19.11
16.43
13.32
9.88
6.22
2.36
-1.67
-5.90
-10.30
-14.84
-19.47
-24.10
-28.59
-32.79
-36.61
-40.11
-43.48
-47.08
-51.24
-56.15
-61.65
-67.17
-71.66
-73.75
-72.10
-65.79
-54.63
-39.30
-21.23
-2.14
16.30
32.88
46.78
57.61
65.14
69.25
70.02
67.81
63.30
57.43
51.19
45.41
40.63
37.04
34.58
33.03
32.13
31.54
30.98
30.18
28.96
27.21
24.87
21.93
18.33
14.10
9.33
4.20
-1.01
-6.07
-10.84
-15.40
-19.93
-24.69
-29.92
-35.74
-42.15
-48.93
-55.65
-61.52
-65.51
-66.44
-63.34
-55.73
-43.82
-28.57
-11.39
6.13
22.59
36.94
48.54
57.09
62.42
64.55
63.62
60.02
54.42
47.68
40.73
34.35
29.04
25.02
22.23
20.45
19.39
18.72
18.09
17.13
15.57
13.26
10.25
6.73
2.94
-0.91
-4.78
-8.76
-13.02
-17.69
-22.77
-28.14
-33.54
-38.73
-43.54
-47.99
-52.28
-56.78
-61.88
-67.80
-74.37
-80.84
-85.95
-88.10
-85.82
-78.24
-65.38
-48.21
-28.37
-7.76
11.95
29.49
44.10
55.44
63.43
68.21
70.03
69.34
66.72
62.80
58.16
53.30
48.52
44.03
39.97
36.48
33.69
31.67
30.37
29.58
28.95
28.09
26.65
24.46
21.47
17.78
13.59
9.05
4.33
-0.53
-5.51
-10.64
-15.92
-21.31
-26.70
-31.93
-36.84
-41.32
-45.41
-49.33
-53.49
-58.31
-64.08
-70.64
-77.27
-82.68
-85.29
-83.65
-76.92
-65.15
-49.32
-31.01
-12.00
6.18
22.47
36.27
47.26
55.31
60.31
62.30
61.48
58.35
53.63
48.13
42.59
37.49
33.05
29.27
26.06
23.37
21.24
19.71
18.76
18.12
17.39
16.08
13.84
10.56
6.46
1.94
-2.62
-6.96
-11.06
-15.05
-19.14
-23.44
-27.96
-32.58
-37.10
-41.33
-45.14
-48.49
-51.50
-54.41
-57.55
-61.26
-65.63
-70.40
-74.80
-77.57
-77.26
-72.59
-62.93
-48.55
-30.67
-11.06
8.40
26.18
41.43
53.88
63.72
71.31
77.10
81.49
84.86
87.46
89.33
90.29
90.02
88.21
84.72
79.75
73.70
67.07
60.24
53.39
46.47
39.32
31.81
23.88
15.55
6.94
-1.83
-10.61
-19.24
-27.54
-35.27
-42.18
-48.09
-53.00
-57.19
-61.16
-65.52
-70.62
-76.30
-81.76
-85.60
-86.21
-82.34
-73.46
-59.94
-42.97
-24.13
-5.08
12.84
28.60
41.53
51.20
57.41
60.20
59.93
57.32
53.26
48.75
44.60
41.37
39.30
38.41
38.56
39.57
41.18
43.12
45.03
46.48
46.95
45.91
42.87
37.51
29.73
19.82
8.38
-3.76
-15.74
-26.89
-36.87
-45.75
-53.87
-61.79
-70.06
-79.06
-88.80
-98.76
-107.87
-114.63
-117.48
-115.26
-107.54
-94.79
-78.24
-59.56
-40.39
-22.04
-5.40
9.05
21.02
30.34
36.81
40.36
41.14
39.63
36.61
33.05
29.81
27.46
26.11
25.52
25.32
25.16
24.89
24.54
24.12
23.57
22.66
21.06
18.50
14.85
10.24
4.98
-0.54
-5.93
-10.98
-15.68
-20.19
-24.84
-29.99
-35.93
-42.80
-50.44
-58.31
-65.44
-70.55
-72.29
-69.57
-61.95
-49.79
-34.15
-16.55
1.45
18.53
33.72
46.37
56.06
62.53
65.71
65.80
63.34
59.06
53.86
48.51
43.59
39.38
35.94
33.12
30.68
28.44
26.29
24.24
22.34
20.56
18.76
16.64
13.84
10.07
5.26
-0.41
-6.54
-12.68
-18.47
-23.80
-28.75
-33.61
-38.72
-44.38
-50.75
-57.62
-64.38
-70.03
-73.24
-72.77
-67.77
-58.10
-44.39
-27.89
-10.16
7.31
23.28
36.85
47.40
54.54
58.15
58.39
55.77
51.12
45.39
39.50
34.16
29.78
26.51
24.26
22.84
21.97
21.37
20.80
20.10
19.12
17.76
15.90
13.45
10.37
6.71
2.59
-1.85
-6.44
-11.12
-15.94
-20.98
-26.39
-32.22
-38.28
-44.06
-48.63
-50.82
-49.47
-43.82
-33.80
-20.11
-4.07
12.72
28.74
42.83
54.23
62.52
67.52
69.26
67.97
64.14
58.45
51.76
44.90
38.54
33.16
28.91
25.79
23.59
21.98
20.59
19.02
16.92
14.08
10.45
6.11
1.29
-3.78
-8.88
-13.90
-18.88
-23.97
-29.43
-35.49
-42.26
-49.57
-56.89
-63.35
-67.80
-69.04
-66.14
-58.70
-46.98
-31.92
-14.85
2.68
19.26
33.72
45.29
53.51
58.29
59.82
58.59
55.21
50.41
44.86
39.15
33.71
28.86
24.74
21.39
18.71
16.55
14.74
13.08
11.36
9.35
6.79
3.46
-0.72
-5.60
-10.83
-16.04
-20.99
-25.65
-30.29
-35.33
-41.13
-47.83
-55.19
-62.52
-68.70
-72.39
-72.30
-67.59
-58.15
-44.66
-28.41
-10.92
6.39
22.41
36.45
48.01
56.76
62.41
64.89
64.38
61.40
56.75
51.29
45.77
40.71
36.31
32.59
29.44
26.72
24.33
22.18
20.18
18.23
16.21
13.98
11.43
8.45
4.96
0.91
-3.68
-8.70
-13.95
-19.25
-24.41
-29.38
-34.19
-38.92
-43.74
-48.78
-54.21
-60.10
-66.27
-72.18
-76.85
-79.03
-77.50
-71.51
-61.05
-46.93
-30.48
-13.17
3.75
19.44
33.32
44.95
53.84
59.55
61.88
61.02
57.61
52.56
46.80
41.05
35.71
30.90
26.64
22.93
19.83
17.39
15.58
14.24
13.13
11.98
10.62
8.95
6.95
4.61
1.89
-1.21
-4.74
-8.62
-12.76
-17.00
-21.23
-25.37
-29.41
-33.34
-37.18
-40.97
-44.83
-48.89
-53.19
-57.53
-61.32
-63.60
-63.26
-59.33
-51.36
-39.54
-24.76
-8.26
8.56
24.49
38.57
50.15
58.80
64.29
66.58
65.86
62.58
57.50
51.54
45.64
40.56
36.65
33.86
31.80
29.97
27.98
25.70
23.24
20.81
18.55
16.42
14.17
11.51
8.15
3.99
-0.87
-6.19
-11.67
-17.05
-22.18
-27.07
-31.81
-36.52
-41.36
-46.45
-51.89
-57.60
-63.23
-68.04
-71.00
-70.96
-67.04
-58.94
-47.05
-32.38
-16.29
-0.17
14.84
27.86
38.33
45.90
50.41
51.92
50.73
47.40
42.67
37.30
32.01
27.27
23.37
20.36
18.17
16.64
15.60
14.86
14.22
13.47
12.38
10.79
8.61
5.83
2.55
-1.15
-5.19
-9.49
-14.05
-18.84
-23.77
-28.76
-33.64
-38.28
-42.63
-46.73
-50.78
-55.03
-59.79
-65.25
-71.34
-77.59
-83.12
-86.75
-87.18
-83.42
-75.03
-62.30
-46.22
-28.24
-9.95
7.30
22.57
35.37
45.49
52.90
57.61
59.72
59.42
57.17
53.57
49.35
45.13
41.31
38.09
35.45
33.33
31.63
30.29
29.22
28.28
27.25
25.87
23.91
21.26
17.93
14.08
9.95
5.78
1.67
-2.44
-6.75
-11.47
-16.67
-22.25
-27.97
-33.51
-38.69
-43.49
-48.07
-52.64
-57.42
-62.54
-68.06
-73.83
-79.46
-84.16
-86.79
-86.08
-81.04
-71.33
-57.41
-40.51
-22.22
-4.08
12.64
27.16
38.96
47.80
53.55
56.29
56.32
54.15
50.48
46.05
41.50
37.32
33.80
31.07
29.11
27.80
26.99
26.51
26.14
25.70
24.96
23.75
21.98
19.66
16.85
13.60
9.97
5.96
1.60
-3.03
-7.74
-12.28
-16.44
-20.10
-23.38
-26.54
-29.96
-33.97
-38.71
-44.04
-49.44
-54.03
-56.66
-56.20
-51.78
-43.08
-30.46
-14.89
2.25
19.50
35.51
49.25
60.00
67.34
71.10
71.41
68.70
63.64
57.16
50.19
43.58
37.93
33.48
30.20
27.81
25.93
24.19
22.33
20.22
17.82
15.18
12.26
8.96
5.11
0.58
-4.66
-10.43
-16.42
-22.28
-27.77
-32.83
-37.55
-42.13
-46.79
-51.75
-57.17
-63.19
-69.69
-76.20
-81.69
-84.77
-83.94
-78.08
-66.87
-50.95
-31.71
-10.96
9.52
28.32
44.46
57.36
66.74
72.50
74.75
73.84
70.36
65.11
58.97
52.77
47.11
42.34
38.54
35.60
33.36
31.68
30.42
29.44
28.51
27.33
25.61
23.13
19.86
15.94
11.61
7.06
2.40
-2.42
-7.51
-12.92
-18.59
-24.36
-30.01
-35.37
-40.39
-45.10
-49.66
-54.28
-59.23
-64.73
-70.87
-77.38
-83.49
-87.93
-89.16
-85.75
-76.83
-62.47
-43.68
-22.23
-0.15
20.69
38.95
53.85
65.06
72.50
76.27
76.62
74.06
69.32
63.30
56.85
50.66
45.09
40.33
36.38
33.25
30.92
29.37
28.44
27.85
27.20
26.02
23.93
20.70
16.41
11.33
5.90
0.54
-4.53
-9.30
-13.98
-18.82
-23.97
-29.43
-34.97
-40.29
-45.12
-49.38
-53.19
-56.86
-60.83
-65.44
-70.76
-76.38
-81.38
-84.40
-83.97
-78.92
-68.74
-53.83
-35.43
-15.27
4.80
23.22
38.89
51.15
59.66
64.35
65.39
63.27
58.82
53.06
46.99
41.43
36.84
33.32
30.81
29.14
28.14
27.69
27.65
27.86
28.11
28.12
27.63
26.38
24.24
21.18
17.37
13.11
8.72
4.46
0.42
-3.49
-7.49
-11.81
-16.66
-22.16
-28.31
-34.92
-41.49
-47.11
-50.64
-50.85
-46.84
-38.35
-25.84
-10.46
6.31
22.96
38.20
51.03
60.74
66.91
69.37
68.31
64.28
58.13
50.88
43.48
36.64
30.75
25.89
21.96
18.82
16.31
14.34
12.76
11.37
9.85
7.86
5.08
1.33
-3.37
-8.79
-14.55
-20.25
-25.53
-30.26
-34.51
-38.60
-42.94
-47.99
-54.02
-60.98
-68.34
-75.08
-79.80
-80.98
-77.44
-68.70
-55.15
-38.02
-19.00
0.18
18.10
33.78
46.60
56.14
62.12
64.46
63.36
59.48
53.78
47.36
41.16
35.76
31.31
27.65
24.49
21.61
18.93
16.52
14.49
12.88
11.52
10.03
7.99
5.04
1.06
-3.77
-9.11
-14.58
-19.92
-25.07
-30.12
-35.23
-40.57
-46.26
-52.42
-59.01
-65.73
-71.84
-76.20
-77.40
-74.21
-65.99
-52.97
-36.27
-17.63
1.08
18.27
32.94
44.62
53.21
58.78
61.44
61.32
58.70
54.13
48.39
42.39
36.93
32.48
29.14
26.69
24.80
23.20
21.74
20.40
19.15
17.89
16.39
14.40
11.68
8.11
3.69
-1.45
-7.06
-12.87
-18.58
-23.99
-29.04
-33.88
-38.80
-44.15
-50.18
-56.93
-64.15
-71.17
-77.04
-80.54
-80.48
-75.96
-66.67
-53.07
-36.32
-18.06
0.05
16.63
30.78
42.02
50.13
54.97
56.51
54.92
50.77
44.95
38.59
32.73
28.00
24.51
21.98
19.98
18.20
16.59
15.27
14.38
13.87
13.43
12.63
11.03
8.43
4.85
0.54
-4.12
-8.74
-13.05
-16.96
-20.58
-24.19
-28.18
-32.86
-38.34
-44.36
-50.25
-54.95
-57.28
-56.13
-50.82
-41.29
-28.11
-12.38
4.52
21.17
36.32
48.96
58.40
64.28
66.57
65.58
61.94
56.50
50.17
43.81
38.03
33.17
29.29
26.31
24.05
22.36
21.11
20.12
19.18
17.95
16.07
13.20
9.18
4.10
-1.71
-7.77
-13.59
-18.93
-23.82
-28.59
-33.70
-39.57
-46.37
-53.90
-61.60
-68.56
-73.60
-75.50
-73.18
-66.01
-54.06
-38.19
-19.89
-0.98
16.86
32.40
44.96
54.34
60.60
63.82
64.14
61.77
57.16
50.99
44.18
37.66
32.18
28.15
25.62
24.27
23.61
23.10
22.32
21.01
19.08
16.56
13.52
10.01
6.04
1.60
-3.26
-8.47
-13.88
-19.33
-24.66
-29.76
-34.59
-39.15
-43.53
-47.90
-52.46
-57.45
-62.97
-68.90
-74.66
-79.27
-81.41
-79.74
-73.27
-61.77
-45.88
-27.02
-6.99
12.42
29.83
44.39
55.73
63.73
68.47
70.13
69.07
65.86
61.22
55.93
50.64
45.76
41.50
37.92
35.09
33.04
31.79
31.19
30.95
30.59
29.62
27.70
24.72
20.82
16.33
11.62
6.94
2.37
-2.22
-7.04
-12.26
-17.88
-23.68
-29.27
-34.28
-38.49
-42.01
-45.22
-48.67
-52.88
-58.11
-64.22
-70.57
-76.11
-79.51
-79.48
-75.01
-65.75
-52.06
-35.03
-16.18
2.82
20.50
35.75
47.88
56.57
61.77
63.69
62.70
59.39
54.45
48.58
42.43
36.53
31.29
27.02
23.92
22.06
21.27
21.20
21.31
21.05
20.01
18.05
15.30
12.03
8.56
5.09
1.65
-1.81
-5.40
-9.18
-13.11
-17.06
-20.86
-24.40
-27.62
-30.59
-33.50
-36.55
-40.01
-44.05
-48.66
-53.52
-57.87
-60.57
-60.33
-56.05
-47.22
-34.14
-17.92
-0.15
17.46
33.53
47.12
57.74
65.19
69.40
70.39
68.37
63.81
57.51
50.50
43.78
38.09
33.78
30.80
28.83
27.44
26.29
25.11
23.73
22.02
19.85
17.15
13.85
9.97
5.58
0.75
-4.38
-9.66
-14.90
-19.97
-24.80
-29.44
-34.06
-38.86
-44.03
-49.66
-55.75
-62.03
-67.98
-72.69
-74.96
-73.55
-67.58
-56.86
-42.08
-24.71
-6.53
10.82
26.21
39.01
48.98
55.99
59.95
60.85
58.94
54.81
49.31
43.35
37.68
32.76
28.75
25.71
23.64
22.50
22.18
22.45
22.87
22.93
22.17
20.29
17.31
13.45
9.13
4.78
0.68
-3.16
-6.98
-11.11
-15.84
-21.21
-26.95
-32.61
-37.72
-42.00
-45.50
-48.55
-51.70
-55.51
-60.35
-66.22
-72.65
-78.64
-82.78
-83.59
-79.84
-70.97
-57.30
-39.98
-20.71
-1.29
16.74
32.33
44.96
54.47
60.91
64.43
65.27
63.79
60.50
56.01
50.99
46.01
41.50
37.71
34.75
32.63
31.27
30.54
30.23
30.05
29.66
28.78
27.17
24.68
21.29
17.10
12.32
7.23
2.13
-2.75
-7.35
-11.73
-16.04
-20.42
-24.87
-29.32
-33.64
-37.77
-41.71
-45.49
-49.15
-52.76
-56.46
-60.58
-65.48
-71.36
-77.94
-84.29
-88.85
-89.88
-85.98
-76.61
-62.30
-44.46
-24.95
-5.54
12.41
28.08
41.00
50.90
57.58
60.94
61.12
58.58
54.11
48.67
43.18
38.27
34.27
31.27
29.21
28.00
27.49
27.48
27.66
27.63
27.03
25.63
23.42
20.58
17.38
14.03
10.66
7.28
3.83
0.26
-3.48
-7.38
-11.39
-15.44
-19.42
-23.26
-26.94
-30.54
-34.23
-38.25
-42.69
-47.36
-51.60
-54.38
-54.46
-50.77
-42.82
-30.90
-16.00
0.40
16.77
31.79
44.51
54.32
60.88
64.07
63.98
60.99
55.81
49.35
42.62
36.45
31.43
27.77
25.40
23.97
23.08
22.32
21.38
20.12
18.52
16.60
14.38
11.74
8.51
4.51
-0.31
-5.74
-11.42
-16.89
-21.82
-26.16
-30.09
-33.98
-38.21
-43.07
-48.70
-55.04
-61.77
-68.24
-73.44
-76.09
-74.92
-69.03
-58.23
-43.15
-25.19
-6.14
12.20
28.41
41.58
51.38
57.87
61.29
61.99
60.33
56.75
51.79
46.13
40.51
35.52
31.55
28.67
26.70
25.36
24.38
23.55
22.72
21.75
20.47
18.69
16.28
13.23
9.66
5.76
1.68
-2.54
-6.97
-11.71
-16.80
-22.16
-27.54
-32.69
-37.39
-41.59
-45.39
-49.07
-52.99
-57.50
-62.79
-68.71
-74.64
-79.44
-81.69
-80.03
-73.56
-62.18
-46.65
-28.34
-8.92
10.05
27.30
41.99
53.55
61.74
66.49
68.01
66.70
63.23
58.39
52.98
47.67
42.88
38.78
35.34
32.50
30.19
28.42
27.20
26.49
26.09
25.64
24.74
23.01
20.24
16.48
11.97
7.09
2.18
-2.55
-7.11
-11.64
-16.33
-21.33
-26.61
-32.04
-37.38
-42.41
-46.93
-50.90
-54.42
-57.80
-61.48
-65.93
-71.46
-77.93
-84.67
-90.45
-93.73
-93.08
-87.56
-77.01
-62.13
-44.26
-25.10
-6.28
10.88
25.49
37.04
45.26
50.07
51.52
49.93
45.85
40.14
33.76
27.64
22.44
18.45
15.61
13.64
12.20
11.04
10.06
9.28
8.80
8.74
9.14
9.98
11.10
12.22
13.01
13.12
12.35
10.74
8.65
6.57
5.01
4.23
4.14
4.33
4.19
3.16
0.89
-2.63
-7.07
-11.78
-15.82
-18.12
-17.70
-13.89
-6.50
4.07
16.97
31.08
45.17
58.10
68.79
76.28
79.76
78.73
73.10
63.35
50.49
35.98
21.34
7.94
-3.36
-12.32
-19.18
-24.45
-28.57
-31.77
-34.05
-35.41
-36.02
-36.32
-36.93
-38.37
-40.84
-44.10
-47.60
-50.79
-53.28
-55.05
-56.38
-57.67
-59.32
-61.59
-64.58
-68.21
-72.16
-75.79
-78.11
-77.89
-73.92
-65.38
-52.20
-35.10
-15.51
4.80
24.13
41.14
54.99
65.31
72.07
75.48
75.90
73.81
69.82
64.62
58.96
53.53
48.91
45.40
43.02
41.51
40.48
39.51
38.33
36.81
34.95
32.78
30.23
27.15
23.37
18.79
13.44
7.53
1.35
-4.77
-10.62
-16.11
-21.29
-26.34
-31.48
-36.96
-43.03
-49.86
-57.44
-65.39
-72.89
-78.59
-80.95
-78.62
-70.88
-57.99
-41.12
-22.04
-2.65
15.46
31.23
44.12
53.95
60.70
64.48
65.47
64.06
60.83
56.48
51.74
47.22
43.29
40.12
37.68
35.89
34.62
33.74
33.09
32.47
31.60
30.21
28.12
25.23
21.64
17.49
13.02
8.40
3.71
-1.03
-5.87
-10.85
-15.90
-20.87
-25.57
-29.86
-33.77
-37.53
-41.56
-46.29
-51.93
-58.18
-64.12
-68.34
-69.23
-65.56
-56.85
-43.60
-27.10
-9.12
8.67
24.96
39.00
50.42
59.09
64.96
68.05
68.48
66.59
62.96
58.30
53.34
48.67
44.66
41.43
38.93
37.08
35.78
34.96
34.56
34.45
34.36
33.92
32.75
30.56
27.29
23.14
18.49
13.73
9.17
4.89
0.77
-3.38
-7.73
-12.33
-17.11
-21.90
-26.56
-31.02
-35.29
-39.53
-43.95
-48.76
-54.05
-59.63
-64.92
-68.97
-70.59
-68.72
-62.72
-52.64
-39.19
-23.63
-7.40
8.18
22.11
33.71
42.54
48.35
51.00
50.65
47.77
43.18
37.91
32.92
28.92
26.16
24.56
23.82
23.62
23.78
24.19
24.74
25.19
25.21
24.46
22.74
20.07
16.62
12.68
8.46
4.08
-0.44
-5.04
-9.66
-14.19
-18.57
-22.82
-27.13
-31.77
-36.96
-42.80
-49.06
-55.11
-60.01
-62.58
-61.75
-56.85
-47.84
-35.38
-20.68
-5.22
9.63
22.78
33.56
41.61
46.80
49.14
48.80
46.20
41.97
36.95
32.01
27.84
24.79
22.89
21.94
21.63
21.68
21.88
21.98
21.74
20.92
19.33
16.89
13.77
10.25
6.66
3.24
0.06
-3.02
-6.24
-9.82
-13.88
-18.35
-23.04
-27.67
-32.02
-36.05
-39.88
-43.85
-48.32
-53.58
-59.58
-65.77
-71.05
-73.98
-73.15
-67.69
-57.56
-43.57
-27.19
-10.06
6.40
21.15
33.63
43.56
50.82
55.36
57.25
56.75
54.37
50.78
46.73
42.88
39.68
37.27
35.59
34.44
33.63
33.04
32.57
32.16
31.70
31.05
30.09
28.75
26.98
24.76
22.08
18.93
15.29
11.27
6.98
2.64
-1.61
-5.63
-9.42
-13.00
-16.48
-19.94
-23.48
-27.13
-30.89
-34.70
-38.46
-42.09
-45.55
-48.89
-52.29
-56.02
-60.31
-65.27
-70.64
-75.72
-79.39
-80.35
-77.45
-70.10
-58.46
-43.45
-26.52
-9.26
6.91
21.02
32.54
41.32
47.37
50.86
52.01
51.18
48.86
45.61
42.00
38.49
35.37
32.79
30.74
29.15
27.98
27.20
26.76
26.59
26.52
26.29
25.59
24.18
21.92
18.89
15.35
11.62
7.92
4.35
0.84
-2.73
-6.45
-10.31
-14.20
-17.98
-21.53
-24.80
-27.84
-30.73
-33.60
-36.62
-39.94
-43.78
-48.29
-53.50
-59.09
-64.35
-68.18
-69.39
-67.01
-60.60
-50.43
-37.37
-22.67
-7.63
6.60
19.15
29.41
36.99
41.68
43.53
42.80
40.00
35.79
30.95
26.20
22.11
19.05
17.14
16.28
16.17
16.43
16.66
16.56
15.96
14.85
13.32
11.46
9.29
6.71
3.59
-0.12
-4.32
-8.76
-13.13
-17.19
-20.87
-24.31
-27.72
-31.40
-35.57
-40.44
-46.07
-52.35
-58.84
-64.67
-68.61
-69.37
-65.93
-57.93
-45.86
-30.89
-14.60
1.51
16.24
28.84
38.91
46.22
50.71
52.46
51.79
49.25
45.58
41.50
37.60
34.19
31.41
29.26
27.71
26.78
26.45
26.64
27.12
27.58
27.63
26.96
25.36
22.82
19.49
15.60
11.43
7.20
3.00
-1.17
-5.41
-9.82
-14.44
-19.25
-24.11
-28.86
-33.35
-37.49
-41.40
-45.30
-49.53
-54.39
-60.00
-66.11
-72.04
-76.71
-78.84
-77.24
-71.17
-60.56
-46.10
-29.11
-11.23
6.03
21.47
34.43
44.64
52.08
56.80
58.93
58.71
56.61
53.34
49.67
46.28
43.55
41.53
40.03
38.83
37.79
36.91
36.29
35.98
35.89
35.76
35.22
33.93
31.65
28.36
24.26
19.68
14.99
10.47
6.23
2.19
-1.83
-6.02
-10.48
-15.21
-20.05
-24.82
-29.33
-33.52
-37.48
-41.40
-45.60
-50.33
-55.69
-61.45
-66.92
-71.04
-72.53
-70.27
-63.60
-52.62
-38.16
-21.60
-4.50
11.68
25.86
37.31
45.64
50.72
52.66
51.82
48.82
44.43
39.45
34.56
30.19
26.55
23.72
21.67
20.38
19.78
19.76
20.09
20.46
20.51
19.91
18.46
16.09
12.97
9.38
5.65
2.06
-1.28
-4.48
-7.74
-11.28
-15.16
-19.21
-23.04
-26.07
-27.67
-27.22
-24.27
-18.66
-10.60
-0.65
10.34
21.42
31.79
40.77
47.85
52.56
54.43
53.01
48.09
39.80
28.74
15.96
2.80
-9.40
-19.51
-26.93
-31.62
-34.08
-35.06
-35.29
-35.16
-34.69
-33.55
-31.42
-28.20
-24.09
-19.51
-14.90
-10.52
-6.39
-2.43
1.38
4.92
7.81
9.63
10.01
8.82
6.11
2.02
-3.36
-10.05
-18.15
-27.74
-38.74
-50.85
-63.48
-75.67
-86.19
-93.60
-96.59
-94.25
-86.45
-73.89
-57.99
-40.50
-23.11
-7.12
6.63
17.72
26.00
31.46
34.26
34.66
33.06
29.98
25.98
21.63
17.48
13.98
11.51
10.31
10.49
12.01
14.57
17.72
20.90
23.55
25.30
26.01
25.76
24.74
23.14
21.06
18.54
15.58
12.22
8.55
4.68
0.69
-3.44
-7.76
-12.38
-17.45
-23.10
-29.42
-36.31
-43.31
-49.55
-53.79
-54.68
-51.18
-42.91
-30.36
-14.76
2.28
19.13
34.54
47.67
58.12
65.69
70.32
72.09
71.24
68.26
63.85
58.78
53.71
49.09
45.10
41.75
38.96
36.71
35.01
33.87
33.17
32.65
31.93
30.61
28.41
25.28
21.42
17.18
12.92
8.87
5.03
1.17
-3.01
-7.67
-12.76
-17.96
-22.88
-27.21
-30.91
-34.21
-37.52
-41.28
-45.78
-51.06
-56.81
-62.42
-66.91
-69.10
-67.84
-62.34
-52.45
-38.81
-22.74
-5.89
10.21
24.37
35.93
44.61
50.37
53.25
53.43
51.22
47.15
41.96
36.47
31.41
27.29
24.29
22.34
21.18
20.49
20.01
19.58
19.08
18.44
17.57
16.34
14.57
12.12
8.93
5.08
0.77
-3.70
-8.04
-12.05
-15.70
-19.07
-22.37
-25.90
-29.93
-34.68
-40.15
-46.06
-51.78
-56.36
-58.74
-57.96
-53.48
-45.27
-33.90
-20.36
-5.91
8.20
20.87
31.28
38.95
43.68
45.56
44.84
41.96
37.51
32.23
26.90
22.26
18.77
16.55
15.41
14.94
14.70
14.39
13.84
13.01
11.87
10.35
8.36
5.79
2.62
-1.11
-5.26
-9.61
-13.95
-18.10
-21.97
-25.67
-29.44
-33.65
-38.67
-44.72
-51.67
-58.94
-65.48
-70.00
-71.21
-68.19
-60.66
-49.03
-34.31
-17.86
-1.11
14.67
28.52
39.84
48.32
53.95
56.88
57.40
55.83
52.53
47.99
42.75
37.49
32.85
29.30
27.02
25.84
25.34
25.03
24.50
23.51
22.02
20.12
17.90
15.42
12.62
9.43
5.79
1.67
-2.81
-7.50
-12.21
-16.77
-21.10
-25.21
-29.23
-33.37
-37.84
-42.85
-48.50
-54.63
-60.73
-65.85
-68.78
-68.27
-63.42
-54.03
-40.70
-24.73
-7.77
8.60
23.18
35.28
44.65
51.28
55.27
56.77
56.03
53.48
49.69
45.34
41.02
37.18
34.04
31.66
29.97
28.87
28.21
27.78
27.32
26.55
25.27
23.35
20.80
17.71
14.18
10.32
6.24
2.05
-2.19
-6.45
-10.73
-15.06
-19.37
-23.60
-27.67
-31.60
-35.58
-39.93
-44.94
-50.72
-56.94
-62.85
-67.30
-69.03
-67.01
-60.67
-50.14
-36.26
-20.35
-3.97
11.46
24.92
35.81
43.95
49.35
52.12
52.40
50.43
46.63
41.65
36.25
31.17
26.91
23.65
21.30
19.60
18.30
17.30
16.59
16.20
16.03
15.85
15.33
14.12
12.05
9.15
5.63
1.79
-2.12
-5.97
-9.77
-13.60
-17.54
-21.63
-25.91
-30.40
-35.19
-40.33
-45.68
-50.87
-55.16
-57.56
-57.08
-52.96
-45.01
-33.67
-19.99
-5.32
8.93
21.62
31.99
39.65
44.47
46.51
45.94
43.12
38.60
33.12
27.52
22.55
18.68
16.03
14.42
13.45
12.79
12.24
11.69
11.12
10.46
9.50
8.00
5.76
2.68
-1.10
-5.34
-9.74
-14.07
-18.26
-22.36
-26.48
-30.75
-35.29
-40.24
-45.69
-51.64
-57.82
-63.55
-67.81
-69.31
-66.96
-60.16
-49.08
-34.68
-18.40
-1.83
13.68
27.19
38.15
46.33
51.67
54.27
54.33
52.23
48.52
43.88
39.01
34.55
30.94
28.35
26.69
25.65
24.90
24.11
23.16
22.02
20.73
19.26
17.47
15.16
12.18
8.51
4.31
-0.16
-4.67
-9.13
-13.50
-17.83
-22.13
-26.37
-30.58
-34.88
-39.48
-44.64
-50.48
-56.79
-62.91
-67.77
-70.07
-68.63
-62.79
-52.62
-38.95
-23.17
-6.85
8.68
22.47
34.06
43.28
50.07
54.40
56.27
55.82
53.45
49.75
45.43
41.12
37.30
34.19
31.88
30.31
29.40
28.98
28.83
28.65
28.08
26.86
24.80
21.94
18.44
14.58
10.65
6.87
3.28
-0.20
-3.81
-7.80
-12.30
-17.22
-22.25
-26.98
-31.07
-34.46
-37.41
-40.48
-44.25
-49.11
-54.98
-61.16
-66.51
-69.61
-69.18
-64.41
-55.22
-42.28
-26.86
-10.47
5.50
19.92
32.08
41.60
48.32
52.25
53.55
52.53
49.67
45.59
40.98
36.48
32.55
29.41
27.07
25.39
24.24
23.51
23.13
22.98
22.83
22.34
21.19
19.17
16.31
12.84
9.05
5.15
1.21
-2.79
-6.89
-11.06
-15.20
-19.21
-23.09
-26.88
-30.73
-34.75
-39.07
-43.72
-48.61
-53.37
-57.32
-59.50
-58.85
-54.58
-46.44
-34.92
-21.11
-6.40
7.83
20.53
30.99
38.80
43.74
45.72
44.85
41.53
36.50
30.70
25.07
20.36
16.94
14.78
13.60
12.96
12.46
11.84
11.02
10.00
8.82
7.45
5.76
3.59
0.79
-2.67
-6.66
-10.93
-15.18
-19.17
-22.79
-26.12
-29.39
-32.93
-37.07
-42.00
-47.62
-53.39
-58.39
-61.40
-61.23
-57.03
-48.60
-36.48
-21.82
-6.10
9.23
23.00
34.44
43.15
49.00
51.98
52.24
50.09
46.06
40.92
35.48
30.52
26.56
23.76
21.97
20.81
19.86
18.82
17.57
16.14
14.68
13.23
11.76
10.08
7.93
5.11
1.52
-2.76
-7.53
-12.52
-17.50
-22.33
-26.92
-31.27
-35.45
-39.62
-44.01
-48.84
-54.22
-59.91
-65.18
-68.89
-69.70
-66.46
-58.62
-46.45
-31.07
-14.08
2.85
18.33
31.50
41.95
49.60
54.45
56.59
56.20
53.64
49.49
44.46
39.29
34.55
30.62
27.64
25.57
24.26
23.45
22.87
22.21
21.26
19.91
18.12
15.89
13.17
9.92
6.09
1.79
-2.77
-7.28
-11.51
-15.37
-18.99
-22.64
-26.60
-31.11
-36.27
-42.06
-48.33
-54.71
-60.54
-64.87
-66.57
-64.59
-58.34
-47.89
-34.00
-17.99
-1.38
14.42
28.32
39.67
48.18
53.82
56.73
57.15
55.42
51.97
47.38
42.23
37.17
32.71
29.17
26.65
25.04
24.08
23.51
23.07
22.55
21.77
20.59
18.91
16.69
13.91
10.58
6.71
2.35
-2.41
-7.46
-12.59
-17.62
-22.38
-26.80
-30.98
-35.10
-39.45
-44.28
-49.71
-55.61
-61.52
-66.60
-69.75
-69.80
-65.84
-57.48
-45.11
-29.80
-13.10
3.35
18.15
30.37
39.54
45.58
48.58
48.80
46.62
42.56
37.35
31.76
26.55
22.25
19.05
16.87
15.41
14.33
13.44
12.69
12.14
11.81
11.51
10.87
9.44
6.90
3.28
-1.10
-5.72
-10.13
-14.12
-17.77
-21.38
-25.29
-29.76
-34.93
-40.70
-46.71
-52.31
-56.55
-58.36
-56.81
-51.37
-42.15
-29.84
-15.58
-0.66
13.70
26.48
36.90
44.40
48.63
49.53
47.40
42.93
37.03
30.73
24.89
20.09
16.52
14.10
12.51
11.44
10.63
9.94
9.27
8.52
7.50
5.92
3.56
0.32
-3.66
-8.10
-12.64
-17.06
-21.34
-25.64
-30.22
-35.33
-41.14
-47.64
-54.59
-61.42
-67.18
-70.63
-70.53
-65.98
-56.77
-43.52
-27.52
-10.39
6.33
21.46
34.25
44.37
51.67
56.16
57.87
56.99
53.88
49.15
43.62
38.11
33.31
29.54
26.78
24.76
23.15
21.73
20.44
19.33
18.35
17.31
15.93
13.84
10.82
6.86
2.15
-3.00
-8.24
-13.32
-18.12
-22.71
-27.28
-32.10
-37.45
-43.52
-50.27
-57.36
-64.01
-69.08
-71.22
-69.21
-62.36
-50.77
-35.40
-17.86
0.07
16.82
31.29
42.96
51.62
57.27
60.00
59.99
57.63
53.53
48.48
43.24
38.41
34.34
31.14
28.73
26.98
25.73
24.80
23.94
22.95
21.62
19.85
17.62
14.93
11.79
8.16
3.99
-0.69
-5.73
-10.84
-15.76
-20.29
-24.42
-28.32
-32.30
-36.68
-41.75
-47.58
-53.99
-60.41
-65.88
-69.14
-68.94
-64.35
-55.15
-41.88
-25.79
-8.45
8.60
24.15
37.40
47.91
55.51
60.13
61.86
60.90
57.68
52.81
47.05
41.19
35.92
31.65
28.56
26.51
25.26
24.49
23.94
23.44
22.85
22.09
20.99
19.38
17.09
14.02
10.23
5.88
1.21
-3.51
-8.09
-12.45
-16.65
-20.80
-25.10
-29.71
-34.79
-40.41
-46.52
-52.85
-58.89
-63.82
-66.63
-66.29
-62.02
-53.59
-41.44
-26.64
-10.60
5.20
19.55
31.60
40.84
46.95
49.84
49.60
46.61
41.65
35.72
29.88
24.93
21.26
18.79
17.22
16.18
15.44
14.88
14.47
14.10
13.58
12.59
10.89
8.32
4.92
0.82
-3.71
-8.45
-13.24
-17.97
-22.68
-27.45
-32.46
-37.85
-43.66
-49.67
-55.31
-59.71
-61.85
-60.80
-55.98
-47.35
-35.45
-21.26
-5.99
9.13
23.08
35.02
44.36
50.69
53.83
53.88
51.30
46.86
41.54
36.27
31.76
28.29
25.81
24.02
22.57
21.26
20.01
18.85
17.73
16.47
14.81
12.44
9.19
5.09
0.36
-4.63
-9.51
-14.06
-18.24
-22.21
-26.31
-30.91
-36.32
-42.66
-49.77
-57.07
-63.57
-67.98
-68.98
-65.57
-57.40
-44.96
-29.42
-12.43
4.42
19.85
33.07
43.68
51.55
56.68
59.12
59.02
56.75
52.84
47.97
42.83
37.98
33.76
30.26
27.41
25.02
22.94
21.08
19.39
17.85
16.32
14.56
12.24
9.07
4.90
-0.16
-5.76
-11.47
-16.86
-21.71
-26.03
-30.06
-34.15
-38.63
-43.74
-49.54
-55.78
-61.87
-66.77
-69.17
-67.75
-61.64
-50.74
-35.90
-18.65
-0.75
16.22
31.22
43.72
53.48
60.39
64.37
65.41
63.75
59.93
54.70
48.88
43.17
38.05
33.75
30.32
27.67
25.66
24.07
22.72
21.42
20.06
18.53
16.72
14.49
11.66
8.11
3.85
-0.98
-6.10
-11.20
-16.04
-20.50
-24.62
-28.54
-32.47
-36.69
-41.48
-46.99
-53.14
-59.46
-64.97
-68.35
-68.27
-63.80
-54.75
-41.75
-26.10
-9.37
6.98
21.78
34.27
43.92
50.42
53.61
53.60
50.84
46.13
40.41
34.61
29.41
25.12
21.71
18.97
16.64
14.58
12.79
11.34
10.26
9.42
8.51
7.14
4.96
1.85
-2.09
-6.51
-11.00
-15.25
-19.16
-22.86
-26.67
-30.93
-35.94
-41.72
-47.98
-53.99
-58.68
-60.85
-59.44
-53.85
-44.15
-31.09
-15.88
0.04
15.29
28.76
39.63
47.40
51.82
52.94
51.07
46.85
41.08
34.63
28.25
22.46
17.56
13.65
10.76
8.86
7.85
7.56
7.67
7.75
7.35
6.09
3.75
0.33
-4.00
-8.92
-14.07
-19.15
-23.97
-28.61
-33.29
-38.38
-44.16
-50.63
-57.34
-63.34
-67.33
-67.92
-64.06
-55.38
-42.36
-26.24
-8.72
8.52
24.15
37.34
47.68
54.99
59.22
60.36
58.62
54.53
48.94
42.81
37.00
32.00
27.93
24.60
21.78
19.33
17.26
15.64
14.46
13.54
12.52
10.97
8.51
4.96
0.42
-4.78
-10.18
-15.31
-19.93
-24.07
-28.06
-32.36
-37.45
-43.56
-50.58
-57.94
-64.70
-69.62
-71.41
-68.99
-61.84
-50.12
-34.77
-17.30
0.56
17.24
31.64
43.16
51.64
57.12
59.72
59.60
57.09
52.74
47.33
41.71
36.60
32.42
29.20
26.75
24.77
23.02
21.40
19.93
18.61
17.36
16.03
14.39
12.24
9.44
5.95
1.83
-2.79
-7.71
-12.74
-17.69
-22.42
-26.92
-31.25
-35.55
-40.01
-44.81
-50.07
-55.75
-61.51
-66.61
-69.95
-70.23
-66.32
-57.69
-44.63
-28.28
-10.35
7.33
23.29
36.62
46.95
54.30
58.79
60.58
59.81
56.75
51.92
46.06
40.00
34.53
30.15
27.05
25.12
24.09
23.63
23.40
23.14
22.64
21.72
20.31
18.37
15.94
13.05
9.72
5.99
1.89
-2.49
-7.04
-11.61
-16.07
-20.37
-24.48
-28.50
-32.57
-36.90
-41.70
-47.12
-53.08
-59.15
-64.45
-67.81
-67.99
-64.09
-55.82
-43.68
-28.77
-12.55
3.55
18.33
30.91
40.70
47.33
50.67
50.84
48.25
43.64
37.87
31.85
26.30
21.69
18.21
15.81
14.28
13.34
12.77
12.40
12.12
11.80
11.24
10.17
8.32
5.49
1.72
-2.72
-7.39
-11.88
-15.92
-19.50
-22.85
-26.35
-30.40
-35.29
-40.99
-47.13
-52.94
-57.31
-59.05
-57.16
-51.14
-41.13
-27.97
-12.96
2.41
16.77
29.08
38.69
45.30
48.79
49.29
47.11
42.82
37.20
31.18
25.58
20.93
17.39
14.77
12.73
11.00
9.48
8.23
7.33
6.75
6.22
5.34
3.64
0.84
-3.06
-7.73
-12.68
-17.37
-21.51
-25.09
-28.42
-31.99
-36.30
-41.68
-48.14
-55.25
-62.13
-67.53
-70.02
-68.39
-62.02
-51.08
-36.55
-19.96
-3.00
12.92
26.83
38.21
46.83
52.60
55.49
55.58
53.17
48.84
43.36
37.58
32.21
27.73
24.29
21.82
20.09
18.81
17.75
16.71
15.60
14.35
12.89
11.13
8.88
6.00
2.36
-2.00
-6.89
-12.00
-16.98
-21.63
-25.88
-29.89
-33.92
-38.30
-43.32
-49.14
-55.64
-62.29
-68.15
-71.97
-72.40
-68.44
-59.75
-46.82
-30.86
-13.46
3.76
19.51
32.93
43.56
51.18
55.70
57.21
55.97
52.52
47.63
42.15
36.88
32.34
28.78
26.19
24.40
23.23
22.51
22.06
21.69
21.17
20.30
18.93
16.99
14.47
11.36
7.67
3.43
-1.28
-6.29
-11.34
-16.19
-20.66
-24.76
-28.64
-32.61
-37.03
-42.22
-48.27
-54.91
-61.43
-66.63
-69.12
-67.63
-61.46
-50.71
-36.29
-19.69
-2.53
13.78
28.24
40.25
49.46
55.64
58.69
58.65
55.83
50.83
44.56
37.99
32.02
27.28
23.96
21.94
20.81
20.13
19.58
18.95
18.22
17.37
16.33
14.95
13.04
10.44
7.10
3.11
-1.33
-5.99
-10.62
-15.10
-19.42
-23.71
-28.21
-33.18
-38.82
-45.08
-51.63
-57.74
-62.36
-64.33
-62.63
-56.69
-46.61
-33.15
-17.58
-1.34
14.18
27.85
38.87
46.69
51.01
51.82
49.44
44.50
37.98
30.97
24.46
19.17
15.37
12.94
11.49
10.59
9.90
9.29
8.72
8.19
7.55
6.53
4.78
2.08
-1.56
-5.86
-10.40
-14.82
-18.98
-22.96
-27.11
-31.83
-37.46
-44.07
-51.34
-58.45
-64.22
-67.26
-66.38
-60.95
-51.01
-37.34
-21.18
-3.97
12.93
28.31
41.21
50.92
57.01
59.44
58.51
54.89
49.44
43.11
36.76
31.10
26.56
23.22
20.92
19.32
18.09
17.01
15.99
15.03
14.01
12.68
10.68
7.65
3.44
-1.81
-7.69
-13.67
-19.25
-24.17
-28.44
-32.41
-36.60
-41.57
-47.66
-54.88
-62.64
-69.84
-74.96
-76.39
-72.90
-64.00
-50.15
-32.65
-13.36
5.80
23.24
37.92
49.38
57.57
62.58
64.61
63.87
60.72
55.77
49.87
43.94
38.76
34.72
31.83
29.77
28.15
26.72
25.41
24.28
23.33
22.39
21.13
19.14
16.11
11.95
6.84
1.14
-4.68
-10.26
-15.35
-19.95
-24.24
-28.53
-33.17
-38.44
-44.51
-51.37
-58.69
-65.73
-71.33
-74.03
-72.48
-65.82
-54.08
-38.17
-19.69
-0.49
17.79
33.93
47.18
57.18
63.76
66.97
67.10
64.68
60.43
55.15
49.57
44.26
39.58
35.76
32.89
30.93
29.73
29.07
28.66
28.22
27.53
26.37
24.58
22.02
18.59
14.32
9.34
3.88
-1.77
-7.35
-12.66
-17.62
-22.24
-26.63
-30.97
-35.53
-40.59
-46.36
-52.89
-59.90
-66.74
-72.33
-75.33
-74.46
-68.82
-58.24
-43.40
-25.67
-6.79
11.50
27.83
41.32
51.53
58.33
61.76
62.02
59.47
54.75
48.71
42.32
36.46
31.75
28.43
26.36
25.18
24.51
24.05
23.65
23.20
22.58
21.57
19.88
17.32
13.80
9.44
4.51
-0.69
-5.83
-10.75
-15.38
-19.79
-24.14
-28.61
-33.39
-38.64
-44.41
-50.56
-56.67
-61.91
-65.14
-65.11
-60.86
-52.04
-39.11
-23.28
-6.15
10.64
25.76
38.27
47.58
53.35
55.44
54.02
49.63
43.15
35.71
28.42
22.13
17.30
13.96
11.86
10.65
9.99
9.70
9.65
9.71
9.65
9.15
7.87
5.53
2.12
-2.16
-6.87
-11.58
-15.96
-19.92
-23.64
-27.48
-31.87
-37.13
-43.28
-49.98
-56.39
-61.26
-63.18
-60.93
-53.84
-42.08
-26.66
-9.18
8.52
24.83
38.55
48.96
55.78
59.00
58.88
55.88
50.73
44.32
37.58
31.28
25.90
21.58
18.22
15.64
13.69
12.25
11.23
10.45
9.56
8.19
5.94
2.63
-1.72
-6.81
-12.20
-17.49
-22.43
-27.01
-31.52
-36.38
-42.03
-48.67
-56.03
-63.22
-68.81
-71.17
-68.95
-61.46
-49.01
-32.77
-14.49
3.99
21.15
35.93
47.76
56.33
61.57
63.54
62.51
58.97
53.65
47.34
40.87
34.88
29.81
25.85
22.99
21.00
19.62
18.57
17.62
16.63
15.50
14.09
12.17
9.43
5.62
0.65
-5.25
-11.60
-17.76
-23.21
-27.72
-31.43
-34.88
-38.77
-43.72
-49.99
-57.31
-64.81
-71.15
-74.79
-74.40
-69.13
-58.93
-44.46
-27.02
-8.23
10.31
27.22
41.51
52.61
60.29
64.57
65.67
63.96
60.02
54.56
48.41
42.36
37.05
32.79
29.62
27.34
25.71
24.48
23.51
22.69
21.87
20.86
19.41
17.33
14.51
10.97
6.81
2.19
-2.74
-7.85
-13.05
-18.21
-23.22
-27.97
-32.42
-36.68
-41.04
-45.87
-51.49
-57.90
-64.63
-70.65
-74.55
-74.91
-70.67
-61.51
-47.96
-31.23
-12.90
5.38
22.24
36.66
47.99
55.89
60.27
61.31
59.45
55.38
49.90
43.87
38.04
32.95
28.95
26.17
24.55
23.84
23.69
23.73
23.62
23.18
22.32
21.04
19.36
17.17
14.37
10.80
6.46
1.44
-3.96
-9.41
-14.57
-19.25
-23.44
-27.37
-31.35
-35.75
-40.81
-46.62
-52.92
-59.12
-64.28
-67.26
-66.90
-62.40
-53.52
-40.71
-25.10
-8.17
8.52
23.60
36.04
45.18
50.68
52.57
51.19
47.21
41.53
35.16
28.97
23.60
19.33
16.21
14.08
12.71
11.91
11.49
11.28
11.13
10.81
10.10
8.75
6.57
3.46
-0.49
-5.03
-9.77
-14.32
-18.43
-22.10
-25.58
-29.31
-33.76
-39.19
-45.51
-52.05
-57.66
-60.89
-60.42
-55.47
-46.07
-33.02
-17.73
-1.75
13.53
27.03
38.02
45.98
50.61
51.81
49.81
45.21
38.93
32.04
25.51
20.02
15.82
12.87
10.90
9.62
8.85
8.47
8.38
8.34
7.97
6.84
4.60
1.18
-3.21
-8.11
-13.05
-17.69
-21.93
-25.92
-29.99
-34.52
-39.79
-45.94
-52.75
-59.66
-65.66
-69.47
-69.81
-65.70
-56.86
-43.81
-27.80
-10.51
6.38
21.53
34.09
43.69
50.27
53.92
54.78
53.14
49.41
44.22
38.38
32.67
27.75
23.94
21.24
19.42
18.16
17.24
16.53
15.97
15.45
14.77
13.60
11.61
8.58
4.48
-0.47
-5.90
-11.36
-16.52
-21.21
-25.53
-29.74
-34.18
-39.17
-44.87
-51.23
-57.94
-64.40
-69.72
-72.80
-72.47
-67.87
-58.73
-45.53
-29.44
-12.02
5.18
20.96
34.51
45.34
53.16
57.77
59.16
57.60
53.74
48.48
42.78
37.42
32.90
29.41
26.96
25.48
24.80
24.72
24.88
24.90
24.39
23.14
21.14
18.52
15.48
12.15
8.58
4.71
0.47
-4.11
-8.95
-13.87
-18.68
-23.27
-27.61
-31.78
-35.96
-40.37
-45.21
-50.60
-56.46
-62.39
-67.57
-70.86
-71.00
-66.96
-58.30
-45.37
-29.26
-11.52
6.18
22.40
36.07
46.58
53.69
57.45
58.15
56.30
52.57
47.71
42.46
37.50
33.31
30.20
28.19
27.12
26.61
26.27
25.80
25.02
23.95
22.64
21.11
19.25
16.88
13.81
9.97
5.45
0.48
-4.65
-9.65
-14.35
-18.68
-22.66
-26.40
-30.08
-33.93
-38.21
-43.04
-48.36
-53.71
-58.27
-60.90
-60.47
-56.15
-47.73
-35.71
-21.22
-5.70
9.41
22.97
34.17
42.55
47.88
50.10
49.37
46.07
40.85
34.64
28.41
23.04
19.13
16.81
15.83
15.69
15.80
15.71
15.20
14.25
12.94
11.34
9.40
6.99
3.98
0.34
-3.84
-8.29
-12.75
-17.01
-21.03
-24.98
-29.13
-33.79
-39.11
-45.04
-51.31
-57.38
-62.46
-65.63
-65.90
-62.47
-54.99
-43.70
-29.49
-13.64
2.38
17.31
30.24
40.63
48.20
52.90
54.75
53.99
51.01
46.47
41.14
35.84
31.26
27.82
25.64
24.54
24.14
24.03
23.84
23.36
22.47
21.16
19.44
17.30
14.75
11.77
8.39
4.64
0.55
-3.89
-8.67
-13.73
-18.91
-23.99
-28.74
-33.01
-36.84
-40.46
-44.28
-48.71
-54.01
-60.05
-66.21
-71.43
-74.35
-73.70
-68.59
-58.92
-45.32
-29.09
-11.79
5.13
20.55
33.81
44.55
52.56
57.73
60.07
59.78
57.36
53.52
49.05
44.63
40.76
37.65
35.32
33.63
32.44
31.62
31.11
30.81
30.59
30.20
29.30
27.53
24.66
20.75
16.14
11.37
6.93
3.05
-0.37
-3.66
-7.19
-11.15
-15.47
-19.84
-23.97
-27.66
-30.94
-34.02
-37.19
-40.78
-45.04
-50.10
-55.87
-61.89
-67.31
-70.90
-71.32
-67.54
-59.15
-46.60
-31.04
-14.05
2.79
18.19
31.31
41.70
49.20
53.81
55.64
54.97
52.31
48.35
43.88
39.61
36.01
33.23
31.19
29.68
28.56
27.82
27.53
27.66
28.03
28.20
27.68
26.06
23.26
19.51
15.31
11.15
7.34
3.95
0.77
-2.50
-6.11
-10.17
-14.57
-19.04
-23.31
-27.16
-30.58
-33.73
-36.97
-40.64
-45.00
-50.02
-55.32
-60.13
-63.44
-64.17
-61.42
-54.77
-44.41
-31.15
-16.22
-1.01
13.22
25.54
35.31
42.22
46.14
47.13
45.47
41.72
36.65
31.18
26.14
22.14
19.45
18.00
17.51
17.57
17.83
17.99
17.83
17.18
15.95
14.08
11.57
8.54
5.07
1.26
-2.80
-7.06
-11.45
-15.84
-20.10
-24.13
-27.95
-31.73
-35.75
-40.27
-45.44
-51.22
-57.24
-62.87
-67.24
-69.36
-68.31
-63.45
-54.62
-42.21
-27.20
-10.91
5.20
19.85
32.15
41.62
48.15
51.88
53.07
52.10
49.40
45.48
40.94
36.36
32.22
28.86
26.43
24.96
24.35
24.44
24.95
25.56
25.88
25.54
24.29
22.06
18.98
15.30
11.32
7.28
3.28
-0.71
-4.83
-9.23
-13.97
-18.99
-24.08
-28.97
-33.41
-37.30
-40.73
-43.98
-47.50
-51.73
-56.93
-62.96
-69.13
-74.27
-76.91
-75.69
-69.76
-59.08
-44.43
-27.25
-9.24
8.04
23.42
36.21
46.13
53.14
57.34
58.93
58.25
55.75
52.05
47.82
43.67
40.08
37.32
35.48
34.52
34.27
34.53
35.04
35.53
35.75
35.51
34.67
33.16
30.93
27.99
24.39
20.27
15.86
11.43
7.24
3.39
-0.15
-3.57
-7.14
-11.08
-15.46
-20.17
-24.93
-29.43
-33.47
-37.03
-40.32
-43.69
-47.57
-52.28
-57.92
-64.26
-70.63
-75.95
-78.91
-78.28
-73.22
-63.53
-49.82
-33.30
-15.56
1.81
17.49
30.59
40.63
47.51
51.38
52.50
51.24
48.03
43.43
38.09
32.69
27.84
23.93
21.09
19.18
17.95
17.13
16.48
15.78
14.76
13.13
10.60
7.01
2.41
-2.97
-8.76
-14.62
-20.28
-25.63
-30.65
-35.35
-39.67
-43.42
-46.34
-48.11
-48.51
-47.52
-45.40
-42.65
-39.85
-37.55
-35.99
-34.97
-33.87
-31.73
-27.52
-20.46
-10.33
2.47
16.94
31.75
45.54
57.23
66.15
71.98
74.69
74.40
71.36
65.99
59.00
51.35
44.04
37.92
33.42
30.52
28.76
27.59
26.54
25.34
23.96
22.41
20.74
18.86
16.63
13.93
10.65
6.76
2.34
-2.47
-7.41
-12.26
-16.80
-20.99
-24.94
-28.89
-33.16
-38.04
-43.70
-50.01
-56.48
-62.21
-65.98
-66.54
-62.90
-54.71
-42.38
-27.04
-10.28
6.25
21.19
33.65
43.21
49.76
53.34
54.08
52.26
48.33
42.98
37.08
31.53
27.01
23.87
22.13
21.49
21.52
21.76
21.85
21.56
20.77
19.46
17.67
15.45
12.79
9.63
5.85
1.42
-3.61
-8.99
-14.40
-19.48
-24.03
-28.02
-31.65
-35.23
-39.15
-43.76
-49.26
-55.63
-62.44
-68.76
-73.29
-74.60
-71.52
-63.58
-51.18
-35.51
-18.18
-0.81
15.31
29.33
40.78
49.42
55.19
58.15
58.49
56.60
52.98
48.23
42.98
37.83
33.29
29.72
27.35
26.17
25.94
26.25
26.60
26.56
25.81
24.28
22.04
19.22
15.97
12.36
8.40
4.15
-0.34
-4.95
-9.53
-14.00
-18.32
-22.49
-26.51
-30.45
-34.41
-38.61
-43.34
-48.79
-54.87
-61.04
-66.22
-69.07
-68.22
-62.82
-52.77
-38.86
-22.50
-5.35
11.05
25.58
37.56
46.64
52.74
55.88
56.30
54.41
50.87
46.43
41.81
37.56
34.02
31.31
29.41
28.26
27.73
27.66
27.81
27.87
27.53
26.55
24.78
22.26
19.15
15.61
11.83
7.90
3.82
-0.46
-5.01
-9.83
-14.79
-19.71
-24.34
-28.54
-32.32
-35.92
-39.71
-44.13
-49.41
-55.46
-61.68
-67.03
-70.19
-69.93
-65.43
-56.61
-44.13
-29.23
-13.44
1.83
15.47
26.74
35.22
40.67
43.02
42.36
39.05
33.74
27.29
20.69
14.81
10.23
7.12
5.24
4.10
3.15
1.98
0.43
-1.41
-3.33
-5.13
-6.72
-8.19
-9.72
-11.50
-13.60
-15.94
-18.37
-20.70
-22.82
-24.75
-26.64
-28.68
-31.06
-33.89
-37.18
-40.80
-44.41
-47.44
-49.02
-48.23
-44.30
-36.90
-26.32
-13.44
0.42
13.85
25.56
34.60
40.44
42.95
42.45
39.62
35.49
31.19
27.78
26.02
26.17
28.01
30.93
34.06
36.55
37.81
37.68
36.41
34.54
32.55
30.60
28.48
25.73
21.93
16.95
11.01
4.56
-1.97
-8.37
-14.58
-20.60
-26.22
-31.06
-34.70
-36.91
-37.89
-38.30
-39.08
-41.20
-45.27
-51.21
-58.17
-64.61
-68.65
-68.54
-63.17
-52.34
-36.83
-18.21
1.59
20.56
36.98
49.56
57.61
61.13
60.69
57.33
52.23
46.42
40.55
34.87
29.47
24.43
20.04
16.72
14.86
14.65
16.00
18.58
21.98
25.84
29.85
33.72
37.14
39.76
41.23
41.38
40.21
37.94
34.91
31.43
27.71
23.78
19.58
14.98
9.86
4.23
-1.78
-7.98
-14.11
-19.93
-25.30
-30.20
-34.76
-39.18
-43.78
-48.86
-54.69
-61.39
-68.86
-76.55
-83.50
-88.38
-89.76
-86.50
-78.10
-64.93
-48.14
-29.36
-10.27
7.73
23.73
37.24
48.02
55.99
61.15
63.65
63.89
62.55
60.48
58.50
57.18
56.69
56.86
57.34
57.82
58.19
58.57
59.22
60.35
62.00
63.92
65.62
66.47
65.80
63.05
57.85
50.08
39.92
27.81
14.46
0.72
-12.53
-24.55
-34.78
-43.03
-49.36
-54.10
-57.68
-60.62
-63.45
-66.58
-70.24
-74.27
-78.00
-80.33
-79.90
-75.51
-66.52
-53.12
-36.26
-17.44
1.76
19.93
36.04
49.50
60.02
67.58
72.34
74.64
74.94
73.77
71.66
69.04
66.18
63.22
60.26
57.48
55.11
53.45
52.72
52.87
53.58
54.20
54.02
52.42
49.05
43.90
37.20
29.33
20.57
10.96
0.22
-12.15
-26.64
-43.41
-62.03
-81.33
-99.63
-115.02
-125.78
-130.66
-129.00
-120.72
-106.36
-87.03
-64.46
-40.79
-18.27
1.12
16.10
26.15
31.43
32.57
30.46
26.11
20.59
14.85
9.68
5.44
2.10
-0.70
-3.34
-6.08
-8.93
-11.79
-14.60
-17.39
-20.29
-23.39
-26.66
-29.89
-32.82
-35.22
-37.05
-38.51
-39.96
-41.91
-44.83
-49.02
-54.38
-60.30
-65.65
-68.93
-68.69
-63.91
-54.37
-40.72
-24.32
-6.90
9.90
24.82
37.06
46.23
52.23
55.13
55.12
52.64
48.31
42.87
37.07
31.46
26.30
21.66
17.47
13.68
10.36
7.66
5.71
4.45
3.61
2.70
1.18
-1.40
-5.20
-10.10
-15.74
-21.68
-27.62
-33.47
-39.38
-45.66
-52.53
-59.91
-67.24
-73.52
-77.41
-77.56
-73.00
-63.41
-49.23
-31.62
-12.20
7.37
25.64
41.59
54.65
64.53
71.15
74.57
74.98
72.79
68.66
63.40
57.84
52.61
47.99
43.90
40.05
36.17
32.16
28.20
24.60
21.63
19.28
17.20
14.80
11.53
7.09
1.62
-4.45
-10.55
-16.29
-21.56
-26.55
-31.58
-37.04
-43.18
-50.11
-57.65
-65.25
-71.90
-76.22
-76.78
-72.47
-62.93
-48.75
-31.31
-12.42
6.19
23.20
37.81
49.62
58.43
64.09
66.52
65.85
62.53
57.31
51.21
45.15
39.84
35.57
32.32
29.85
27.88
26.19
24.67
23.28
21.92
20.46
18.71
16.49
13.67
10.17
6.00
1.18
-4.17
-9.92
-15.91
-21.90
-27.74
-33.39
-38.92
-44.56
-50.56
-57.11
-64.20
-71.45
-78.04
-82.77
-84.24
-81.23
-73.08
-59.89
-42.65
-22.96
-2.67
16.49
33.17
46.53
56.20
62.16
64.64
64.06
61.01
56.17
50.31
44.21
38.50
33.63
29.74
26.73
24.37
22.45
20.81
19.38
18.13
16.96
15.68
14.03
11.77
8.76
5.03
0.74
-3.88
-8.63
-13.37
-18.03
-22.60
-27.07
-31.45
-35.75
-40.03
-44.42
-48.99
-53.67
-57.98
-61.02
-61.62
-58.59
-51.15
-39.27
-23.70
-5.90
12.41
29.58
44.33
55.88
63.83
68.11
68.84
66.40
61.37
54.62
47.13
39.89
33.63
28.67
24.96
22.13
19.77
17.62
15.62
13.87
12.40
11.07
9.48
7.18
3.81
-0.71
-6.10
-11.91
-17.67
-23.07
-28.06
-32.83
-37.72
-43.10
-49.23
-56.11
-63.32
-69.94
-74.64
-75.98
-72.76
-64.45
-51.43
-34.91
-16.62
1.70
18.61
33.20
45.00
53.77
59.37
61.72
60.94
57.48
52.10
45.81
39.56
34.04
29.52
25.88
22.82
20.06
17.49
15.18
13.23
11.66
10.34
8.91
6.95
4.12
0.23
-4.65
-10.24
-16.10
-21.79
-27.00
-31.64
-35.88
-40.14
-44.93
-50.64
-57.34
-64.56
-71.31
-76.22
-77.83
-74.94
-67.02
-54.30
-37.82
-19.12
0.07
18.18
34.02
46.81
56.17
61.94
64.22
63.31
59.73
54.26
47.79
41.18
35.08
29.84
25.55
22.10
19.35
17.17
15.51
14.25
13.20
12.01
10.27
7.66
4.01
-0.56
-5.74
-11.12
-16.35
-21.27
-25.89
-30.42
-35.18
-40.48
-46.53
-53.34
-60.57
-67.49
-72.98
-75.71
-74.46
-68.46
-57.73
-43.05
-25.80
-7.65
9.86
25.52
38.48
48.24
54.53
57.29
56.74
53.37
47.95
41.41
34.63
28.33
22.98
18.75
15.60
13.32
11.66
10.39
9.36
8.41
7.38
6.01
4.00
1.14
-2.60
-7.00
-11.68
-16.25
-20.49
-24.40
-28.22
-32.29
-36.89
-42.21
-48.08
-53.95
-58.87
-61.56
-60.74
-55.54
-45.80
-32.16
-15.98
1.10
17.52
32.09
44.02
52.84
58.32
60.41
59.29
55.46
49.65
42.79
35.81
29.46
24.27
20.48
18.08
16.94
16.72
17.02
17.32
17.10
15.96
13.71
10.46
6.53
2.33
-1.87
-5.99
-10.21
-14.81
-20.05
-26.06
-32.72
-39.58
-45.91
-50.66
-52.61
-50.67
-44.18
-33.25
-18.75
-2.22
14.59
30.06
43.00
52.67
58.75
61.19
60.21
56.31
50.28
43.10
35.71
28.86
22.97
18.17
14.41
11.61
9.62
8.25
7.20
6.03
4.33
1.80
-1.64
-5.79
-10.30
-14.83
-19.14
-23.23
-27.33
-31.81
-37.07
-43.30
-50.38
-57.64
-63.99
-68.03
-68.38
-64.09
-54.88
-41.32
-24.67
-6.56
11.33
27.60
41.26
51.77
58.91
62.74
63.51
61.63
57.69
52.34
46.28
40.13
34.39
29.38
25.28
22.11
19.78
18.14
16.96
15.93
14.71
12.97
10.41
6.92
2.58
-2.34
-7.41
-12.26
-16.68
-20.74
-24.81
-29.37
-34.91
-41.62
-49.24
-56.92
-63.35
-67.00
-66.52
-61.15
-50.97
-36.89
-20.39
-3.11
13.50
28.44
41.08
51.04
58.07
62.03
62.95
61.15
57.24
52.05
46.38
40.87
35.90
31.57
27.89
24.80
22.30
20.39
18.98
17.93
16.98
15.80
14.07
11.53
8.02
3.54
-1.67
-7.26
-12.82
-18.06
-22.83
-27.21
-31.40
-35.66
-40.23
-45.26
-50.81
-56.64
-62.20
-66.52
-68.40
-66.69
-60.67
-50.34
-36.48
-20.42
-3.70
12.25
26.40
38.08
46.91
52.70
55.39
55.14
52.35
47.72
42.09
36.32
31.09
26.76
23.37
20.78
18.78
17.18
15.88
14.81
13.83
12.74
11.31
9.36
6.77
3.58
-0.14
-4.24
-8.58
-12.97
-17.22
-21.15
-24.69
-27.92
-31.11
-34.58
-38.64
-43.38
-48.50
-53.33
-56.84
-57.86
-55.44
-49.04
-38.80
-25.46
-10.25
5.43
20.26
33.19
43.46
50.57
54.25
54.51
51.73
46.65
40.35
33.96
28.39
24.13
21.19
19.20
17.69
16.29
14.86
13.45
12.17
11.01
9.79
8.19
5.89
2.74
-1.18
-5.58
-10.12
-14.52
-18.65
-22.59
-26.50
-30.54
-34.87
-39.54
-44.56
-49.77
-54.79
-58.90
-61.15
-60.55
-56.32
-48.22
-36.64
-22.58
-7.37
7.63
21.25
32.68
41.43
47.27
50.14
50.15
47.60
43.06
37.25
31.05
25.26
20.46
16.90
14.53
13.07
12.14
11.43
10.74
9.94
8.95
7.69
6.07
3.98
1.36
-1.82
-5.51
-9.58
-13.88
-18.25
-22.55
-26.70
-30.71
-34.65
-38.68
-42.93
-47.55
-52.56
-57.84
-62.99
-67.24
-69.60
-68.96
-64.49
-55.87
-43.50
-28.37
-11.86
4.61
19.83
32.92
43.32
50.77
55.24
56.91
56.19
53.61
49.81
45.41
40.95
36.81
33.25
30.39
28.22
26.65
25.53
24.67
23.86
22.84
21.36
19.22
16.33
12.79
8.80
4.65
0.59
-3.30
-7.11
-11.01
-15.14
-19.55
-24.12
-28.65
-32.95
-36.86
-40.41
-43.75
-47.16
-50.95
-55.37
-60.40
-65.60
-70.09
-72.68
-72.14
-67.56
-58.69
-46.01
-30.64
-14.01
2.47
17.64
30.73
41.23
48.86
53.50
55.23
54.35
51.40
47.10
42.16
37.19
32.62
28.66
25.42
22.96
21.29
20.40
20.14
20.20
20.16
19.64
18.39
16.34
13.59
10.35
6.80
3.08
-0.74
-4.65
-8.64
-12.70
-16.78
-20.80
-24.66
-28.26
-31.54
-34.60
-37.67
-41.06
-45.03
-49.57
-54.30
-58.37
-60.66
-60.02
-55.61
-47.15
-35.02
-20.24
-4.16
11.79
26.37
38.65
48.02
54.20
57.10
56.89
53.97
49.04
42.99
36.78
31.28
27.07
24.30
22.80
22.14
21.83
21.53
21.07
20.46
19.75
18.93
17.86
16.27
13.91
10.62
6.44
1.62
-3.48
-8.49
-13.17
-17.46
-21.48
-25.47
-29.72
-34.44
-39.70
-45.35
-50.95
-55.76
-58.78
-58.91
-55.24
-47.36
-35.54
-20.76
-4.49
11.65
26.28
38.44
47.64
53.69
56.61
56.51
53.68
48.70
42.36
35.65
29.48
24.48
20.93
18.73
17.57
17.01
16.64
16.14
15.30
14.03
12.31
10.22
7.79
4.97
1.64
-2.32
-6.97
-12.21
-17.77
-23.34
-28.62
-33.46
-37.85
-41.89
-45.80
-49.82
-54.28
-59.43
-65.34
-71.64
-77.36
-81.07
-81.16
-76.32
-66.08
-50.98
-32.47
-12.43
7.24
25.06
40.10
51.88
60.27
65.33
67.30
66.56
63.68
59.32
54.13
48.68
43.41
38.60
34.50
31.26
28.99
27.66
27.07
26.86
26.58
25.80
24.26
21.85
18.65
14.84
10.63
6.20
1.66
-2.97
-7.73
-12.66
-17.75
-22.90
-27.93
-32.65
-36.98
-41.00
-44.98
-49.31
-54.35
-60.18
-66.54
-72.63
-77.26
-79.01
-76.62
-69.34
-57.24
-41.24
-22.89
-3.99
13.82
29.29
41.71
50.74
56.36
58.67
57.96
54.64
49.35
42.82
35.86
29.16
23.17
18.10
13.94
10.55
7.80
5.58
3.74
2.09
0.32
-1.88
-4.75
-8.31
-12.38
-16.55
-20.38
-23.46
-25.53
-26.54
-26.58
-25.84
-24.52
-22.81
-20.88
-18.91
-17.07
-15.60
-14.82
-15.12
-16.90
-20.41
-25.56
-31.75
-37.81
-42.17
-43.21
-39.68
-31.14
-18.08
-1.79
15.99
33.43
49.00
61.67
70.91
76.57
78.78
77.80
74.09
68.25
61.11
53.63
46.72
41.02
36.80
33.91
31.97
30.57
29.43
28.38
27.35
26.21
24.81
22.98
20.58
17.58
13.99
9.89
5.37
0.54
-4.40
-9.21
-13.67
-17.63
-21.13
-24.36
-27.60
-31.17
-35.31
-40.11
-45.45
-50.84
-55.42
-58.04
-57.45
-52.70
-43.48
-30.30
-14.38
2.61
19.06
33.66
45.56
54.30
59.66
61.55
60.10
55.68
49.06
41.33
33.67
27.13
22.34
19.41
18.01
17.54
17.38
17.07
16.43
15.46
14.31
13.11
11.82
10.23
8.02
4.88
0.72
-4.23
-9.50
-14.49
-18.73
-22.12
-24.89
-27.62
-30.94
-35.32
-40.96
-47.69
-54.89
-61.52
-66.12
-67.26
-64.06
-56.78
-46.93
-37.02
-29.66
-26.64
-28.38
-33.86
-41.16
-48.13
-52.85
-53.93
-50.42
-41.87
-28.47
-11.19
8.27
27.77
45.24
59.17
68.87
74.38
76.26
75.28
72.18
67.61
62.09
56.09
50.03
44.27
39.15
34.98
32.01
30.31
29.74
29.89
30.18
29.96
28.76
26.39
22.95
18.82
14.39
9.99
5.71
1.47
-2.94
-7.71
-12.89
-18.36
-23.87
-29.12
-33.87
-38.07
-41.87
-45.60
-49.70
-54.48
-59.97
-65.79
-71.02
-74.37
-74.45
-70.13
-60.91
-47.12
-29.89
-10.91
7.97
25.15
39.49
50.42
57.80
61.82
62.79
61.15
57.45
52.37
46.73
41.27
36.57
32.90
30.23
28.36
27.08
26.23
25.71
25.41
25.09
24.44
23.14
21.04
18.16
14.67
10.75
6.47
1.85
-3.17
-8.58
-14.26
-19.97
-25.43
-30.37
-34.63
-38.21
-41.30
-44.28
-47.59
-51.59
-56.31
-61.32
-65.63
-67.96
-67.01
-61.90
-52.44
-39.17
-23.28
-6.25
10.41
25.48
38.11
47.84
54.54
58.25
59.13
57.46
53.62
48.23
42.07
36.02
30.84
27.02
24.64
23.41
22.87
22.53
22.09
21.42
20.49
19.28
17.71
15.63
12.88
9.44
5.40
0.94
-3.67
-8.18
-12.42
-16.29
-19.88
-23.36
-26.92
-30.76
-34.99
-39.58
-44.39
-49.04
-52.91
-55.15
-54.71
-50.69
-42.60
-30.66
-15.86
0.32
16.21
30.43
42.04
50.57
55.82
57.80
56.63
52.67
46.63
39.45
32.23
25.90
21.03
17.80
15.94
15.05
14.64
14.30
13.76
12.87
11.57
9.86
7.72
5.10
1.90
-1.95
-6.43
-11.37
-16.48
-21.46
-26.07
-30.22
-34.04
-37.77
-41.76
-46.29
-51.56
-57.48
-63.60
-69.00
-72.40
-72.47
-68.19
-59.27
-46.27
-30.43
-13.35
3.45
18.81
31.97
42.49
50.15
54.82
56.57
55.66
52.63
48.20
43.15
38.14
33.65
29.95
27.15
25.26
24.22
23.86
23.87
23.89
23.51
22.41
20.46
17.68
14.26
10.45
6.42
2.23
-2.14
-6.76
-11.59
-16.49
-21.29
-25.78
-29.92
-33.83
-37.76
-42.01
-46.84
-52.30
-58.15
-63.82
-68.40
-70.75
-69.75
-64.57
-54.99
-41.51
-25.28
-7.86
9.13
24.33
36.84
46.23
52.49
55.85
56.68
55.41
52.52
48.52
43.96
39.38
35.22
31.76
29.12
27.21
25.89
24.96
24.22
23.48
22.53
21.16
19.21
16.61
13.34
9.48
5.14
0.44
-4.48
-9.50
-14.51
-19.40
-24.08
-28.50
-32.63
-36.51
-40.24
-44.01
-48.08
-52.66
-57.87
-63.50
-68.93
-73.08
-74.60
-72.28
-65.36
-53.99
-39.16
-22.45
-5.57
10.07
23.62
34.70
43.18
48.99
52.06
52.42
50.35
46.42
41.42
36.16
31.31
27.26
24.19
22.08
20.77
20.01
19.53
19.04
18.36
17.37
16.08
14.50
12.59
10.22
7.24
3.56
-0.75
-5.43
-10.16
-14.63
-18.70
-22.41
-25.91
-29.39
-33.03
-36.93
-41.15
-45.66
-50.23
-54.31
-57.05
-57.37
-54.30
-47.32
-36.54
-22.78
-7.35
8.31
22.89
35.44
45.30
52.09
55.62
55.88
53.19
48.23
42.02
35.75
30.44
26.69
24.47
23.35
22.64
21.85
20.80
19.57
18.36
17.17
15.78
13.77
10.80
6.75
1.85
-3.48
-8.79
-13.74
-18.24
-22.42
-26.51
-30.76
-35.38
-40.46
-45.94
-51.50
-56.59
-60.31
-61.70
-59.81
-54.06
-44.43
-31.54
-16.52
-0.78
14.36
27.82
38.91
47.19
52.43
54.58
53.80
50.52
45.51
39.73
34.12
29.37
25.77
23.23
21.41
19.96
18.68
17.53
16.55
15.68
14.69
13.18
10.78
7.29
2.84
-2.22
-7.39
-12.31
-16.91
-21.37
-26.07
-31.37
-37.47
-44.31
-51.55
-58.50
-64.20
-67.47
-67.17
-62.55
-53.49
-40.65
-25.32
-9.05
6.71
20.87
32.68
41.74
47.76
50.62
50.43
47.61
42.92
37.32
31.73
26.82
22.93
20.06
17.99
16.53
15.51
14.82
14.37
13.91
13.11
11.52
8.81
4.90
0.01
-5.42
-10.90
-16.10
-20.99
-25.80
-30.91
-36.68
-43.29
-50.57
-57.99
-64.57
-69.04
-70.07
-66.63
-58.29
-45.44
-29.24
-11.28
6.74
23.43
37.83
49.40
57.90
63.28
65.62
65.12
62.19
57.40
51.51
45.31
39.46
34.38
30.22
26.87
24.13
21.82
19.83
18.12
16.64
15.19
13.44
10.97
7.45
2.79
-2.83
-8.97
-15.09
-20.78
-25.85
-30.44
-34.90
-39.73
-45.32
-51.89
-59.30
-67.02
-74.07
-79.14
-80.80
-77.82
-69.60
-56.40
-39.34
-20.13
-0.65
17.54
33.43
46.55
56.82
64.29
68.99
70.94
70.25
67.24
62.50
56.79
50.89
45.46
40.86
37.21
34.37
32.11
30.20
28.44
26.71
24.85
22.72
20.15
17.04
13.35
9.10
4.38
-0.74
-6.15
-11.69
-17.18
-22.43
-27.34
-31.96
-36.53
-41.39
-46.84
-53.05
-59.88
-66.85
-73.12
-77.57
-78.92
-76.07
-68.39
-56.02
-39.89
-21.57
-2.88
14.61
29.79
42.13
51.52
58.05
61.85
63.04
61.83
58.59
53.87
48.43
43.00
38.21
34.46
31.81
30.07
28.88
27.83
26.61
25.06
23.14
20.87
18.26
15.23
11.68
7.53
2.81
-2.37
-7.82
-13.30
-18.67
-23.84
-28.82
-33.74
-38.75
-44.07
-49.86
-56.16
-62.76
-69.08
-74.11
-76.60
-75.34
-69.48
-58.93
-44.44
-27.43
-9.60
7.49
22.69
35.40
45.39
52.63
57.14
58.99
58.33
55.54
51.19
46.06
40.91
36.35
32.75
30.15
28.34
26.99
25.76
24.46
22.99
21.37
19.54
17.35
14.51
10.77
6.06
0.53
-5.40
-11.21
-16.50
-21.15
-25.33
-29.43
-33.90
-39.09
-45.12
-51.84
-58.76
-65.07
-69.68
-71.43
-69.33
-62.88
-52.20
-38.12
-21.94
-5.16
10.84
24.98
36.54
45.06
50.34
52.40
51.51
48.23
43.33
37.63
31.86
26.48
21.66
17.40
13.63
10.34
7.54
5.22
3.26
1.39
-0.75
-3.45
-6.86
-10.94
-15.51
-20.33
-25.22
-30.09
-34.92
-39.80
-44.81
-50.05
-55.50
-60.88
-65.61
-68.75
-69.20
-66.00
-58.61
-47.18
-32.52
-15.94
1.07
17.10
31.02
42.06
49.81
54.18
55.32
53.64
49.78
44.50
38.67
33.08
28.36
24.83
22.45
20.89
19.75
18.62
17.29
15.72
13.92
11.92
9.64
6.98
3.86
0.30
-3.60
-7.72
-12.00
-16.51
-21.37
-26.62
-32.06
-37.08
-40.72
-41.81
-39.31
-32.67
-22.06
-8.42
6.79
21.92
35.52
46.57
54.51
59.15
60.54
58.90
54.66
48.45
41.12
33.61
26.76
21.13
16.89
13.84
11.53
9.47
7.23
4.60
1.50
-1.98
-5.78
-9.87
-14.27
-19.07
-24.32
-30.07
-36.35
-43.18
-50.50
-58.11
-65.50
-71.81
-75.85
-76.35
-72.28
-63.23
-49.59
-32.53
-13.76
4.91
21.93
36.22
47.20
54.67
58.66
59.37
57.19
52.67
46.53
39.53
32.39
25.66
19.71
14.75
10.90
8.14
6.30
5.08
4.00
2.59
0.48
-2.54
-6.45
-11.07
-16.13
-21.41
-26.80
-32.33
-38.21
-44.72
-52.01
-59.88
-67.60
-73.93
-77.25
-76.09
-69.55
-57.64
-41.35
-22.38
-2.60
16.29
33.11
47.16
58.11
65.77
70.07
71.12
69.24
65.01
59.27
52.85
46.49
40.64
35.52
31.14
27.44
24.36
21.87
19.95
18.49
17.21
15.70
13.45
10.01
5.19
-0.84
-7.58
-14.40
-20.74
-26.36
-31.43
-36.38
-41.77
-48.00
-55.22
-63.25
-71.48
-78.87
-83.99
-85.26
-81.35
-71.64
-56.55
-37.44
-16.33
4.72
24.04
40.61
53.96
63.97
70.61
73.97
74.22
71.80
67.35
61.64
55.47
49.49
44.11
39.53
35.73
32.61
30.02
27.82
25.93
24.26
22.67
20.99
18.98
16.35
12.87
8.38
2.88
-3.47
-10.39
-17.46
-24.28
-30.53
-36.10
-41.08
-45.81
-50.69
-56.10
-62.23
-69.02
-76.02
-82.38
-86.84
-87.96
-84.42
-75.43
-61.03
-42.27
-20.94
0.84
21.14
38.55
52.31
62.15
68.08
70.26
68.98
64.75
58.38
50.90
43.41
36.80
31.56
27.72
25.01
22.99
21.30
19.73
18.24
16.85
15.55
14.23
12.67
10.59
7.79
4.21
0.02
-4.52
-9.08
-13.43
-17.46
-21.17
-24.72
-28.32
-32.23
-36.74
-42.00
-47.86
-53.75
-58.61
-61.04
-59.68
-53.62
-42.67
-27.51
-9.48
9.73
28.41
45.13
58.84
68.82
74.66
76.25
73.82
67.99
59.76
50.43
41.26
33.28
27.05
22.60
19.54
17.36
15.58
13.91
12.25
10.58
8.82
6.78
4.19
0.76
-3.65
-9.02
-15.05
-21.36
-27.50
-33.15
-38.15
-42.62
-46.90
-51.45
-56.72
-62.94
-69.91
-76.84
-82.44
-85.13
-83.42
-76.37
-63.92
-46.91
-26.90
-5.78
14.61
32.84
47.91
59.26
66.70
70.31
70.44
67.67
62.77
56.56
49.87
43.37
37.56
32.74
29.04
26.40
24.61
23.35
22.21
20.87
19.14
16.97
14.40
11.43
8.01
3.99
-0.76
-6.20
-12.11
-18.14
-23.88
-29.11
-33.80
-38.10
-42.30
-46.69
-51.54
-57.03
-63.24
-70.00
-76.76
-82.47
-85.65
-84.71
-78.41
-66.33
-49.09
-28.26
-5.94
15.74
35.06
50.95
62.89
70.82
74.90
75.49
73.08
68.37
62.18
55.39
48.73
42.78
37.84
34.01
31.24
29.36
28.16
27.35
26.64
25.70
24.25
22.04
18.99
15.14
10.68
5.89
1.02
-3.74
-8.40
-13.07
-17.93
-23.12
-28.59
-34.18
-39.61
-44.64
-49.19
-53.41
-57.68
-62.44
-68.00
-74.27
-80.63
-85.89
-88.49
-86.86
-79.89
-67.32
-49.90
-29.18
-7.17
14.15
33.20
48.97
60.90
68.73
72.42
72.10
68.19
61.52
53.22
44.59
36.82
30.72
26.61
24.33
23.38
23.17
23.17
23.06
22.69
22.08
21.20
19.93
18.07
15.38
11.70
7.08
1.80
-3.74
-9.14
-14.15
-18.70
-22.89
-26.94
-31.05
-35.44
-40.30
-45.71
-51.52
-57.16
-61.63
-63.60
-61.73
-55.08
-43.50
-27.70
-9.17
10.20
28.57
44.42
56.73
64.96
68.96
68.91
65.30
58.94
50.89
42.35
34.38
27.77
22.89
19.62
17.56
16.18
15.06
13.97
12.88
11.85
10.80
9.51
7.60
4.71
0.65
-4.51
-10.46
-16.70
-22.81
-28.48
-33.61
-38.33
-42.96
-47.96
-53.78
-60.71
-68.56
-76.52
-83.17
-86.74
-85.56
-78.59
-65.75
-48.02
-27.12
-5.13
16.00
34.75
50.14
61.63
69.03
72.43
72.15
68.74
62.95
55.69
47.94
40.62
34.43
29.73
26.55
24.55
23.29
22.34
21.45
20.48
19.37
17.95
15.98
13.15
9.28
4.36
-1.36
-7.48
-13.58
-19.36
-24.71
-29.70
-34.55
-39.57
-45.05
-51.22
-58.16
-65.61
-72.91
-78.92
-82.24
-81.41
-75.43
-64.00
-47.79
-28.26
-7.33
13.09
31.48
46.87
58.76
66.99
71.56
72.63
70.58
66.02
59.85
53.07
46.56
40.99
36.61
33.37
31.05
29.40
28.22
27.37
26.70
25.96
24.85
23.10
20.53
17.15
13.11
8.60
3.77
-1.31
-6.64
-12.19
-17.84
-23.43
-28.78
-33.81
-38.61
-43.43
-48.55
-54.25
-60.63
-67.48
-74.21
-79.77
-82.80
-81.89
-75.95
-64.62
-48.47
-28.93
-7.93
12.53
30.88
46.09
57.70
65.66
70.07
71.12
69.17
64.79
58.82
52.19
45.82
40.33
35.97
32.71
30.35
28.69
27.63
27.05
26.78
26.45
25.59
23.81
20.92
17.03
12.47
7.64
2.82
-1.95
-6.77
-11.80
-17.13
-22.69
-28.26
-33.57
-38.39
-42.62
-46.40
-50.01
-53.90
-58.45
-63.85
-69.87
-75.72
-80.09
-81.41
-78.21
-69.66
-55.85
-37.86
-17.53
3.08
22.14
38.40
51.21
60.36
65.91
67.99
66.86
63.01
57.18
50.39
43.71
38.02
33.84
31.23
29.89
29.37
29.21
29.09
28.83
28.30
27.40
25.98
23.87
20.96
17.23
12.78
7.82
2.62
-2.55
-7.51
-12.16
-16.56
-20.86
-25.26
-30.02
-35.30
-41.13
-47.25
-53.03
-57.50
-59.50
-57.94
-52.15
-42.08
-28.42
-12.38
4.52
20.84
35.38
47.28
56.01
61.24
62.86
61.00
56.11
49.03
40.92
33.07
26.56
22.05
19.58
18.63
18.39
18.08
17.19
15.60
13.48
11.09
8.59
6.00
3.16
-0.10
-3.91
-8.29
-13.17
-18.39
-23.76
-29.08
-34.16
-38.89
-43.31
-47.64
-52.23
-57.46
-63.52
-70.20
-76.75
-81.89
-84.05
-81.83
-74.39
-61.75
-44.84
-25.29
-5.03
14.16
30.93
44.53
54.69
61.50
65.16
65.97
64.24
60.43
55.17
49.23
43.43
38.45
34.66
32.08
30.48
29.45
28.62
27.70
26.48
24.85
22.70
20.02
16.79
13.08
8.98
4.62
0.06
-4.66
-9.54
-14.51
-19.50
-24.39
-29.12
-33.67
-38.17
-42.83
-47.89
-53.51
-59.62
-65.71
-70.91
-74.01
-73.76
-69.23
-60.12
-46.86
-30.55
-12.65
5.32
22.07
36.63
48.34
56.84
61.97
63.85
62.81
59.48
54.65
49.16
43.79
39.11
35.42
32.71
30.81
29.42
28.30
27.32
26.46
25.70
24.93
23.86
22.13
19.43
15.70
11.12
6.07
0.99
-3.85
-8.38
-12.75
-17.22
-21.96
-27.02
-32.30
-37.56
-42.55
-47.02
-50.88
-54.15
-57.05
-59.95
-63.34
-67.63
-73.02
-79.23
-85.44
-90.31
-92.19
-89.65
-81.85
-68.90
-51.83
-32.34
-12.32
6.53
22.99
36.39
46.41
53.04
56.37
56.65
54.26
49.83
44.16
38.16
32.71
28.50
25.88
24.85
25.09
26.16
27.66
29.34
31.09
32.86
34.52
35.79
36.26
35.55
33.49
30.14
25.86
21.10
16.22
11.40
6.65
1.82
-3.19
-8.47
-14.02
-19.87
-26.04
-32.53
-39.18
-45.55
-50.86
-54.02
-53.90
-49.68
-41.14
-28.82
-13.92
1.91
17.05
30.21
40.52
47.59
51.30
51.72
49.08
43.83
36.70
28.69
20.84
14.00
8.60
4.59
1.52
-1.17
-3.96
-7.14
-10.82
-15.01
-19.75
-25.13
-31.25
-38.19
-45.95
-54.45
-63.48
-72.79
-82.09
-91.07
-99.52
-107.31
-114.42
-120.91
-126.79
-132.03
-136.37
-139.31
-140.11
-137.75
-131.12
-119.36
-102.13
-79.86
-53.79
-25.65
2.65
29.41
53.39
73.79
90.14
102.26
110.10
113.89
114.06
111.32
106.50
100.46
93.95
87.54
81.62
76.41
72.04
68.49
65.65
63.25
60.94
58.35
55.20
51.36
46.88
41.97
36.91
31.92
27.15
22.66
18.43
14.42
10.63
7.12
3.99
1.31
-0.90
-2.76
-4.51
-6.47
-8.94
-12.05
-15.65
-19.16
-21.60
-21.74
-18.38
-10.80
1.04
16.32
33.60
51.13
67.30
80.89
91.14
97.70
100.43
99.34
94.60
86.63
76.15
64.15
51.74
39.97
29.58
20.94
14.05
8.65
4.40
1.01
-1.70
-3.86
-5.57
-6.96
-8.20
-9.44
-10.72
-12.01
-13.25
-14.39
-15.55
-16.86
-18.44
-20.32
-22.44
-24.69
-27.06
-29.60
-32.36
-35.30
-38.21
-40.86
-43.07
-44.88
-46.58
-48.63
-51.46
-55.34
-60.29
-66.02
-71.91
-76.98
-80.00
-79.71
-75.09
-65.75
-52.12
-35.37
-17.17
0.77
17.05
30.80
41.62
49.46
54.51
57.04
57.46
56.27
53.99
51.14
48.11
45.17
42.42
39.96
37.91
36.41
35.58
35.43
35.84
36.50
37.01
36.94
35.99
34.01
31.05
27.31
23.11
18.74
14.35
10.00
5.59
1.00
-3.79
-8.69
-13.50
-18.02
-22.17
-26.02
-29.80
-33.80
-38.29
-43.42
-49.18
-55.29
-61.11
-65.64
-67.67
-66.09
-60.24
-50.23
-36.92
-21.78
-6.40
7.87
20.14
29.93
37.09
41.56
43.35
42.61
39.68
35.19
29.99
25.01
20.99
18.35
17.05
16.73
16.87
17.00
16.84
16.36
15.63
14.71
13.52
11.83
9.45
6.28
2.45
-1.71
-5.85
-9.70
-13.20
-16.46
-19.67
-23.02
-26.65
-30.66
-35.11
-40.01
-45.22
-50.24
-54.27
-56.20
-54.98
-49.85
-40.65
-27.89
-12.61
3.87
20.21
35.26
48.12
58.16
65.05
68.74
69.56
68.13
65.29
61.94
58.85
56.49
54.99
54.17
53.56
52.59
50.63
47.14
41.78
34.40
25.11
14.19
2.09
-10.70
-23.64
-36.20
-47.89
-58.25
-66.91
-73.67
-78.45
-81.40
-82.81
-83.08
-82.66
-81.93
-81.20
-80.76
-80.88
-81.70
-83.09
-84.43
-84.59
-82.15
-75.83
-64.94
-49.72
-31.24
-11.12
8.97
27.70
44.22
58.07
69.06
77.13
82.35
84.92
85.22
83.79
81.16
77.77
73.85
69.43
64.39
58.70
52.46
46.03
39.92
34.60
30.38
27.31
25.18
23.69
22.57
21.73
21.16
20.95
21.15
21.74
22.64
23.75
24.97
26.26
27.61
29.06
30.68
32.59
34.87
37.55
40.58
43.71
46.52
48.39
48.57
46.38
41.40
33.66
23.78
12.85
2.22
-6.80
-13.27
-16.77
-17.47
-15.96
-13.08
-9.75
-6.81
-4.97
-4.69
-6.13
-9.16
-13.32
-17.92
-22.16
-25.33
-26.89
-26.63
-24.62
-21.20
-16.90
-12.30
-7.95
-4.20
-1.14
1.31
3.28
4.75
5.44
4.97
2.99
-0.54
-5.38
-11.12
-17.51
-24.58
-32.59
-41.81
-52.15
-63.06
-73.67
-83.09
-90.76
-96.62
-100.95
-104.25
-107.00
-109.59
-112.27
-115.16
-118.05
-120.37
-121.04
-118.77
-112.37
-101.24
-85.66
-66.80
-46.39
-26.29
-8.08
7.25
19.25
27.93
33.54
36.43
37.05
35.93
33.74
31.23
29.10
27.81
27.51
27.98
28.86
29.75
30.41
30.76
30.82
30.58
29.92
28.65
26.60
23.74
20.17
16.08
11.70
7.17
2.59
-1.97
-6.39
-10.53
-14.27
-17.59
-20.68
-23.97
-28.06
-33.51
-40.67
-49.46
-59.22
-68.71
-76.30
-80.29
-79.33
-72.85
-61.18
-45.51
-27.57
-9.17
8.13
23.22
35.40
44.27
49.69
51.81
51.12
48.43
44.72
40.97
37.84
35.64
34.35
33.78
33.72
34.06
34.70
35.54
36.38
36.96
37.02
36.37
34.95
32.77
29.89
26.34
22.14
17.32
11.99
6.32
0.55
-5.09
-10.42
-15.34
-19.93
-24.37
-28.98
-34.10
-40.04
-46.85
-54.15
-61.12
-66.53
-69.05
-67.60
-61.59
-51.23
-37.36
-21.32
-4.61
11.42
25.78
37.88
47.48
54.54
59.13
61.34
61.36
59.48
56.24
52.26
48.18
44.47
41.36
38.82
36.74
35.03
33.67
32.71
32.12
31.69
31.05
29.75
27.45
24.10
19.89
15.22
10.49
5.94
1.61
-2.61
-6.88
-11.29
-15.79
-20.27
-24.61
-28.78
-32.87
-37.13
-41.85
-47.25
-53.43
-60.10
-66.60
-71.84
-74.55
-73.53
-68.05
-58.08
-44.34
-28.09
-10.90
5.79
20.85
33.63
43.81
51.33
56.24
58.62
58.70
56.83
53.57
49.60
45.59
42.02
39.17
37.04
35.51
34.40
33.57
32.91
32.28
31.49
30.30
28.49
25.94
22.70
18.98
15.05
11.16
7.43
3.84
0.25
-3.55
-7.66
-12.09
-16.67
-21.17
-25.36
-29.13
-32.59
-36.01
-39.84
-44.45
-50.03
-56.41
-62.92
-68.46
-71.72
-71.43
-66.72
-57.39
-44.04
-27.88
-10.50
6.55
22.04
35.18
45.56
53.05
57.64
59.42
58.66
55.82
51.59
46.80
42.25
38.48
35.78
34.11
33.24
32.85
32.63
32.34
31.78
30.79
29.24
27.04
24.24
20.96
17.38
13.64
9.79
5.77
1.49
-3.10
-7.91
-12.76
-17.42
-21.75
-25.68
-29.32
-32.86
-36.56
-40.72
-45.54
-51.00
-56.71
-61.78
-64.96
-64.93
-60.72
-52.03
-39.40
-24.09
-7.72
8.12
22.11
33.41
41.54
46.32
47.81
46.30
42.36
36.84
30.78
25.15
20.65
17.56
15.75
14.82
14.31
13.94
13.63
13.39
13.26
13.11
12.67
11.60
9.60
6.59
2.66
-1.87
-6.67
-11.42
-15.96
-20.30
-24.58
-29.03
-33.82
-39.03
-44.59
-50.17
-55.19
-58.78
-59.95
-57.75
-51.63
-41.63
-28.47
-13.37
2.20
16.94
29.84
40.24
47.73
52.07
53.26
51.57
47.62
42.30
36.56
31.25
26.86
23.55
21.20
19.56
18.37
17.41
16.52
15.58
14.48
13.11
11.37
9.10
6.15
2.45
-1.92
-6.73
-11.59
-16.16
-20.27
-23.98
-27.63
-31.65
-36.46
-42.25
-48.85
-55.63
-61.59
-65.48
-66.08
-62.54
-54.63
-42.83
-28.26
-12.32
3.57
18.34
31.29
42.02
50.30
56.00
59.04
59.52
57.81
54.52
50.44
46.27
42.51
39.35
36.73
34.47
32.41
30.50
28.74
27.15
25.66
24.06
22.11
19.57
16.34
12.44
8.03
3.33
-1.44
-6.12
-10.60
-14.83
-18.84
-22.67
-26.41
-30.26
-34.41
-39.11
-44.49
-50.40
-56.35
-61.43
-64.46
-64.24
-59.96
-51.44
-39.26
-24.61
-8.93
6.42
20.42
32.47
42.28
49.74
54.84
57.58
58.10
56.70
53.81
49.97
45.75
41.62
37.94
34.88
32.52
30.80
29.59
28.72
28.01
27.27
26.27
24.84
22.83
20.21
17.10
13.70
10.19
6.68
3.12
-0.64
-4.72
-9.08
-13.56
-17.90
-21.86
-25.40
-28.65
-31.91
-35.52
-39.72
-44.60
-49.98
-55.41
-60.09
-63.05
-63.27
-59.94
-52.80
-42.18
-29.01
-14.52
-0.02
13.41
25.02
34.42
41.46
46.14
48.58
48.98
47.58
44.75
40.98
36.83
32.90
29.62
27.23
25.64
24.57
23.62
22.47
20.98
19.18
17.15
14.98
12.68
10.19
7.44
4.40
1.11
-2.41
-6.06
-9.76
-13.41
-16.92
-20.23
-23.38
-26.48
-29.70
-33.23
-37.20
-41.62
-46.27
-50.67
-54.05
-55.48
-54.10
-49.36
-41.29
-30.49
-18.06
-5.24
6.80
17.24
25.54
31.40
34.74
35.59
34.22
31.09
26.88
22.36
18.17
14.77
12.30
10.70
9.78
9.31
9.04
8.76
8.26
7.39
6.04
4.20
1.94
-0.64
-3.44
-6.39
-9.47
-12.68
-16.03
-19.47
-22.92
-26.31
-29.63
-32.90
-36.24
-39.78
-43.64
-47.94
-52.69
-57.72
-62.64
-66.71
-68.96
-68.43
-64.40
-56.67
-45.69
-32.38
-17.97
-3.59
9.84
21.73
31.73
39.61
45.24
48.55
49.64
48.82
46.61
43.60
40.38
37.36
34.70
32.41
30.39
28.63
27.12
25.93
25.02
24.25
23.33
21.97
19.94
17.19
13.87
10.21
6.47
2.83
-0.68
-4.12
-7.60
-11.17
-14.84
-18.53
-22.16
-25.68
-29.14
-32.63
-36.27
-40.21
-44.58
-49.45
-54.71
-59.96
-64.42
-67.02
-66.63
-62.45
-54.27
-42.66
-28.78
-14.09
0.10
12.85
23.73
32.70
39.85
45.20
48.71
50.25
49.87
47.82
44.66
41.06
37.60
34.67
32.35
30.58
29.26
28.37
27.95
28.02
28.36
28.58
28.17
26.79
24.36
21.16
17.65
14.21
10.97
7.80
4.39
0.48
-3.94
-8.67
-13.38
-17.75
-21.66
-25.15
-28.41
-31.70
-35.32
-39.52
-44.48
-50.13
-56.00
-61.24
-64.65
-65.05
-61.59
-54.11
-43.14
-29.83
-15.55
-1.56
11.21
22.16
30.98
37.43
41.34
42.64
41.49
38.35
33.99
29.27
24.95
21.45
18.91
17.18
16.00
15.16
14.47
13.82
13.10
12.19
10.93
9.19
6.82
3.76
0.04
-4.13
-8.47
-12.68
-16.58
-20.20
-23.76
-27.55
-31.82
-36.67
-42.06
-47.82
-53.65
-59.08
-63.34
-65.51
-64.65
-60.09
-51.73
-40.09
-26.19
-11.28
3.42
16.92
28.50
37.64
43.92
47.15
47.37
44.96
40.65
35.39
30.08
25.47
21.92
19.45
17.80
16.63
15.61
14.54
13.34
11.96
10.41
8.59
6.38
3.63
0.24
-3.81
-8.38
-13.25
-18.19
-23.00
-27.62
-32.10
-36.61
-41.41
-46.77
-52.90
-59.77
-66.95
-73.59
-78.44
-80.13
-77.51
-70.03
-57.97
-42.36
-24.72
-6.66
10.47
25.70
38.49
48.59
55.88
60.35
62.09
61.42
58.85
55.07
50.78
46.58
42.79
39.52
36.74
34.36
32.32
30.59
29.10
27.75
26.36
24.71
22.62
19.94
16.58
12.52
7.80
2.52
-3.06
-8.66
-14.01
-18.98
-23.61
-28.15
-32.94
-38.32
-44.51
-51.45
-58.67
-65.26
-69.94
-71.34
-68.37
-60.56
-48.22
-32.40
-14.64
3.48
20.59
35.72
48.30
58.00
64.70
68.36
69.13
67.36
63.64
58.73
53.44
48.41
44.06
40.54
37.79
35.70
34.14
33.01
32.14
31.32
30.30
28.83
26.75
23.97
20.44
16.15
11.14
5.50
-0.52
-6.64
-12.55
-18.03
-23.08
-27.85
-32.64
-37.82
-43.63
-50.11
-56.90
-63.23
-67.95
-69.77
-67.58
-60.80
-49.59
-34.88
-18.10
-0.83
15.54
29.97
41.80
50.60
56.16
58.43
57.63
54.31
49.32
43.60
38.00
33.07
29.01
25.77
23.16
21.07
19.38
18.04
16.95
15.92
14.68
12.93
10.44
7.06
2.88
-1.90
-6.92
-11.86
-16.50
-20.84
-25.03
-29.37
-34.17
-39.65
-45.76
-52.17
-58.11
-62.50
-64.10
-61.82
-55.08
-44.00
-29.46
-12.90
4.09
20.10
34.04
45.22
53.23
57.87
59.12
57.25
52.85
46.81
40.15
33.84
28.52
24.44
21.47
19.27
17.49
15.90
14.45
13.14
11.95
10.73
9.20
7.04
3.99
-0.00
-4.78
-9.98
-15.22
-20.18
-24.73
-28.97
-33.20
-37.76
-43.00
-49.08
-55.90
-62.99
-69.51
-74.29
-76.01
-73.54
-66.24
-54.29
-38.68
-20.97
-2.88
14.12
29.04
41.37
50.91
57.61
61.45
62.49
60.97
57.40
52.50
47.09
41.88
37.38
33.78
31.00
28.80
26.93
25.22
23.65
22.26
21.07
19.93
18.53
16.45
13.32
9.01
3.69
-2.19
-8.06
-13.43
-18.07
-22.05
-25.69
-29.46
-33.81
-39.07
-45.36
-52.49
-59.89
-66.58
-71.29
-72.70
-69.74
-61.99
-49.83
-34.37
-17.18
0.14
16.28
30.35
41.92
50.78
56.91
60.32
61.15
59.69
56.44
52.05
47.21
42.57
38.56
35.39
33.03
31.29
29.91
28.62
27.24
25.68
23.89
21.90
19.69
17.22
14.39
11.09
7.25
2.87
-1.93
-6.94
-11.92
-16.67
-21.12
-25.33
-29.50
-33.92
-38.84
-44.43
-50.63
-57.05
-62.92
-67.16
-68.55
-66.07
-59.15
-47.95
-33.36
-16.79
0.14
15.93
29.50
40.18
47.70
52.06
53.48
52.36
49.25
44.82
39.75
34.64
29.90
25.76
22.30
19.50
17.27
15.50
14.11
12.99
12.00
10.99
9.73
7.96
5.46
2.15
-1.89
-6.37
-10.94
-15.28
-19.29
-23.04
-26.79
-30.82
-35.36
-40.49
-46.10
-51.83
-57.04
-60.80
-62.06
-59.87
-53.68
-43.59
-30.39
-15.34
0.08
14.57
27.15
37.17
44.27
48.27
49.18
47.22
42.96
37.24
31.01
25.16
20.31
16.73
14.40
13.11
12.57
12.49
12.53
12.38
11.67
10.09
7.46
3.81
-0.63
-5.52
-10.48
-15.27
-19.82
-24.26
-28.91
-34.09
-40.06
-46.80
-53.90
-60.50
-65.44
-67.45
-65.54
-59.26
-48.87
-35.27
-19.78
-3.80
11.40
24.86
35.91
44.11
49.22
51.23
50.39
47.20
42.37
36.68
30.86
25.42
20.73
16.91
13.92
11.66
9.92
8.49
7.15
5.67
3.82
1.40
-1.71
-5.54
-9.96
-14.76
-19.69
-24.57
-29.39
-34.33
-39.71
-45.81
-52.76
-60.28
-67.63
-73.58
-76.73
-75.77
-69.95
-59.29
-44.65
-27.47
-9.40
8.15
24.12
37.84
48.90
56.99
61.89
63.60
62.42
58.98
54.14
48.82
43.72
39.26
35.54
32.45
29.80
27.46
25.38
23.52
21.86
20.25
18.46
16.19
13.16
9.21
4.37
-1.11
-6.88
-12.58
-17.94
-22.93
-27.70
-32.58
-37.94
-44.07
-51.00
-58.40
-65.49
-71.17
-74.17
-73.37
-68.05
-58.16
-44.30
-27.63
-9.64
8.21
24.67
38.87
50.31
58.74
64.13
66.57
66.30
63.71
59.41
54.13
48.67
43.70
39.68
36.75
34.76
33.41
32.35
31.29
30.10
28.69
27.02
24.99
22.41
19.11
14.96
10.06
4.64
-0.92
-6.27
-11.21
-15.76
-20.09
-24.41
-28.93
-33.75
-38.98
-44.69
-50.89
-57.33
-63.34
-67.87
-69.60
-67.36
-60.55
-49.34
-34.73
-18.18
-1.25
14.81
29.13
41.24
50.79
57.52
61.19
61.75
59.49
55.04
49.28
43.15
37.35
32.35
28.30
25.22
22.98
21.48
20.52
19.86
19.17
18.13
16.47
14.06
10.93
7.23
3.16
-1.07
-5.30
-9.44
-13.50
-17.56
-21.81
-26.44
-31.62
-37.38
-43.54
-49.59
-54.75
-58.02
-58.38
-55.08
-47.84
-37.00
-23.41
-8.28
7.06
21.44
33.88
43.66
50.31
53.62
53.69
50.98
46.23
40.42
34.48
29.14
24.78
21.44
18.91
16.86
15.04
13.28
11.52
9.78
8.01
6.12
3.92
1.17
-2.30
-6.50
-11.23
-16.17
-21.02
-25.61
-30.03
-34.57
-39.59
-45.30
-51.61
-58.00
-63.60
-67.28
-67.95
-64.77
-57.42
-46.16
-31.87
-15.85
0.48
15.83
29.30
40.32
48.61
54.03
56.51
56.12
53.19
48.36
42.50
36.53
31.21
26.97
23.83
21.59
19.90
18.50
17.19
15.86
14.41
12.73
10.65
8.04
4.81
0.99
-3.32
-7.92
-12.58
-17.05
-21.17
-24.85
-28.20
-31.44
-34.91
-38.95
-43.75
-49.30
-55.23
-60.82
-65.09
-66.92
-65.35
-59.78
-50.24
-37.38
-22.33
-6.48
8.87
22.72
34.45
43.71
50.36
54.31
55.61
54.46
51.34
46.91
41.92
37.05
32.73
29.19
26.44
24.38
22.85
21.69
20.68
19.63
18.34
16.72
14.74
12.41
9.78
6.88
3.66
0.11
-3.80
-8.04
-12.54
-17.20
-21.89
-26.43
-30.68
-34.53
-37.99
-41.25
-44.63
-48.44
-52.80
-57.41
-61.51
-63.96
-63.58
-59.53
-51.56
-40.19
-26.47
-11.72
2.83
16.26
27.95
37.53
44.75
49.47
51.66
51.54
49.57
46.37
42.55
38.63
34.91
31.58
28.71
26.42
24.75
23.66
22.97
22.38
21.57
20.27
18.37
15.88
12.90
9.56
5.93
2.09
-1.89
-5.98
-10.09
-14.22
-18.32
-22.37
-26.33
-30.21
-34.02
-37.88
-41.94
-46.35
-51.05
-55.71
-59.62
-61.81
-61.31
-57.41
-49.94
-39.35
-26.58
-12.79
0.91
13.67
24.89
34.12
40.94
45.02
46.16
44.55
40.76
35.71
30.41
25.64
21.82
18.95
16.82
15.18
13.89
12.87
12.07
11.33
10.37
8.89
6.66
3.63
-0.03
-3.99
-7.91
-11.54
-14.80
-17.79
-20.74
-23.90
-27.45
-31.49
-36.04
-41.07
-46.38
-51.52
-55.73
-58.01
-57.32
-52.99
-44.92
-33.70
-20.43
-6.38
7.28
19.69
30.21
38.38
43.81
46.24
45.74
42.74
38.08
32.77
27.73
23.52
20.34
18.07
16.47
15.32
14.47
13.76
12.99
11.87
10.06
7.35
3.68
-0.76
-5.64
-10.55
-15.25
-19.66
-23.92
-28.29
-33.07
-38.47
-44.61
-51.37
-58.37
-64.91
-69.99
-72.42
-71.11
-65.41
-55.34
-41.69
-25.76
-9.07
7.04
21.58
33.91
43.68
50.63
54.57
55.52
53.73
49.84
44.73
39.36
34.59
30.91
28.45
26.96
26.03
25.19
24.13
22.73
21.03
19.13
17.07
14.75
11.94
8.43
4.12
-0.90
-6.39
-12.00
-17.44
-22.56
-27.37
-32.02
-36.78
-41.94
-47.70
-54.11
-60.89
-67.36
-72.45
-74.91
-73.60
-67.83
-57.58
-43.56
-26.98
-9.29
8.13
24.18
38.08
49.34
57.68
63.04
65.55
65.56
63.59
60.29
56.23
51.94
47.77
43.99
40.79
38.34
36.75
36.01
35.91
36.08
36.06
35.43
33.93
31.48
28.22
24.37
20.28
16.33
12.84
10.04
7.97
6.45
5.18
3.86
2.28
0.34
-1.97
-4.68
-7.84
-11.53
-15.78
-20.43
-25.22
-29.80
-33.94
-37.57
-40.91
-44.38
-48.43
-53.39
-59.24
-65.45
-71.02
-74.65
-75.01
-71.16
-62.74
-50.14
-34.38
-16.94
0.61
16.89
30.94
42.28
50.81
56.66
60.01
61.00
59.77
56.60
51.99
46.69
41.51
37.13
33.89
31.76
30.44
29.50
28.63
27.66
26.56
25.35
23.99
22.34
20.20
17.38
13.79
9.48
4.64
-0.47
-5.59
-10.53
-15.19
-19.55
-23.66
-27.62
-31.56
-35.69
-40.23
-45.33
-50.89
-56.37
-60.79
-62.85
-61.36
-55.59
-45.59
-32.22
-16.83
-0.93
14.19
27.61
38.71
47.10
52.50
54.78
54.09
50.91
46.02
40.36
34.80
29.96
26.16
23.41
21.59
20.49
19.93
19.72
19.66
19.47
18.84
17.48
15.20
11.99
8.00
3.49
-1.20
-5.81
-10.14
-14.13
-17.86
-21.55
-25.48
-29.96
-35.21
-41.17
-47.48
-53.39
-57.84
-59.67
-57.90
-52.01
-42.08
-28.90
-13.73
1.91
16.58
29.16
38.94
45.61
49.18
49.87
48.06
44.28
39.20
33.62
28.28
23.78
20.44
18.26
17.00
16.27
15.68
14.91
13.83
12.44
10.80
8.98
6.93
4.47
1.38
-2.45
-6.95
-11.81
-16.62
-21.06
-25.03
-28.68
-32.34
-36.28
-40.73
-45.75
-51.33
-57.29
-63.23
-68.40
-71.68
-71.78
-67.66
-58.87
-45.79
-29.62
-12.01
5.35
21.12
34.46
44.99
52.59
57.27
59.09
58.25
55.14
50.40
44.86
39.38
34.61
30.93
28.36
26.67
25.52
24.60
23.69
22.68
21.45
19.91
17.88
15.21
11.76
7.57
2.79
-2.34
-7.54
-12.59
-17.34
-21.73
-25.79
-29.58
-33.25
-37.01
-41.15
-45.93
-51.41
-57.29
-62.85
-67.01
-68.55
-66.41
-60.03
-49.53
-35.71
-19.84
-3.42
12.17
25.88
37.06
45.45
51.05
54.01
54.60
53.17
50.16
46.16
41.81
37.75
34.45
32.11
30.66
29.75
28.99
28.06
26.84
25.39
23.84
22.25
20.50
18.30
15.36
11.53
6.93
1.89
-3.22
-8.10
-12.67
-17.02
-21.28
-25.59
-30.05
-34.80
-39.98
-45.68
-51.72
-57.57
-62.27
-64.62
-63.49
-58.19
-48.67
-35.63
-20.30
-4.15
11.34
24.97
35.91
43.71
48.28
49.76
48.49
45.00
39.96
34.16
28.47
23.61
20.00
17.66
16.31
15.46
14.72
13.88
12.94
11.92
10.78
9.30
7.22
4.34
0.66
-3.62
-8.19
-12.75
-17.14
-21.37
-25.55
-29.89
-34.63
-39.97
-45.89
-52.03
-57.61
-61.45
-62.27
-59.07
-51.45
-39.80
-25.24
-9.24
6.65
21.16
33.39
42.78
49.01
51.94
51.65
48.47
43.08
36.43
29.61
23.53
18.80
15.53
13.47
12.13
11.07
10.05
9.03
8.07
7.14
6.07
4.51
2.14
-1.28
-5.69
-10.82
-16.24
-21.58
-26.58
-31.21
-35.64
-40.18
-45.14
-50.81
-57.24
-64.14
-70.77
-75.95
-78.28
-76.41
-69.57
-57.73
-41.78
-23.25
-3.96
14.45
30.74
44.22
54.58
61.73
65.71
66.63
64.79
60.72
55.22
49.21
43.57
38.90
35.45
33.13
31.60
30.50
29.49
28.41
27.16
25.65
23.79
21.40
18.32
14.46
9.85
4.61
-0.99
-6.67
-12.20
-17.41
-22.32
-27.06
-31.87
-37.06
-42.90
-49.52
-56.79
-64.20
-70.81
-75.30
-76.28
-72.63
-63.87
-50.37
-33.28
-14.25
4.97
22.85
38.31
50.70
59.73
65.35
67.73
67.22
64.40
60.00
54.85
49.68
45.02
41.16
38.12
35.81
34.10
32.89
32.07
31.46
30.77
29.67
27.85
25.17
21.69
17.65
13.31
8.86
4.34
-0.35
-5.30
-10.56
-15.99
-21.33
-26.33
-30.82
-34.84
-38.68
-42.78
-47.57
-53.33
-59.94
-66.78
-72.76
-76.46
-76.48
-71.77
-62.02
-47.76
-30.30
-11.38
7.22
23.99
37.95
48.56
55.65
59.29
59.71
57.34
52.83
47.04
40.90
35.25
30.66
27.30
25.03
23.49
22.34
21.34
20.38
19.46
18.53
17.47
16.06
13.99
11.06
7.20
2.55
-2.54
-7.66
-12.44
-16.72
-20.54
-24.14
-27.83
-31.89
-36.55
-41.84
-47.58
-53.30
-58.19
-61.17
-61.10
-57.10
-48.85
-36.72
-21.74
-5.38
10.85
25.62
37.98
47.32
53.34
55.98
55.37
51.94
46.43
39.82
33.16
27.38
23.00
20.07
18.26
17.06
16.01
14.90
13.73
12.55
11.32
9.84
7.79
4.92
1.12
-3.47
-8.58
-13.88
-19.12
-24.12
-28.74
-32.95
-36.81
-40.56
-44.57
-49.28
-54.86
-61.05
-66.97
-71.26
-72.33
-68.90
-60.42
-47.23
-30.55
-12.09
6.36
23.28
37.64
48.86
56.73
61.24
62.59
61.15
57.46
52.25
46.32
40.39
35.03
30.59
27.18
24.74
23.07
21.94
21.15
20.50
19.78
18.78
17.26
15.07
12.16
8.61
4.60
0.33
-4.15
-8.86
-13.84
-19.06
-24.30
-29.24
-33.59
-37.23
-40.34
-43.31
-46.67
-50.82
-55.89
-61.53
-66.91
-70.76
-71.68
-68.50
-60.59
-48.17
-32.19
-14.18
4.18
21.36
36.24
48.13
56.73
62.06
64.32
63.96
61.51
57.67
53.09
48.39
44.03
40.32
37.39
35.23
33.72
32.71
32.02
31.53
31.08
30.49
29.49
27.82
25.30
21.92
17.87
13.51
9.20
5.17
1.42
-2.27
-6.18
-10.53
-15.33
-20.39
-25.38
-29.97
-33.98
-37.46
-40.73
-44.23
-48.45
-53.62
-59.58
-65.67
-70.79
-73.59
-72.79
-67.58
-57.79
-44.04
-27.56
-9.86
7.55
23.43
36.95
47.63
55.26
59.84
61.48
60.46
57.25
52.53
47.10
41.78
37.22
33.81
31.57
30.26
29.52
29.01
28.51
27.95
27.31
26.47
25.19
23.19
20.26
16.42
11.93
7.18
2.52
-1.92
-6.24
-10.63
-15.19
-19.75
-23.94
-27.34
-29.78
-31.42
-32.76
-34.40
-36.85
-40.33
-44.75
-49.73
-54.65
-58.65
-60.71
-59.78
-55.03
-46.19
-33.70
-18.69
-2.70
12.71
26.25
37.09
44.82
49.31
50.65
49.13
45.27
39.85
33.81
28.10
23.42
20.13
18.23
17.36
17.06
16.86
16.40
15.55
14.30
12.72
10.92
8.90
6.58
3.83
0.52
-3.35
-7.66
-12.17
-16.61
-20.80
-24.73
-28.56
-32.59
-37.19
-42.57
-48.64
-54.88
-60.34
-63.78
-64.00
-60.14
-51.98
-40.03
-25.42
-9.59
5.94
19.90
31.41
39.94
45.37
47.81
47.64
45.33
41.45
36.62
31.47
26.58
22.49
19.54
17.85
17.24
17.31
17.58
17.61
17.12
16.05
14.49
12.59
10.40
7.90
4.99
1.55
-2.43
-6.86
-11.49
-16.11
-20.51
-24.65
-28.63
-32.67
-37.09
-42.18
-48.14
-54.95
-62.19
-69.02
-74.23
-76.45
-74.54
-67.88
-56.66
-41.80
-24.78
-7.24
9.34
23.88
35.74
44.71
50.85
54.38
55.60
54.84
52.48
48.96
44.75
40.37
36.31
32.92
30.34
28.49
27.13
26.01
24.91
23.76
22.54
21.21
19.61
17.57
14.89
11.48
7.40
2.81
-2.11
-7.16
-12.19
-17.07
-21.68
-25.91
-29.77
-33.33
-36.82
-40.54
-44.82
-49.88
-55.69
-61.79
-67.26
-70.81
-71.04
-66.91
-58.08
-45.11
-29.30
-12.33
4.17
18.98
31.36
41.08
48.16
52.73
54.96
55.07
53.30
50.07
45.88
41.34
37.01
33.34
30.56
28.71
27.67
27.20
27.04
26.92
26.57
25.74
24.24
21.97
19.00
15.48
11.66
7.72
3.78
-0.16
-4.16
-8.24
-12.39
-16.52
-20.51
-24.31
-27.92
-31.45
-35.17
-39.38
-44.34
-50.07
-56.13
-61.57
-65.09
-65.30
-61.22
-52.64
-40.14
-25.03
-8.88
6.83
20.99
32.90
42.24
48.86
52.75
53.97
52.76
49.56
45.01
39.87
34.86
30.58
27.29
24.97
23.42
22.28
21.28
20.24
19.08
17.77
16.25
14.44
12.17
9.32
5.84
1.86
-2.40
-6.66
-10.70
-14.45
-18.04
-21.72
-25.76
-30.35
-35.52
-41.17
-46.99
-52.52
-57.04
-59.70
-59.56
-55.89
-48.37
-37.27
-23.46
-8.24
6.95
20.76
32.19
40.56
45.57
47.25
45.94
42.28
37.12
31.46
26.18
21.89
18.80
16.69
15.11
13.61
12.00
10.35
8.88
7.77
6.90
5.90
4.26
1.61
-2.11
-6.64
-11.52
-16.34
-20.93
-25.35
-29.82
-34.62
-39.96
-45.94
-52.41
-58.97
-64.77
-68.65
-69.32
-65.72
-57.49
-45.06
-29.68
-13.00
3.35
18.13
30.58
40.30
47.11
50.93
51.79
49.96
46.00
40.74
35.12
29.97
25.83
22.83
20.79
19.33
18.08
16.82
15.48
14.14
12.87
11.65
10.37
8.77
6.59
3.63
-0.15
-4.59
-9.41
-14.31
-19.01
-23.42
-27.58
-31.73
-36.18
-41.31
-47.33
-54.16
-61.23
-67.46
-71.43
-71.68
-67.19
-57.71
-43.89
-27.11
-9.12
8.39
24.10
37.22
47.41
54.64
59.08
60.97
60.64
58.50
55.07
50.91
46.54
42.36
38.62
35.44
32.92
31.14
30.15
29.88
30.05
30.20
29.79
28.42
25.96
22.60
18.72
14.66
10.59
6.47
2.12
-2.58
-7.59
-12.71
-17.65
-22.22
-26.36
-30.17
-33.91
-37.85
-42.29
-47.42
-53.20
-59.21
-64.58
-68.05
-68.30
-64.33
-55.81
-43.27
-27.93
-11.39
4.84
19.58
32.12
42.13
49.52
54.34
56.72
56.95
55.42
52.67
49.26
45.71
42.41
39.59
37.30
35.50
34.12
33.07
32.29
31.67
31.05
30.21
28.90
26.90
24.13
20.67
16.71
12.49
8.24
4.10
0.04
-4.01
-8.18
-12.49
-16.85
-21.06
-24.87
-28.16
-30.99
-33.64
-36.50
-39.98
-44.33
-49.55
-55.31
-60.93
-65.47
-67.81
-66.84
-61.81
-52.54
-39.62
-24.30
-8.22
7.07
20.37
31.03
38.88
43.99
46.49
46.58
44.53
40.84
36.24
31.56
27.54
24.59
22.76
21.74
21.14
20.60
19.93
19.11
18.21
17.29
16.28
15.02
13.22
10.64
7.16
2.88
-1.88
-6.68
-11.16
-15.13
-18.66
-22.01
-25.54
-29.56
-34.24
-39.56
-45.24
-50.70
-55.06
-57.16
-55.85
-50.24
-40.03
-25.81
-8.94
8.70
25.21
39.06
49.45
56.20
59.62
60.16
58.28
54.40
49.00
42.76
36.52
31.06
26.90
24.17
22.61
21.84
21.50
21.37
21.33
21.24
20.84
19.81
17.86
14.84
10.83
6.07
0.81
-4.78
-10.68
-16.98
-23.76
-31.03
-38.65
-46.42
-54.13
-61.70
-69.21
-76.87
-84.88
-93.20
-101.47
-108.85
-114.17
-116.12
-113.62
-106.07
-93.57
-76.93
-57.54
-37.01
-16.89
1.62
17.71
30.92
41.03
48.01
51.99
53.32
52.59
50.52
47.85
45.14
42.72
40.69
39.03
37.69
36.67
35.99
35.65
35.54
35.45
35.12
34.24
32.59
30.09
26.84
23.10
19.15
15.21
11.31
7.32
3.03
-1.67
-6.72
-11.88
-16.82
-21.25
-25.06
-28.37
-31.47
-34.80
-38.79
-43.74
-49.66
-56.11
-62.19
-66.61
-68.02
-65.42
-58.43
-47.43
-33.43
-17.82
-1.98
12.95
26.17
37.26
46.00
52.34
56.27
57.90
57.44
55.31
52.04
48.29
44.64
41.54
39.20
37.62
36.62
36.03
35.69
35.50
35.41
35.30
35.00
34.33
33.06
31.07
28.36
25.01
21.24
17.24
13.20
9.24
5.43
1.74
-1.89
-5.59
-9.47
-13.61
-17.98
-22.43
-26.72
-30.64
-34.05
-36.99
-39.66
-42.42
-45.67
-49.74
-54.77
-60.53
-66.38
-71.24
-73.79
-72.76
-67.35
-57.44
-43.75
-27.61
-10.64
5.65
20.09
31.96
40.91
46.84
49.82
50.14
48.29
44.93
40.78
36.48
32.51
29.16
26.59
24.87
23.96
23.71
23.84
24.00
23.85
23.16
21.83
19.91
17.50
14.69
11.53
8.00
4.09
-0.19
-4.75
-9.43
-14.02
-18.34
-22.26
-25.82
-29.20
-32.69
-36.62
-41.15
-46.16
-51.13
-55.21
-57.30
-56.42
-51.86
-43.52
-31.94
-18.14
-3.46
10.81
23.57
34.04
41.68
46.23
47.64
46.11
42.18
36.68
30.61
24.94
20.41
17.32
15.54
14.66
14.15
13.59
12.81
11.78
10.60
9.32
7.83
5.90
3.25
-0.27
-4.65
-9.62
-14.82
-19.90
-24.66
-29.11
-33.41
-37.88
-42.83
-48.53
-55.07
-62.26
-69.49
-75.71
-79.53
-79.52
-74.69
-64.78
-50.47
-33.18
-14.74
3.15
19.21
32.73
43.44
51.32
56.46
58.97
59.05
57.09
53.63
49.32
44.81
40.59
36.96
34.07
31.88
30.31
29.17
28.24
27.23
25.88
23.99
21.48
18.37
14.70
10.52
5.89
0.84
-4.49
-9.91
-15.19
-20.14
-24.70
-29.01
-33.31
-37.93
-43.16
-49.17
-55.87
-62.84
-69.29
-74.09
-75.96
-73.78
-66.91
-55.45
-40.24
-22.69
-4.45
12.97
28.40
41.09
50.73
57.25
60.79
61.64
60.20
57.03
52.79
48.16
43.76
40.04
37.19
35.23
33.96
33.14
32.51
31.87
31.05
29.89
28.27
26.09
23.33
20.09
16.48
12.63
8.59
4.34
-0.16
-4.94
-9.96
-15.09
-20.17
-25.03
-29.59
-33.86
-38.00
-42.28
-47.04
-52.51
-58.66
-64.99
-70.49
-73.76
-73.42
-68.48
-58.69
-44.68
-27.77
-9.65
8.04
24.01
37.40
47.79
55.05
59.23
60.59
59.51
56.57
52.45
47.83
43.29
39.28
36.04
33.67
32.18
31.45
31.26
31.30
31.19
30.60
29.31
27.29
24.62
21.46
17.95
14.16
10.07
5.68
1.01
-3.84
-8.74
-13.56
-18.19
-22.60
-26.77
-30.75
-34.65
-38.69
-43.16
-48.26
-53.93
-59.64
-64.36
-66.72
-65.42
-59.62
-49.29
-35.20
-18.78
-1.70
14.46
28.48
39.57
47.33
51.69
52.84
51.17
47.28
41.95
36.06
30.49
25.89
22.66
20.77
19.92
19.65
19.54
19.36
19.05
18.68
18.27
17.68
16.61
14.70
11.69
7.58
2.62
-2.76
-8.12
-13.14
-17.72
-22.01
-26.26
-30.80
-35.89
-41.68
-48.09
-54.77
-61.01
-65.75
-67.73
-65.82
-59.33
-48.34
-33.71
-16.97
0.14
16.06
29.66
40.36
47.99
52.57
54.24
53.26
50.04
45.22
39.57
33.94
29.01
25.24
22.78
21.50
21.07
21.03
20.95
20.51
19.54
18.04
16.07
13.72
10.99
7.80
4.07
-0.23
-5.01
-10.11
-15.26
-20.26
-24.92
-29.21
-33.20
-37.10
-41.24
-45.98
-51.61
-58.10
-64.98
-71.24
-75.46
-76.13
-72.11
-63.03
-49.46
-32.75
-14.69
3.02
19.10
32.82
43.91
52.30
58.00
61.05
61.57
59.90
56.61
52.42
48.00
43.87
40.26
37.26
34.85
33.01
31.75
31.04
30.74
30.55
30.10
29.07
27.21
24.50
21.05
17.13
13.02
8.99
5.12
1.33
-2.62
-6.98
-11.91
-17.31
-22.85
-28.11
-32.73
-36.62
-39.98
-43.26
-46.95
-51.47
-56.96
-63.18
-69.37
-74.36
-76.70
-75.03
-68.54
-57.26
-42.10
-24.64
-6.67
10.30
25.24
37.66
47.40
54.50
59.00
61.01
60.76
58.64
55.25
51.26
47.32
43.90
41.25
39.38
38.15
37.33
36.72
36.19
35.68
35.16
34.49
33.47
31.81
29.32
25.93
21.82
17.34
12.86
8.69
4.95
1.57
-1.67
-5.06
-8.83
-13.06
-17.66
-22.39
-26.92
-31.02
-34.61
-37.83
-40.95
-44.35
-48.34
-53.12
-58.66
-64.61
-70.24
-74.43
-75.89
-73.47
-66.49
-55.05
-40.01
-22.82
-5.17
11.39
25.72
37.14
45.42
50.64
53.03
52.94
50.76
47.01
42.34
37.46
33.03
29.50
27.04
25.50
24.58
23.99
23.52
23.06
22.57
21.92
20.94
19.44
17.29
14.52
11.25
7.65
3.80
-0.26
-4.51
-8.90
-13.26
-17.43
-21.25
-24.73
-28.02
-31.42
-35.19
-39.54
-44.45
-49.65
-54.54
-58.28
-59.82
-58.20
-52.81
-43.59
-31.17
-16.72
-1.64
12.71
25.30
35.46
42.89
47.52
49.45
48.97
46.51
42.63
37.96
33.09
28.53
24.62
21.59
19.53
18.43
18.12
18.29
18.58
18.60
18.07
16.83
14.86
12.26
9.13
5.61
1.79
-2.25
-6.49
-10.93
-15.59
-20.42
-25.31
-30.04
-34.41
-38.32
-41.84
-45.22
-48.82
-53.00
-57.96
-63.60
-69.37
-74.27
-77.00
-76.22
-70.96
-61.02
-47.08
-30.52
-13.08
3.64
18.53
30.99
40.80
47.97
52.51
54.52
54.18
51.93
48.41
44.34
40.37
36.91
34.11
31.95
30.30
29.12
28.38
28.01
27.87
27.64
26.94
25.41
22.92
19.57
15.68
11.61
7.65
3.84
0.04
-3.96
-8.31
-12.99
-17.82
-22.56
-26.99
-31.05
-34.79
-38.38
-42.06
-46.10
-50.71
-55.93
-61.42
-66.41
-69.72
-70.05
-66.34
-58.18
-45.98
-30.88
-14.45
1.77
16.52
29.04
38.97
46.23
50.87
53.04
52.97
51.03
47.72
43.61
39.28
35.17
31.58
28.67
26.50
25.07
24.33
24.15
24.25
24.27
23.84
22.68
20.69
17.93
14.60
10.97
7.17
3.26
-0.85
-5.22
-9.90
-14.75
-19.55
-24.04
-28.12
-31.86
-35.60
-39.75
-44.66
-50.39
-56.58
-62.49
-67.05
-69.11
-67.68
-62.16
-52.52
-39.40
-23.96
-7.67
7.99
21.84
33.09
41.37
46.60
48.89
48.49
45.88
41.74
36.86
32.02
27.80
24.51
22.16
20.64
19.78
19.39
19.29
19.22
18.91
18.09
16.63
14.49
11.74
8.47
4.72
0.53
-4.05
-8.88
-13.75
-18.51
-23.07
-27.52
-32.09
-37.05
-42.60
-48.72
-55.06
-60.90
-65.21
-66.83
-64.81
-58.65
-48.53
-35.27
-20.10
-4.34
10.85
24.60
36.24
45.25
51.22
53.90
53.35
50.07
44.93
39.01
33.36
28.74
25.45
23.41
22.31
21.67
21.16
20.54
19.65
18.42
16.75
14.55
11.78
8.51
4.81
0.76
-3.64
-8.42
-13.58
-19.00
-24.43
-29.61
-34.37
-38.78
-43.12
-47.78
-53.09
-59.18
-65.87
-72.59
-78.39
-82.02
-82.20
-77.89
-68.65
-54.88
-37.70
-18.73
0.30
17.94
33.16
45.38
54.36
60.15
63.00
63.35
61.77
58.87
55.21
51.24
47.27
43.59
40.43
37.96
36.27
35.31
34.82
34.45
33.79
32.51
30.48
27.73
24.44
20.84
17.06
13.13
8.96
4.43
-0.50
-5.78
-11.23
-16.62
-21.75
-26.55
-31.05
-35.41
-39.88
-44.74
-50.25
-56.50
-63.20
-69.63
-74.59
-76.66
-74.59
-67.69
-56.15
-40.98
-23.69
-5.93
11.00
26.24
39.34
50.08
58.21
63.53
65.92
65.59
63.09
59.27
55.02
51.07
47.72
44.99
42.70
40.70
38.97
37.56
36.48
35.63
34.72
33.42
31.46
28.73
25.29
21.35
17.10
12.72
8.24
3.64
-1.13
-6.09
-11.15
-16.15
-20.89
-25.26
-29.28
-33.13
-37.13
-41.60
-46.80
-52.80
-59.33
-65.76
-71.08
-74.05
-73.45
-68.41
-58.76
-45.05
-28.52
-10.80
6.50
22.08
35.09
45.15
52.18
56.32
57.80
56.93
54.14
50.03
45.27
40.55
36.38
33.07
30.65
28.97
27.82
26.98
26.29
25.61
24.81
23.77
22.35
20.46
18.01
14.96
11.34
7.14
2.47
-2.51
-7.62
-12.61
-17.30
-21.58
-25.49
-29.15
-32.83
-36.82
-41.37
-46.60
-52.28
-57.78
-62.04
-63.82
-62.00
-55.97
-45.86
-32.53
-17.32
-1.68
13.17
26.36
37.35
45.80
51.48
54.29
54.33
51.99
47.94
42.99
37.92
33.34
29.61
26.80
24.81
23.43
22.40
21.48
20.46
19.16
17.46
15.26
12.53
9.29
5.62
1.62
-2.66
-7.15
-11.86
-16.73
-21.69
-26.59
-31.29
-35.71
-39.82
-43.73
-47.65
-51.88
-56.70
-62.19
-68.09
-73.63
-77.60
-78.63
-75.54
-67.79
-55.66
-40.14
-22.74
-4.98
11.82
26.76
39.30
49.16
56.21
60.44
61.95
61.04
58.24
54.25
49.82
45.60
41.96
39.00
36.61
34.64
33.00
31.69
30.73
30.03
29.34
28.29
26.53
23.85
20.28
16.05
11.52
7.04
2.81
-1.13
-4.92
-8.75
-12.80
-17.14
-21.70
-26.29
-30.65
-34.61
-38.15
-41.46
-44.90
-48.91
-53.88
-59.88
-66.54
-73.02
-78.03
-80.18
-78.27
-71.64
-60.39
-45.37
-27.99
-9.87
7.52
23.06
36.08
46.26
53.58
58.16
60.28
60.31
58.74
56.07
52.82
49.44
46.29
43.60
41.49
39.94
38.82
37.91
37.01
35.97
34.73
33.32
31.70
29.74
27.26
24.09
20.20
15.75
11.07
6.50
2.24
-1.73
-5.62
-9.70
-14.15
-18.95
-23.93
-28.85
-33.45
-37.59
-41.22
-44.46
-47.55
-50.84
-54.74
-59.56
-65.24
-71.28
-76.59
-79.74
-79.32
-74.37
-64.68
-50.88
-34.27
-16.40
1.23
17.47
31.52
42.92
51.36
56.71
59.03
58.57
55.88
51.67
46.73
41.73
37.19
33.39
30.43
28.29
26.89
26.09
25.72
25.52
25.23
24.56
23.28
21.28
18.61
15.39
11.78
7.94
3.93
-0.18
-4.36
-8.57
-12.76
-16.89
-20.93
-24.87
-28.75
-32.66
-36.78
-41.33
-46.45
-52.03
-57.55
-62.06
-64.38
-63.38
-58.33
-49.13
-36.37
-21.14
-4.78
11.29
25.86
38.00
47.11
52.90
55.45
55.10
52.38
47.96
42.58
36.94
31.60
26.98
23.32
20.67
18.96
18.04
17.62
17.39
16.96
16.00
14.31
11.85
8.74
5.22
1.47
-2.44
-6.55
-10.96
-15.70
-20.68
-25.70
-30.57
-35.13
-39.38
-43.41
-47.44
-51.72
-56.53
-61.99
-67.98
-73.90
-78.73
-81.14
-79.82
-73.88
-63.19
-48.41
-30.83
-12.06
6.38
23.26
37.75
49.36
57.86
63.17
65.43
64.97
62.33
58.20
53.30
48.26
43.52
39.32
35.76
32.86
30.64
29.12
28.26
27.88
27.64
27.10
25.84
23.61
20.42
16.46
12.04
7.50
3.04
-1.27
-5.49
-9.79
-14.34
-19.27
-24.53
-29.91
-35.08
-39.73
-43.70
-47.12
-50.43
-54.21
-58.98
-64.87
-71.43
-77.60
-81.85
-82.61
-78.67
-69.56
-55.71
-38.32
-19.02
0.49
18.83
34.98
48.30
58.41
65.13
68.49
68.75
66.50
62.53
57.73
52.84
48.34
44.42
41.06
38.15
35.64
33.55
31.92
30.73
29.84
28.98
27.77
25.89
23.14
19.49
15.11
10.29
5.32
0.45
-4.23
-8.78
-13.39
-18.21
-23.32
-28.62
-33.86
-38.76
-43.08
-46.81
-50.09
-53.25
-56.70
-60.82
-65.79
-71.43
-77.11
-81.69
-83.76
-81.96
-75.38
-63.89
-48.21
-29.74
-10.16
8.91
26.19
40.78
52.20
60.18
64.71
65.93
64.25
60.28
54.81
48.74
42.90
37.88
34.02
31.33
29.61
28.56
27.85
27.23
26.49
25.47
24.02
22.05
19.50
16.39
12.78
8.79
4.52
0.08
-4.42
-8.88
-13.21
-17.34
-21.23
-24.99
-28.74
-32.71
-37.10
-42.02
-47.32
-52.49
-56.63
-58.58
-57.19
-51.67
-41.90
-28.49
-12.66
4.03
20.14
34.50
46.31
55.08
60.52
62.50
61.17
57.01
50.85
43.77
36.85
30.92
26.40
23.24
21.07
19.40
17.85
16.21
14.49
12.73
10.96
9.04
6.72
3.71
-0.20
-5.02
-10.51
-16.30
-21.94
-27.12
-31.78
-36.10
-40.47
-45.37
-51.14
-57.87
-65.29
-72.69
-78.98
-82.84
-82.96
-78.38
-68.83
-54.78
-37.44
-18.45
0.49
17.95
32.96
45.00
53.88
59.62
62.40
62.49
60.31
56.41
51.47
46.18
41.19
36.92
33.55
30.99
28.99
27.24
25.52
23.73
21.86
19.90
17.77
15.28
12.15
8.19
3.37
-2.12
-7.93
-13.67
-19.09
-24.14
-28.95
-33.77
-38.82
-44.30
-50.30
-56.86
-63.80
-70.62
-76.41
-79.87
-79.62
-74.57
-64.38
-49.56
-31.45
-11.80
7.60
25.33
40.43
52.41
61.09
66.52
68.90
68.63
66.27
62.55
58.18
53.81
49.79
46.22
42.97
39.94
37.09
34.57
32.58
31.23
30.36
29.53
28.16
25.80
22.26
17.76
12.73
7.66
2.86
-1.68
-6.21
-11.08
-16.50
-22.46
-28.68
-34.73
-40.22
-44.92
-48.91
-52.51
-56.22
-60.55
-65.85
-72.14
-78.97
-85.40
-90.07
-91.44
-88.20
-79.63
-65.85
-47.83
-27.21
-5.84
14.52
32.57
47.48
58.89
66.71
71.05
72.16
70.48
66.66
61.50
55.78
50.20
45.18
40.95
37.56
34.98
33.17
32.00
31.24
30.50
29.31
27.32
24.37
20.60
16.33
11.87
7.46
3.12
-1.25
-5.76
-10.46
-15.26
-20.01
-24.51
-28.69
-32.56
-36.28
-40.07
-44.16
-48.74
-53.83
-59.19
-64.18
-67.75
-68.62
-65.57
-57.88
-45.60
-29.63
-11.46
7.20
24.87
40.47
53.35
63.11
69.49
72.37
71.83
68.33
62.69
56.01
49.39
43.72
39.44
36.53
34.65
33.27
31.96
30.45
28.66
26.64
24.39
21.86
18.89
15.30
11.01
6.05
0.60
-5.13
-10.92
-16.65
-22.31
-27.93
-33.59
-39.42
-45.54
-52.02
-58.75
-65.24
-70.57
-73.49
-72.73
-67.40
-57.34
-43.17
-26.17
-7.90
10.17
26.86
41.36
53.11
61.71
66.93
68.72
67.39
63.52
58.00
51.79
45.76
40.52
36.35
33.23
30.96
29.25
27.86
26.56
25.16
23.51
21.42
18.81
15.66
12.04
8.09
3.92
-0.46
-5.12
-10.18
-15.64
-21.40
-27.17
-32.65
-37.59
-41.94
-45.82
-49.52
-53.43
-57.97
-63.35
-69.43
-75.55
-80.49
-82.70
-80.68
-73.48
-61.03
-44.24
-24.73
-4.42
15.00
32.29
46.78
58.15
66.35
71.41
73.47
72.81
69.96
65.64
60.63
55.63
51.09
47.19
43.90
41.13
38.81
36.93
35.48
34.41
33.54
32.56
31.12
28.89
25.69
21.54
16.69
11.50
6.38
1.56
-2.94
-7.33
-11.93
-16.96
-22.43
-28.09
-33.56
-38.48
-42.66
-46.17
-49.33
-52.51
-56.11
-60.38
-65.38
-70.88
-76.33
-80.73
-82.81
-81.22
-75.00
-63.91
-48.61
-30.51
-11.39
7.07
23.66
37.69
48.86
57.01
62.08
64.07
63.22
60.05
55.32
49.87
44.40
39.37
34.98
31.28
28.28
25.96
24.31
23.20
22.45
21.81
20.97
19.69
17.82
15.30
12.20
8.67
4.86
0.86
-3.32
-7.71
-12.35
-17.18
-22.01
-26.57
-30.61
-34.02
-36.89
-39.45
-42.01
-44.89
-48.32
-52.41
-57.02
-61.65
-65.40
-67.10
-65.48
-59.65
-49.35
-35.19
-18.47
-0.85
16.07
31.04
43.32
52.57
58.69
61.71
61.73
59.09
54.37
48.45
42.31
36.81
32.46
29.34
27.16
25.52
24.09
22.68
21.29
19.91
18.50
16.95
15.06
12.66
9.62
5.88
1.47
-3.48
-8.76
-14.10
-19.24
-24.04
-28.49
-32.77
-37.15
-41.90
-47.17
-52.89
-58.63
-63.62
-66.84
-67.21
-63.90
-56.54
-45.41
-31.35
-15.58
0.58
15.90
29.45
40.53
48.71
53.77
55.76
54.94
51.82
47.09
41.49
35.72
30.33
25.71
22.09
19.56
18.03
17.27
16.93
16.59
15.85
14.47
12.36
9.60
6.35
2.76
-1.11
-5.29
-9.86
-14.81
-20.03
-25.28
-30.34
-35.10
-39.59
-43.99
-48.51
-53.33
-58.59
-64.29
-70.24
-75.96
-80.58
-82.94
-81.82
-76.31
-66.14
-51.82
-34.58
-16.00
2.30
19.03
33.37
44.95
53.75
59.83
63.33
64.35
63.11
59.98
55.57
50.59
45.71
41.43
37.89
35.04
32.68
30.63
28.78
27.01
25.25
23.36
21.23
18.72
15.73
12.17
7.99
3.20
-2.09
-7.68
-13.29
-18.69
-23.75
-28.51
-33.13
-37.88
-42.99
-48.68
-54.99
-61.71
-68.30
-73.79
-76.96
-76.58
-71.77
-62.34
-48.83
-32.50
-14.86
2.55
18.56
32.34
43.45
51.64
56.83
59.07
58.59
55.84
51.46
46.20
40.82
35.89
31.72
28.34
25.52
23.00
20.55
18.10
15.73
13.53
11.53
9.58
7.35
4.49
0.72
-3.97
-9.34
-15.00
-20.49
-25.55
-30.08
-34.22
-38.23
-42.37
-46.89
-51.94
-57.53
-63.37
-68.81
-72.80
-74.09
-71.55
-64.50
-52.99
-37.88
-20.56
-2.61
14.53
29.79
42.47
52.18
58.71
62.03
62.31
59.99
55.74
50.38
44.70
39.35
34.69
30.84
27.73
25.25
23.32
21.86
20.79
19.93
18.99
17.58
15.38
12.17
8.00
3.14
-2.05
-7.24
-12.22
-17.02
-21.77
-26.70
-32.01
-37.82
-43.98
-50.05
-55.19
-58.28
-58.13
-53.87
-45.26
-32.84
-17.77
-1.57
14.25
28.51
40.42
49.52
55.58
58.48
58.28
55.30
50.15
43.68
36.87
30.57
25.28
21.13
17.89
15.23
12.87
10.75
8.88
7.28
5.76
3.97
1.50
-1.89
-6.18
-11.08
-16.20
-21.22
-26.04
-30.77
-35.70
-41.13
-47.26
-54.05
-61.11
-67.61
-72.43
-74.26
-72.00
-65.07
-53.61
-38.52
-21.18
-3.18
14.10
29.65
42.88
53.45
61.16
65.85
67.46
66.13
62.35
56.93
50.78
44.74
39.30
34.58
30.43
26.62
23.08
19.85
17.02
14.58
12.30
9.78
6.59
2.43
-2.77
-8.80
-15.30
-21.87
-28.21
-34.21
-39.95
-45.67
-51.66
-58.18
-65.38
-73.20
-81.27
-88.95
-95.28
-99.10
-99.31
-95.12
-86.29
-73.16
-56.60
-37.76
-17.78
2.32
21.73
39.76
55.77
69.16
79.42
86.28
89.78
90.30
88.47
85.06
80.80
76.25
71.78
67.54
63.55
59.75
56.04
52.31
48.41
44.23
39.66
34.67
29.32
23.70
17.96
12.18
6.42
0.70
-4.94
-10.47
-15.79
-20.84
-25.61
-30.21
-34.82
-39.72
-45.08
-50.93
-56.96
-62.50
-66.57
-68.03
-65.88
-59.56
-49.18
-35.49
-19.74
-3.35
12.42
26.66
38.78
48.43
55.37
59.41
60.53
58.96
55.24
50.17
44.63
39.37
34.85
31.19
28.28
25.96
24.09
22.61
21.46
20.55
19.63
18.38
16.48
13.74
10.15
5.93
1.35
-3.27
-7.69
-11.79
-15.58
-19.13
-22.63
-26.23
-30.09
-34.30
-38.84
-43.51
-47.92
-51.44
-53.24
-52.49
-48.52
-41.07
-30.41
-17.34
-3.02
11.32
24.55
35.82
44.55
50.43
53.34
53.40
50.93
46.55
41.01
35.14
29.63
24.94
21.23
18.43
16.29
14.51
12.82
11.02
9.03
6.82
4.34
1.53
-1.73
-5.55
-9.95
-14.80
-19.84
-24.75
-29.28
-33.36
-37.15
-40.96
-45.15
-49.95
-55.40
-61.19
-66.69
-70.99
-73.06
-71.91
-66.92
-57.99
-45.63
-30.85
-14.87
1.08
16.01
29.18
40.10
48.40
53.89
56.53
56.54
54.39
50.71
46.17
41.34
36.65
32.38
28.70
25.71
23.38
21.57
20.03
18.51
16.77
14.71
12.32
9.60
6.53
3.02
-1.01
-5.60
-10.60
-15.74
-20.65
-25.08
-28.96
-32.46
-35.88
-39.56
-43.73
-48.45
-53.63
-58.99
-64.09
-68.30
-70.76
-70.57
-66.97
-59.62
-48.74
-35.15
-20.03
-4.61
10.08
23.32
34.66
43.78
50.45
54.49
55.87
54.83
51.88
47.71
43.07
38.57
34.54
31.10
28.16
25.63
23.46
21.66
20.21
19.00
17.76
16.18
13.99
11.14
7.77
4.21
0.72
-2.58
-5.81
-9.21
-13.04
-17.36
-22.04
-26.79
-31.29
-35.34
-38.89
-42.05
-45.05
-48.22
-51.87
-56.25
-61.33
-66.66
-71.28
-73.96
-73.46
-68.99
-60.41
-48.31
-33.71
-17.81
-1.72
13.64
27.48
39.11
47.99
53.78
56.48
56.34
53.91
49.90
45.05
40.08
35.55
31.83
29.06
27.19
26.03
25.35
24.92
24.52
23.93
22.94
21.35
19.07
16.08
12.44
8.27
3.69
-1.12
-5.95
-10.61
-14.93
-18.85
-22.44
-25.84
-29.30
-33.04
-37.24
-41.99
-47.23
-52.65
-57.62
-61.25
-62.50
-60.44
-54.49
-44.69
-31.69
-16.62
-0.88
14.19
27.54
38.46
46.61
51.89
54.40
54.38
52.20
48.37
43.53
38.33
33.35
29.00
25.53
22.98
21.27
20.19
19.45
18.75
17.81
16.49
14.69
12.42
9.72
6.62
3.11
-0.80
-5.08
-9.68
-14.50
-19.44
-24.40
-29.28
-33.96
-38.39
-42.56
-46.60
-50.75
-55.26
-60.21
-65.36
-69.95
-72.85
-72.75
-68.63
-60.07
-47.47
-31.90
-14.78
2.48
18.79
33.39
45.76
55.55
62.50
66.50
67.72
66.60
63.78
59.91
55.58
51.26
47.24
43.77
41.00
39.02
37.83
37.33
37.28
37.37
37.22
36.46
34.85
32.34
29.08
25.38
21.59
18.01
14.74
11.71
8.73
5.60
2.19
-1.46
-5.27
-9.04
-12.59
-15.80
-18.68
-21.35
-24.03
-26.96
-30.27
-33.93
-37.75
-41.47
-44.91
-47.99
-50.92
-54.09
-58.00
-63.02
-69.23
-76.15
-82.76
-87.59
-89.04
-85.86
-77.46
-64.19
-47.16
-28.05
-8.58
9.79
26.05
39.66
50.40
58.24
63.23
65.53
65.43
63.40
60.03
55.93
51.63
47.49
43.73
40.49
37.86
35.94
34.78
34.32
34.34
34.50
34.42
33.74
32.24
29.85
26.61
22.71
18.41
14.01
9.73
5.71
1.92
-1.77
-5.55
-9.56
-13.84
-18.29
-22.71
-26.87
-30.62
-33.91
-36.82
-39.60
-42.59
-46.13
-50.42
-55.42
-60.69
-65.40
-68.44
-68.63
-65.08
-57.38
-45.78
-31.16
-14.79
1.91
17.67
31.50
42.73
50.99
56.12
58.20
57.51
54.56
50.06
44.81
39.58
34.92
31.17
28.42
26.59
25.51
24.92
24.55
24.12
23.39
22.19
20.47
18.21
15.48
12.26
8.57
4.39
-0.23
-5.16
-10.22
-15.21
-19.96
-24.39
-28.52
-32.44
-36.28
-40.26
-44.60
-49.52
-55.04
-60.83
-66.08
-69.61
-70.14
-66.65
-58.72
-46.73
-31.68
-14.97
1.94
17.81
31.69
42.95
51.24
56.46
58.76
58.50
56.17
52.38
47.78
42.97
38.45
34.60
31.62
29.55
28.29
27.63
27.31
27.02
26.46
25.33
23.42
20.65
17.12
13.07
8.82
4.56
0.39
-3.79
-8.13
-12.76
-17.70
-22.79
-27.81
-32.57
-36.94
-40.95
-44.76
-48.65
-52.96
-57.93
-63.57
-69.40
-74.44
-77.33
-76.70
-71.58
-61.70
-47.66
-30.70
-12.39
5.71
22.37
36.73
48.31
56.96
62.68
65.66
66.15
64.54
61.33
57.09
52.43
47.88
43.80
40.36
37.59
35.47
33.99
33.13
32.76
32.64
32.37
31.51
29.73
26.95
23.37
19.33
15.22
11.31
7.64
4.07
0.38
-3.65
-8.08
-12.79
-17.56
-22.08
-26.20
-29.92
-33.49
-37.25
-41.57
-46.69
-52.55
-58.75
-64.48
-68.61
-69.90
-67.30
-60.23
-48.85
-34.06
-17.30
-0.24
15.67
29.44
40.58
48.98
54.75
57.99
58.87
57.62
54.64
50.48
45.78
41.15
37.03
33.64
31.03
29.15
27.91
27.16
26.73
26.36
25.78
24.73
23.04
20.67
17.71
14.32
10.74
7.16
3.67
0.22
-3.31
-7.07
-11.14
-15.44
-19.80
-24.02
-27.92
-31.51
-34.93
-38.43
-42.24
-46.41
-50.70
-54.49
-56.86
-56.78
-53.44
-46.46
-36.11
-23.23
-9.03
5.24
18.50
29.96
39.09
45.56
49.17
49.86
47.84
43.60
37.92
31.77
26.09
21.57
18.51
16.79
16.00
15.57
15.07
14.25
13.08
11.66
10.06
8.29
6.24
3.75
0.70
-2.91
-6.97
-11.30
-15.66
-19.87
-23.79
-27.42
-30.88
-34.41
-38.32
-42.87
-48.14
-53.87
-59.38
-63.69
-65.65
-64.27
-59.00
-49.85
-37.47
-22.93
-7.51
7.53
21.14
32.53
41.21
46.90
49.58
49.44
46.93
42.73
37.68
32.58
28.05
24.41
21.66
19.59
17.96
16.58
15.36
14.26
13.21
12.06
10.60
8.66
6.11
2.95
-0.73
-4.82
-9.14
-13.55
-17.88
-22.02
-25.97
-29.81
-33.75
-38.09
-43.04
-48.66
-54.68
-60.42
-64.82
-66.63
-64.75
-58.57
-48.22
-34.62
-19.17
-3.44
11.27
24.12
34.73
43.01
48.96
52.56
53.82
52.89
50.12
46.12
41.60
37.23
33.47
30.47
28.15
26.27
24.64
23.13
21.76
20.50
19.27
17.86
15.98
13.39
9.99
5.85
1.17
-3.81
-8.88
-13.84
-18.57
-22.91
-26.81
-30.34
-33.78
-37.58
-42.17
-47.71
-53.88
-59.79
-64.15
-65.62
-63.17
-56.40
-45.66
-31.93
-16.54
-0.86
13.91
26.87
37.47
45.41
50.57
53.00
52.89
50.62
46.76
42.00
37.09
32.67
29.16
26.63
24.87
23.55
22.32
21.03
19.70
18.47
17.41
16.42
15.19
13.34
10.55
6.78
2.26
-2.59
-7.32
-11.69
-15.69
-19.51
-23.37
-27.47
-31.89
-36.65
-41.72
-46.93
-51.82
-55.53
-56.97
-55.00
-48.94
-38.81
-25.46
-10.30
5.06
19.25
31.31
40.71
47.17
50.58
51.00
48.72
44.36
38.81
33.04
27.87
23.70
20.55
18.15
16.16
14.35
12.69
11.25
10.10
9.15
8.11
6.57
4.17
0.73
-3.65
-8.63
-13.73
-18.53
-22.77
-26.48
-29.93
-33.56
-37.78
-42.91
-48.92
-55.45
-61.75
-66.74
-69.28
-68.34
-63.28
-54.06
-41.25
-26.00
-9.73
6.11
20.31
32.05
40.92
46.83
49.87
50.28
48.39
44.70
39.80
34.42
29.24
24.82
21.45
19.17
17.78
16.93
16.30
15.63
14.80
13.80
12.60
11.14
9.26
6.72
3.36
-0.81
-5.60
-10.71
-15.83
-20.79
-25.54
-30.12
-34.65
-39.26
-44.11
-49.44
-55.42
-62.00
-68.71
-74.59
-78.23
-78.21
-73.42
-63.56
-49.20
-31.65
-12.66
6.09
23.26
37.98
49.79
58.53
64.18
66.86
66.81
64.51
60.57
55.68
50.48
45.42
40.73
36.52
32.87
29.86
27.60
26.10
25.22
24.65
23.99
22.93
21.31
19.16
16.64
13.88
10.92
7.68
4.00
-0.20
-4.95
-10.10
-15.45
-20.76
-25.84
-30.60
-35.15
-39.74
-44.76
-50.59
-57.43
-65.07
-72.76
-79.27
-83.12
-82.94
-77.92
-68.00
-53.94
-37.03
-18.77
-0.58
16.42
31.34
43.58
52.71
58.55
61.18
60.96
58.48
54.44
49.56
44.44
39.61
35.45
32.20
30.00
28.79
28.36
28.36
28.40
28.10
27.14
25.34
22.65
19.16
15.02
10.44
5.58
0.59
-4.47
-9.60
-14.78
-20.02
-25.25
-30.38
-35.35
-40.19
-45.04
-50.14
-55.72
-61.80
-68.04
-73.63
-77.33
-77.73
-73.62
-64.38
-50.14
-31.81
-10.83
11.15
32.57
52.02
68.31
80.43
87.70
89.94
87.68
82.07
74.63
66.83
59.71
53.76
48.98
45.21
42.30
40.15
38.66
37.56
36.38
34.61
31.85
27.97
23.05
17.36
11.14
4.54
-2.30
-9.29
-16.30
-23.19
-29.93
-36.68
-43.79
-51.66
-60.56
-70.24
-79.84
-87.86
-92.48
-92.04
-85.58
-73.23
-56.21
-36.53
-16.41
2.22
18.04
30.39
39.11
44.27
46.04
44.71
40.76
34.93
28.16
21.45
15.65
11.26
8.37
6.77
6.03
5.76
5.62
5.45
5.16
4.68
3.86
2.47
0.25
-3.02
-7.37
-12.59
-18.24
-23.75
-28.66
-32.77
-36.23
-39.50
-43.20
-47.90
-53.91
-61.13
-68.96
-76.28
-81.54
-83.08
-79.50
-70.11
-55.22
-36.07
-14.55
7.25
27.58
45.20
59.47
70.14
77.23
80.87
81.37
79.17
74.94
69.41
63.33
57.36
51.96
47.42
43.82
41.08
38.99
37.29
35.70
34.04
32.18
30.03
27.49
24.36
20.46
15.67
10.06
3.90
-2.41
-8.47
-14.05
-19.16
-24.03
-29.04
-34.58
-40.94
-48.22
-56.22
-64.38
-71.80
-77.25
-79.39
-77.05
-69.56
-57.01
-40.32
-21.06
-1.12
17.75
34.27
47.70
57.75
64.40
67.70
67.77
64.96
59.86
53.41
46.66
40.54
35.63
32.05
29.59
27.82
26.39
25.10
23.90
22.80
21.75
20.53
18.76
16.04
12.14
7.16
1.47
-4.32
-9.73
-14.53
-18.87
-23.13
-27.82
-33.32
-39.80
-47.20
-55.07
-62.62
-68.65
-71.74
-70.55
-64.24
-52.77
-37.00
-18.49
0.89
19.37
35.50
48.27
57.09
61.77
62.47
59.71
54.33
47.39
40.00
33.14
27.47
23.25
20.39
18.57
17.40
16.52
15.74
14.89
13.80
12.25
9.98
6.78
2.68
-2.12
-7.24
-12.29
-17.07
-21.60
-26.13
-31.02
-36.60
-43.09
-50.38
-57.95
-64.83
-69.62
-70.83
-67.25
-58.41
-44.76
-27.65
-8.93
9.55
26.28
40.21
50.68
57.27
59.79
58.39
53.67
46.72
38.83
31.22
24.67
19.45
15.48
12.53
10.41
9.04
8.28
7.83
7.25
6.06
3.92
0.79
-3.09
-7.34
-11.60
-15.69
-19.66
-23.74
-28.24
-33.43
-39.47
-46.27
-53.41
-60.05
-64.96
-66.70
-63.97
-56.04
-43.02
-25.98
-6.67
12.86
30.74
45.68
56.98
64.42
68.09
68.24
65.23
59.61
52.14
43.73
35.30
27.61
21.07
15.79
11.55
8.03
4.87
1.80
-1.35
-4.68
-8.21
-11.96
-15.90
-20.01
-24.25
-28.58
-33.07
-37.83
-43.06
-48.92
-55.38
-62.04
-68.00
-71.93
-72.34
-67.94
-58.13
-43.20
-24.33
-3.33
17.86
37.47
54.21
67.27
76.24
81.06
81.94
79.37
74.14
67.14
59.28
51.30
43.71
36.78
30.69
25.55
21.41
18.25
15.90
14.05
12.37
10.58
8.55
6.31
3.99
1.72
-0.45
-2.65
-5.21
-8.63
-13.40
-19.96
-28.40
-38.32
-48.68
-57.88
-63.99
-65.28
-60.65
-50.08
-34.63
-16.13
3.30
21.81
38.18
51.74
62.22
69.41
72.96
72.59
68.21
60.26
49.74
38.06
26.66
16.66
8.64
2.60
-1.82
-5.18
-8.07
-11.06
-14.69
-19.45
-25.63
-33.24
-41.95
-51.12
-59.92
-67.53
-73.34
-77.07
-78.80
-78.98
-78.28
-77.52
-77.46
-78.70
-81.51
-85.70
-90.55
-94.78
-96.71
-94.62
-87.21
-74.02
-55.65
-33.64
-10.02
13.24
34.60
53.18
68.59
80.76
89.64
95.18
97.38
96.44
92.88
87.48
81.20
74.90
69.19
64.32
60.24
56.74
53.60
50.66
47.83
45.03
42.12
38.91
35.13
30.54
24.98
18.43
11.10
3.33
-4.41
-11.69
-18.24
-24.02
-29.20
-34.11
-39.12
-44.51
-50.45
-56.91
-63.56
-69.70
-74.21
-75.75
-73.07
-65.40
-52.82
-36.31
-17.47
1.86
20.05
35.97
49.02
58.98
65.88
69.80
70.97
69.70
66.46
61.82
56.39
50.75
45.38
40.59
36.57
33.34
30.83
28.83
27.13
25.47
23.68
21.62
19.20
16.37
13.13
9.46
5.38
0.93
-3.81
-8.71
-13.66
-18.53
-23.22
-27.69
-31.99
-36.22
-40.58
-45.31
-50.61
-56.55
-62.83
-68.76
-73.20
-74.80
-72.35
-65.15
-53.34
-37.88
-20.36
-2.50
14.18
28.66
40.41
49.22
55.03
57.89
57.95
55.55
51.27
45.86
40.12
34.71
30.14
26.62
24.21
22.79
22.13
21.98
21.98
21.84
21.26
20.06
18.20
15.66
12.53
8.87
4.75
0.21
-4.63
-9.61
-14.50
-19.12
-23.35
-27.22
-30.87
-34.54
-38.48
-42.88
-47.85
-53.19
-58.31
-62.24
-63.70
-61.51
-54.94
-44.09
-29.90
-13.89
2.29
17.22
30.01
40.20
47.64
52.30
54.25
53.66
50.99
46.89
42.11
37.36
33.10
29.52
26.61
24.25
22.29
20.67
19.34
18.26
17.35
16.45
15.35
13.81
11.63
8.67
4.96
0.64
-3.98
-8.60
-12.95
-16.93
-20.65
-24.31
-28.18
-32.50
-37.32
-42.46
-47.46
-51.62
-54.06
-53.91
-50.51
-43.61
-33.49
-20.98
-7.29
6.22
18.30
28.02
34.83
38.57
39.32
37.37
33.15
27.25
20.44
13.55
7.36
2.45
-0.94
-2.92
-3.84
-4.16
-4.27
-4.50
-5.10
-6.29
-8.25
-11.02
-14.50
-18.41
-22.38
-26.08
-29.37
-32.33
-35.25
-38.55
-42.62
-47.63
-53.43
-59.40
-64.47
-67.29
-66.56
-61.46
-51.99
-38.98
-23.92
-8.48
5.93
18.35
28.35
35.81
40.73
43.14
43.09
40.85
36.85
31.78
26.35
21.21
16.79
13.29
10.68
8.78
7.37
6.15
4.87
3.30
1.29
-1.23
-4.24
-7.64
-11.30
-15.12
-19.05
-23.10
-27.36
-31.97
-37.07
-42.66
-48.46
-53.78
-57.56
-58.59
-55.87
-49.01
-38.38
-25.11
-10.72
3.25
15.60
25.61
33.02
37.87
40.33
40.63
39.05
35.93
31.72
26.90
21.97
17.32
13.30
10.09
7.73
6.09
4.90
3.80
2.42
0.53
-1.86
-4.62
-7.51
-10.36
-13.22
-16.27
-19.81
-24.07
-29.16
-34.95
-41.13
-47.07
-51.93
-54.67
-54.26
-49.96
-41.56
-29.55
-15.05
0.43
15.34
28.41
38.80
46.15
50.53
52.25
51.79
49.64
46.25
42.07
37.49
32.87
28.58
24.88
21.96
19.84
18.39
17.37
16.46
15.33
13.70
11.34
8.22
4.46
0.35
-3.75
-7.54
-10.92
-14.05
-17.30
-21.16
-26.00
-31.96
-38.74
-45.56
-51.25
-54.43
-53.92
-49.02
-39.78
-26.96
-11.91
3.84
18.85
31.99
42.57
50.27
55.01
56.95
56.36
53.65
49.35
44.12
38.61
33.43
28.99
25.49
22.92
21.11
19.85
18.94
18.24
17.60
16.87
15.79
14.11
11.60
8.11
3.75
-1.16
-6.10
-10.57
-14.25
-17.19
-19.82
-22.80
-26.76
-32.03
-38.43
-45.28
-51.49
-55.80
-57.04
-54.32
-47.31
-36.32
-22.32
-6.71
8.92
23.12
34.78
43.23
48.20
49.73
48.17
44.15
38.52
32.20
26.05
20.63
16.23
12.89
10.51
8.96
8.07
7.57
7.10
6.24
4.70
2.35
-0.74
-4.36
-8.25
-12.27
-16.31
-20.35
-24.42
-28.62
-33.15
-38.26
-44.03
-50.23
-56.09
-60.45
-61.93
-59.45
-52.58
-41.68
-27.85
-12.53
2.82
17.02
29.22
38.88
45.65
49.35
50.01
47.91
43.66
38.10
32.12
26.47
21.63
17.69
14.51
11.87
9.63
7.84
6.58
5.82
5.25
4.35
2.56
-0.50
-4.79
-9.93
-15.31
-20.39
-24.90
-28.88
-32.69
-36.78
-41.60
-47.33
-53.78
-60.23
-65.52
-68.24
-67.09
-61.31
-50.94
-36.84
-20.49
-3.53
12.56
26.69
38.24
46.89
52.57
55.33
55.41
53.22
49.34
44.46
39.24
34.16
29.53
25.46
21.96
19.05
16.75
15.12
14.13
13.62
13.22
12.43
10.75
7.89
3.85
-1.06
-6.36
-11.56
-16.34
-20.64
-24.64
-28.69
-33.22
-38.60
-44.97
-52.07
-59.06
-64.67
-67.38
-65.86
-59.43
-48.29
-33.50
-16.68
0.47
16.50
30.45
41.81
50.33
55.91
58.51
58.26
55.49
50.85
45.19
39.38
34.18
29.97
26.86
24.64
23.04
21.80
20.75
19.76
18.75
17.61
16.17
14.28
11.78
8.60
4.73
0.28
-4.53
-9.44
-14.18
-18.56
-22.59
-26.44
-30.42
-34.86
-39.98
-45.79
-52.09
-58.43
-64.07
-68.00
-69.05
-66.13
-58.57
-46.43
-30.62
-12.74
5.35
21.97
36.01
46.89
54.51
58.95
60.40
59.10
55.47
50.16
44.04
38.01
32.80
28.82
26.13
24.49
23.52
22.85
22.25
21.60
20.87
20.02
18.90
17.26
14.81
11.38
7.01
1.96
-3.30
-8.34
-12.86
-16.84
-20.51
-24.27
-28.53
-33.60
-39.53
-46.03
-52.45
-57.70
-60.53
-59.74
-54.55
-44.86
-31.34
-15.31
1.58
17.71
31.76
42.83
50.38
54.27
54.62
51.86
46.75
40.26
33.46
27.29
22.38
18.89
16.64
15.22
14.18
13.28
12.43
11.64
10.90
10.09
8.92
7.00
4.04
-0.05
-5.09
-10.65
-16.21
-21.31
-25.72
-29.55
-33.14
-37.02
-41.69
-47.45
-54.19
-61.23
-67.37
-71.07
-70.88
-65.81
-55.75
-41.46
-24.36
-6.20
11.38
27.10
40.16
50.12
56.81
60.24
60.59
58.18
53.60
47.61
41.13
35.06
30.03
26.34
23.92
22.41
21.43
20.67
20.00
19.38
18.75
17.90
16.53
14.31
11.05
6.78
1.74
-3.67
-9.00
-13.93
-18.31
-22.20
-25.86
-29.66
-34.03
-39.31
-45.65
-52.83
-60.15
-66.47
-70.27
-70.11
-64.97
-54.63
-39.83
-22.10
-3.34
14.62
30.37
43.05
52.32
58.17
60.82
60.64
58.18
54.11
49.13
43.90
38.92
34.58
31.08
28.54
26.94
26.12
25.77
25.56
25.14
24.31
22.98
21.15
18.86
16.14
12.99
9.41
5.43
1.07
-3.60
-8.51
-13.55
-18.55
-23.31
-27.68
-31.67
-35.47
-39.50
-44.22
-49.92
-56.47
-63.11
-68.54
-71.13
-69.44
-62.65
-50.87
-35.16
-17.19
1.16
18.27
32.99
44.68
53.11
58.26
60.24
59.35
56.06
51.06
45.15
39.14
33.71
29.24
25.88
23.50
21.88
20.75
19.95
19.35
18.86
18.31
17.44
15.88
13.27
9.39
4.30
-1.60
-7.72
-13.41
-18.21
-21.98
-24.94
-27.56
-30.35
-33.73
-37.91
-42.78
-47.90
-52.40
-55.10
-54.73
-50.21
-41.13
-27.95
-11.94
5.04
21.07
34.59
44.60
50.70
52.93
51.62
47.26
40.51
32.19
23.28
14.75
7.45
1.91
-1.74
-3.72
-4.43
-4.32
-3.69
-2.70
-1.49
-0.25
0.66
0.82
-0.09
-2.13
-5.06
-8.42
-11.75
-14.78
-17.52
-20.28
-23.48
-27.50
-32.51
-38.36
-44.45
-49.82
-53.28
-53.69
-50.21
-42.64
-31.47
-17.83
-3.16
11.00
23.38
33.08
39.58
42.72
42.64
39.78
34.79
28.50
21.75
15.25
9.52
4.82
1.21
-1.38
-3.08
-4.01
-4.38
-4.42
-4.49
-4.98
-6.23
-8.42
-11.49
-15.15
-18.98
-22.63
-25.94
-29.00
-32.14
-35.79
-40.32
-45.92
-52.42
-59.23
-65.29
-69.21
-69.60
-65.46
-56.51
-43.40
-27.49
-10.46
6.09
20.99
33.52
43.35
50.33
54.42
55.73
54.63
51.72
47.78
43.59
39.75
36.55
34.03
32.02
30.32
28.75
27.27
25.92
24.78
23.81
22.83
21.48
19.31
16.00
11.49
6.08
0.29
-5.30
-10.31
-14.71
-18.80
-23.11
-28.18
-34.37
-41.73
-49.87
-57.91
-64.59
-68.49
-68.35
-63.46
-53.87
-40.47
-24.71
-8.28
7.33
21.10
32.53
41.54
48.25
52.80
55.32
55.93
54.86
52.50
49.35
45.97
42.77
40.01
37.78
36.05
34.78
33.93
33.46
33.21
32.94
32.27
30.86
28.54
25.37
21.61
17.65
13.76
10.04
6.36
2.49
-1.77
-6.47
-11.44
-16.40
-21.10
-25.40
-29.37
-33.22
-37.31
-41.91
-47.20
-53.10
-59.19
-64.75
-68.75
-70.04
-67.60
-60.86
-49.90
-35.48
-18.93
-1.84
14.33
28.48
39.98
48.63
54.42
57.51
58.10
56.56
53.38
49.25
44.89
40.88
37.62
35.26
33.73
32.86
32.41
32.18
31.92
31.48
30.72
29.58
28.06
26.22
24.08
21.64
18.81
15.53
11.76
7.58
3.10
-1.49
-6.07
-10.61
-15.14
-19.71
-24.44
-29.44
-34.84
-40.69
-46.85
-52.75
-57.46
-59.74
-58.48
-53.09
-43.75
-31.38
-17.40
-3.25
9.85
21.07
29.89
35.96
39.09
39.30
36.90
32.55
27.15
21.63
16.77
13.00
10.45
8.98
8.31
8.12
8.14
8.18
8.12
7.92
7.48
6.63
5.17
2.90
-0.25
-4.17
-8.57
-13.05
-17.28
-21.05
-24.40
-27.57
-30.89
-34.67
-39.12
-44.18
-49.46
-54.26
-57.62
-58.52
-56.14
-50.08
-40.51
-28.17
-14.21
0.05
13.39
24.90
34.01
40.51
44.37
45.72
44.83
42.14
38.20
33.67
29.21
25.31
22.28
20.20
18.96
18.37
18.18
18.11
17.90
17.30
16.14
14.35
11.99
9.18
6.07
2.74
-0.82
-4.63
-8.74
-13.09
-17.52
-21.82
-25.85
-29.56
-33.06
-36.53
-40.21
-44.26
-48.82
-53.83
-58.97
-63.59
-66.65
-66.96
-63.53
-55.89
-44.38
-30.06
-14.47
0.82
14.62
26.21
35.34
42.02
46.39
48.61
48.88
47.48
44.85
41.46
37.80
34.26
31.11
28.49
26.47
25.08
24.32
24.08
24.14
24.16
23.76
22.67
20.77
18.15
15.02
11.63
8.12
4.51
0.72
-3.33
-7.65
-12.13
-16.55
-20.71
-24.50
-27.94
-31.19
-34.50
-38.18
-42.51
-47.55
-53.09
-58.51
-62.76
-64.58
-62.83
-56.82
-46.67
-33.27
-18.10
-2.78
11.31
23.31
32.89
40.07
44.99
47.81
48.66
47.74
45.42
42.19
38.63
35.25
32.37
30.11
28.44
27.27
26.58
26.36
26.56
26.98
27.27
27.00
25.82
23.58
20.41
16.58
12.42
8.17
3.93
-0.31
-4.54
-8.71
-12.72
-16.46
-19.92
-23.19
-26.48
-30.06
-34.20
-39.03
-44.40
-49.83
-54.41
-57.01
-56.53
-52.23
-44.05
-32.61
-19.12
-5.01
8.36
20.02
29.33
36.00
39.92
41.15
39.90
36.61
31.97
26.82
22.00
18.07
15.27
13.49
12.43
11.76
11.23
10.70
10.13
9.46
8.64
7.54
6.00
3.84
0.97
-2.62
-6.77
-11.18
-15.51
-19.47
-23.00
-26.23
-29.48
-33.11
-37.41
-42.50
-48.23
-54.12
-59.38
-62.92
-63.62
-60.58
-53.45
-42.59
-28.98
-13.97
0.99
14.69
26.29
35.33
41.66
45.31
46.51
45.57
42.94
39.16
34.84
30.57
26.84
23.92
21.88
20.63
19.96
19.69
19.66
19.76
19.82
19.61
18.85
17.27
14.80
11.54
7.80
3.98
0.35
-3.05
-6.38
-9.97
-14.03
-18.56
-23.30
-27.88
-31.97
-35.46
-38.54
-41.60
-45.11
-49.44
-54.75
-60.87
-67.21
-72.78
-76.30
-76.43
-72.23
-63.41
-50.51
-34.79
-17.85
-1.23
13.88
26.73
36.96
44.46
49.27
51.60
51.82
50.43
47.96
44.91
41.66
38.50
35.68
33.33
31.57
30.39
29.69
29.27
28.91
28.37
27.47
26.03
24.00
21.37
18.25
14.82
11.26
7.68
4.08
0.37
-3.59
-7.90
-12.52
-17.31
-22.07
-26.59
-30.81
-34.84
-38.95
-43.53
-48.90
-55.10
-61.75
-67.91
-72.29
-73.46
-70.33
-62.48
-50.32
-35.04
-18.22
-1.49
13.88
27.11
37.80
45.86
51.26
54.10
54.57
53.09
50.25
46.72
43.10
39.76
36.89
34.46
32.46
30.93
29.96
29.63
29.86
30.34
30.62
30.24
28.92
26.60
23.49
19.92
16.16
12.36
8.50
4.49
0.29
-4.06
-8.43
-12.66
-16.66
-20.50
-24.31
-28.35
-32.87
-38.01
-43.68
-49.41
-54.35
-57.39
-57.40
-53.62
-45.88
-34.68
-21.11
-6.51
7.77
20.66
31.33
39.21
43.96
45.51
44.09
40.28
34.95
29.10
23.64
19.26
16.22
14.45
13.57
13.09
12.60
11.86
10.82
9.59
8.27
6.89
5.34
3.38
0.82
-2.46
-6.36
-10.64
-15.02
-19.23
-23.21
-27.01
-30.90
-35.18
-40.16
-46.00
-52.54
-59.16
-64.81
-68.14
-67.86
-63.14
-53.93
-40.98
-25.70
-9.69
5.62
19.21
30.53
39.33
45.51
49.00
49.84
48.27
44.81
40.24
35.45
31.21
27.94
25.70
24.26
23.26
22.41
21.59
20.77
19.97
19.10
18.01
16.49
14.37
11.53
7.93
3.61
-1.24
-6.34
-11.35
-16.00
-20.16
-23.95
-27.63
-31.55
-36.02
-41.27
-47.35
-54.07
-60.87
-66.81
-70.61
-70.98
-66.97
-58.31
-45.56
-29.98
-13.15
3.38
18.45
31.30
41.58
49.16
54.02
56.24
56.02
53.69
49.83
45.11
40.28
35.92
32.42
29.90
28.28
27.38
26.97
26.87
26.88
26.77
26.31
25.29
23.57
21.11
17.98
14.30
10.17
5.69
0.93
-3.98
-8.89
-13.58
-17.91
-21.90
-25.76
-29.85
-34.54
-40.02
-46.18
-52.49
-58.08
-61.83
-62.62
-59.58
-52.30
-41.07
-26.82
-10.96
4.97
19.60
31.96
41.58
48.37
52.45
54.06
53.48
51.06
47.31
42.86
38.41
34.56
31.66
29.73
28.51
27.63
26.79
25.86
24.87
23.94
23.10
22.19
20.94
19.00
16.14
12.31
7.66
2.52
-2.77
-7.86
-12.58
-16.86
-20.87
-24.89
-29.28
-34.29
-39.92
-45.81
-51.21
-55.10
-56.41
-54.36
-48.61
-39.42
-27.57
-14.18
-0.46
12.48
23.71
32.51
38.38
41.05
40.61
37.58
32.85
27.44
22.32
18.08
14.92
12.69
11.16
10.11
9.45
9.13
9.01
8.84
8.28
7.03
4.93
2.04
-1.49
-5.42
-9.57
-13.81
-18.09
-22.39
-26.75
-31.25
-36.08
-41.44
-47.44
-53.82
-59.83
-64.26
-65.68
-62.95
-55.59
-44.07
-29.67
-14.11
0.98
14.43
25.67
34.57
41.20
45.58
47.67
47.45
45.11
41.18
36.42
31.74
27.82
25.04
23.34
22.36
21.66
20.91
20.00
19.01
17.99
16.88
15.40
13.19
9.94
5.62
0.50
-4.93
-10.20
-15.06
-19.52
-23.78
-28.16
-32.90
-38.15
-43.94
-50.21
-56.70
-62.93
-68.05
-70.93
-70.44
-65.71
-56.54
-43.48
-27.76
-10.93
5.47
20.31
32.92
43.02
50.60
55.69
58.39
58.87
57.44
54.59
50.91
47.00
43.36
40.36
38.13
36.60
35.57
34.75
33.87
32.73
31.27
29.48
27.38
25.00
22.29
19.23
15.81
12.04
7.99
3.70
-0.79
-5.37
-9.96
-14.41
-18.60
-22.52
-26.31
-30.22
-34.60
-39.74
-45.65
-51.98
-57.92
-62.27
-63.70
-61.12
-54.03
-42.73
-28.23
-11.96
4.60
20.29
34.36
46.45
56.33
63.87
68.88
71.36
71.55
70.09
67.87
65.87
64.92
65.48
67.56
70.72
74.16
76.84
77.71
75.99
71.31
63.86
54.33
43.60
32.50
21.57
10.91
0.41
-10.13
-20.80
-31.52
-42.13
-52.41
-62.15
-71.11
-79.05
-85.75
-91.11
-95.28
-98.64
-101.65
-104.71
-107.86
-110.74
-112.52
-112.12
-108.54
-101.09
-89.70
-74.93
-57.89
-39.91
-22.27
-5.92
8.55
20.85
30.92
38.72
44.28
47.75
49.46
49.93
49.80
49.64
49.82
50.37
51.02
51.33
50.87
49.42
47.02
43.95
40.54
37.00
33.29
29.14
24.26
18.48
11.89
4.85
-2.18
-8.82
-14.91
-20.54
-26.01
-31.66
-37.83
-44.70
-52.26
-60.11
-67.51
-73.30
-76.21
-75.17
-69.65
-59.91
-46.89
-32.00
-16.73
-2.34
10.34
20.81
28.78
34.10
36.75
36.87
34.92
31.63
27.87
24.43
21.81
20.10
18.99
18.02
16.71
14.79
12.27
9.38
6.42
3.55
0.75
-2.19
-5.54
-9.39
-13.63
-17.95
-21.96
-25.37
-28.12
-30.37
-32.37
-34.41
-36.73
-39.53
-42.91
-46.90
-51.22
-55.24
-57.91
-58.02
-54.52
-46.88
-35.34
-20.85
-4.80
11.33
26.28
39.20
49.59
57.23
62.03
64.03
63.40
60.51
55.92
50.32
44.45
38.92
34.18
30.42
27.61
25.60
24.18
23.17
22.42
21.82
21.21
20.36
19.03
16.98
14.08
10.35
5.92
1.02
-4.14
-9.40
-14.65
-19.83
-24.95
-30.05
-35.22
-40.60
-46.32
-52.38
-58.46
-63.89
-67.64
-68.49
-65.41
-57.87
-46.06
-30.91
-13.84
3.57
19.97
34.45
46.53
56.00
62.79
66.86
68.26
67.20
64.14
59.77
54.82
49.96
45.64
42.08
39.29
37.15
35.52
34.23
33.11
31.97
30.65
28.99
26.85
24.11
20.71
16.65
12.00
6.93
1.64
-3.67
-8.89
-14.05
-19.26
-24.75
-30.77
-37.54
-45.17
-53.52
-62.05
-69.80
-75.43
-77.54
-75.11
-67.80
-56.19
-41.55
-25.53
-9.73
4.66
16.83
26.38
33.02
36.64
37.28
35.31
31.41
26.52
21.60
17.40
14.30
12.30
11.17
10.59
10.32
10.20
10.16
10.15
10.04
9.66
8.74
7.11
4.70
1.67
-1.70
-5.12
-8.40
-11.56
-14.80
-18.44
-22.71
-27.67
-33.11
-38.48
-42.90
-45.30
-44.66
-40.26
-31.93
-20.19
-6.13
8.82
23.25
36.01
46.27
53.55
57.65
58.55
56.53
52.10
45.99
39.04
32.04
25.61
20.09
15.63
12.22
9.73
8.05
6.96
6.13
5.20
3.76
1.55
-1.47
-5.14
-9.19
-13.36
-17.55
-21.86
-26.52
-31.86
-38.09
-45.21
-52.85
-60.18
-65.99
-68.86
-67.57
-61.49
-50.80
-36.50
-20.18
-3.56
11.84
24.94
35.09
42.00
45.67
46.31
44.38
40.46
35.23
29.35
23.34
17.66
12.59
8.38
5.15
2.95
1.74
1.34
1.50
1.84
1.95
1.40
-0.10
-2.68
-6.20
-10.38
-14.83
-19.30
-23.73
-28.33
-33.49
-39.61
-46.80
-54.71
-62.37
-68.32
-70.93
-68.88
-61.53
-49.17
-32.93
-14.47
4.38
22.07
37.48
49.95
59.19
65.16
67.98
67.93
65.45
61.16
55.77
50.02
44.43
39.34
34.78
30.68
26.95
23.58
20.69
18.38
16.65
15.28
13.87
11.95
9.13
5.24
0.40
-5.09
-10.78
-16.35
-21.62
-26.66
-31.76
-37.27
-43.52
-50.61
-58.26
-65.74
-71.79
-74.94
-73.76
-67.40
-55.86
-40.04
-21.54
-2.22
16.21
32.47
45.82
55.91
62.71
66.35
67.10
65.37
61.71
56.77
51.25
45.75
40.68
36.20
32.31
28.89
25.85
23.22
21.06
19.46
18.34
17.42
16.28
14.51
11.82
8.14
3.57
-1.61
-7.12
-12.63
-17.88
-22.72
-27.16
-31.37
-35.70
-40.54
-46.25
-52.92
-60.26
-67.44
-73.18
-75.99
-74.49
-67.87
-56.18
-40.38
-22.09
-3.18
14.65
30.15
42.62
51.77
57.60
60.29
60.15
57.60
53.27
47.83
42.02
36.44
31.49
27.32
23.90
21.10
18.81
17.00
15.66
14.75
14.10
13.38
12.20
10.20
7.19
3.22
-1.39
-6.25
-10.96
-15.31
-19.30
-23.17
-27.25
-31.87
-37.26
-43.42
-50.19
-57.07
-63.28
-67.71
-69.13
-66.51
-59.32
-47.78
-32.94
-16.35
0.28
15.47
28.22
37.99
44.62
48.20
48.94
47.20
43.52
38.54
32.96
27.42
22.42
18.22
14.90
12.43
10.73
9.67
9.08
8.71
8.25
7.36
5.76
3.32
0.06
-3.87
-8.19
-12.65
-17.02
-21.19
-25.26
-29.46
-34.16
-39.62
-45.76
-51.99
-57.23
-60.11
-59.37
-54.25
-44.73
-31.51
-15.87
0.67
16.67
30.90
42.47
50.80
55.61
56.94
55.15
50.96
45.24
38.94
32.84
27.38
22.69
18.68
15.16
12.02
9.27
6.97
5.11
3.58
2.10
0.33
-2.04
-5.21
-9.15
-13.72
-18.62
-23.54
-28.24
-32.58
-36.63
-40.61
-44.85
-49.64
-55.04
-60.76
-65.99
-69.61
-70.32
-67.06
-59.32
-47.35
-32.12
-15.02
2.37
18.71
32.93
44.35
52.59
57.53
59.24
58.00
54.36
49.08
43.06
37.19
32.16
28.31
25.59
23.71
22.27
20.98
19.72
18.53
17.49
16.58
15.61
14.25
12.16
9.18
5.35
0.97
-3.62
-8.10
-12.32
-16.33
-20.28
-24.45
-29.14
-34.62
-41.02
-48.12
-55.25
-61.25
-64.64
-64.05
-58.64
-48.41
-34.23
-17.57
-0.09
16.69
31.62
43.95
53.21
59.19
61.88
61.50
58.57
53.78
47.94
41.88
36.24
31.42
27.60
24.67
22.43
20.64
19.11
17.72
16.46
15.30
14.13
12.74
10.81
8.07
4.39
-0.10
-5.04
-10.00
-14.58
-18.60
-22.18
-25.67
-29.57
-34.35
-40.29
-47.28
-54.75
-61.68
-66.70
-68.47
-66.01
-59.00
-47.89
-33.74
-17.94
-1.89
13.19
26.33
36.76
43.94
47.58
47.77
45.03
40.22
34.40
28.51
23.21
18.84
15.42
12.78
10.69
8.99
7.56
6.38
5.39
4.49
3.50
2.12
0.04
-2.96
-6.89
-11.54
-16.47
-21.25
-25.64
-29.75
-34.03
-39.10
-45.43
-53.01
-61.18
-68.71
-74.12
-76.06
-73.70
-66.97
-56.54
-43.73
-30.33
-18.22
-8.97
-3.40
-1.27
-1.32
-1.63
-0.25
4.21
12.18
23.10
35.67
48.35
59.66
68.47
74.07
76.16
74.83
70.47
63.75
55.50
46.63
37.97
30.21
23.77
18.78
15.13
12.54
10.62
8.99
7.31
5.33
2.87
-0.12
-3.61
-7.51
-11.72
-16.16
-20.81
-25.70
-30.90
-36.51
-42.60
-49.14
-55.85
-62.10
-66.85
-68.80
-66.77
-60.05
-48.78
-33.93
-17.13
-0.16
15.44
28.63
38.85
45.92
49.81
50.62
48.62
44.30
38.39
31.76
25.26
19.52
14.93
11.58
9.34
7.92
6.99
6.21
5.31
4.08
2.37
0.04
-2.93
-6.48
-10.41
-14.49
-18.52
-22.54
-26.81
-31.78
-37.83
-44.97
-52.60
-59.52
-64.13
-64.90
-60.85
-51.82
-38.53
-22.38
-5.04
11.91
27.17
39.85
49.38
55.49
58.15
57.63
54.45
49.35
43.20
36.78
30.71
25.39
21.04
17.77
15.57
14.35
13.84
13.61
13.16
11.97
9.77
6.53
2.51
-1.89
-6.34
-10.63
-14.80
-19.08
-23.81
-29.31
-35.81
-43.21
-50.94
-57.96
-62.80
-63.97
-60.32
-51.49
-38.03
-21.29
-3.06
14.85
30.93
44.12
53.79
59.62
61.66
60.29
56.22
50.47
44.11
38.05
32.88
28.77
25.60
23.12
21.13
19.51
18.20
17.13
16.08
14.74
12.75
9.87
6.06
1.54
-3.33
-8.13
-12.61
-16.75
-20.86
-25.44
-31.00
-37.73
-45.29
-52.70
-58.48
-61.02
-59.01
-51.89
-39.99
-24.52
-7.18
10.18
25.99
39.14
48.99
55.33
58.17
57.79
54.63
49.34
42.72
35.69
29.08
23.50
19.27
16.42
14.71
13.80
13.28
12.76
11.94
10.64
8.79
6.43
3.58
0.30
-3.41
-7.53
-12.02
-16.82
-21.94
-27.44
-33.39
-39.70
-45.90
-51.07
-53.89
-53.06
-47.70
-37.78
-24.16
-8.42
7.61
22.32
34.56
43.67
49.43
51.81
50.98
47.36
41.64
34.77
27.83
21.75
17.14
14.20
12.72
12.24
12.15
11.92
11.13
9.60
7.36
4.60
1.56
-1.69
-5.19
-9.16
-13.80
-19.19
-25.30
-31.95
-38.86
-45.58
-51.40
-55.31
-56.15
-52.94
-45.24
-33.41
-18.62
-2.52
13.21
27.17
38.47
46.64
51.55
53.26
52.03
48.33
42.84
36.42
29.89
23.98
19.15
15.61
13.30
11.97
11.28
10.78
10.01
8.58
6.25
2.99
-0.98
-5.34
-9.76
-14.10
-18.41
-22.95
-28.02
-33.88
-40.55
-47.72
-54.69
-60.39
-63.55
-63.02
-58.06
-48.66
-35.56
-20.05
-3.64
12.29
26.72
39.00
48.72
55.61
59.52
60.42
58.59
54.63
49.36
43.69
38.40
33.97
30.55
27.99
26.05
24.44
23.01
21.67
20.39
19.04
17.44
15.31
12.42
8.64
4.07
-1.02
-6.21
-11.16
-15.70
-19.90
-24.05
-28.56
-33.79
-39.92
-46.77
-53.80
-60.08
-64.39
-65.54
-62.64
-55.39
-44.16
-29.95
-14.07
2.11
17.42
31.01
42.27
50.85
56.56
59.44
59.74
57.91
54.53
50.26
45.71
41.41
37.68
34.71
32.49
30.89
29.76
28.98
28.50
28.24
28.07
27.76
26.94
25.31
22.68
19.11
14.86
10.36
5.99
2.02
-1.54
-4.83
-8.11
-11.60
-15.40
-19.43
-23.48
-27.34
-30.87
-34.08
-37.16
-40.34
-43.93
-48.12
-53.03
-58.50
-64.08
-68.96
-72.01
-72.08
-68.24
-60.22
-48.45
-33.98
-18.22
-2.54
11.98
24.61
34.92
42.71
47.89
50.53
50.88
49.33
46.43
42.77
38.93
35.39
32.46
30.31
28.88
28.00
27.41
26.90
26.35
25.69
24.93
24.01
22.83
21.23
19.11
16.45
13.39
10.17
7.06
4.25
1.75
-0.60
-3.04
-5.79
-8.93
-12.36
-15.83
-19.07
