-18.36
-15.45
-11.25
-6.33
-1.47
2.42
4.5
4.3
2.01
-1.4
-4.25
-4.43
-0.03
10.26
26.33
46.56
68.59
90.18
109.86
127.14
142.3
155.95
168.92
181.24
192.09
200.46
205.94
208.64
208.92
206.96
202.57
195.89
186.35
172.98
155.25
133.59
108.93
82.11
53.69
24.34
-3.88
-29.12
-50.23
-66.93
-79.7
-90.18
-100.54
-112.18
-129.81
-150.41
-166.03
-171.14
-167.65
-162.08
-160.63
-165.44
-174.13
-181.56
-182.18
-173.92
-158.69
-141.02
-123.53
-107.31
-92.42
-78.51
-65.2
-52.17
-40.23
-30.94
-25.48
-23.6
-23.99
-24.59
-25.35
-25.57
-24.51
-22.27
-19.61
-17.25
-15.31
-13.47
-11.26
-8.41
-4.69
-0.28
4.06
7.27
8.52
7.66
5.11
1.61
-2.1
-5.36
-7.97
-10.2
-12.63
-15.84
-20.17
-25.75
-32.45
-39.94
-47.4
-53.78
-57.8
-58.2
-53.98
-44.78
-31
-13.85
5
23.8
41
55.5
66.73
74.47
78.77
79.82
77.9
73.48
67.19
59.85
52.29
45.2
39.03
33.98
30.01
26.94
24.55
22.6
20.84
19.01
16.86
14.17
10.84
6.9
2.46
-2.25
-7.08
-11.99
-17.13
-22.84
-29.48
-37.18
-45.6
-53.79
-60.27
-63.37
-61.71
-54.68
-42.56
-26.52
-8.27
10.37
27.81
42.86
54.74
63.05
67.67
68.74
66.65
62.01
55.58
48.16
40.56
33.43
27.26
22.34
18.7
16.18
14.46
13.14
11.8
10.08
7.79
4.83
1.29
-2.67
-6.86
-11.15
-15.54
-20.12
-25.11
-30.76
-37.21
-44.41
-51.93
-58.93
-64.13
-66.07
-63.48
-55.64
-42.76
-25.97
-7.06
11.96
29.39
44.03
55.25
62.79
66.62
66.84
63.8
58.14
50.87
43.12
35.94
30.02
25.63
22.67
20.85
19.83
19.31
19.01
18.6
17.75
16.15
13.65
10.25
6.19
1.77
-2.7
-7.09
-11.46
-16.1
-21.35
-27.45
-34.31
-41.33
-47.47
-51.35
-51.68
-47.57
-38.85
-26.15
-10.75
5.67
21.44
35.19
45.97
53.31
57.08
57.45
54.79
49.64
42.74
34.95
27.15
20.09
14.29
9.97
7.03
5.23
4.17
3.46
2.73
1.6
-0.2
-2.81
-6.15
-10.03
-14.18
-18.35
-22.48
-26.65
-31.1
-36.16
-42.08
-48.87
-56.13
-62.92
-67.82
-69.26
-65.9
-57.14
-43.39
-26.03
-7
11.68
28.39
42.12
52.36
59
62.12
62
59.14
54.26
48.25
41.95
35.95
30.53
25.7
21.39
17.62
14.54
12.3
10.96
10.26
9.76
8.91
7.28
4.7
1.27
-2.73
-7.03
-11.42
-15.78
-20.09
-24.41
-28.88
-33.74
-39.25
-45.49
-52.09
-58.12
-62.13
-62.56
-58.22
-48.75
-34.82
-17.87
0.24
17.76
33.34
46.14
55.73
61.93
64.76
64.42
61.38
56.4
50.43
44.42
39.1
34.81
31.51
28.9
26.64
24.56
22.71
21.22
20.2
19.57
19
18.09
16.46
13.94
10.56
6.54
2.16
-2.31
-6.68
-10.84
-14.81
-18.74
-22.94
-27.78
-33.49
-40
-46.66
-52.27
-55.35
-54.55
-49.16
-39.34
-26.11
-11.01
4.36
18.67
30.98
40.67
47.39
50.93
51.29
48.8
44.05
37.89
31.15
24.55
18.57
13.41
9.14
5.72
3.11
1.18
-0.21
-1.27
-2.24
-3.4
-4.95
-7.04
-9.7
-12.87
-16.39
-20.11
-23.88
-27.64
-31.46
-35.59
-40.35
-45.92
-52.16
-58.38
-63.4
-65.85
-64.59
-59.07
-49.6
-37.16
-23.11
-8.86
4.4
15.77
24.6
30.44
33.1
32.68
29.61
24.67
18.76
12.78
7.38
2.95
-0.43
-2.87
-4.53
-5.62
-6.32
-6.83
-7.41
-8.34
-9.92
-12.32
-15.55
-19.41
-23.54
-27.52
-31
-33.85
-36.17
-38.35
-40.91
-44.25
-48.45
-53.05
-57.05
-59.16
-58.1
-53.04
-43.85
-31.12
-16.04
-0.03
15.55
29.62
41.42
50.52
56.72
59.98
60.44
58.36
54.19
48.54
42.13
35.7
29.84
24.95
21.15
18.31
16.18
14.46
12.92
11.43
9.84
7.98
5.61
2.48
-1.54
-6.35
-11.57
-16.72
-21.37
-25.35
-28.84
-32.28
-36.19
-41.01
-46.86
-53.41
-59.83
-64.91
-67.25
-65.63
-59.4
-48.68
-34.43
-18.12
-1.39
14.38
28.19
39.48
47.91
53.32
55.68
55.22
52.42
48.07
43.02
38.07
33.76
30.31
27.68
25.69
24.15
22.9
21.89
21.04
20.29
19.48
18.4
16.82
14.55
11.53
7.81
3.57
-0.94
-5.46
-9.8
-13.95
-18.08
-22.5
-27.57
-33.47
-40.04
-46.7
-52.45
-56.08
-56.48
-52.92
-45.26
-33.96
-19.97
-4.53
11.03
25.46
37.64
46.72
52.17
53.87
52.14
47.72
41.53
34.56
27.59
21.17
15.58
10.91
7.16
4.29
2.2
0.75
-0.3
-1.26
-2.48
-4.27
-6.78
-9.99
-13.74
-17.78
-21.9
-25.99
-30.07
-34.23
-38.65
-43.56
-49.11
-55.32
-61.88
-68.05
-72.7
-74.51
-72.37
-65.72
-54.8
-40.54
-24.4
-7.92
7.52
20.87
31.44
38.85
42.98
43.96
42.21
38.37
33.24
27.65
22.3
17.71
14.11
11.57
9.97
9.14
8.84
8.76
8.56
7.91
6.46
4.03
0.6
-3.66
-8.41
-13.27
-17.93
-22.29
-26.46
-30.81
-35.78
-41.78
-48.89
-56.69
-64.19
-69.88
-72.13
-69.58
-61.67
-48.81
-32.31
-13.95
4.5
21.6
36.38
48.27
56.87
61.97
63.58
62.05
58.14
52.85
47.23
42.06
37.72
34.24
31.46
29.16
27.24
25.68
24.47
23.52
22.62
21.44
19.66
17.03
13.46
8.99
3.77
-1.9
-7.7
-13.29
-18.42
-23.08
-27.55
-32.35
-38.04
-44.88
-52.58
-60.25
-66.48
-69.71
-68.63
-62.53
-51.47
-36.29
-18.41
0.49
18.75
35.01
48.35
58.32
64.86
68.16
68.59
66.62
62.78
57.71
52.06
46.52
41.68
37.95
35.47
34.1
33.45
33.03
32.46
31.56
30.3
28.79
27.02
24.81
21.93
18.11
13.35
7.92
2.29
-3.06
-7.87
-12.21
-16.42
-20.94
-26.15
-32.26
-39.27
-46.87
-54.46
-61.05
-65.37
-66.08
-62.22
-53.49
-40.51
-24.63
-7.65
8.72
23.14
34.73
43.02
47.8
49.05
47.04
42.37
35.97
28.94
22.29
16.64
12.19
8.77
6.1
3.97
2.33
1.24
0.71
0.52
0.21
-0.83
-3.15
-7.05
-12.48
-18.98
-25.9
-32.49
-38.19
-42.73
-46.19
-48.99
-51.69
-54.79
-58.47
-62.35
-65.47
-66.46
-63.94
-56.9
-45.15
-29.41
-11.11
7.97
26.15
42.1
55.01
64.42
70.16
72.24
70.98
67.04
61.47
55.53
50.43
46.95
45.29
45.07
45.58
46.08
46.04
45.28
43.88
42.04
39.9
37.47
34.63
31.27
27.4
23.18
18.87
14.69
10.65
6.5
1.76
-4.15
-11.77
-21.36
-32.81
-45.5
-58.27
-69.52
-77.48
-80.59
-77.92
-69.47
-56.2
-39.81
-22.3
-5.53
9.08
20.74
29.19
34.59
37.36
38.07
37.34
35.74
33.74
31.68
29.74
28.01
26.51
25.27
24.34
23.78
23.61
23.76
24.09
24.38
24.35
23.69
22.11
19.36
15.36
10.19
4.12
-2.45
-9.1
-15.51
-21.53
-27.23
-32.88
-38.83
-45.49
-53.14
-61.83
-71.12
-80.08
-87.27
-91.11
-90.32
-84.3
-73.42
-58.86
-42.22
-25.09
-8.65
6.36
19.54
30.6
39.2
44.91
47.37
46.47
42.49
36.13
28.42
20.5
13.39
7.78
3.9
1.6
0.45
-0.01
-0.17
-0.22
-0.27
-0.4
-0.81
-1.76
-3.51
-6.19
-9.73
-13.84
-18.2
-22.55
-26.84
-31.14
-35.6
-40.26
-45.05
-49.84
-54.62
-59.48
-64.59
-69.88
-74.85
-78.46
-79.39
-76.42
-68.93
-57.09
-41.8
-24.38
-6.18
11.56
27.78
41.54
52.01
58.61
61.26
60.53
57.55
53.66
49.99
47.12
45.06
43.43
41.85
40.21
38.74
37.83
37.75
38.45
39.58
40.57
40.9
40.16
38.2
35.06
30.97
26.31
21.53
17.04
13.11
9.62
6.1
1.75
-4.17
-12.06
-21.59
-31.61
-40.37
-46
-47.03
-42.83
-33.78
-21.09
-6.36
8.78
23
35.31
45.02
51.68
55.01
55.02
52.09
46.95
40.53
33.8
27.44
21.85
17.08
13.04
9.64
6.85
4.71
3.23
2.24
1.43
0.32
-1.47
-4.16
-7.63
-11.53
-15.3
-18.49
-20.84
-22.49
-23.93
-25.87
-29
-33.79
-40.32
-48.16
-56.42
-63.89
-69.15
-70.85
-67.92
-59.85
-46.79
-29.59
-9.69
11.2
31.33
49.22
63.84
74.71
81.9
85.92
87.52
87.48
86.32
84.29
81.46
78.02
74.47
71.72
70.8
72.53
77.07
83.67
90.87
96.69
99.03
95.96
86.02
68.58
44.27
15.04
-16.16
-45.96
-71.42
-90.73
-103.52
-110.49
-112.81
-111.51
-107.43
-101.62
-95.57
-91.13
-90.23
-94.27
-103.46
-116.44
-130.57
-142.84
-151.31
-155.01
-153.83
-147.87
-137.37
-122.63
-104.11
-82.78
-60.2
-39.11
-21.94
-9.85
-2.33
2.01
4.7
7.02
9.66
12.74
14.91
14.85
12.07
7.1
0.61
-6.91
-15.08
-23.45
-25.63
-18.15
-2.67
14.93
29.09
36.84
37.73
33.1
25.2
16.5
7.98
0.02
-8.08
-15.51
-21.5
-25.52
-26.97
-25.27
-20.1
-12.22
-2.69
7.75
19.13
31.86
45.18
58.21
70.06
79.86
86.3
88.42
85.96
79.75
71.07
61.33
52
44.16
38.29
34.07
30.87
28.22
26.05
24.42
23.31
22.65
22.15
21.38
19.79
17.06
13.18
8.53
3.53
-1.49
-6.36
-11.08
-15.86
-21
-26.79
-33.41
-40.76
-48.41
-55.5
-60.76
-62.82
-60.46
-53.03
-40.67
-24.31
-5.48
14.01
32.43
48.4
61.04
69.86
74.72
75.76
73.38
68.29
61.37
53.68
46.16
39.51
34.07
29.82
26.55
23.98
21.88
20.08
18.45
16.84
15
12.65
9.51
5.46
0.53
-5.02
-10.85
-16.63
-22.15
-27.44
-32.69
-38.22
-44.37
-51.38
-59.21
-67.44
-75.07
-80.72
-82.83
-80.12
-72.05
-58.97
-42.05
-22.92
-3.27
15.46
32.19
46.17
56.89
64.09
67.78
68.23
65.99
61.77
56.36
50.51
44.85
39.83
35.74
32.66
30.52
29.2
28.47
28.1
27.82
27.3
26.23
24.37
21.63
18.07
13.92
9.38
4.58
-0.46
-5.79
-11.35
-16.96
-22.33
-27.17
-31.35
-34.96
-38.36
-42
-46.28
-51.39
-57.14
-62.92
-67.66
-70.04
-68.79
-62.98
-52.42
-37.74
-20.26
-1.7
16.32
32.47
45.96
56.43
63.84
68.29
70.03
69.39
66.85
62.99
58.49
53.99
49.96
46.69
44.23
42.52
41.41
40.75
40.36
40.08
39.65
38.75
37.14
34.66
31.34
27.44
23.3
19.26
15.5
12.01
8.6
5.06
1.22
-2.91
-7.17
-11.32
-15.17
-18.62
-21.78
-24.88
-28.24
-32.16
-36.73
-41.75
-46.56
-50.16
-51.35
-49.11
-42.96
-33.14
-20.63
-6.83
6.82
19.15
29.42
37.26
42.49
45.02
44.82
42.1
37.32
31.25
24.81
18.85
13.95
10.34
7.93
6.4
5.42
4.7
4.05
3.38
2.62
1.68
0.42
-1.32
-3.69
-6.75
-10.41
-14.43
-18.51
-22.37
-25.91
-29.13
-32.18
-35.28
-38.63
-42.43
-46.75
-51.49
-56.31
-60.47
-63
-62.83
-59.19
-51.85
-41.26
-28.4
-14.56
-0.95
11.41
21.83
29.84
35.14
37.6
37.31
34.64
30.21
24.89
19.52
14.84
11.24
8.79
7.24
6.24
5.44
4.68
3.96
3.36
2.95
2.64
2.17
1.2
-0.57
-3.31
-6.93
-11.15
-15.57
-19.77
-23.47
-26.56
-29.12
-31.44
-33.9
-36.91
-40.71
-45.24
-49.98
-54.05
-56.29
-55.58
-51.23
-43.12
-31.8
-18.35
-4.01
9.98
22.7
33.51
42.04
48.09
51.55
52.5
51.12
47.89
43.46
38.58
33.92
29.91
26.73
24.34
22.64
21.53
20.92
20.72
20.74
20.75
20.47
19.76
18.56
16.91
14.84
12.38
9.51
6.3
2.93
-0.31
-3.13
-5.39
-7.18
-8.81
-10.71
-13.24
-16.57
-20.52
-24.59
-27.97
-29.73
-29.02
-25.32
-18.59
-9.43
1.13
11.8
21.44
29.31
35.21
39.46
42.54
44.85
46.44
47.01
46.13
43.49
39.17
33.65
27.67
21.96
17.01
12.94
9.61
6.81
4.4
2.31
0.56
-0.9
-2.25
-3.81
-5.97
-9.01
-12.94
-17.53
-22.41
-27.3
-32.13
-36.99
-42.05
-47.53
-53.4
-59.45
-65.5
-71.56
-77.85
-84.54
-91.46
-97.9
-102.95
-105.38
-104.03
-98.34
-88.73
-76.5
-63.35
-50.87
-40.16
-32.31
-27.54
-25.38
-25.02
-25.91
-27.81
-30.5
-33.68
-36.81
-40.25
-43.86
-46.96
-48.62
-48.44
-46.58
-43.47
-39.78
-36.09
-33.84
-33.44
-33.97
-33.7
-31.36
-26.47
-19.3
-11.19
3.98
26.94
53.19
76.74
95.21
109.65
121.78
131.91
138.04
138.18
130.97
118.62
105.23
94.94
89.48
87.72
86.53
81.22
68.4
46.45
16.66
-18.11
-53.1
-84.68
-110.35
-121.96
-115.23
-92.78
-63.82
-37.93
-20.58
-12.66
-12.01
-15
-18.28
-20.78
-22.76
-24.83
-27.91
-30.3
-30.59
-28.4
-24.32
-19.51
-16
-15.2
-17.42
-21.73
-26.46
-30.44
-33.07
-33.86
-32.59
-29.43
-24.37
-17.04
-6.94
6.16
21.56
37.88
53.52
67.01
77.12
83.22
85.36
84.17
80.58
75.4
69.28
62.77
56.3
50.1
44.27
38.9
34.12
30.08
26.88
24.53
22.99
22.08
21.48
20.81
19.66
17.71
14.81
10.97
6.34
1.17
-4.27
-9.71
-14.94
-19.85
-24.44
-28.87
-33.42
-38.53
-44.58
-51.75
-59.79
-67.87
-74.62
-78.4
-77.74
-71.78
-60.61
-45.27
-27.49
-9.14
8.17
23.4
36.04
45.94
53.09
57.51
59.26
58.55
55.83
51.74
47
42.25
37.92
34.22
31.2
28.8
26.97
25.66
24.77
24.18
23.7
23.05
22
20.32
17.85
14.52
10.41
5.69
0.61
-4.58
-9.67
-14.53
-19.14
-23.49
-27.65
-31.8
-36.15
-41.02
-46.61
-52.84
-59.1
-64.29
-66.97
-65.83
-60.1
-49.83
-35.94
-19.96
-3.56
11.82
25.17
35.93
43.8
48.61
50.34
49.17
45.64
40.6
35.09
30.03
25.98
23.03
20.95
19.38
18.1
17.08
16.45
16.29
16.49
16.72
16.54
15.51
13.42
10.33
6.53
2.39
-1.76
-5.76
-9.65
-13.64
-17.99
-23.03
-28.94
-35.71
-42.92
-49.7
-54.82
-56.9
-54.86
-48.28
-37.56
-23.85
-8.69
6.45
20.38
32.35
41.92
48.77
52.7
53.67
51.94
48.09
42.97
37.5
32.42
28.2
24.98
22.65
21
19.79
18.84
18.04
17.33
16.61
15.74
14.48
12.52
9.62
5.67
0.79
-4.61
-10.04
-15.01
-19.28
-22.86
-26.08
-29.45
-33.47
-38.51
-44.61
-51.33
-57.77
-62.66
-64.58
-62.4
-55.55
-44.34
-29.84
-13.6
2.76
17.94
31.09
41.79
49.83
55.13
57.7
57.68
55.47
51.65
46.95
42
37.3
33.14
29.6
26.69
24.38
22.63
21.46
20.83
20.68
20.81
20.9
20.6
19.6
17.74
15.06
11.7
7.9
3.86
-0.28
-4.39
-8.34
-12.06
-15.55
-18.96
-22.57
-26.73
-31.64
-37.2
-42.93
-47.93
-51.13
-51.46
-48.18
-41.05
-30.47
-17.35
-2.93
11.47
24.67
35.8
44.32
49.96
52.71
52.71
50.32
46.1
40.79
35.17
29.97
25.68
22.51
20.36
18.97
18.03
17.33
16.71
16.09
15.37
14.43
13.1
11.25
8.77
5.63
1.92
-2.2
-6.51
-10.79
-14.87
-18.71
-22.45
-26.3
-30.56
-35.44
-40.91
-46.58
-51.68
-55.18
-55.95
-53.19
-46.59
-36.54
-24.03
-10.39
3.01
15.02
24.82
31.95
36.2
37.61
36.48
33.36
28.98
24.14
19.51
15.52
12.36
10
8.32
7.15
6.35
5.76
5.17
4.36
3.12
1.28
-1.22
-4.38
-8.1
-12.18
-16.37
-20.42
-24.11
-27.41
-30.5
-33.74
-37.55
-42.23
-47.76
-53.66
-58.98
-62.55
-63.17
-60.03
-52.9
-42.24
-29.09
-14.73
-0.47
12.67
23.99
33.11
39.83
44.06
45.79
45.18
42.57
38.53
33.76
28.94
24.58
20.94
18.05
15.76
13.93
12.46
11.34
10.56
10.05
9.6
8.87
7.5
5.25
2.09
-1.78
-5.98
-10.06
-13.72
-16.86
-19.67
-22.57
-26.05
-30.49
-36.03
-42.41
-48.95
-54.62
-58.19
-58.53
-54.89
-47.1
-35.71
-21.84
-6.93
7.63
20.74
31.74
40.32
46.41
50.04
51.26
50.24
47.35
43.18
38.47
33.99
30.29
27.66
26.04
25.16
24.66
24.21
23.63
22.84
21.86
20.72
19.42
17.89
15.99
13.59
10.59
7
2.94
-1.36
-5.64
-9.69
-13.45
-17.03
-20.7
-24.78
-29.5
-34.9
-40.69
-46.22
-50.52
-52.51
-51.27
-46.28
-37.64
-26.04
-12.68
1.05
13.88
24.82
33.26
38.94
41.85
42.15
40.14
36.31
31.32
25.92
20.82
16.5
13.13
10.6
8.64
7.04
5.73
4.76
4.14
3.71
3.12
1.9
-0.31
-3.57
-7.6
-11.92
-16.06
-19.73
-22.94
-25.96
-29.17
-32.94
-37.51
-42.85
-48.64
-54.2
-58.54
-60.58
-59.35
-54.34
-45.64
-34.01
-20.64
-6.88
6.06
17.23
26.06
32.22
35.6
36.25
34.48
30.87
26.18
21.28
16.87
13.35
10.81
9.06
7.83
6.87
6.08
5.44
4.91
4.42
3.78
2.71
0.99
-1.51
-4.71
-8.39
-12.22
-15.87
-19.19
-22.21
-25.16
-28.41
-32.32
-37.14
-42.95
-49.46
-56.04
-61.62
-64.92
-64.66
-59.99
-50.83
-37.94
-22.75
-6.88
8.2
21.58
32.8
41.75
48.38
52.61
54.42
53.93
51.57
47.94
43.78
39.66
35.99
32.96
30.62
28.97
27.92
27.31
26.92
26.45
25.73
24.66
23.29
21.68
19.82
17.56
14.71
11.12
6.83
2.01
-3
-7.88
-12.42
-16.57
-20.51
-24.51
-28.91
-33.93
-39.59
-45.58
-51.2
-55.45
-57.21
-55.45
-49.58
-39.64
-26.35
-10.99
4.89
19.9
32.99
43.65
51.7
57.2
60.22
60.88
59.42
56.26
52.06
47.53
43.29
39.68
36.78
34.44
32.48
30.75
29.19
27.8
26.56
25.35
24.05
22.45
20.38
17.66
14.2
10.05
5.38
0.49
-4.33
-8.87
-13.09
-17.11
-21.21
-25.68
-30.76
-36.54
-42.84
-49.21
-54.89
-58.87
-60.15
-57.96
-51.99
-42.56
-30.51
-17.02
-3.39
9.22
19.89
28.03
33.31
35.69
35.43
33
29.1
24.44
19.72
15.5
12.09
9.63
7.99
6.94
6.23
5.65
5.07
4.42
3.6
2.43
0.68
-1.85
-5.23
-9.27
-13.64
-17.95
-21.9
-25.43
-28.72
-32.14
-36.04
-40.68
-46.06
-51.88
-57.5
-62
-64.36
-63.63
-59.2
-50.98
-39.46
-25.66
-10.86
3.65
16.85
28.03
36.77
42.87
46.28
47.07
45.51
42.12
37.58
32.65
28.02
24.14
21.2
19.16
17.85
17.08
16.66
16.41
16.18
15.76
14.96
13.59
11.55
8.81
5.45
1.65
-2.42
-6.53
-10.51
-14.29
-17.86
-21.37
-25.01
-29.1
-33.89
-39.52
-45.92
-52.67
-58.98
-63.78
-65.91
-64.4
-58.74
-49.08
-36.2
-21.29
-5.74
9.22
22.65
33.92
42.73
48.97
52.72
54.2
53.76
51.85
48.96
45.57
42.11
38.89
36.11
33.92
32.36
31.39
30.88
30.62
30.38
29.94
29.17
27.99
26.38
24.34
21.86
18.96
15.69
12.13
8.38
4.52
0.6
-3.33
-7.25
-11.1
-14.9
-18.74
-22.84
-27.44
-32.72
-38.64
-44.75
-50.2
-53.88
-54.66
-51.69
-44.76
-34.32
-21.39
-7.34
6.5
19.05
29.6
37.76
43.36
46.34
46.8
44.98
41.37
36.63
31.52
26.69
22.61
19.46
17.19
15.6
14.44
13.48
12.59
11.68
10.7
9.56
8.13
6.24
3.7
0.45
-3.42
-7.67
-11.92
-15.86
-19.29
-22.28
-25.05
-27.95
-31.36
-35.53
-40.57
-46.27
-52.06
-57.03
-60.01
-59.94
-56.1
-48.43
-37.56
-24.61
-10.95
2.16
13.74
23.11
29.86
33.81
34.97
33.6
30.25
25.66
20.65
15.94
11.98
8.94
6.7
5.04
3.69
2.48
1.35
0.28
-0.73
-1.72
-2.81
-4.12
-5.78
-7.84
-10.31
-13.07
-15.95
-18.7
-21.08
-22.96
-24.39
-25.63
-27.14
-29.44
-32.91
-37.57
-42.93
-48.01
-51.5
-52.09
-48.91
-41.72
-31.05
-17.98
-3.9
9.85
22.23
32.6
40.61
46.18
49.38
50.34
49.3
46.61
42.75
38.27
33.76
29.7
26.43
24.04
22.45
21.39
20.57
19.75
18.79
17.63
16.29
14.77
13
10.87
8.24
4.98
1.09
-3.27
-7.83
-12.27
-16.35
-19.97
-23.22
-26.28
-29.4
-32.82
-36.72
-41.18
-46.03
-50.78
-54.53
-56.12
-54.42
-48.73
-39.04
-26.08
-11.07
4.59
19.7
33.3
44.76
53.61
59.54
62.43
62.46
60.04
55.83
50.56
44.9
39.43
34.54
30.5
27.38
25.1
23.48
22.28
21.29
20.35
19.43
18.41
17.11
15.22
12.41
8.4
3.16
-3.11
-10
-17.07
-23.98
-30.54
-36.72
-42.62
-48.33
-54
-59.75
-65.73
-71.94
-78.15
-83.72
-87.7
-88.93
-86.37
-79.45
-68.28
-53.78
-37.39
-20.76
-5.3
8.02
18.7
26.75
32.42
36.02
37.82
38.01
36.83
34.56
31.57
28.28
25.27
23.11
22.03
21.79
21.8
21.34
19.85
17
12.67
7.2
1.21
-4.88
-11
-17.2
-23.41
-29.53
-35.59
-41.81
-48.03
-53.72
-58.57
-62.71
-66.46
-69.89
-72.61
-73.76
-72.1
-65.59
-52.11
-30.8
-2.8
29.43
63.13
95.97
126.34
149.41
159.32
153.82
136.14
112.54
88.68
68.34
53.53
44.5
40.06
38.58
38.64
38.55
36.56
32.01
25.62
18.82
13.07
9.5
9.18
12.98
19.73
27.39
34.12
38.82
40.23
37.02
28.22
13.91
-4.68
-27.21
-52.89
-79.97
-106.14
-129.62
-149.56
-165.6
-177.33
-174.44
-151.87
-112.98
-67.42
-24.78
9.2
32.5
45.84
51.5
52.45
49.89
44.67
37.94
31.15
25.57
21.56
19.66
20.14
22.87
26.17
28.43
28.93
27.85
25.79
23.35
21.08
19.32
18.09
16.35
12.95
7.99
1.83
-4.92
-11.7
-18.06
-23.79
-28.94
-34
-39.45
-45.32
-51.44
-57.55
-63.55
-69.56
-75.8
-82.3
-88.82
-94.5
-97.94
-97.68
-92.57
-82.21
-67.08
-48.4
-27.81
-7.01
12.53
29.75
43.9
54.63
61.86
65.7
66.47
64.62
60.8
55.78
50.4
45.39
41.26
38.2
36.07
34.58
33.41
32.38
31.44
30.57
29.67
28.58
27.05
24.85
21.91
18.28
14.13
9.66
5.03
0.3
-4.51
-9.38
-14.32
-19.28
-24.31
-29.53
-35.13
-41.26
-47.77
-54.09
-59.14
-61.54
-59.99
-53.74
-42.8
-28.06
-10.96
6.85
23.85
38.88
51.12
60.01
65.26
66.8
64.93
60.31
53.92
46.88
40.22
34.61
30.32
27.21
24.96
23.23
21.8
20.61
19.61
18.73
17.74
16.27
13.95
10.53
6.01
0.61
-5.27
-11.21
-16.92
-22.34
-27.59
-32.98
-38.85
-45.49
-52.92
-60.8
-68.34
-74.28
-77.18
-75.72
-69.13
-57.42
-41.52
-22.99
-3.65
14.8
31.14
44.64
54.97
62.04
65.84
66.51
64.34
59.96
54.18
47.96
42.14
37.27
33.56
30.91
29.03
27.58
26.32
25.13
24
22.94
21.87
20.58
18.77
16.13
12.47
7.86
2.55
-3.05
-8.55
-13.72
-18.54
-23.25
-28.16
-33.62
-39.87
-46.95
-54.68
-62.46
-69.32
-73.94
-74.89
-71.06
-61.99
-48.17
-30.94
-12.18
6.26
22.92
36.96
48.06
56.21
61.51
64.06
64.03
61.74
57.76
52.78
47.55
42.72
38.71
35.68
33.57
32.14
31.09
30.17
29.16
28.01
26.68
25.14
23.28
20.88
17.73
13.67
8.78
3.33
-2.23
-7.48
-12.15
-16.16
-19.67
-23.02
-26.6
-30.8
-35.83
-41.61
-47.61
-52.89
-56.24
-56.51
-53.02
-45.79
-35.58
-23.61
-11.25
0.34
10.39
18.47
24.42
28.16
29.61
28.81
25.91
21.35
15.8
10.05
4.88
0.82
-1.95
-3.56
-4.37
-4.74
-4.86
-4.74
-4.25
-3.31
-2.02
-0.72
0.11
0.1
-0.93
-2.93
-5.72
-9.1
-12.92
-17.13
-21.78
-26.95
-32.66
-38.89
-45.6
-52.61
-59.38
-64.99
-68.15
-67.56
-62.31
-52.08
-37.38
-19.49
-0.1
19.16
37.03
52.64
65.37
74.78
80.91
84.03
84.41
82.33
78.28
72.9
66.86
60.62
54.32
48.73
44.44
41.45
39.14
36.76
33.77
29.9
24.98
18.9
13.01
8.79
7.06
7.69
10.15
13.9
18.41
23.02
27.06
31.79
38.69
48.56
61.07
75.76
92.7
112.41
135.51
150.71
149.51
130.53
100.52
68.08
38.54
13.5
-7.35
-24.84
-39.76
-51.39
-58.92
-61.54
-60.74
-57.79
-53.42
-48.01
-42.06
-36.37
-31.68
-28.89
-28.82
-32.22
-39.32
-49.15
-59.77
-68.66
-73.5
-73.61
-69.43
-61.95
-52.35
-41.69
-31.02
-21.35
-13.94
-10.43
-14.41
-28.9
-54.42
-88.59
-127.29
-166.46
-203.05
-235.12
-248.58
-233.96
-192.56
-135.69
-76.34
-23.73
16.87
43.34
56.64
60.31
57.09
49.57
40.29
31.18
23.64
18.34
15.61
15.7
18.7
22.63
25.33
25.76
24.47
22.79
21.98
22.92
25.8
30.18
34.22
36.07
34.91
31.24
26.31
21.37
17.29
14.4
12.54
10.72
7.95
3.81
-1.35
-6.8
-11.82
-16
-19.3
-21.98
-24.74
-28.3
-33.06
-38.85
-44.93
-50.1
-52.96
-52.25
-47.16
-37.61
-24.33
-8.67
7.72
23.32
37.01
48.19
56.71
62.7
66.33
67.75
67.07
64.5
60.39
55.31
49.88
44.71
40.24
36.68
34.02
32.13
30.78
29.78
28.91
27.97
26.81
25.28
23.28
20.8
17.87
14.56
10.95
7.08
2.97
-1.33
-5.73
-10.13
-14.36
-18.38
-22.2
-26
-29.99
-34.4
-39.34
-44.7
-50.06
-54.66
-57.47
-57.45
-53.81
-46.31
-35.42
-22.13
-7.82
6.16
18.69
29.05
36.89
42.09
44.68
44.85
42.89
39.31
34.71
29.77
25.1
21.11
17.97
15.63
13.89
12.51
11.3
10.23
9.31
8.58
8.01
7.43
6.54
5.03
2.69
-0.49
-4.31
-8.41
-12.43
-16.17
-19.68
-23.19
-27.09
-31.73
-37.29
-43.63
-50.26
-56.32
-60.77
-62.55
-60.8
-55.16
-45.8
-33.48
-19.39
-4.81
9.03
21.27
31.37
39.09
44.36
47.18
47.63
45.89
42.35
37.56
32.22
27.01
22.49
18.96
16.54
15.08
14.31
13.87
13.42
12.71
11.62
10.18
8.49
6.64
4.62
2.33
-0.37
-3.6
-7.39
-11.61
-16.01
-20.33
-24.37
-28.06
-31.52
-34.97
-38.74
-43.09
-48.07
-53.36
-58.2
-61.5
-62.04
-58.84
-51.48
-40.3
-26.26
-10.74
4.84
19.32
31.91
42.21
50.05
55.44
58.49
59.39
58.44
56.01
52.56
48.54
44.37
40.41
36.93
34.07
31.87
30.27
29.13
28.25
27.45
26.56
25.5
24.23
22.69
20.82
18.47
15.53
11.93
7.74
3.13
-1.67
-6.44
-11.02
-15.36
-19.47
-23.46
-27.52
-31.93
-36.95
-42.66
-48.76
-54.43
-58.44
-59.45
-56.47
-49.17
-38.1
-24.43
-9.69
4.67
17.56
28.28
36.44
41.86
44.5
44.47
42.16
38.22
33.44
28.64
24.41
21.02
18.48
16.63
15.29
14.35
13.78
13.53
13.49
13.45
13.08
12.08
10.23
7.46
3.93
-0.11
-4.32
-8.41
-12.28
-15.97
-19.7
-23.76
-28.37
-33.61
-39.28
-44.89
-49.68
-52.71
-53.07
-50.08
-43.52
-33.71
-21.5
-8.07
5.34
17.64
28.06
36.1
41.52
44.3
44.61
42.81
39.48
35.3
30.93
26.87
23.41
20.62
18.42
16.76
15.64
15.13
15.21
15.74
16.27
16.12
14.55
11.03
5.47
-1.69
-9.58
-17.24
-23.9
-29.23
-33.35
-36.68
-39.68
-42.73
-45.9
-49
-51.49
-52.57
-51.32
-46.97
-39.19
-28.29
-15.14
-1.03
12.78
25.27
35.84
44.25
50.47
54.57
56.57
56.56
54.71
51.35
46.93
42.07
37.33
33.15
29.7
26.92
24.57
22.41
20.26
18.16
16.15
14.31
12.56
10.71
8.52
5.85
2.68
-0.85
-4.54
-8.21
-11.78
-15.28
-18.82
-22.51
-26.47
-30.76
-35.43
-40.45
-45.63
-50.56
-54.5
-56.51
-55.62
-51.14
-42.93
-31.49
-17.9
-3.58
10.15
22.25
32.09
39.48
44.43
47.06
47.5
45.9
42.48
37.62
31.81
25.62
19.55
13.98
9.08
4.86
1.18
-2.11
-5.19
-8.15
-11.11
-14.1
-17.23
-20.61
-24.34
-28.47
-32.94
-37.57
-42.09
-46.26
-49.88
-52.9
-55.41
-57.56
-59.58
-61.71
-64.17
-67.11
-70.5
-74.01
-76.96
-78.38
-77.26
-72.78
-64.62
-53.07
-38.96
-23.51
-8.02
6.39
18.85
28.83
36.08
40.59
42.53
42.22
40.17
36.95
33.16
29.36
25.99
23.3
21.41
20.24
19.63
19.39
19.28
19.07
18.53
17.47
15.69
13.13
9.83
6.01
1.95
-2.06
-5.87
-9.48
-13.07
-16.89
-21.19
-26.06
-31.4
-36.85
-41.81
-45.45
-46.89
-45.39
-40.59
-32.65
-22.25
-10.43
1.68
13.13
23.26
31.65
38.01
42.13
43.86
43.22
40.53
36.41
31.63
26.96
22.93
19.78
17.49
15.95
14.97
14.42
14.16
13.99
13.65
12.83
11.29
8.89
5.69
1.91
-2.17
-6.27
-10.2
-13.88
-17.31
-20.58
-23.85
-27.37
-31.41
-36.15
-41.5
-46.96
-51.58
-54.16
-53.59
-49.18
-40.9
-29.44
-15.93
-1.71
12.01
24.32
34.64
42.7
48.38
51.73
52.9
52.19
50.01
46.89
43.3
39.66
36.21
33.06
30.26
27.86
25.97
24.67
23.94
23.6
23.31
22.68
21.43
19.48
16.99
14.14
11.11
7.92
4.51
0.79
-3.17
-7.16
-10.89
-14.16
-16.95
-19.49
-22.15
-25.33
-29.29
-34.08
-39.5
-45.04
-49.93
-53.22
-53.89
-51.19
-44.76
-34.87
-22.32
-8.35
5.76
18.85
30.15
39.26
46.1
50.76
53.41
54.24
53.46
51.34
48.25
44.64
40.99
37.7
35
32.98
31.57
30.61
29.9
29.26
28.46
27.36
25.86
23.93
21.62
18.99
16.11
12.98
9.56
5.79
1.65
-2.77
-7.32
-11.76
-15.9
-19.68
-23.22
-26.78
-30.7
-35.26
-40.55
-46.38
-52.25
-57.36
-60.75
-61.53
-59.05
-53.14
-44.15
-32.9
-20.47
-7.97
3.64
13.65
21.54
27.01
29.91
30.32
28.6
25.3
21.15
16.86
13.02
9.98
7.87
6.6
5.97
5.76
5.71
5.67
5.46
4.97
4.06
2.61
0.52
-2.21
-5.48
-9.08
-12.79
-16.38
-19.74
-22.86
-25.83
-28.81
-32.06
-35.85
-40.38
-45.65
-51.27
-56.43
-59.97
-60.7
-57.73
-50.84
-40.46
-27.62
-13.6
0.39
13.35
24.57
33.57
40.06
43.92
45.29
44.5
42.09
38.66
34.77
30.83
27.17
23.99
21.45
19.64
18.57
18.12
18.06
18.14
18.06
17.63
16.7
15.22
13.17
10.56
7.42
3.78
-0.26
-4.57
-8.95
-13.19
-17.17
-20.89
-24.45
-28.04
-31.88
-36.2
-41.18
-46.85
-53.05
-59.16
-64.2
-66.96
-66.26
-61.39
-52.38
-39.98
-25.45
-10.17
4.65
18.18
29.93
39.57
46.88
51.75
54.19
54.42
52.88
50.14
46.81
43.43
40.39
37.93
36.18
35.14
34.74
34.83
35.21
35.63
35.83
35.57
34.67
33.03
30.66
27.69
24.38
20.98
17.74
14.76
11.98
9.19
6.09
2.48
-1.71
-6.35
-11.14
-15.77
-20.03
-23.93
-27.71
-31.79
-36.58
-42.29
-48.67
-54.99
-60.15
-62.89
-62.15
-57.42
-48.84
-37.19
-23.63
-9.44
4.19
16.36
26.41
33.97
38.9
41.24
41.21
39.16
35.6
31.14
26.39
21.92
18.11
15.13
12.93
11.35
10.22
9.43
8.93
8.63
8.33
7.74
6.54
4.53
1.67
-1.84
-5.69
-9.55
-13.23
-16.68
-19.95
-23.19
-26.54
-30.14
-34.15
-38.73
-43.89
-49.44
-54.8
-59.04
-61.02
-59.75
-54.64
-45.75
-33.84
-20.05
-5.72
7.97
20.14
30.21
37.88
43.01
45.56
45.65
43.54
39.72
34.82
29.56
24.62
20.48
17.38
15.3
14.03
13.25
12.69
12.14
11.45
10.52
9.26
7.47
4.99
1.66
-2.53
-7.44
-12.79
-18.2
-23.34
-28.01
-32.2
-36.06
-39.86
-43.91
-48.49
-53.75
-59.63
-65.72
-71.2
-74.89
-75.5
-71.96
-63.84
-51.53
-36.2
-19.45
-2.91
12.16
25
35.34
43.13
48.44
51.33
51.97
50.69
47.99
44.49
40.76
37.27
34.24
31.79
29.94
28.63
27.8
27.28
26.91
26.52
25.99
25.23
24.15
22.54
20.18
16.83
12.46
7.32
1.89
-3.33
-7.97
-12.03
-15.76
-19.62
-23.99
-29.15
-35.12
-41.69
-48.33
-54.22
-58.31
-59.48
-56.82
-49.93
-39.03
-25.01
-9.18
7.03
22.34
35.76
46.73
55.01
60.67
63.92
65.09
64.49
62.51
59.54
56.02
52.43
49.19
46.56
44.58
43.1
41.89
40.73
39.49
38.17
36.71
34.99
32.72
29.62
25.47
20.26
14.23
7.78
1.38
-4.64
-10.06
-14.89
-19.24
-23.3
-27.36
-31.72
-36.63
-42.17
-48.1
-53.75
-58.05
-59.79
-57.97
-52.06
-42.29
-29.52
-15.07
-0.4
13.22
24.79
33.62
39.35
41.9
41.47
38.56
33.95
28.52
23.1
18.33
14.52
11.7
9.68
8.17
6.9
5.69
4.42
3.01
1.34
-0.73
-3.39
-6.74
-10.78
-15.34
-20.16
-24.99
-29.73
-34.44
-39.29
-44.48
-50.22
-56.56
-63.25
-69.65
-74.74
-77.3
-76.19
-70.61
-60.43
-46.31
-29.58
-11.87
5.28
20.66
33.43
43.06
49.45
52.69
52.96
50.54
45.91
39.81
33.05
26.37
20.27
15.43
12.15
10.13
8.5
6.3
2.93
-1.8
-7.72
-14.54
-21.01
-26.02
-29.27
-31.32
-32.91
-34.49
-36.26
-38.35
-40.91
-42.59
-42.06
-39.1
-34.84
-30.6
-26.92
-23.3
-18.43
-10.72
3.18
25.74
56.79
93.4
131.58
167.98
200.3
227.11
235.8
217.96
176.27
124.25
76.32
40.25
17.02
3.58
-4.45
-11
-16.45
-19
-18.16
-14.89
-10.75
-6.85
-3.63
-1.09
0.25
1.1
1.88
1.81
-0.96
-7.67
-17.83
-29.61
-40.93
-51.2
-59.83
-66.41
-71.02
-74.14
-76.27
-77.39
-76.94
-74.14
-69.34
-62.37
-52.55
-39.47
-23.9
-7.99
5.41
13.61
14.8
6.95
-10.07
-33.98
-61.16
-88.44
-114.2
-138.31
-161.22
-172.94
-166.73
-143.51
-110.96
-77.27
-47.54
-24.13
-7.6
2.91
9.17
11.62
10.25
6.14
0.69
-4.95
-10.11
-14.41
-17.49
-19.02
-20.08
-21.74
-24.24
-27.21
-30.23
-33.21
-36.24
-39.4
-42.59
-46.2
-50.12
-53.22
-53.66
-49.7
-40.42
-25.99
-7.59
13
33.47
51.89
67.13
78.81
86.93
91.56
92.84
91.09
86.91
81.06
74.43
67.93
62.22
57.58
53.91
50.91
48.38
46.26
44.57
43.29
42.16
40.73
38.49
35.09
30.48
24.94
18.95
13
7.37
2.07
-3.08
-8.45
-14.4
-21.2
-28.92
-37.24
-45.42
-52.32
-56.57
-56.91
-52.54
-43.37
-30.07
-13.91
3.58
20.88
36.79
50.42
61.16
68.67
72.77
73.52
71.25
66.57
60.34
53.51
46.9
41.12
36.43
32.87
30.28
28.46
27.24
26.44
25.83
25.16
24.04
22.11
19.08
14.86
9.65
3.83
-2.16
-7.98
-13.54
-19.02
-24.82
-31.37
-39
-47.72
-57.1
-66.19
-73.61
-77.8
-77.39
-71.59
-60.5
-45.05
-26.83
-7.62
10.96
27.74
41.99
53.35
61.63
66.74
68.68
67.65
64.07
58.65
52.28
45.86
40.12
35.44
31.86
29.15
26.97
25.03
23.22
21.54
19.99
18.48
16.76
14.49
11.39
7.26
2.19
-3.55
-9.55
-15.4
-20.8
-25.66
-30.14
-34.6
-39.51
-45.28
-52.08
-59.61
-67.03
-73.04
-76.09
-74.79
-68.34
-56.78
-40.99
-22.51
-3.1
15.62
32.48
46.8
58.26
66.69
72.04
74.33
73.82
71
66.66
61.66
56.78
52.49
48.98
46.17
43.89
41.99
40.39
39.02
37.82
36.62
35.23
33.42
31.02
27.92
24.13
19.69
14.75
9.46
4.05
-1.29
-6.39
-11.17
-15.66
-20
-24.45
-29.32
-34.91
-41.32
-48.34
-55.31
-61.13
-64.47
-64.06
-59.14
-49.68
-36.46
-20.92
-4.74
10.53
23.69
34.02
41.22
45.29
46.47
45.18
42
37.6
32.68
27.88
23.6
20.11
17.41
15.4
13.93
12.83
11.99
11.29
10.63
9.81
8.62
6.81
4.18
0.71
-3.45
-7.97
-12.44
-16.51
-20.07
-23.29
-26.63
-30.59
-35.56
-41.54
-48.06
-54.17
-58.62
-60.15
-57.84
-51.4
-41.26
-28.4
-14.09
0.43
14.13
26.27
36.34
43.94
48.74
50.64
49.86
46.96
42.8
38.19
33.89
30.4
27.85
26.01
24.55
23.26
22.14
21.41
21.19
21.66
22.89
24.52
25.79
25.71
23.46
18.46
10.51
-0.42
-13.62
-27.75
-41.42
-53.35
-62.87
-69.84
-75.1
-79.78
-85.05
-90.74
-95.24
-96.6
-93.13
-84.21
-70.05
-52.06
-29.47
-4.22
19.95
39.89
54.09
62.99
67.95
71.07
73.44
75.52
76.71
76.88
74.32
66.64
52.48
32.14
8.4
-15.67
-37.04
-53.89
-66.43
-70
-65.01
-54.91
-48
-44.67
-44
-45.49
-46.79
-47.57
-47.89
-48.55
-49.58
-50.34
-49.41
-46.69
-42.8
-38.72
-35.65
-34.1
-34.64
-37.01
-40.37
-43.1
-44.35
-43.52
-40.08
-33.86
-24.74
-13.33
-0.37
13.26
26.98
39.81
50.84
59.53
65.48
68.68
69.16
67.24
63.44
58.58
53.24
47.94
43.13
39.02
35.74
33.21
31.26
29.69
28.39
27.2
25.96
24.57
22.92
20.9
18.47
15.6
12.32
8.72
4.88
0.9
-3.15
-7.21
-11.24
-15.18
-18.99
-22.69
-26.36
-30.16
-34.27
-38.77
-43.51
-48.05
-51.66
-53.45
-52.62
-48.69
-41.64
-31.95
-20.5
-8.35
3.44
13.98
22.65
29.05
32.97
34.4
33.49
30.62
26.36
21.39
16.38
11.87
8.2
5.49
3.73
2.79
2.51
2.71
3.14
3.56
3.67
3.24
2.07
0.09
-2.65
-5.99
-9.7
-13.53
-17.32
-21.02
-24.72
-28.63
-32.96
-37.91
-43.43
-49.25
-54.78
-59.2
-61.61
-61.19
-57.48
-50.42
-40.46
-28.41
-15.3
-2.24
9.81
20.08
28.05
33.47
36.34
36.85
35.37
32.38
28.46
24.17
20.05
16.47
13.63
11.52
9.98
8.83
7.86
6.95
6.06
5.19
4.34
3.4
2.19
0.44
-2.05
-5.36
-9.32
-13.61
-17.83
-21.7
-25.19
-28.53
-32.18
-36.6
-42.05
-48.43
-55.17
-61.29
-65.57
-66.82
-64.17
-57.33
-46.66
-33.06
-17.78
-2.09
12.89
26.31
37.61
46.37
52.35
55.49
55.96
54.25
51.08
47.25
43.44
40.11
37.39
35.24
33.48
32.01
30.78
29.77
28.97
28.34
27.7
26.9
25.74
24.03
21.69
18.67
15.04
10.99
6.74
2.49
-1.6
-5.49
-9.31
-13.3
-17.74
-22.89
-28.8
-35.21
-41.39
-46.26
-48.54
-47.17
-41.59
-31.95
-19.17
-4.62
10.2
23.93
35.57
44.48
50.37
53.19
53.19
50.79
46.68
41.6
36.26
31.21
26.74
22.95
19.76
17.09
14.86
13.08
11.75
10.84
10.18
9.46
8.28
6.33
3.46
-0.22
-4.37
-8.56
-12.49
-16.07
-19.5
-23.16
-27.47
-32.69
-38.76
-45.2
-51.16
-55.48
-56.99
-54.81
-48.56
-38.57
-25.77
-11.52
2.74
15.73
26.51
34.53
39.53
41.54
40.78
37.67
32.83
26.99
20.93
15.29
10.53
6.88
4.31
2.7
1.83
1.46
1.32
1.14
0.64
-0.44
-2.23
-4.75
-7.86
-11.35
-15.01
-18.69
-22.33
-25.99
-29.81
-34.05
-38.92
-44.5
-50.47
-56.06
-60.08
-61.2
-58.4
-51.26
-40.2
-26.31
-11.04
4.18
18.2
30.27
39.92
46.87
51.01
52.36
51.18
48.01
43.57
38.66
33.99
30.04
26.98
24.76
23.19
22.06
21.2
20.53
19.98
19.4
18.57
17.16
14.83
11.41
6.99
1.96
-3.1
-7.66
-11.47
-14.67
-17.71
-21.17
-25.47
-30.75
-36.72
-42.78
-48.03
-51.42
-51.91
-48.66
-41.32
-30.18
-16.18
-0.75
14.5
28.24
39.6
48.21
54.09
57.39
58.35
57.19
54.24
50.02
45.22
40.58
36.65
33.68
31.59
30.06
28.78
27.58
26.51
25.68
25.13
24.7
23.95
22.38
19.58
15.48
10.36
4.79
-0.64
-5.54
-9.86
-13.84
-17.93
-22.5
-27.77
-33.68
-39.88
-45.71
-50.26
-52.51
-51.56
-46.88
-38.55
-27.25
-14.21
-0.84
11.53
21.93
29.77
34.84
37.21
37.08
34.85
31.03
26.22
21.06
16.11
11.78
8.26
5.57
3.62
2.3
1.47
0.96
0.57
0.04
-0.9
-2.43
-4.66
-7.52
-10.85
-14.43
-18.06
-21.65
-25.25
-29.02
-33.17
-37.89
-43.16
-48.61
-53.52
-56.84
-57.49
-54.67
-48.13
-38.3
-26.17
-12.97
0.09
12.05
22.26
30.3
35.89
38.87
39.27
37.38
33.76
29.14
24.26
19.71
15.77
12.52
9.88
7.82
6.31
5.34
4.8
4.47
4
3.06
1.46
-0.85
-3.73
-6.98
-10.41
-13.89
-17.37
-20.89
-24.59
-28.7
-33.41
-38.71
-44.18
-48.95
-51.85
-51.75
-47.93
-40.37
-29.74
-17.16
-3.89
8.98
20.63
30.54
38.33
43.73
46.6
47.01
45.25
41.86
37.52
32.92
28.61
24.96
22.1
20
18.55
17.57
16.92
16.45
16.03
15.46
14.49
12.91
10.6
7.63
4.21
0.61
-2.89
-6.22
-9.46
-12.83
-16.65
-21.16
-26.42
-32.17
-37.77
-42.23
-44.41
-43.31
-38.48
-30.13
-19.14
-6.75
5.78
17.5
27.81
36.37
42.97
47.41
49.55
49.37
47.11
43.27
38.47
33.37
28.5
24.21
20.65
17.85
15.74
14.19
13.03
12.03
10.96
9.56
7.63
5.07
1.92
-1.68
-5.47
-9.22
-12.82
-16.28
-19.79
-23.62
-28.05
-33.21
-38.94
-44.7
-49.65
-52.77
-53.14
-50.13
-43.64
-34.09
-22.4
-9.74
2.6
13.52
22.23
28.32
31.73
32.71
31.64
28.98
25.25
20.96
16.66
12.82
9.75
7.51
5.91
4.68
3.59
2.49
1.37
0.25
-0.98
-2.45
-4.37
-6.81
-9.69
-12.8
-15.96
-19.07
-22.27
-25.84
-30.08
-35.14
-40.87
-46.78
-52.03
-55.62
-56.54
-54.04
-47.85
-38.31
-26.3
-13.08
0.07
12.08
22.28
30.33
36.15
39.76
41.23
40.71
38.54
35.26
31.46
27.72
24.39
21.56
19.19
17.22
15.66
14.55
13.89
13.49
13.05
12.17
10.57
8.15
5.05
1.52
-2.18
-5.85
-9.38
-12.78
-16.1
-19.51
-23.23
-27.51
-32.45
-37.85
-43.06
-47.04
-48.64
-46.9
-41.43
-32.51
-21.08
-8.41
4.23
15.85
25.84
33.92
40.03
44.13
46.22
46.37
44.85
42.13
38.86
35.71
33.14
31.33
30.15
29.29
28.5
27.63
26.71
25.84
25.07
24.3
23.31
21.83
19.64
16.7
13.16
9.29
5.36
1.56
-2.06
-5.6
-9.22
-13.07
-17.27
-21.9
-26.91
-32.06
-36.88
-40.63
-42.4
-41.4
-37.21
-29.92
-20.23
-9.21
2.01
12.42
21.33
28.34
33.21
35.87
36.33
34.73
31.43
26.99
22.06
17.32
13.28
10.16
7.94
6.42
5.37
4.58
3.94
3.33
2.61
1.57
0.02
-2.15
-4.87
-7.94
-11.09
-14.11
-16.97
-19.72
-22.53
-25.55
-28.95
-32.86
-37.3
-42.1
-46.81
-50.63
-52.61
-51.84
-47.8
-40.55
-30.78
-19.54
-8.02
2.77
12.08
19.44
24.61
27.48
28.1
26.72
23.75
19.72
15.23
10.79
6.77
3.41
0.85
-0.89
-1.89
-2.36
-2.6
-2.91
-3.55
-4.64
-6.21
-8.21
-10.6
-13.3
-16.22
-19.21
-22.16
-25.03
-27.96
-31.2
-35.05
-39.65
-44.81
-49.89
-53.97
-55.95
-54.98
-50.58
-42.88
-32.51
-20.47
-7.87
4.31
15.29
24.53
31.68
36.51
38.93
39.06
37.26
34.12
30.3
26.44
22.96
20.03
17.63
15.61
13.87
12.37
11.18
10.35
9.86
9.56
9.19
8.38
6.89
4.59
1.56
-1.94
-5.6
-9.12
-12.39
-15.5
-18.69
-22.3
-26.59
-31.6
-37.06
-42.32
-46.43
-48.36
-47.27
-42.75
-34.91
-24.4
-12.22
0.56
12.99
24.3
33.97
41.66
47.12
50.28
51.26
50.35
48.03
44.82
41.17
37.42
33.8
30.49
27.63
25.36
23.8
22.98
22.82
23.13
23.58
23.81
23.43
22.14
19.83
16.6
12.78
8.84
5.26
2.3
-0.08
-2.26
-4.79
-8.27
-13.05
-19.07
-25.8
-32.28
-37.32
-39.77
-38.78
-34.04
-25.88
-15.2
-3.29
8.48
18.94
27.26
32.96
35.9
36.11
33.82
29.41
23.43
16.58
9.59
3.11
-2.43
-6.92
-10.46
-13.33
-15.78
-17.91
-19.74
-21.24
-22.44
-23.5
-24.63
-26.05
-27.87
-30.07
-32.58
-35.34
-38.35
-41.74
-45.68
-50.33
-55.72
-61.69
-67.77
-73.22
-77.03
-78.18
-75.86
-69.75
-60.15
-47.95
-34.36
-20.64
-7.85
3.32
12.52
19.62
24.6
27.5
28.45
27.73
25.83
23.4
21.12
19.51
18.78
18.89
19.6
20.63
21.77
22.88
23.82
24.39
24.3
23.3
21.29
18.5
15.35
12.31
9.7
7.52
5.4
2.78
-0.95
-6.1
-12.59
-19.82
-26.78
-32.21
-34.87
-33.9
-29.01
-20.57
-9.47
3.17
16.24
28.73
39.85
49.03
55.77
59.76
60.9
59.43
55.9
51.06
45.58
40.26
35.84
32.73
30.91
29.94
29.25
28.24
26.46
23.35
18.96
13.72
7.98
1.71
-5.24
-12.89
-20.98
-29.02
-37.03
-44.63
-51.33
-57.12
-62.63
-68.58
-75.3
-82.48
-89.27
-95.12
-98.45
-97.02
-88.97
-73.93
-52.65
-26.88
1.04
31.98
61.27
83.07
94.87
98.36
95.91
89.48
80.64
71.4
64.47
60.76
60.79
64.27
69.55
73.04
71.99
65.83
56.3
46.66
37.69
29.61
22.12
13.7
0.41
-19.93
-47.7
-81.04
-116.05
-150.59
-182.14
-207.88
-216.19
-201.94
-170.13
-132.9
-107.4
-92.75
-85.54
-82.24
-77.45
-68.65
-56.52
-42.72
-28.44
-13.8
2.36
19.06
35
49.1
60.13
66.23
66.48
61.66
54.03
46.88
41.51
38.37
37.43
38.01
38.63
38.1
36.1
33.2
30.69
28.77
27.25
25.88
24.24
21.7
17.95
13.14
7.8
2.61
-2.48
-7.82
-13.7
-20.26
-27.25
-33.87
-38.83
-40.72
-38.4
-31.64
-21.01
-7.68
6.9
21.41
34.81
46.39
55.66
62.24
65.83
66.27
63.71
58.67
52.03
44.79
37.87
31.91
27.2
23.74
21.34
19.7
18.47
17.26
15.75
13.64
10.83
7.34
3.29
-1.16
-5.93
-11.04
-16.61
-22.81
-29.79
-37.53
-45.68
-53.43
-59.56
-62.62
-61.3
-54.88
-43.5
-28.2
-10.64
7.32
24.09
38.52
49.99
58.25
63.25
65.11
64.05
60.45
54.92
48.24
41.23
34.62
28.92
24.35
20.86
18.2
15.97
13.77
11.27
8.27
4.7
0.64
-3.76
-8.33
-12.91
-17.43
-21.95
-26.68
-31.95
-38.12
-45.32
-53.28
-61.14
-67.51
-70.74
-69.42
-62.8
-51.08
-35.39
-17.44
0.91
18.08
33
45.06
54.03
59.82
62.5
62.28
59.61
55.17
49.8
44.33
39.4
35.36
32.23
29.85
27.9
26.1
24.22
22.11
19.71
16.99
13.91
10.42
6.51
2.16
-2.61
-7.85
-13.64
-20.11
-27.35
-35.21
-43.15
-50.15
-54.9
-56.04
-52.66
-44.55
-32.37
-17.41
-1.27
14.57
28.93
41.08
50.56
57.07
60.45
60.71
58.14
53.37
47.29
40.87
34.94
30.07
26.47
24.11
22.83
22.41
22.66
23.31
24.05
24.5
24.35
23.4
21.63
19.14
16
12.23
7.75
2.53
-3.2
-8.88
-13.63
-16.37
-16.18
-12.53
-5.51
4.26
15.75
27.78
39.27
49.3
57.16
62.35
64.59
63.85
60.47
55.09
48.54
41.66
35.11
29.29
24.32
20.14
16.56
13.39
10.42
7.48
4.43
1.17
-2.34
-6.19
-10.47
-15.36
-21.06
-27.75
-35.46
-43.89
-52.35
-59.72
-64.69
-66.08
-63.19
-56.02
-45.33
-32.36
-18.53
-5.14
6.79
16.54
23.62
27.75
28.89
27.28
23.48
18.31
12.72
7.57
3.46
0.66
-0.9
-1.52
-1.56
-1.36
-1.17
-1.16
-1.5
-2.36
-3.98
-6.55
-10.22
-15.05
-20.99
-27.87
-35.32
-42.8
-49.45
-54.26
-56.16
-54.4
-48.69
-39.44
-27.61
-14.52
-1.53
10.19
19.86
27.02
31.53
33.43
32.96
30.48
26.54
21.78
16.86
12.34
8.57
5.65
3.43
1.68
0.13
-1.4
-3.02
-4.79
-6.77
-9.05
-11.71
-14.8
-18.32
-22.24
-26.58
-31.33
-36.47
-41.77
-46.75
-50.6
-52.36
-51.16
-46.49
-38.39
-27.48
-14.82
-1.73
10.57
21.07
29.19
34.73
37.79
38.7
37.84
35.67
32.62
29.14
25.68
22.64
20.29
18.72
17.86
17.51
17.41
17.35
17.13
16.61
15.71
14.39
12.69
10.7
8.52
6.21
3.75
1.02
-2.09
-5.7
-9.79
-14.2
-18.6
-22.44
-24.99
-25.45
-23.13
-17.72
-9.47
0.82
11.93
22.64
31.94
39.23
44.32
47.27
48.22
47.4
45.08
41.62
37.43
32.91
28.37
24.02
20.02
16.52
13.64
11.42
9.73
8.29
6.75
4.84
2.49
-0.14
-2.82
-5.34
-7.68
-9.97
-12.43
-15.26
-18.55
-22.34
-26.66
-31.48
-36.61
-41.59
-45.6
-47.64
-46.83
-42.79
-35.84
-26.97
-17.49
-8.65
-1.33
4.1
7.53
9.01
8.56
6.27
2.3
-2.89
-8.69
-14.41
-19.48
-23.61
-26.75
-29.02
-30.61
-31.68
-32.39
-32.84
-33.18
-33.54
-33.98
-34.52
-35.11
-35.72
-36.39
-37.25
-38.48
-40.17
-42.26
-44.47
-46.27
-47.02
-46
-42.65
-36.65
-28.08
-17.43
-5.6
6.35
17.37
26.64
33.65
38.22
40.41
40.42
38.54
35.2
30.94
26.34
21.94
18.08
14.85
12.1
9.61
7.21
4.83
2.52
0.35
-1.7
-3.71
-5.82
-8.08
-10.5
-13.08
-15.9
-19.11
-22.83
-27.02
-31.26
-34.79
-36.67
-36.07
-32.54
-26.2
-17.68
-7.94
1.95
11.07
18.67
24.32
27.82
29.2
28.66
26.56
23.35
19.52
15.56
11.94
8.98
6.84
5.44
4.59
3.96
3.34
2.62
1.87
1.18
0.61
0.07
-0.69
-1.94
-3.98
-6.93
-10.79
-15.35
-20.24
-24.9
-28.62
-30.59
-30.06
-26.62
-20.3
-11.7
-1.82
8.19
17.33
24.9
30.56
34.17
35.7
35.18
32.73
28.67
23.59
18.2
13.18
9.03
5.89
3.65
2.05
0.77
-0.41
-1.66
-3.04
-4.59
-6.28
-8.12
-10.08
-12.15
-14.39
-16.87
-19.78
-23.31
-27.56
-32.41
-37.42
-41.8
-44.56
-44.74
-41.69
-35.28
-25.97
-14.66
-2.51
9.32
19.88
28.5
34.82
38.7
40.23
39.64
37.27
33.55
28.97
24.07
19.36
15.25
11.96
9.53
7.8
6.53
5.44
4.28
2.8
0.83
-1.72
-4.82
-8.29
-11.92
-15.45
-18.79
-21.96
-25.13
-28.55
-32.49
-37.1
-42.29
-47.6
-52.21
-54.98
-54.8
-50.89
-43.05
-31.83
-18.32
-3.87
10.17
22.72
32.99
40.5
45.08
46.8
46.01
43.24
39.14
34.31
29.27
24.37
19.82
15.75
12.26
9.46
7.42
6.12
5.34
4.73
3.83
2.24
-0.27
-3.62
-7.48
-11.46
-15.18
-18.52
-21.58
-24.66
-28.12
-32.27
-37.25
-42.9
-48.73
-53.87
-57.19
-57.49
-53.91
-46.14
-34.6
-20.38
-4.96
10.16
23.76
35.04
43.6
49.39
52.55
53.33
52.11
49.38
45.66
41.49
37.32
33.44
29.95
26.83
23.99
21.36
18.96
16.85
15.05
13.5
12
10.26
8.03
5.18
1.83
-1.78
-5.31
-8.57
-11.54
-14.41
-17.48
-21.05
-25.32
-30.28
-35.66
-40.86
-44.97
-46.87
-45.47
-40.14
-30.88
-18.47
-4.29
10.12
23.39
34.63
43.36
49.44
52.86
53.69
52.13
48.54
43.57
37.96
32.4
27.35
22.94
19.1
15.7
12.72
10.28
8.51
7.44
6.92
6.58
6.02
4.91
3.04
0.43
-2.82
-6.48
-10.26
-13.89
-17.14
-20.02
-22.71
-25.65
-29.27
-33.81
-39.04
-44.23
-48.23
-49.76
-47.79
-41.89
-32.33
-20.05
-6.41
7.16
19.44
29.56
37.07
41.83
43.95
43.75
41.7
38.35
34.27
29.93
25.69
21.72
18.11
14.93
12.29
10.32
9.07
8.44
8.18
7.9
7.21
5.86
3.78
1.13
-1.84
-4.85
-7.72
-10.35
-12.79
-15.16
-17.65
-20.51
-23.96
-28.1
-32.74
-37.34
-41.02
-42.79
-41.77
-37.49
-29.99
-19.83
-7.97
4.49
16.4
26.81
34.94
40.32
42.77
42.47
39.94
35.9
31.22
26.65
22.74
19.74
17.64
16.28
15.48
15.12
15.17
15.63
16.39
17.22
17.72
17.5
16.3
14.04
10.92
7.24
3.38
-0.43
-4.09
-7.75
-11.67
-16.13
-21.25
-26.78
-32.04
-35.96
-37.36
-35.24
-29.13
-19.29
-6.71
7.18
20.85
33
42.73
49.62
53.58
54.77
53.51
50.25
45.56
40.11
34.6
29.61
25.57
22.63
20.71
19.59
18.89
18.18
17.04
15.08
12.11
8.14
3.43
-1.65
-6.78
-11.74
-16.52
-21.22
-25.98
-30.92
-36.14
-41.71
-47.56
-53.38
-58.53
-62.04
-62.87
-60.24
-53.9
-44.28
-32.39
-19.56
-7.08
4.01
12.98
19.46
23.31
24.65
23.78
21.18
17.45
13.17
8.81
4.61
0.64
-3.17
-6.86
-10.41
-13.71
-16.62
-19.08
-21.22
-23.31
-25.74
-28.86
-32.9
-37.85
-43.56
-49.71
-55.98
-62.19
-68.31
-74.5
-80.96
-87.74
-94.5
-100.47
-104.42
-105.03
-101.24
-92.64
-79.59
-63.1
-44.56
-25.39
-6.81
10.21
24.94
36.81
45.52
50.99
53.48
53.49
51.77
49
45.78
42.43
39.13
35.92
32.88
30.16
27.98
26.54
25.95
26.13
26.8
27.63
28.33
28.72
28.83
28.77
28.62
28.32
27.61
26.11
23.37
19.06
13.12
5.85
-2.05
-9.57
-15.57
-19
-19.17
-15.91
-9.63
-1.25
8.03
17.02
24.72
30.48
33.99
35.19
34.22
31.37
27.01
21.59
15.58
9.46
3.66
-1.46
-5.63
-8.71
-10.72
-11.89
-12.56
-13.17
-14.08
-15.54
-17.62
-20.29
-23.41
-26.82
-30.37
-33.9
-37.34
-40.76
-44.38
-48.39
-52.8
-57.16
-60.58
-61.86
-59.86
-53.9
-44.04
-31
-16.05
-0.61
13.96
26.63
36.69
43.77
47.81
49.03
47.83
44.73
40.3
35.1
29.63
24.33
19.58
15.63
12.59
10.37
8.74
7.35
5.84
3.92
1.44
-1.62
-5.11
-8.88
-12.78
-16.78
-21.01
-25.75
-31.32
-37.97
-45.64
-53.83
-61.49
-67.24
-69.6
-67.43
-60.25
-48.43
-33.05
-15.67
2.09
18.82
33.44
45.32
54.1
59.74
62.4
62.47
60.48
57.01
52.61
47.71
42.62
37.55
32.69
28.2
24.24
20.92
18.26
16.11
14.19
12.14
9.57
6.22
2.03
-2.84
-8.06
-13.26
-18.22
-22.98
-27.87
-33.37
-39.85
-47.29
-55.06
-61.94
-66.34
-66.78
-62.26
-52.62
-38.54
-21.35
-2.67
15.88
32.95
47.57
59.06
67.13
71.76
73.21
71.94
68.58
63.82
58.36
52.78
47.52
42.79
38.65
35.04
31.9
29.25
27.11
25.5
24.3
23.21
21.81
19.67
16.61
12.73
8.37
4.03
0.1
-3.28
-6.24
-9.19
-12.61
-16.97
-22.49
-29.01
-35.9
-42.08
-46.22
-47
-43.56
-35.78
-24.27
-10.25
4.8
19.5
32.75
43.82
52.28
57.92
60.73
60.86
58.7
54.75
49.62
43.86
37.93
32.15
26.77
21.94
17.81
14.5
12.09
10.55
9.79
9.53
9.41
9
7.89
5.89
2.98
-0.59
-4.47
-8.32
-11.98
-15.56
-19.42
-23.96
-29.51
-36.05
-43.12
-49.79
-54.82
-56.95
-55.18
-49.1
-38.99
-25.78
-10.82
4.41
18.54
30.5
39.61
45.56
48.4
48.42
46.16
42.2
37.16
31.57
25.82
20.23
15.06
10.48
6.61
3.48
1
-1
-2.78
-4.64
-6.86
-9.69
-13.31
-17.74
-22.86
-28.36
-33.88
-39.1
-43.9
-48.47
-53.26
-58.7
-64.97
-71.64
-77.67
-81.54
-81.67
-76.99
-67.23
-53.11
-36.02
-17.69
0.34
16.93
31.38
43.34
52.57
58.93
62.32
62.88
61.03
57.42
52.85
48
43.35
39.06
35.09
31.35
27.8
24.5
21.58
19.08
16.89
14.74
12.29
9.29
5.65
1.56
-2.64
-6.57
-9.92
-12.67
-15.03
-17.47
-20.57
-24.82
-30.41
-37.13
-44.21
-50.47
-54.44
-54.8
-50.68
-41.92
-29.16
-13.63
3.15
19.68
34.74
47.51
57.61
64.94
69.6
71.83
71.94
70.36
67.57
64.09
60.4
56.85
53.59
50.56
47.64
44.75
41.94
39.41
37.35
35.84
34.75
33.74
32.37
30.21
27.04
22.91
18.13
13.21
8.66
4.88
1.93
-0.52
-3.21
-7.03
-12.81
-20.94
-31.12
-42.31
-52.89
-61.08
-65.45
-65.25
-60.65
-52.6
-42.49
-31.78
-21.74
-13.22
-6.8
-2.72
-1.02
-1.46
-3.55
-6.58
-9.84
-12.75
-15.04
-16.75
-18.04
-19.08
-19.88
-20.31
-20.22
-19.57
-18.51
-17.34
-16.41
-16.01
-16.23
-17.06
-18.34
-19.9
-21.6
-23.41
-25.42
-27.83
-30.89
-34.83
-39.66
-45.02
-50.13
-53.8
-54.77
-51.97
-44.92
-33.89
-19.87
-4.33
11.17
25.3
37.19
46.39
52.75
56.33
57.26
55.81
52.42
47.76
42.56
37.48
32.94
29.01
25.61
22.57
19.89
17.67
16.07
15.11
14.58
14.09
13.17
11.5
8.97
5.76
2.18
-1.42
-4.8
-7.94
-10.96
-14.17
-17.91
-22.51
-28.06
-34.37
-40.8
-46.29
-49.55
-49.31
-44.73
-35.65
-22.6
-6.76
10.43
27.48
43.13
56.45
66.88
74.26
78.75
80.83
81.2
80.6
79.58
78.41
76.88
74.47
70.45
64.21
55.43
44.31
31.49
17.9
4.54
-7.85
-18.92
-28.66
-37.32
-45.13
-52.24
-58.63
-64.28
-69.23
-73.67
-77.95
-82.37
-87.2
-92.53
-98.32
-104.32
-109.96
-114.36
-116.38
-114.82
-108.81
-98.07
-83.07
-64.93
-45.22
-25.56
-7.37
8.29
20.84
30.1
36.21
39.54
40.56
39.85
37.98
35.48
32.8
30.18
27.68
25.19
22.56
19.74
16.82
14.01
11.49
9.35
7.52
5.81
4.06
2.15
0.02
-2.32
-4.85
-7.55
-10.48
-13.72
-17.47
-21.94
-27.19
-33.03
-38.76
-43.3
-45.37
-43.85
-38.23
-28.73
-16.31
-2.39
11.56
24.31
35.04
43.3
48.92
51.88
52.25
50.29
46.43
41.29
35.56
29.87
24.62
19.95
15.79
11.99
8.49
5.36
2.76
0.89
-0.24
-0.81
-1.21
-1.94
-3.45
-5.99
-9.55
-13.84
-18.42
-22.91
-27.14
-31.2
-35.4
-40.09
-45.5
-51.63
-58.11
-64.22
-68.92
-71
-69.36
-63.28
-52.76
-38.54
-21.99
-4.72
11.76
26.33
38.3
47.34
53.34
56.39
56.79
55.13
52.2
48.83
45.62
42.85
40.43
38.13
35.7
33.1
30.44
27.93
25.78
24.07
22.8
21.81
20.85
19.6
17.74
15.08
11.64
7.68
3.58
-0.34
-4
-7.63
-11.67
-16.6
-22.68
-29.82
-37.43
-44.53
-49.88
-52.19
-50.52
-44.43
-34.22
-20.83
-5.62
9.89
24.34
36.7
46.32
52.93
56.54
57.44
56.11
53.12
49.09
44.55
39.92
35.43
31.19
27.23
23.55
20.24
17.4
15.13
13.43
12.13
10.88
9.26
6.9
3.64
-0.43
-5.01
-9.69
-14.18
-18.38
-22.39
-26.53
-31.15
-36.52
-42.72
-49.42
-55.89
-60.96
-63.36
-61.92
-56.07
-45.95
-32.49
-17.15
-1.56
12.83
24.99
34.35
40.71
44.11
44.69
42.69
38.49
32.66
25.97
19.21
13.09
8.08
4.29
1.59
-0.33
-1.78
-3.02
-4.27
-5.68
-7.41
-9.59
-12.25
-15.29
-18.56
-21.87
-25.13
-28.44
-32.03
-36.24
-41.28
-47.1
-53.22
-58.7
-62.29
-62.72
-59.08
-51.09
-39.24
-24.69
-8.96
6.41
20.15
31.41
39.77
45.13
47.61
47.45
45.08
41.04
36.02
30.7
25.65
21.24
17.59
14.64
12.26
10.33
8.74
7.34
5.9
4.17
1.92
-0.93
-4.29
-7.95
-11.7
-15.41
-19.13
-23.06
-27.55
-32.96
-39.47
-46.96
-54.77
-61.73
-66.34
-67.2
-63.39
-54.81
-42.16
-26.73
-10.07
6.34
21.32
34.04
43.99
51
55.15
56.71
56.1
53.76
50.17
45.77
40.97
36.12
31.5
27.31
23.66
20.59
18.15
16.29
14.9
13.75
12.49
10.77
8.34
5.08
1.09
-3.37
-7.94
-12.29
-16.24
-19.85
-23.5
-27.73
-33.06
-39.66
-47.03
-53.96
-58.78
-59.79
-55.91
-47.07
-34.18
-18.83
-2.74
12.7
26.62
38.54
48.15
55.18
59.39
60.74
59.53
56.38
52.13
47.54
43.11
39.06
35.37
31.96
28.8
25.94
23.53
21.68
20.38
19.45
18.59
17.39
15.5
12.74
9.15
4.99
0.66
-3.52
-7.32
-10.78
-14.16
-17.86
-22.27
-27.64
-33.94
-40.66
-46.86
-51.3
-52.66
-50
-43.03
-32.22
-18.73
-4.03
10.41
23.44
34.29
42.58
48.18
51.15
51.67
50.06
46.71
42.16
36.98
31.72
26.83
22.58
19.07
16.23
13.93
12.09
10.64
9.54
8.71
7.9
6.79
5.05
2.47
-0.94
-4.96
-9.25
-13.52
-17.64
-21.7
-25.96
-30.71
-36.15
-42.18
-48.38
-53.95
-57.85
-58.98
-56.48
-49.98
-39.71
-26.57
-11.82
3.09
16.89
28.64
37.76
44.05
47.54
48.44
47.13
44.13
40.03
35.46
31.02
27.13
24.07
21.91
20.63
20.1
20.11
20.37
20.52
20.18
19.07
17.11
14.46
11.51
8.69
6.35
4.63
3.43
2.46
1.31
-0.4
-2.87
-5.91
-8.84
-10.49
-9.46
-4.57
4.64
17.66
33.04
48.79
62.95
74.05
81.29
84.53
84.02
80.2
73.65
65.05
55.18
44.81
34.57
24.82
15.64
6.93
-1.42
-9.39
-16.77
-23.24
-28.43
-32.12
-34.25
-35.03
-34.92
-34.55
-34.58
-35.55
-37.72
-41.07
-45.34
-50.23
-55.56
-61.34
-67.83
-75.36
-84.1
-94
-104.59
-115.05
-124.23
-130.76
-133.3
-130.68
-122.24
-107.96
-88.59
-65.52
-40.55
-15.53
7.94
28.67
45.83
58.84
67.28
70.9
69.83
64.65
56.51
46.83
37.05
28.21
20.84
14.95
10.28
6.51
3.44
0.89
-1.31
-3.42
-5.74
-8.45
-11.54
-14.76
-17.75
-20.2
-22.02
-23.41
-24.75
-26.48
-29
-32.54
-37.18
-42.86
-49.31
-55.98
-62
-66.3
-67.85
-65.95
-60.45
-51.77
-40.74
-28.31
-15.37
-2.67
9.11
19.32
27.34
32.75
35.44
35.74
34.24
31.66
28.61
25.5
22.53
19.81
17.38
15.33
13.75
12.69
12.18
12.16
12.48
12.86
12.98
12.48
11.12
8.84
5.83
2.45
-0.93
-4.04
-6.85
-9.55
-12.48
-15.98
-20.28
-25.34
-30.82
-36
-39.9
-41.44
-39.77
-34.46
-25.73
-14.39
-1.64
11.21
22.95
32.7
39.88
44.25
45.88
45.03
42.17
37.83
32.6
27.06
21.75
17.12
13.49
10.98
9.49
8.72
8.25
7.66
6.63
5.01
2.79
0.08
-2.96
-6.18
-9.49
-12.88
-16.39
-20.14
-24.27
-28.95
-34.28
-40.19
-46.28
-51.79
-55.66
-56.74
-54.16
-47.6
-37.45
-24.72
-10.82
2.83
15.07
25.16
32.71
37.64
40.07
40.23
38.48
35.27
31.12
26.53
21.96
17.75
14.11
11.15
8.88
7.27
6.19
5.43
4.71
3.71
2.19
0.02
-2.75
-5.93
-9.28
-12.56
-15.71
-18.84
-22.24
-26.3
-31.3
-37.27
-43.84
-50.16
-55.09
-57.39
-56.03
-50.52
-41.04
-28.38
-13.77
1.43
15.96
28.88
39.58
47.75
53.31
56.34
57.09
55.95
53.43
50.07
46.31
42.45
38.68
35.13
31.88
29.04
26.7
24.83
23.3
21.87
20.23
18.06
15.15
11.47
7.14
2.45
-2.22
-6.57
-10.48
-14.1
-17.86
-22.26
-27.73
-34.31
-41.52
-48.36
-53.48
-55.52
-53.48
-46.99
-36.44
-22.86
-7.66
7.72
22.07
34.54
44.63
52.07
56.76
58.74
58.3
55.91
52.26
48.05
43.87
40.09
36.84
34.04
31.62
29.5
27.71
26.32
25.33
24.6
23.86
22.74
20.89
18.13
14.49
10.24
5.7
1.23
-2.97
-6.83
-10.4
-13.82
-17.32
-21.22
-25.81
-31.21
-37.1
-42.63
-46.59
-47.65
-44.84
-37.86
-27.18
-13.89
0.65
15.14
28.54
40.12
49.43
56.17
60.22
61.65
60.74
57.97
53.99
49.43
44.84
40.57
36.77
33.46
30.63
28.28
26.42
25.08
24.24
23.75
23.33
22.62
21.32
19.26
16.53
13.37
10.13
7.08
4.28
1.58
-1.29
-4.62
-8.55
-13.06
-17.94
-22.76
-26.93
-29.71
-30.41
-28.52
-23.94
-17.05
-8.7
0.07
8.25
15.02
19.91
22.68
23.25
21.67
18.09
12.81
6.34
-0.67
-7.5
-13.55
-18.4
-21.94
-24.28
-25.68
-26.42
-26.72
-26.76
-26.7
-26.74
-27.08
-27.86
-29.14
-30.84
-32.8
-34.89
-37.04
-39.29
-41.75
-44.6
-47.97
-51.87
-56.13
-60.25
-63.47
-64.81
-63.34
-58.42
-49.93
-38.39
-24.81
-10.48
3.37
15.78
26.12
34.05
39.41
42.15
42.34
40.27
36.46
31.65
26.6
21.92
17.88
14.47
11.52
8.89
6.56
4.55
2.85
1.35
-0.26
-2.25
-4.81
-7.96
-11.5
-15.18
-18.76
-22.11
-25.26
-28.39
-31.81
-35.81
-40.56
-45.86
-51.12
-55.31
-57.17
-55.61
-49.99
-40.44
-27.81
-13.48
1.05
14.53
26.14
35.53
42.64
47.52
50.18
50.68
49.18
46.04
41.84
37.26
32.85
28.96
25.65
22.82
20.3
17.98
15.9
14.19
12.89
11.93
11.05
9.85
7.96
5.18
1.55
-2.65
-7.04
-11.3
-15.25
-18.95
-22.63
-26.58
-31.05
-36.12
-41.58
-46.9
-51.22
-53.56
-52.97
-48.84
-41.08
-30.17
-17.11
-3.19
10.29
22.26
32.05
39.42
44.42
47.26
48.17
47.34
45.01
41.47
37.19
32.68
28.44
24.84
22.02
19.95
18.52
17.56
16.95
16.55
16.21
15.76
14.99
13.71
11.8
9.24
6.13
2.66
-0.96
-4.57
-8.12
-11.64
-15.24
-18.98
-22.85
-26.85
-31.03
-35.48
-40.33
-45.47
-50.47
-54.45
-56.27
-54.87
-49.64
-40.69
-28.87
-15.5
-1.96
10.66
21.68
30.79
37.94
43.09
46.23
47.4
46.78
44.75
41.76
38.3
34.76
31.41
28.45
26.03
24.25
23.09
22.43
22.03
21.63
21.03
20.12
18.91
17.42
15.66
13.6
11.2
8.41
5.25
1.77
-1.94
-5.75
-9.49
-13.06
-16.42
-19.66
-23.01
-26.77
-31.16
-36.21
-41.65
-46.87
-50.99
-53.03
-52.11
-47.7
-39.8
-28.98
-16.24
-2.8
10.14
21.66
31.14
38.24
42.82
44.93
44.79
42.8
39.54
35.65
31.71
28.09
24.94
22.26
19.96
17.97
16.3
14.95
13.93
13.09
12.21
11
9.23
6.79
3.72
0.26
-3.35
-6.87
-10.19
-13.35
-16.49
-19.84
-23.64
-28.09
-33.25
-38.99
-44.87
-50.15
-53.89
-55.13
-53.19
-47.88
-39.55
-29.03
-17.36
-5.6
5.36
14.83
22.32
27.48
30.08
30.1
27.81
23.8
18.86
13.8
9.24
5.48
2.46
-0.04
-2.21
-4.16
-5.83
-7.15
-8.13
-8.93
-9.81
-11.1
-13
-15.54
-18.59
-21.88
-25.18
-28.38
-31.56
-34.95
-38.89
-43.59
-48.99
-54.63
-59.66
-63
-63.54
-60.53
-53.72
-43.45
-30.65
-16.5
-2.21
11.21
23.05
32.84
40.26
45.13
47.4
47.28
45.21
41.79
37.71
33.52
29.57
26.03
22.91
20.18
17.84
15.89
14.36
13.2
12.26
11.32
10.1
8.37
5.96
2.89
-0.75
-4.71
-8.81
-12.91
-17.03
-21.34
-26.08
-31.44
-37.47
-43.92
-50.18
-55.3
-58.15
-57.71
-53.33
-44.97
-33.26
-19.38
-4.73
9.45
22.19
32.95
41.44
47.52
51.1
52.19
51
47.97
43.74
39.06
34.54
30.6
27.41
24.91
22.96
21.42
20.21
19.29
18.6
18.02
17.36
16.34
14.69
12.25
8.99
5.07
0.82
-3.4
-7.35
-10.95
-14.44
-18.26
-22.88
-28.69
-35.69
-43.4
-50.85
-56.73
-59.73
-58.85
-53.64
-44.38
-31.92
-17.49
-2.4
12.21
25.45
36.7
45.54
51.75
55.25
56.18
54.87
51.83
47.7
43.13
38.68
34.73
31.43
28.8
26.74
25.13
23.93
23.07
22.49
22.05
21.56
20.78
19.51
17.59
14.92
11.5
7.44
2.96
-1.72
-6.37
-10.96
-15.61
-20.66
-26.45
-33.18
-40.71
-48.46
-55.45
-60.4
-62.13
-59.77
-53.08
-42.54
-29.22
-14.5
0.24
13.87
25.55
34.74
41.09
44.42
44.81
42.65
38.62
33.55
28.29
23.53
19.64
16.75
14.74
13.39
12.45
11.7
10.92
9.9
8.44
6.38
3.6
0.13
-3.83
-7.98
-12
-15.65
-18.94
-22.12
-25.59
-29.83
-35.13
-41.49
-48.49
-55.3
-60.76
-63.61
-62.81
-57.79
-48.67
-36.25
-21.81
-6.83
7.39
19.85
29.96
37.43
42.2
44.28
43.84
41.2
36.88
31.58
26.11
21.19
17.26
14.44
12.55
11.24
10.21
9.32
8.53
7.85
7.2
6.32
4.87
2.55
-0.7
-4.72
-9.14
-13.58
-17.77
-21.66
-25.42
-29.36
-33.86
-39.25
-45.73
-53.15
-60.92
-67.92
-72.67
-73.67
-69.85
-60.96
-47.67
-31.39
-13.88
3.25
18.8
32.08
42.72
50.62
55.73
58.13
58.03
55.82
52.07
47.4
42.43
37.66
33.44
29.92
27.12
24.95
23.28
22
20.98
20.13
19.3
18.29
16.88
14.85
12.04
8.43
4.12
-0.62
-5.43
-10.03
-14.24
-18.13
-22
-26.31
-31.47
-37.67
-44.69
-51.85
-58.04
-61.95
-62.35
-58.39
-49.87
-37.34
-22
-5.39
10.96
25.85
38.58
48.91
56.82
62.36
65.55
66.39
65.03
61.85
57.42
52.43
47.49
43.02
39.21
36.14
33.78
32.08
30.92
30.18
29.64
29.07
28.25
26.97
25.1
22.56
19.34
15.51
11.21
6.63
2
-2.51
-6.76
-10.77
-14.65
-18.59
-22.82
-27.59
-33.05
-39.17
-45.64
-51.83
-56.75
-59.26
-58.3
-53.22
-43.96
-31.21
-16.2
-0.45
14.53
27.65
38.21
45.95
50.87
53.15
52.99
50.65
46.56
41.28
35.56
30.13
25.53
21.98
19.4
17.54
16.12
14.97
14.04
13.32
12.75
12.1
11.04
9.26
6.53
2.89
-1.43
-6.03
-10.53
-14.7
-18.52
-22.17
-25.97
-30.23
-35.14
-40.71
-46.73
-52.68
-57.72
-60.75
-60.69
-56.82
-49.02
-37.93
-24.77
-10.95
2.21
13.75
23.05
29.76
33.7
34.84
33.41
29.86
24.94
19.44
14.08
9.31
5.36
2.23
-0.15
-1.91
-3.08
-3.77
-4.07
-4.19
-4.44
-5.17
-6.65
-9
-12.12
-15.71
-19.39
-22.86
-26.02
-29.02
-32.19
-35.94
-40.57
-46.1
-52.18
-58.03
-62.52
-64.41
-62.67
-56.75
-46.81
-33.69
-18.68
-3.24
11.28
23.85
33.78
40.75
44.71
45.85
44.59
41.49
37.24
32.52
27.94
23.95
20.76
18.35
16.57
15.22
14.15
13.31
12.7
12.24
11.74
10.82
9.09
6.3
2.39
-2.38
-7.55
-12.66
-17.34
-21.48
-25.24
-28.98
-33.15
-38.12
-44.03
-50.63
-57.25
-62.88
-66.28
-66.36
-62.36
-54.11
-42.1
-27.39
-11.34
4.65
19.43
32.25
42.69
50.61
55.98
58.82
59.25
57.58
54.3
50.06
45.52
41.21
37.39
34.16
31.48
29.31
27.63
26.41
25.57
24.91
24.17
23.06
21.41
19.13
16.25
12.86
9.05
4.89
0.4
-4.32
-9.17
-13.93
-18.47
-22.71
-26.76
-30.86
-35.34
-40.49
-46.39
-52.83
-59.24
-64.72
-68.17
-68.5
-64.91
-57.09
-45.43
-30.88
-14.81
1.31
16.23
29.07
39.34
46.91
51.84
54.29
54.53
52.91
50
46.42
42.81
39.65
37.1
35.07
33.36
31.8
30.39
29.25
28.55
28.27
28.21
27.98
27.22
25.67
23.34
20.4
17.12
13.76
10.44
7.18
3.88
0.42
-3.35
-7.48
-11.93
-16.53
-21
-25.1
-28.66
-31.76
-34.72
-38.03
-42.13
-47.24
-53.13
-59.11
-64.08
-66.76
-66.03
-61.21
-52.28
-39.88
-25.19
-9.61
5.49
19.05
30.36
39.09
45.17
48.71
49.93
49.19
46.96
43.8
40.26
36.84
33.82
31.35
29.43
28.03
27.11
26.68
26.75
27.24
27.98
28.71
29.13
28.96
28.09
26.52
24.41
21.99
19.47
16.98
14.5
11.97
9.31
6.53
3.78
1.25
-0.89
-2.56
-3.87
-5.03
-6.28
-7.85
-9.86
-12.33
-15.16
-18.22
-21.33
-24.37
-27.3
-30.21
-33.27
-36.74
-40.82
-45.61
-50.95
-56.28
-60.74
-63.19
-62.59
-58.29
-50.27
-39.17
-26.16
-12.6
0.3
11.63
20.88
27.8
32.27
34.29
33.95
31.53
27.6
22.86
18.12
14
10.86
8.72
7.36
6.49
5.88
5.47
5.28
5.31
5.47
5.48
5.02
3.78
1.64
-1.31
-4.8
-8.53
-12.22
-15.75
-19.14
-22.49
-25.97
-29.79
-34.14
-39.12
-44.64
-50.3
-55.25
-58.37
-58.53
-54.92
-47.41
-36.58
-23.6
-9.82
3.51
15.46
25.45
33.08
38.06
40.23
39.64
36.73
32.25
27.13
22.23
18.1
14.89
12.48
10.62
9.12
7.93
7.06
6.51
6.17
5.81
5.15
4
2.27
-0.02
-2.78
-5.89
-9.22
-12.66
-16.13
-19.59
-23.07
-26.68
-30.6
-35.05
-40.23
-46.21
-52.74
-59.19
-64.51
-67.44
-66.84
-62.01
-52.96
-40.47
-25.84
-10.56
4.05
17.04
27.85
36.22
42.08
45.5
46.62
45.71
43.18
39.54
35.37
31.23
27.52
24.47
22.1
20.27
18.85
17.73
16.9
16.33
15.94
15.46
14.53
12.73
9.86
5.99
1.47
-3.19
-7.55
-11.41
-14.86
-18.22
-21.9
-26.22
-31.37
-37.38
-44.05
-50.92
-57.2
-61.85
-63.7
-61.78
-55.62
-45.44
-32.14
-17.05
-1.61
12.95
25.74
36.23
44.15
49.43
52.14
52.56
51.12
48.35
44.84
41.1
37.55
34.44
31.91
29.93
28.41
27.19
26.14
25.13
24.12
23.07
21.87
20.37
18.33
15.54
11.92
7.63
3
-1.57
-5.75
-9.5
-12.97
-16.5
-20.45
-25.11
-30.6
-36.87
-43.53
-49.89
-54.91
-57.36
-56.15
-50.66
-41.07
-28.28
-13.72
1.1
14.92
26.97
36.83
44.36
49.47
52.14
52.47
50.73
47.46
43.3
38.91
34.82
31.31
28.43
26.11
24.25
22.74
21.52
20.52
19.61
18.58
17.18
15.13
12.26
8.55
4.15
-0.68
-5.62
-10.43
-14.98
-19.33
-23.69
-28.35
-33.58
-39.45
-45.67
-51.56
-56.07
-58.03
-56.41
-50.73
-41.2
-28.73
-14.69
-0.54
12.48
23.55
32.23
38.35
41.87
42.84
41.46
38.15
33.54
28.39
23.4
19.03
15.44
12.58
10.26
8.34
6.73
5.36
4.15
2.95
1.53
-0.33
-2.79
-5.88
-9.48
-13.4
-17.42
-21.43
-25.4
-29.45
-33.77
-38.58
-44.04
-50.03
-56.14
-61.51
-65
-65.41
-61.86
-54.08
-42.55
-28.33
-12.83
2.6
16.86
29.22
39.23
46.63
51.31
53.29
52.8
50.27
46.36
41.8
37.27
33.25
29.96
27.35
25.23
23.36
21.61
19.97
18.48
17.2
16.04
14.79
13.14
10.82
7.66
3.74
-0.69
-5.27
-9.72
-13.88
-17.84
-21.8
-26.07
-30.92
-36.5
-42.77
-49.46
-55.96
-61.36
-64.54
-64.45
-60.38
-52.24
-40.61
-26.58
-11.49
3.44
17.25
29.3
39.23
46.81
51.93
54.59
54.98
53.46
50.57
46.88
42.94
39.18
35.85
33.07
30.86
29.21
28.07
27.38
27.02
26.84
26.58
25.97
24.8
22.95
20.45
17.46
14.16
10.72
7.21
3.6
-0.21
-4.33
-8.79
-13.52
-18.33
-22.96
-27.2
-31.03
-34.68
-38.56
-43.09
-48.41
-54.23
-59.74
-63.76
-65.06
-62.69
-56.26
-46.07
-32.99
-18.26
-3.15
11.24
24.12
35.01
43.6
49.77
53.5
54.92
54.37
52.31
49.27
45.76
42.16
38.74
35.72
33.23
31.4
30.25
29.73
29.66
29.8
29.83
29.5
28.66
27.28
25.44
23.23
20.73
17.9
14.67
10.96
6.75
2.13
-2.7
-7.51
-12.1
-16.4
-20.43
-24.32
-28.27
-32.55
-37.38
-42.84
-48.71
-54.36
-58.82
-60.95
-59.74
-54.68
-45.89
-34.14
-20.66
-6.77
6.35
17.88
27.36
34.61
39.61
42.34
42.87
41.36
38.19
33.94
29.27
24.83
21.03
18
15.65
13.78
12.25
11.01
10.07
9.38
8.8
8.08
6.95
5.21
2.78
-0.24
-3.63
-7.1
-10.42
-13.46
-16.24
-18.92
-21.71
-24.83
-28.41
-32.57
-37.31
-42.53
-47.9
-52.81
-56.38
-57.6
-55.61
-50.04
-41.15
-29.76
-17.06
-4.24
7.66
17.97
26.28
32.36
36.12
37.56
36.83
34.31
30.55
26.24
22.02
18.38
15.57
13.57
12.23
11.3
10.6
9.96
9.31
8.59
7.78
6.81
5.59
3.92
1.66
-1.32
-4.93
-8.96
-13.08
-17.03
-20.67
-24.07
-27.41
-30.89
-34.71
-38.99
-43.83
-49.19
-54.76
-59.89
-63.61
-64.79
-62.57
-56.57
-47.07
-34.89
-21.17
-7.06
6.45
18.63
28.98
37.21
43.21
47
48.74
48.65
47
44.1
40.32
36.11
31.96
28.28
25.38
23.39
22.26
21.78
21.67
21.6
21.28
20.51
19.2
17.41
15.24
12.81
10.15
7.26
4.1
0.67
-2.95
-6.63
-10.24
-13.67
-16.88
-19.88
-22.76
-25.72
-29.05
-33.07
-37.93
-43.48
-49.12
-53.89
-56.71
-56.64
-53.17
-46.29
-36.51
-24.63
-11.62
1.58
14.14
25.42
34.96
42.52
48.01
51.47
53
52.81
51.17
48.45
45.08
41.46
37.95
34.78
32.11
30.06
28.71
28.04
27.92
28.07
28.1
27.67
26.54
24.65
22.17
19.35
16.43
13.57
10.77
7.93
4.92
1.62
-1.96
-5.74
-9.56
-13.25
-16.72
-19.95
-23.06
-26.24
-29.72
-33.73
-38.37
-43.44
-48.37
-52.22
-53.88
-52.36
-47.16
-38.44
-27.05
-14.24
-1.33
10.62
20.95
29.37
35.79
40.15
42.42
42.63
40.95
37.75
33.59
29.08
24.76
20.99
17.91
15.51
13.66
12.24
11.17
10.39
9.85
9.41
8.88
7.97
6.46
4.23
1.31
-2.08
-5.66
-9.14
-12.32
-15.16
-17.75
-20.26
-22.92
-25.96
-29.58
-33.91
-38.91
-44.23
-49.21
-52.89
-54.22
-52.44
-47.32
-39.24
-29.07
-17.91
-6.77
3.6
12.66
20.03
25.34
28.32
28.85
27.08
23.51
18.81
13.78
9.08
5.18
2.31
0.5
-0.42
-0.74
-0.78
-0.84
-1.07
-1.52
-2.18
-3.01
-4.06
-5.42
-7.16
-9.32
-11.82
-14.51
-17.28
-20.08
-22.95
-25.96
-29.2
-32.74
-36.68
-41.08
-45.94
-51.07
-55.96
-59.81
-61.63
-60.49
-55.83
-47.66
-36.57
-23.61
-10.04
3.01
14.69
24.47
32.14
37.61
40.87
41.98
41.08
38.51
34.8
30.58
26.48
22.96
20.19
18.13
16.6
15.43
14.53
13.83
13.25
12.67
11.91
10.78
9.18
7.06
4.4
1.29
-2.17
-5.81
-9.42
-12.85
-16.03
-19.09
-22.23
-25.71
-29.72
-34.35
-39.58
-45.2
-50.77
-55.57
-58.62
-58.87
-55.53
-48.36
-37.81
-24.92
-11.08
2.44
14.67
25.05
33.37
39.59
43.76
45.96
46.33
45.09
42.59
39.27
35.6
32.05
28.96
26.51
24.69
23.38
22.4
21.63
20.97
20.36
19.71
18.86
17.67
16.03
13.93
11.47
8.74
5.82
2.68
-0.71
-4.36
-8.2
-12.12
-15.97
-19.66
-23.2
-26.75
-30.61
-35.09
-40.36
-46.32
-52.36
-57.47
-60.41
-60.04
-55.71
-47.42
-35.85
-22.15
-7.65
6.4
19.07
29.71
37.97
43.69
46.9
47.75
46.58
43.86
40.2
36.21
32.41
29.09
26.34
24.04
22.04
20.27
18.78
17.67
17
16.65
16.33
15.6
14.1
11.61
8.24
4.28
0.13
-3.9
-7.68
-11.28
-14.88
-18.69
-22.91
-27.68
-33.03
-38.87
-44.9
-50.52
-54.84
-56.82
-55.54
-50.45
-41.62
-29.76
-16.05
-1.88
11.49
23.13
32.48
39.26
43.36
44.81
43.8
40.74
36.29
31.25
26.4
22.29
19.12
16.75
14.88
13.2
11.57
10.01
8.63
7.5
6.53
5.48
4.01
1.86
-1.04
-4.57
-8.44
-12.33
-16.04
-19.56
-23.06
-26.79
-31.03
-35.95
-41.62
-47.88
-54.34
-60.28
-64.76
-66.72
-65.21
-59.69
-50.22
-37.45
-22.53
-6.78
8.5
22.29
33.9
42.96
49.35
53.18
54.64
54.05
51.81
48.36
44.19
39.79
35.58
31.89
28.92
26.76
25.34
24.54
24.15
23.92
23.54
22.78
21.49
19.6
17.2
14.41
11.39
8.25
5.04
1.76
-1.61
-5.1
-8.75
-12.55
-16.52
-20.6
-24.78
-29.13
-33.82
-39.05
-44.95
-51.32
-57.55
-62.61
-65.23
-64.29
-59.11
-49.74
-36.87
-21.73
-5.7
9.95
24.19
36.38
46.1
53.17
57.5
59.15
58.4
55.75
51.91
47.68
43.74
40.54
38.19
36.57
35.46
34.7
34.22
34.03
34.09
34.26
34.29
33.85
32.73
30.83
28.25
25.21
21.97
18.74
15.59
12.46
9.19
5.63
1.74
-2.41
-6.58
-10.52
-14.03
-17.09
-19.86
-22.68
-25.91
-29.88
-34.75
-40.38
-46.36
-51.88
-55.89
-57.24
-54.99
-48.67
-38.52
-25.44
-10.81
3.87
17.33
28.7
37.59
43.92
47.79
49.37
48.88
46.58
42.89
38.36
33.56
29.04
25.18
22.15
19.9
18.27
17.1
16.24
15.62
15.15
14.66
13.96
12.77
10.85
8.11
4.58
0.49
-3.83
-8.05
-11.92
-15.33
-18.34
-21.12
-23.9
-26.95
-30.51
-34.7
-39.41
-44.17
-48.17
-50.34
-49.65
-45.46
-37.73
-27.14
-14.84
-2.15
9.75
20.04
28.21
33.99
37.21
37.83
36.04
32.29
27.29
21.82
16.58
11.98
8.18
5.14
2.79
1.06
-0.07
-0.69
-0.98
-1.23
-1.77
-2.84
-4.55
-6.89
-9.76
-12.98
-16.37
-19.73
-22.93
-25.94
-28.88
-32.01
-35.65
-40.06
-45.23
-50.85
-56.22
-60.34
-62.11
-60.58
-55.27
-46.27
-34.38
-20.76
-6.77
6.47
18.22
28.1
35.98
41.75
45.32
46.63
45.81
43.27
39.64
35.58
31.65
28.18
25.24
22.81
20.85
19.36
18.3
17.61
17.08
16.49
15.62
14.33
12.58
10.37
7.68
4.48
0.79
-3.37
-7.84
-12.41
-16.85
-21
-24.82
-28.48
-32.26
-36.52
-41.52
-47.23
-53.22
-58.63
-62.33
-63.21
-60.5
-53.95
-43.91
-31.3
-17.27
-3.05
10.28
21.93
31.39
38.42
43.05
45.42
45.81
44.56
42.05
38.71
35
31.37
28.15
25.56
23.58
22.08
20.82
19.66
18.5
17.32
16.15
14.93
13.6
12.04
10.14
7.87
5.25
2.34
-0.77
-3.97
-7.2
-10.39
-13.5
-16.54
-19.55
-22.66
-26.05
-29.9
-34.34
-39.32
-44.47
-49.1
-52.25
-52.85
-50.1
-43.64
-33.78
-21.41
-7.75
5.91
18.53
29.45
38.38
45.23
50.02
52.76
53.5
52.37
49.66
45.83
41.5
37.25
33.58
30.77
28.85
27.69
27.04
26.67
26.37
26.01
25.46
24.63
23.44
21.82
19.77
17.3
14.42
11.17
7.55
3.66
-0.39
-4.43
-8.3
-11.9
-15.24
-18.4
-21.53
-24.86
-28.62
-33.02
-38.15
-43.79
-49.36
-53.92
-56.39
-55.86
-51.86
-44.52
-34.48
-22.69
-10.19
2.06
13.2
22.56
29.63
34.18
36.21
35.99
33.98
30.7
26.7
22.48
18.49
15.1
12.51
10.75
9.69
9.06
8.66
8.3
7.89
7.39
6.7
5.73
4.32
2.32
-0.32
-3.61
-7.37
-11.34
-15.23
-18.79
-21.95
-24.82
-27.71
-31.04
-35.13
-40.11
-45.75
-51.46
-56.32
-59.3
-59.44
-56.16
-49.4
-39.65
-27.79
-14.89
-2
10
20.46
28.88
34.9
38.33
39.18
37.77
34.68
30.65
26.46
22.66
19.57
17.22
15.52
14.3
13.39
12.65
11.96
11.18
10.24
9.1
7.83
6.52
5.25
4
2.7
1.18
-0.68
-2.95
-5.61
-8.52
-11.55
-14.59
-17.62
-20.7
-23.98
-27.67
-31.96
-36.95
-42.53
-48.31
-53.55
-57.22
-58.16
-55.39
-48.41
-37.44
-23.43
-7.86
7.64
21.63
33.17
41.92
47.96
51.61
53.25
53.18
51.69
49.07
45.67
41.87
38.04
34.49
31.42
28.93
27.08
25.83
25.04
24.47
23.79
22.66
20.86
18.33
15.14
11.48
7.51
3.3
-1.2
-6.06
-11.32
-16.81
-22.15
-26.85
-30.41
-32.56
-33.44
-33.57
-33.76
-34.84
-37.4
-41.59
-47.03
-52.91
-58.08
-61.34
-61.61
-58.11
-50.55
-39.22
-25
-9.2
6.69
21.38
33.94
43.95
51.38
56.37
59.11
59.72
58.4
55.45
51.37
46.73
42.01
37.48
33.22
29.2
25.5
22.26
19.66
17.74
16.2
14.54
12.16
8.67
4
-1.56
-7.52
-13.38
-18.8
-23.63
-27.91
-31.74
-35.22
-38.37
-41.07
-43.09
-44.22
-44.28
-43.35
-41.73
-39.87
-38.33
-37.55
-37.77
-38.92
-40.61
-42.09
-42.41
-40.53
-35.64
-27.39
-16.09
-2.66
11.57
25.24
37.24
46.92
54.06
58.73
61.08
61.31
59.59
56.21
51.59
46.29
40.92
36
31.84
28.5
25.86
23.69
21.77
19.99
18.34
16.94
15.86
15.08
14.43
13.6
12.22
10.08
7.15
3.7
0.09
-3.28
-6.28
-9.02
-11.86
-15.21
-19.35
-24.42
-30.29
-36.68
-43.11
-48.93
-53.3
-55.3
-54.09
-49.15
-40.5
-28.74
-15
-0.62
13.06
24.99
34.48
41.28
45.41
47.15
46.85
44.97
41.98
38.36
34.61
31.15
28.25
26.05
24.52
23.53
22.87
22.34
21.72
20.85
19.55
17.7
15.18
11.91
7.92
3.27
-1.86
-7.26
-12.79
-18.38
-24.04
-29.82
-35.72
-41.66
-47.55
-53.3
-59
-64.85
-71.13
-77.91
-84.86
-91.2
-95.77
-97.33
-94.99
-88.37
-77.81
-64.15
-48.53
-32.15
-16.09
-1.27
11.61
22.03
29.72
34.71
37.27
37.88
37.07
35.34
33.09
30.64
28.24
26.09
24.35
23.13
22.48
22.33
22.55
22.92
23.26
23.46
23.55
23.7
24.12
24.96
26.24
27.82
29.39
30.56
30.89
30
27.63
23.74
18.58
12.58
6.22
-0.12
-6.42
-12.95
-20.14
-28.32
-37.34
-46.47
-54.47
-59.85
-61.39
-58.42
-51.12
-40.39
-27.6
-14.19
-1.32
10.24
20.1
28.07
33.99
37.73
39.22
38.63
36.36
33.05
29.38
25.96
23.13
20.94
19.25
17.82
16.44
15.04
13.69
12.48
11.49
10.67
9.85
8.83
7.45
5.69
3.66
1.54
-0.52
-2.47
-4.44
-6.62
-9.21
-12.31
-15.87
-19.71
-23.55
-27.12
-30.29
-33.05
-35.56
-38.07
-40.83
-44.08
-47.96
-52.45
-57.32
-61.99
-65.56
-66.87
-64.78
-58.62
-48.38
-34.85
-19.38
-3.46
11.63
25.04
36.28
45.09
51.28
54.77
55.63
54.22
51.18
47.28
43.21
39.43
36.1
33.21
30.67
28.45
26.61
25.21
24.29
23.74
23.35
22.85
21.96
20.45
18.21
15.24
11.64
7.58
3.27
-1.07
-5.24
-9.08
-12.55
-15.73
-18.82
-22.11
-25.87
-30.26
-35.28
-40.64
-45.76
-49.85
-51.99
-51.31
-47.28
-39.81
-29.43
-17.13
-4.18
8.23
19.17
28.1
34.8
39.2
41.31
41.18
39
35.23
30.54
25.73
21.51
18.29
16.13
14.8
13.97
13.34
12.75
12.15
11.5
10.74
9.75
8.34
6.39
3.83
0.74
-2.75
-6.42
-10.15
-13.83
-17.49
-21.19
-25
-29
-33.23
-37.78
-42.77
-48.23
-54.04
-59.72
-64.42
-66.98
-66.29
-61.58
-52.76
-40.49
-25.99
-10.67
4.17
17.59
29.04
38.24
45.04
49.39
51.32
51.06
49.02
45.81
42
38.12
34.5
31.33
28.68
26.6
25.11
24.23
23.88
23.91
24.06
23.99
23.4
22.05
19.92
17.14
13.96
10.63
7.29
3.95
0.48
-3.23
-7.25
-11.48
-15.78
-19.97
-23.96
-27.79
-31.61
-35.67
-40.25
-45.47
-51.18
-56.78
-61.26
-63.4
-62.1
-56.73
-47.34
-34.65
-19.86
-4.3
10.8
24.52
36.19
45.45
52.11
56.16
57.78
57.33
55.25
52.12
48.49
44.87
41.64
39.11
37.39
36.49
36.29
36.58
37.13
37.67
38
37.95
37.42
36.34
34.68
32.41
29.61
26.43
23.1
19.79
16.58
13.39
9.99
6.17
1.83
-2.98
-7.99
-12.95
-17.62
-21.87
-25.75
-29.39
-33.02
-36.9
-41.33
-46.49
-52.34
-58.42
-63.87
-67.48
-67.98
-64.49
-56.8
-45.48
-31.73
-17.04
-2.74
10.19
21.22
30.15
36.86
41.3
43.4
43.25
41.13
37.62
33.42
29.22
25.52
22.56
20.31
18.63
17.4
16.55
16.06
15.91
15.94
15.92
15.52
14.49
12.71
10.18
7.06
3.55
-0.17
-4.01
-7.93
-11.95
-16.05
-20.23
-24.44
-28.65
-32.92
-37.43
-42.29
-47.45
-52.48
-56.57
-58.69
-57.8
-53.31
-45.22
-34.14
-21.15
-7.49
5.66
17.36
26.96
34.07
38.56
40.5
40.2
38.12
34.83
30.9
26.87
23.14
19.98
17.5
15.73
14.59
13.94
13.58
13.29
12.85
12.04
10.77
9.03
6.92
4.57
2.02
-0.79
-4.01
-7.76
-12
-16.53
-21.01
-25.13
-28.74
-31.91
-34.94
-38.2
-42.04
-46.67
-52.05
-57.87
-63.5
-67.98
-70.17
-69
-63.75
-54.36
-41.51
-26.46
-10.74
4.29
17.66
28.92
37.96
44.82
49.54
52.13
52.69
51.45
48.89
45.56
42.03
38.72
35.9
33.64
31.95
30.81
30.15
29.9
29.94
30.06
29.98
29.41
28.15
26.13
23.52
20.6
17.66
14.9
12.33
9.75
6.89
3.48
-0.53
-5.08
-9.89
-14.67
-19.14
-23.17
-26.8
-30.25
-33.88
-38.13
-43.27
-49.28
-55.62
-61.3
-64.96
-65.32
-61.53
-53.49
-41.89
-28.02
-13.33
0.87
13.73
24.78
33.88
40.96
46.01
49
50.03
49.35
47.36
44.56
41.47
38.48
35.9
33.89
32.55
31.89
31.82
32.13
32.57
32.85
32.79
32.3
31.34
29.9
27.95
25.46
22.46
19.1
15.64
12.34
9.31
6.49
3.62
0.4
-3.36
-7.64
-12.23
-16.77
-20.97
-24.63
-27.78
-30.68
-33.73
-37.36
-41.9
-47.31
-53.19
-58.71
-62.75
-64.24
-62.37
-56.82
-47.87
-36.25
-23.04
-9.41
3.59
15.1
24.54
31.57
36.11
38.17
37.93
35.69
31.94
27.3
22.49
18.2
14.91
12.76
11.62
11.08
10.78
10.47
10.12
9.88
9.88
10.13
10.47
10.56
10.03
8.65
6.39
3.4
-0.08
-3.8
-7.63
-11.58
-15.77
-20.38
-25.59
-31.55
-38.24
-45.37
-52.34
-58.24
-62.01
-62.66
-59.54
-52.58
-42.3
-29.75
-16.21
-2.95
9.02
19.08
26.94
32.53
35.89
37.12
36.39
34.04
30.56
26.58
22.75
19.54
17.21
15.75
15.02
14.78
14.81
14.91
14.88
14.53
13.68
12.22
10.19
7.67
4.86
1.85
-1.35
-4.81
-8.66
-12.9
-17.43
-22.04
-26.48
-30.6
-34.4
-38.08
-41.94
-46.33
-51.46
-57.26
-63.22
-68.42
-71.58
-71.48
-67.24
-58.73
-46.56
-31.94
-16.31
-0.95
13.21
25.6
35.92
43.99
49.71
53.11
54.41
53.98
52.3
49.85
47.03
44.12
41.33
38.79
36.57
34.75
33.36
32.41
31.88
31.6
31.31
30.68
29.39
27.27
24.36
20.9
17.19
13.5
9.97
6.55
3.09
-0.6
-4.66
-9.15
-13.98
-18.95
-23.82
-28.33
-32.33
-35.88
-39.23
-42.8
-46.99
-52
-57.66
-63.31
-67.9
-70.2
-69.15
-64.11
-55.09
-42.76
-28.2
-12.67
2.65
16.8
29.14
39.24
46.91
52.13
55.09
56.06
55.45
53.66
51.11
48.16
45.14
42.33
39.92
38
36.57
35.49
34.64
33.91
33.21
32.47
31.55
30.29
28.55
26.24
23.41
20.23
16.91
13.59
10.21
6.56
2.35
-2.62
-8.3
-14.4
-20.41
-25.87
-30.55
-34.5
-38.06
-41.69
-45.79
-50.5
-55.69
-60.83
-65.15
-67.67
-67.43
-63.72
-56.28
-45.46
-32.14
-17.52
-2.86
10.77
22.56
32.03
38.9
43.09
44.73
44.11
41.73
38.17
34.07
29.98
26.34
23.43
21.32
19.95
19.12
18.6
18.21
17.83
17.36
16.74
15.8
14.36
12.24
9.4
5.98
2.24
-1.56
-5.26
-8.94
-12.81
-17.08
-21.85
-27.06
-32.52
-38.02
-43.32
-48.13
-52
-54.26
-54.1
-50.81
-44.1
-34.26
-22.14
-9.01
3.86
15.4
24.93
32.11
36.82
39.11
39.12
37.13
33.57
29.02
24.13
19.54
15.67
12.7
10.53
8.9
7.54
6.25
5.02
3.88
2.87
1.86
0.6
-1.25
-3.89
-7.32
-11.34
-15.56
-19.64
-23.4
-26.85
-30.24
-33.95
-38.39
-43.83
-50.25
-57.22
-63.81
-68.78
-70.86
-69.07
-63.02
-53.01
-39.94
-25.09
-9.77
4.88
18.04
29.21
38.14
44.72
48.98
51
50.99
49.28
46.31
42.61
38.7
35.01
31.83
29.27
27.29
25.8
24.62
23.59
22.54
21.37
19.99
18.37
16.47
14.24
11.59
8.45
4.79
0.65
-3.85
-8.59
-13.44
-18.31
-23.14
-27.94
-32.76
-37.72
-43.04
-48.92
-55.41
-62.21
-68.55
-73.27
-75.02
-72.68
-65.75
-54.49
-39.96
-23.65
-7.18
8.17
21.62
32.84
41.82
48.65
53.36
55.97
56.55
55.36
52.87
49.65
46.26
43.06
40.26
37.93
36.09
34.75
33.91
33.48
33.19
32.65
31.48
29.46
26.62
23.2
19.52
15.83
12.17
8.47
4.55
0.29
-4.34
-9.27
-14.34
-19.42
-24.42
-29.33
-34.24
-39.34
-44.84
-50.83
-57.17
-63.37
-68.55
-71.61
-71.5
-67.44
-59.21
-47.22
-32.4
-16.05
0.43
15.82
29.19
40.04
48.24
53.88
57.2
58.46
57.94
55.99
52.99
49.42
45.73
42.29
39.34
36.96
35.15
33.87
33.02
32.44
31.84
30.91
29.4
27.18
24.37
21.2
17.94
14.74
11.57
8.27
4.61
0.48
-4.13
-9.07
-14.12
-19.07
-23.81
-28.34
-32.78
-37.34
-42.22
-47.56
-53.22
-58.72
-63.19
-65.49
-64.54
-59.6
-50.61
-38.22
-23.65
-8.36
6.31
19.34
30.13
38.4
44.02
46.97
47.31
45.3
41.38
36.26
30.7
25.45
21.02
17.63
15.21
13.5
12.17
10.97
9.75
8.47
7.14
5.79
4.32
2.61
0.46
-2.25
-5.53
-9.23
-13.12
-17
-20.78
-24.52
-28.37
-32.48
-36.95
-41.81
-47.03
-52.53
-58.08
-63.21
-67.13
-68.79
-67.16
-61.52
-51.82
-38.68
-23.29
-7.1
8.55
22.66
34.61
44.05
50.82
54.85
56.22
55.21
52.36
48.42
44.14
40.11
36.61
33.66
31.11
28.86
26.91
25.39
24.41
23.96
23.84
23.74
23.34
22.39
20.8
18.6
15.91
12.82
9.36
5.51
1.24
-3.43
-8.39
-13.47
-18.45
-23.2
-27.67
-31.91
-36.05
-40.26
-44.79
-49.84
-55.46
-61.36
-66.83
-70.73
-71.81
-68.99
-61.82
-50.59
-36.34
-20.44
-4.36
10.75
24.07
35.18
43.84
49.95
53.55
54.81
54.14
52.08
49.24
46.15
43.15
40.39
37.9
35.66
33.68
32
30.66
29.74
29.2
28.98
28.87
28.61
27.92
26.55
24.38
21.45
17.99
14.32
10.73
7.42
4.4
1.53
-1.49
-4.91
-8.9
-13.42
-18.26
-23.1
-27.65
-31.78
-35.57
-39.27
-43.24
-47.79
-53.02
-58.59
-63.72
-67.26
-67.94
-64.76
-57.35
-46.05
-31.9
-16.29
-0.63
13.94
26.65
37.11
45.1
50.59
53.65
54.51
53.53
51.25
48.21
44.94
41.77
38.88
36.29
34.02
32.08
30.55
29.47
28.8
28.35
27.81
26.86
25.29
23.05
20.24
17.03
13.56
9.9
6
1.82
-2.66
-7.36
-12.15
-16.83
-21.24
-25.29
-28.98
-32.46
-35.95
-39.71
-43.97
-48.84
-54.15
-59.41
-63.76
-66.11
-65.38
-60.89
-52.52
-40.88
-27.11
-12.57
1.49
14.11
24.69
32.92
38.61
41.68
42.17
40.33
36.72
32.06
27.18
22.72
19.11
16.42
14.51
13.17
12.17
11.38
10.73
10.12
9.42
8.43
6.89
4.64
1.58
-2.22
-6.55
-11.13
-15.64
-19.84
-23.66
-27.2
-30.69
-34.43
-38.77
-43.88
-49.75
-56.09
-62.23
-67.25
-69.99
-69.44
-64.9
-56.33
-44.33
-30.05
-14.89
-0.15
13.16
24.36
33.1
39.22
42.69
43.67
42.5
39.72
36
32.02
28.29
25.15
22.73
21.02
19.95
19.41
19.24
19.25
19.2
18.89
18.19
17.07
15.54
13.63
11.3
8.47
5.04
0.99
-3.61
-8.56
-13.59
-18.47
-23.06
-27.36
-31.49
-35.72
-40.32
-45.56
-51.46
-57.75
-63.69
-68.19
-70.02
-68.11
-61.87
-51.38
-37.46
-21.42
-4.82
10.93
24.8
36.16
44.82
50.83
54.35
55.6
54.87
52.53
49.07
45.07
41.05
37.44
34.42
32.03
30.21
28.87
27.91
27.21
26.6
25.85
24.74
23.06
20.76
17.87
14.53
10.93
7.19
3.39
-0.49
-4.49
-8.61
-12.81
-16.99
-21.09
-25.11
-29.19
-33.56
-38.5
-44.15
-50.4
-56.74
-62.29
-65.9
-66.41
-63.05
-55.58
-44.47
-30.75
-15.75
-0.77
13.13
25.18
34.96
42.27
47.09
49.56
49.98
48.77
46.44
43.47
40.26
37.11
34.21
31.69
29.68
28.26
27.42
27.06
26.93
26.74
26.26
25.32
23.89
22
19.69
16.95
13.74
10.08
6.01
1.68
-2.78
-7.26
-11.71
-16.17
-20.65
-25.21
-29.91
-34.83
-40.04
-45.49
-50.88
-55.52
-58.49
-58.77
-55.63
-48.82
-38.74
-26.26
-12.58
1.14
13.92
25
33.88
40.18
43.7
44.43
42.64
38.95
34.16
29.17
24.71
21.15
18.46
16.38
14.58
12.88
11.28
9.87
8.76
7.84
6.89
5.63
3.79
1.28
-1.84
-5.38
-9.14
-12.94
-16.68
-20.35
-24.08
-28.01
-32.39
-37.43
-43.16
-49.37
-55.48
-60.53
-63.38
-62.94
-58.52
-50.11
-38.39
-24.53
-9.93
4.18
16.91
27.68
36.17
42.23
45.83
47.13
46.44
44.23
41.03
37.31
33.47
29.85
26.75
24.39
22.85
22.05
21.7
21.41
20.84
19.78
18.23
16.27
14.01
11.47
8.57
5.19
1.28
-3.09
-7.75
-12.47
-17.07
-21.45
-25.64
-29.73
-33.87
-38.25
-43.06
-48.44
-54.38
-60.53
-66.2
-70.28
-71.58
-69.06
-62.24
-51.39
-37.49
-21.96
-6.28
8.32
21.08
31.66
40.02
46.23
50.38
52.56
52.9
51.66
49.2
46.03
42.62
39.36
36.47
34.03
32.03
30.43
29.18
28.24
27.52
26.86
26.06
24.93
23.32
21.18
18.58
15.64
12.52
9.39
6.32
3.24
-0.03
-3.74
-8.02
-12.78
-17.69
-22.31
-26.33
-29.71
-32.75
-35.94
-39.73
-44.35
-49.73
-55.52
-61.13
-65.82
-68.74
-68.98
-65.8
-58.83
-48.3
-35
-20.17
-5.16
8.87
21.17
31.38
39.43
45.35
49.19
51.03
51.02
49.49
46.91
43.85
40.8
38.13
35.96
34.28
33
32.1
31.61
31.51
31.71
31.98
31.92
31.16
29.47
26.89
23.64
20.07
16.46
12.93
9.47
6
2.39
-1.38
-5.35
-9.5
-13.81
-18.21
-22.62
-26.93
-31.13
-35.31
-39.7
-44.55
-49.97
-55.73
-61.18
-65.32
-67.02
-65.37
-59.94
-50.94
-39.15
-25.66
-11.68
1.79
13.96
24.31
32.46
38.17
41.31
41.97
40.48
37.46
33.67
29.86
26.59
24.07
22.25
20.89
19.76
18.73
17.82
17.06
16.46
15.88
15.08
13.79
11.84
9.19
5.96
2.37
-1.41
-5.23
-9.06
-12.92
-16.83
-20.87
-25.09
-29.55
-34.36
-39.57
-45.13
-50.76
-55.85
-59.53
-60.84
-58.97
-53.54
-44.69
-33.15
-19.99
-6.37
6.71
18.51
28.59
36.63
42.42
45.76
46.65
45.32
42.32
38.42
34.41
30.84
27.94
25.66
23.84
22.4
21.39
20.86
20.73
20.72
20.38
19.37
17.56
15.1
12.3
9.41
6.49
3.36
-0.2
-4.34
-9.01
-13.95
-18.88
-23.56
-27.91
-31.99
-35.96
-40.03
-44.43
-49.35
-54.92
-61.03
-67.23
-72.64
-76.08
-76.32
-72.48
-64.32
-52.34
-37.7
-21.8
-6.03
8.6
21.49
32.37
41.14
47.73
52.09
54.27
54.44
53.03
50.57
47.59
44.51
41.54
38.78
36.28
34.15
32.51
31.48
31.03
30.92
30.79
30.19
28.81
26.51
23.45
19.94
16.38
13.03
9.93
6.88
3.54
-0.41
-5.08
-10.34
-15.85
-21.17
-25.97
-30.14
-33.81
-37.34
-41.14
-45.57
-50.79
-56.68
-62.79
-68.34
-72.27
-73.41
-70.83
-64.01
-53.17
-39.2
-23.41
-7.27
7.99
21.55
32.98
42.1
48.88
53.36
55.67
56.05
54.86
52.51
49.4
45.89
42.31
38.99
36.21
34.17
32.9
32.29
32.07
31.92
31.54
30.7
29.24
27.09
24.29
21.01
17.49
13.98
10.62
7.43
4.24
0.75
-3.24
-7.78
-12.71
-17.63
-22.19
-26.18
-29.63
-32.89
-36.44
-40.68
-45.81
-51.58
-57.37
-62.17
-64.87
-64.47
-60.36
-52.48
-41.34
-27.92
-13.44
0.92
14.16
25.61
34.85
41.63
45.8
47.33
46.4
43.45
39.2
34.48
30.04
26.32
23.41
21.08
19.06
17.17
15.43
13.98
12.93
12.21
11.58
10.69
9.2
6.95
3.94
0.35
-3.58
-7.64
-11.67
-15.59
-19.39
-23.1
-26.76
-30.5
-34.5
-38.86
-43.53
-48.15
-51.92
-53.83
-52.87
-48.41
-40.43
-29.52
-16.72
-3.18
10.03
22.04
32.22
40.05
45.19
47.44
46.88
43.9
39.19
33.63
28.04
23.04
18.91
15.63
12.98
10.74
8.79
7.16
5.93
5.03
4.22
3.05
1.08
-1.98
-6.12
-11.07
-16.38
-21.64
-26.6
-31.23
-35.72
-40.39
-45.56
-51.47
-58.09
-65.03
-71.49
-76.36
-78.42
-76.69
-70.69
-60.66
-47.44
-32.33
-16.72
-1.83
11.45
22.58
31.27
37.38
40.86
41.73
40.17
36.56
31.51
25.73
19.9
14.46
9.58
5.23
1.3
-2.18
-5.05
-6.92
-7.41
-6.21
-3.29
1.05
6.2
11.34
15.67
18.56
19.79
19.54
18.27
16.57
14.85
13.22
11.44
9
5.32
-0.12
-7.57
-16.85
-27.3
-37.67
-46.36
-51.66
-52.2
-47.33
-37.37
-23.58
-7.79
8.03
22.26
33.9
42.57
48.36
51.57
52.53
51.59
49.1
45.55
41.51
37.54
34.09
31.4
29.55
28.46
28.03
28.19
28.8
29.71
30.69
31.45
31.74
31.41
30.46
29.02
27.26
25.29
23.11
20.67
17.87
14.7
11.25
7.6
3.87
0.04
-3.96
-8.25
-12.86
-17.71
-22.64
-27.43
-31.94
-36.1
-40
-43.82
-47.76
-52.11
-57.06
-62.69
-68.76
-74.62
-79.19
-81.17
-79.37
-73.12
-62.42
-48.06
-31.35
-13.78
3.31
18.88
32.27
43.14
51.35
56.93
60.05
61.03
60.3
58.35
55.69
52.76
49.88
47.24
44.91
42.92
41.25
39.92
39.01
38.5
38.32
38.26
38.01
37.22
35.6
33.05
29.66
25.74
21.64
17.63
13.85
10.23
6.63
2.92
-0.97
-5
-9.07
-13.13
-17.18
-21.28
-25.55
-30.11
-35.08
-40.55
-46.57
-53.03
-59.56
-65.43
-69.57
-70.83
-68.25
-61.43
-50.69
-37.01
-21.77
-6.37
8.05
20.68
31.03
38.81
43.87
46.18
45.97
43.68
39.96
35.53
30.99
26.83
23.32
20.62
18.82
17.9
17.72
17.99
18.32
18.31
17.69
16.41
14.58
12.39
9.95
7.27
4.27
0.82
-3.09
-7.37
-11.86
-16.37
-20.78
-25.04
-29.18
-33.34
-37.67
-42.36
-47.45
-52.79
-57.88
-61.93
-63.98
-63.13
-58.81
-50.99
-40.1
-27
-12.77
1.52
14.86
26.43
35.57
41.89
45.21
45.63
43.59
39.73
34.87
29.81
25.19
21.44
18.76
17.1
16.33
16.18
16.31
16.34
15.95
14.94
13.33
11.26
8.96
6.56
4.02
1.21
-2.05
-5.82
-10
-14.37
-18.69
-22.75
-26.45
-29.8
-32.89
-35.91
-39.16
-42.95
-47.58
-53.09
-59.15
-64.96
-69.36
-71.01
-68.83
-62.26
-51.53
-37.59
-21.86
-5.85
9.2
22.49
33.63
42.53
49.17
53.58
55.79
55.94
54.31
51.36
47.62
43.58
39.65
36.07
33.01
30.58
28.9
27.99
27.74
27.84
27.82
27.26
25.84
23.53
20.54
17.19
13.82
10.56
7.35
3.96
0.15
-4.19
-9.02
-14.16
-19.36
-24.39
-29.14
-33.67
-38.14
-42.75
-47.72
-53.24
-59.38
-65.81
-71.79
-76.34
-78.42
-77.18
-72.15
-63.37
-51.44
-37.3
-21.84
-5.94
9.4
22.97
33.7
40.91
44.49
44.82
42.71
39.46
36.25
33.6
31.21
28.41
24.75
20.25
15.43
11.26
9.32
11.13
17.36
27.48
40.08
53.36
65.35
74.07
74.83
64.31
43.64
18.66
-3.92
-20.08
-29.21
-32.96
-34.4
-35.32
-35.82
-35.28
-33.37
-30.68
-28.55
-28.41
-31
-36.5
-44.19
-52.3
-58.62
-61.28
-59.4
-52.97
-42.57
-29.07
-13.6
2.78
19.16
34.69
48.42
59.27
66.37
69.37
68.53
64.54
58.45
51.45
44.62
38.69
33.95
30.33
27.56
25.3
23.15
20.83
18.19
15.17
11.82
8.18
4.33
0.33
-3.75
-7.88
-12.05
-16.27
-20.56
-24.95
-29.44
-34.02
-38.65
-43.31
-47.98
-52.7
-57.48
-62.35
-67.16
-71.61
-75.07
-76.65
-75.43
-70.63
-61.94
-49.65
-34.64
-18.11
-1.33
14.61
28.9
40.96
50.38
56.88
60.4
61.1
59.48
56.25
52.15
47.82
43.72
40.09
37
34.46
32.42
30.77
29.42
28.2
26.94
25.48
23.63
21.27
18.32
14.82
10.9
6.69
2.34
-2.14
-6.74
-11.52
-16.43
-21.32
-26.03
-30.45
-34.66
-38.9
-43.52
-48.87
-55.05
-61.82
-68.55
-74.25
-77.7
-77.77
-73.65
-65.15
-52.75
-37.56
-21.03
-4.6
10.59
23.84
34.87
43.58
49.99
54.11
56.02
55.96
54.32
51.63
48.42
45.16
42.17
39.65
37.68
36.27
35.32
34.68
34.15
33.51
32.58
31.23
29.37
26.98
24.1
20.81
17.17
13.24
9.01
4.44
-0.45
-5.52
-10.57
-15.38
-19.85
-24.09
-28.4
-33.13
-38.56
-44.69
-51.17
-57.26
-61.9
-63.94
-62.42
-56.77
-47.08
-34.09
-19.05
-3.39
11.62
25.08
36.46
45.59
52.47
57.12
59.61
60.06
58.67
55.8
51.94
47.63
43.4
39.61
36.46
33.97
32.04
30.56
29.37
28.33
27.25
25.92
24.17
21.86
18.97
15.57
11.81
7.8
3.66
-0.52
-4.65
-8.64
-12.51
-16.38
-20.47
-25.05
-30.29
-36.25
-42.74
-49.36
-55.5
-60.28
-62.73
-61.97
-57.41
-49.05
-37.49
-23.88
-9.6
4.06
16.11
25.96
33.33
38.1
40.29
39.98
37.5
33.39
28.38
23.26
18.64
14.88
12.04
9.97
8.49
7.41
6.61
5.98
5.39
4.68
3.61
2
-0.32
-3.41
-7.17
-11.39
-15.74
-19.97
-23.94
-27.72
-31.54
-35.74
-40.6
-46.26
-52.54
-58.91
-64.44
-67.99
-68.37
-64.71
-56.75
-44.97
-30.5
-14.83
0.59
14.62
26.55
36.03
42.94
47.25
48.99
48.36
45.68
41.53
36.61
31.65
27.23
23.75
21.28
19.69
18.67
17.94
17.26
16.54
15.71
14.73
13.44
11.67
9.23
6.03
2.11
-2.34
-7.08
-11.85
-16.46
-20.79
-24.89
-28.94
-33.23
-38.07
-43.7
-50.11
-57
-63.68
-69.15
-72.26
-71.92
-67.35
-58.37
-45.45
-29.69
-12.6
4.29
19.71
32.85
43.33
51.04
56.05
58.5
58.59
56.67
53.24
48.91
44.28
39.85
35.94
32.69
30.11
28.15
26.72
25.67
24.83
24
22.97
21.62
19.89
17.78
15.29
12.39
9.04
5.22
0.95
-3.66
-8.46
-13.29
-18.02
-22.58
-26.93
-31.12
-35.29
-39.65
-44.45
-49.83
-55.64
-61.24
-65.56
-67.28
-65.22
-58.76
-48.09
-34.16
-18.41
-2.34
12.82
26.27
37.63
46.72
53.45
57.78
59.75
59.58
57.62
54.41
50.51
46.41
42.5
39.05
36.22
34.08
32.62
31.75
31.26
30.86
30.25
29.18
27.52
25.27
22.48
19.23
15.57
11.53
7.15
2.51
-2.23
-6.9
-11.39
-15.64
-19.69
-23.69
-27.85
-32.41
-37.61
-43.49
-49.83
-55.99
-60.95
-63.52
-62.65
-57.8
-49.06
-37.22
-23.48
-9.13
4.67
17.06
27.45
35.4
40.65
43.11
42.9
40.46
36.45
31.63
26.71
22.18
18.28
15.09
12.53
10.51
8.99
7.91
7.21
6.76
6.35
5.7
4.52
2.58
-0.18
-3.65
-7.58
-11.65
-15.61
-19.39
-23.06
-26.86
-31.08
-35.96
-41.56
-47.67
-53.76
-58.94
-62.15
-62.32
-58.74
-51.27
-40.41
-27.15
-12.77
1.51
14.66
25.92
34.76
40.81
43.91
44.17
42.01
38.09
33.24
28.2
23.51
19.44
16.01
13.14
10.7
8.63
6.91
5.46
4.18
2.9
1.38
-0.58
-3.16
-6.4
-10.26
-14.56
-19.06
-23.5
-27.72
-31.68
-35.54
-39.59
-44.22
-49.64
-55.8
-62.19
-67.83
-71.51
-72
-68.48
-60.74
-49.24
-35
-19.28
-3.37
11.68
25.02
36.06
44.35
49.69
52.14
52.05
50.01
46.71
42.81
38.8
34.98
31.49
28.37
25.6
23.21
21.17
19.51
18.17
17.03
15.87
14.41
12.38
9.58
5.99
1.77
-2.79
-7.38
-11.8
-15.98
-20.05
-24.24
-28.85
-34.15
-40.26
-47.02
-53.84
-59.71
-63.31
-63.36
-59
-50.12
-37.41
-22.19
-5.96
9.9
24.35
36.78
46.76
54.04
58.46
60.08
59.23
56.47
52.53
48.11
43.74
39.74
36.27
33.36
31.01
29.2
27.83
26.79
25.93
25.11
24.16
22.9
21.11
18.62
15.3
11.2
6.55
1.66
-3.17
-7.74
-12.05
-16.27
-20.67
-25.55
-31.11
-37.4
-44.17
-50.83
-56.4
-59.7
-59.58
-55.31
-46.8
-34.65
-20.02
-4.33
11.1
25.21
37.23
46.62
53.04
56.39
56.8
54.72
50.81
45.86
40.55
35.38
30.6
26.31
22.53
19.28
16.59
14.51
12.95
11.74
10.6
9.19
7.23
4.56
1.21
-2.7
-6.91
-11.2
-15.41
-19.5
-23.57
-27.84
-32.61
-38.14
-44.46
-51.32
-58.01
-63.53
-66.67
-66.38
-62.05
-53.69
-41.93
-27.86
-12.75
2.18
15.85
27.4
36.17
41.73
44
43.21
40
35.23
29.81
24.49
19.75
15.79
12.6
10.07
8.07
6.48
5.2
4.13
3.13
1.99
0.41
-1.87
-5
-8.92
-13.36
-17.9
-22.22
-26.17
-29.91
-33.8
-38.3
-43.7
-49.98
-56.69
-62.96
-67.61
-69.38
-67.21
-60.56
-49.59
-35.14
-18.6
-1.51
14.76
29.22
41.29
50.66
57.17
60.71
61.32
59.26
55.15
49.84
44.25
39.12
34.88
31.54
28.89
26.6
24.46
22.38
20.37
18.49
16.71
14.88
12.75
10.06
6.61
2.4
-2.4
-7.48
-12.55
-17.45
-22.21
-27.08
-32.37
-38.32
-45.07
-52.45
-59.99
-66.88
-72.05
-74.35
-72.8
-66.87
-56.67
-42.96
-26.94
-10.02
6.48
21.51
34.4
44.76
52.43
57.38
59.73
59.74
57.78
54.34
50
45.32
40.83
36.93
33.84
31.64
30.25
29.43
28.89
28.37
27.62
26.52
25.04
23.15
20.82
17.95
14.47
10.35
5.7
0.71
-4.35
-9.24
-13.86
-18.24
-22.56
-27.01
-31.82
-37.14
-43.04
-49.39
-55.74
-61.24
-64.71
-64.93
-61.02
-52.72
-40.58
-25.75
-9.66
6.31
21.05
33.83
44.24
52.09
57.37
60.23
60.9
59.7
57
53.21
48.8
44.29
40.1
36.56
33.79
31.72
30.19
29.02
28.01
27.04
25.96
24.61
22.85
20.55
17.65
14.18
10.21
5.9
1.4
-3.14
-7.61
-12.02
-16.38
-20.76
-25.24
-29.84
-34.66
-39.79
-45.3
-51.07
-56.59
-60.95
-62.95
-61.52
-56.01
-46.53
-33.9
-19.46
-4.62
9.36
21.6
31.49
38.66
42.9
44.18
42.76
39.21
34.33
29.02
24.04
19.87
16.66
14.32
12.64
11.42
10.49
9.75
9.04
8.21
7.03
5.37
3.13
0.34
-2.89
-6.4
-10.08
-13.85
-17.65
-21.54
-25.57
-29.82
-34.43
-39.49
-45.02
-50.79
-56.25
-60.5
-62.48
-61.21
-56.18
-47.51
-35.94
-22.61
-8.75
4.64
16.82
27.3
35.67
41.59
44.83
45.37
43.49
39.77
34.98
29.92
25.23
21.3
18.26
15.99
14.27
12.85
11.57
10.34
9.14
7.93
6.58
4.9
2.66
-0.27
-3.86
-7.89
-12.03
-15.98
-19.55
-22.77
-25.86
-29.15
-33.02
-37.71
-43.31
-49.6
-56.07
-61.85
-65.89
-67.07
-64.51
-57.79
-47.19
-33.59
-18.32
-2.86
11.54
24.02
34.23
42.12
47.78
51.28
52.66
51.93
49.33
45.33
40.64
36.03
32.09
29.11
26.99
25.4
24.01
22.61
21.21
19.91
18.75
17.64
16.32
14.48
11.84
8.33
4.04
-0.74
-5.65
-10.38
-14.75
-18.74
-22.51
-26.31
-30.41
-35.07
-40.43
-46.44
-52.85
-59.06
-64.13
-66.91
-66.26
-61.44
-52.38
-39.74
-24.77
-8.95
6.38
20.28
32.15
41.72
48.84
53.44
55.53
55.29
53.09
49.51
45.21
40.83
36.83
33.46
30.76
28.63
26.93
25.53
24.37
23.43
22.64
21.87
20.9
19.46
17.3
14.3
10.53
6.18
1.56
-3.03
-7.4
-11.48
-15.38
-19.29
-23.45
-28.04
-33.19
-38.87
-44.92
-50.89
-56.06
-59.49
-60.14
-57.22
-50.39
-39.96
-26.81
-12.25
2.36
15.85
27.4
36.5
42.91
46.58
47.59
46.19
42.77
37.93
32.33
26.68
21.54
17.31
14.11
11.83
10.25
9.08
8.11
7.18
6.2
5.05
3.55
1.5
-1.23
-4.62
-8.42
-12.33
-16.03
-19.42
-22.59
-25.86
-29.6
-34.1
-39.42
-45.3
-51.14
-56.03
-58.92
-58.78
-54.96
-47.3
-36.27
-22.87
-8.38
5.9
18.88
29.75
38.03
43.43
45.86
45.43
42.48
37.64
31.73
25.61
20.04
15.48
12.09
9.73
8.17
7.1
6.3
5.59
4.78
3.67
2.1
-0.06
-2.81
-6.03
-9.55
-13.23
-17.01
-21
-25.37
-30.29
-35.8
-41.73
-47.65
-52.86
-56.5
-57.62
-55.44
-49.54
-39.99
-27.43
-12.93
2.2
16.69
29.45
39.71
47.02
51.26
52.58
51.34
48.07
43.35
37.76
31.84
26.04
20.77
16.34
12.92
10.51
8.94
7.86
6.87
5.55
3.61
0.88
-2.61
-6.72
-11.21
-15.85
-20.42
-24.85
-29.21
-33.73
-38.77
-44.64
-51.44
-58.87
-66.06
-71.66
-74.18
-72.34
-65.5
-53.88
-38.52
-20.99
-2.98
14
28.91
41.15
50.46
56.81
60.26
61.02
59.46
56.12
51.68
46.74
41.76
36.95
32.38
28.1
24.24
21.06
18.73
17.29
16.44
15.67
14.4
12.19
8.9
4.68
-0.13
-5.15
-10.1
-14.89
-19.61
-24.5
-29.84
-35.89
-42.71
-50
-57.05
-62.75
-65.78
-64.98
-59.7
-50.01
-36.72
-21.09
-4.55
11.6
26.36
39.02
49.12
56.35
60.65
62.12
61.14
58.28
54.22
49.64
45.12
41.02
37.51
34.57
32.04
29.75
27.63
25.65
23.86
22.24
20.57
18.48
15.54
11.43
6.16
0.07
-6.3
-12.43
-18
-23.02
-27.77
-32.62
-37.93
-43.91
-50.54
-57.51
-64.13
-69.39
-72.09
-71.13
-65.84
-56.2
-42.9
-27.19
-10.55
5.58
20.03
32
41.05
46.98
49.86
49.95
47.72
43.81
38.95
33.84
29.02
24.79
21.2
18.17
15.56
13.24
11.15
9.23
7.4
5.48
3.25
0.57
-2.63
-6.24
-10.07
-13.87
-17.48
-20.9
-24.31
-28.04
-32.31
-37.16
-42.15
-46.38
-48.64
-47.72
-42.8
-33.77
-21.25
-6.49
9
23.79
36.79
47.29
54.94
59.62
61.41
60.53
57.41
52.59
46.72
40.44
34.28
28.64
23.71
19.6
16.25
13.53
11.28
9.29
7.38
5.42
3.32
1
-1.58
-4.51
-7.87
-11.71
-16.12
-21.14
-26.81
-33.03
-39.52
-45.69
-50.69
-53.5
-53.22
-49.23
-41.44
-30.36
-16.97
-2.57
11.51
24.07
34.21
41.44
45.64
47.01
45.96
43.03
38.75
33.67
28.27
22.96
18.15
14.11
11.01
8.85
7.41
6.37
5.37
4.07
2.29
-0.04
-2.86
-6.09
-9.65
-13.48
-17.49
-21.52
-25.41
-29.07
-32.58
-36.21
-40.22
-44.67
-49.14
-52.75
-54.26
-52.52
-46.85
-37.31
-24.66
-10.13
4.94
19.34
32.15
42.72
50.56
55.39
57.11
55.88
52.15
46.65
40.21
33.65
27.63
22.59
18.66
15.76
13.67
12.1
10.74
9.35
7.69
5.57
2.85
-0.53
-4.51
-8.91
-13.44
-17.88
-22.13
-26.33
-30.84
-36.04
-42.08
-48.7
-55.11
-60.07
-62.29
-60.72
-54.97
-45.34
-32.79
-18.61
-4.14
9.45
21.33
30.92
37.87
42.04
43.43
42.27
38.99
34.22
28.74
23.34
18.72
15.29
13.13
11.99
11.37
10.7
9.56
7.75
5.3
2.37
-0.86
-4.32
-8.02
-12.1
-16.68
-21.86
-27.71
-34.22
-41.2
-48.22
-54.52
-59.07
-60.75
-58.63
-52.24
-41.74
-27.91
-11.98
4.61
20.51
34.62
46.16
54.69
59.97
62
60.94
57.16
51.24
43.93
36.09
28.48
21.68
16
11.5
8.04
5.47
3.66
2.52
1.93
1.67
1.41
0.72
-0.77
-3.26
-6.7
-10.84
-15.31
-19.81
-24.23
-28.67
-33.42
-38.8
-44.98
-51.8
-58.67
-64.55
-68.16
-68.23
-63.89
-54.93
-41.93
-26.06
-8.83
8.32
24.22
38.06
49.34
57.74
63.09
65.35
64.78
61.86
57.35
52.11
46.93
42.42
38.82
36.06
33.82
31.68
29.28
26.44
23.2
19.79
16.41
13.2
10.11
6.92
3.36
-0.77
-5.45
-10.48
-15.53
-20.21
-24.29
-27.76
-30.82
-33.79
-37.04
-40.83
-45.3
-50.38
-55.74
-60.75
-64.51
-65.99
-64.23
-58.67
-49.37
-36.99
-22.72
-7.89
6.2
18.61
28.69
36.1
40.68
42.45
41.61
38.63
34.2
29.17
24.32
20.23
17.11
14.88
13.3
12.17
11.46
11.28
11.7
12.54
13.36
13.51
12.42
9.8
5.85
1.17
-3.52
-7.61
-10.89
-13.54
-16.04
-18.91
-22.53
-27.06
-32.4
-38.18
-43.76
-48.31
-50.89
-50.62
-46.9
-39.59
-29.03
-16.01
-1.59
13.06
26.79
38.6
47.66
53.45
55.79
54.9
51.37
46.02
39.76
33.41
27.6
22.65
18.64
15.48
13.03
11.14
9.66
8.42
7.19
5.7
3.69
0.97
-2.46
-6.45
-10.77
-15.18
-19.54
-23.84
-28.21
-32.9
-38.12
-43.98
-50.37
-56.84
-62.58
-66.52
-67.57
-64.82
-57.89
-47.01
-33
-17.1
-0.71
14.87
28.6
39.72
47.77
52.54
54.02
52.46
48.35
42.48
35.73
29.03
23.08
18.28
14.68
12.09
10.23
8.84
7.82
7.08
6.54
5.98
5.07
3.42
0.75
-2.98
-7.52
-12.38
-17.08
-21.32
-25.11
-28.81
-32.91
-37.9
-43.98
-50.94
-58.09
-64.36
-68.43
-69.03
-65.21
-56.67
-43.87
-28.02
-10.7
6.44
22.09
35.42
46
53.64
58.3
60.01
58.97
55.6
50.57
44.75
38.98
33.95
30.04
27.32
25.63
24.65
24.07
23.64
23.17
22.54
21.61
20.27
18.38
15.83
12.6
8.76
4.42
-0.24
-5.09
-10.01
-14.9
-19.69
-24.31
-28.81
-33.32
-38.11
-43.51
-49.71
-56.55
-63.33
-68.84
-71.61
-70.32
-64.24
-53.46
-38.89
-21.97
-4.29
12.74
28.04
40.88
50.77
57.41
60.68
60.68
57.81
52.73
46.29
39.41
32.92
27.44
23.28
20.45
18.77
17.92
17.58
17.48
17.39
17.11
16.46
15.27
13.37
10.72
7.32
3.26
-1.27
-6.07
-10.91
-15.56
-19.92
-23.99
-27.9
-31.87
-36.17
-41.03
-46.5
-52.38
-58.1
-62.75
-65.18
-64.25
-59.16
-49.71
-36.42
-20.4
-3.17
13.74
29.02
41.72
51.27
57.4
60.09
59.52
56.18
50.74
44.11
37.24
31
25.96
22.4
20.25
19.24
19
19.1
19.2
18.99
18.24
16.77
14.48
11.37
7.55
3.24
-1.27
-5.77
-10.13
-14.47
-19.03
-24.13
-29.99
-36.53
-43.34
-49.63
-54.33
-56.34
-54.68
-48.86
-38.98
-25.76
-10.43
5.51
20.53
33.33
42.99
48.97
51.2
49.97
45.94
39.99
33.08
26.07
19.61
14.09
9.64
6.21
3.73
2.06
1.05
0.45
-0.05
-0.84
-2.29
-4.63
-7.89
-11.93
-16.45
-21.17
-25.86
-30.42
-34.93
-39.62
-44.76
-50.63
-57.25
-64.28
-70.88
-75.78
-77.51
-74.86
-67.15
-54.59
-38.16
-19.43
-0.13
18.17
34.23
47.18
56.49
61.91
63.48
61.6
57.04
50.82
44
37.48
31.82
27.25
23.75
21.21
19.47
18.37
17.69
17.12
16.26
14.77
12.36
8.97
4.71
-0.16
-5.26
-10.28
-14.98
-19.33
-23.52
-27.89
-32.89
-38.9
-46.03
-53.97
-61.88
-68.43
-72.03
-71.25
-65.19
-53.86
-38.15
-19.66
-0.28
18.28
34.71
48.17
58.21
64.66
67.48
66.84
63.18
57.28
50.17
42.95
36.56
31.57
28.06
25.73
24.13
22.85
21.68
20.61
19.64
18.72
17.61
15.94
13.33
9.58
4.75
-0.86
-6.81
-12.72
-18.33
-23.63
-28.81
-34.19
-40.08
-46.65
-53.81
-61.03
-67.31
-71.33
-71.71
-67.37
-57.89
-43.69
-26
-6.57
12.73
30.24
44.8
55.7
62.65
65.69
65.09
61.39
55.39
48.12
40.63
33.85
28.39
24.43
21.82
20.21
19.19
18.47
17.85
17.17
16.26
14.85
12.68
9.55
5.46
0.63
-4.57
-9.74
-14.61
-19.1
-23.39
-27.83
-32.79
-38.53
-44.95
-51.46
-57
-60.14
-59.51
-54.19
-44.05
-29.88
-13.16
4.3
20.84
35.16
46.42
54.17
58.19
58.47
55.3
49.34
41.59
33.24
25.48
19.18
14.76
12.2
11.12
10.96
11.19
11.31
10.96
9.88
7.95
5.15
1.62
-2.41
-6.7
-11.06
-15.53
-20.29
-25.67
-31.94
-39.14
-46.87
-54.26
-60.07
-62.9
-61.56
-55.41
-44.54
-29.8
-12.63
5.26
22.19
36.76
47.95
55.2
58.4
57.84
54.2
48.39
41.42
34.19
27.41
21.51
16.7
13.02
10.45
8.88
8.08
7.66
7.11
5.91
3.65
0.22
-4.2
-9.22
-14.43
-19.52
-24.42
-29.29
-34.45
-40.3
-47.12
-54.94
-63.33
-71.26
-77.21
-79.41
-76.37
-67.42
-52.95
-34.44
-13.95
6.42
24.94
40.54
52.7
61.26
66.24
67.82
66.39
62.59
57.32
51.48
45.83
40.83
36.56
32.94
29.8
27.08
24.8
22.98
21.53
20.2
18.58
16.23
12.86
8.4
3.04
-2.85
-8.87
-14.73
-20.31
-25.68
-31.05
-36.7
-42.88
-49.7
-56.95
-64.01
-69.8
-72.87
-71.81
-65.61
-54.03
-37.84
-18.6
1.72
21.23
38.5
52.7
63.47
70.74
74.64
75.4
73.43
69.39
64.05
58.25
52.68
47.77
43.73
40.56
38.16
36.37
35.03
33.9
32.69
31.15
29.06
26.31
22.88
18.85
14.31
9.38
4.12
-1.43
-7.21
-13.15
-19.15
-25.04
-30.68
-35.98
-40.94
-45.72
-50.58
-55.75
-61.37
-67.17
-72.43
-75.97
-76.41
-72.54
-63.8
-50.5
-33.8
-15.4
2.93
19.78
34.24
45.87
54.48
60.01
62.47
62.02
59.09
54.36
48.72
43.08
38.13
34.28
31.57
29.82
28.7
27.94
27.36
26.85
26.35
25.69
24.6
22.79
20.02
16.26
11.71
6.72
1.68
-3.09
-7.45
-11.42
-15.14
-18.83
-22.72
-27.03
-31.87
-37.24
-42.93
-48.46
-53.09
-55.88
-55.87
-52.35
-45.05
-34.3
-21.02
-6.42
8.19
21.68
33.25
42.33
48.56
51.72
51.79
49.1
44.29
38.39
32.47
27.45
23.82
21.61
20.43
19.76
19.15
18.31
17.21
15.87
14.33
12.49
10.17
7.16
3.37
-1.09
-5.96
-10.88
-15.59
-19.96
-24.06
-28.05
-32.12
-36.44
-41.11
-46.22
-51.78
-57.6
-63.12
-67.42
-69.29
-67.58
-61.6
-51.4
-37.82
-22.24
-6.21
8.96
22.37
33.49
42.03
47.81
50.73
50.91
48.74
44.96
40.45
36.06
32.34
29.5
27.46
25.98
24.87
24.02
23.45
23.17
23.1
23.04
22.7
21.71
19.86
17.05
13.42
9.28
4.98
0.83
-3
-6.56
-10.01
-13.59
-17.48
-21.72
-26.19
-30.65
-34.82
-38.5
-41.67
-44.51
-47.33
-50.51
-54.31
-58.78
-63.59
-68.03
-71.06
-71.53
-68.5
-61.55
-50.92
-37.54
-22.69
-7.74
6.18
18.36
28.41
36.16
41.58
44.71
45.71
44.92
42.83
40
36.96
34.09
31.58
29.48
27.77
26.41
25.44
24.92
24.89
25.28
25.85
26.23
26.04
24.99
23.01
20.27
17.13
13.96
11.09
8.62
6.5
4.56
2.62
0.52
-1.77
-4.21
-6.72
-9.19
-11.58
-13.9
-16.21
-18.62
-21.18
-23.92
-26.82
-29.77
-32.65
-35.32
-37.73
-39.94
-42.18
-44.78
-48.03
-52.04
-56.52
-60.74
-63.64
-64.12
-61.36
-55.13
-45.79
-34.22
-21.51
-8.68
3.49
14.43
23.73
31.1
36.25
39.1
39.77
38.64
36.26
33.28
30.21
27.42
25.13
23.38
22.15
21.42
21.11
21.12
21.29
21.44
21.37
20.96
20.15
18.96
17.42
15.57
13.46
11.13
8.69
6.24
3.89
1.66
-0.53
-2.85
-5.5
-8.6
-12.11
-15.86
-19.56
-22.92
-25.73
-28.02
-29.95
-31.84
-34
-36.66
-39.89
-43.52
-47.18
-50.26
-52.02
-51.76
-48.93
-43.34
-35.22
-25.21
-14.15
-2.92
7.71
17.09
24.71
30.17
33.25
33.98
32.71
30.07
26.77
23.49
20.61
18.33
16.61
15.35
14.49
13.94
13.57
13.16
12.45
11.2
9.33
6.89
4.07
1.08
-1.95
-5.01
-8.21
-11.66
-15.41
-19.41
-23.5
-27.49
-31.2
-34.53
-37.5
-40.29
-43.21
-46.62
-50.79
-55.69
-60.9
-65.56
-68.58
-68.84
-65.57
-58.56
-48.24
-35.55
-21.67
-7.79
5.14
16.46
25.81
33.02
38.02
40.87
41.69
40.76
38.52
35.48
32.18
29.04
26.31
24.09
22.38
21.16
20.41
20.09
20.04
19.97
19.52
18.34
16.3
13.51
10.33
7.17
4.29
1.73
-0.77
-3.57
-6.94
-10.95
-15.42
-20.04
-24.48
-28.57
-32.3
-35.84
-39.47
-43.54
-48.33
-53.9
-59.9
-65.55
-69.63
-70.84
-68.16
-61.18
-50.26
-36.39
-20.89
-5.1
9.93
23.44
34.98
44.29
51.24
55.81
58.11
58.39
57.02
54.46
51.21
47.76
44.48
41.63
39.31
37.52
36.15
35.11
34.3
33.63
32.99
32.2
31.04
29.33
26.97
23.98
20.55
16.93
13.29
9.66
5.92
1.83
-2.75
-7.81
-13.11
-18.27
-22.9
-26.8
-30.03
-32.9
-35.91
-39.53
-44.06
-49.48
-55.34
-60.79
-64.7
-65.91
-63.49
-56.99
-46.59
-33.11
-17.75
-1.94
13.02
26.14
36.86
44.96
50.51
53.69
54.72
53.84
51.37
47.76
43.59
39.43
35.74
32.76
30.49
28.82
27.59
26.7
26.06
25.54
24.94
24
22.51
20.38
17.66
14.52
11.14
7.64
4.02
0.27
-3.62
-7.59
-11.52
-15.29
-18.77
-21.91
-24.76
-27.45
-30.21
-33.36
-37.18
-41.79
-46.99
-52.14
-56.2
-57.96
-56.35
-50.76
-41.24
-28.5
-13.8
1.43
15.83
28.36
38.34
45.45
49.61
50.94
49.77
46.62
42.17
37.19
32.32
27.98
24.33
21.33
18.9
16.99
15.62
14.81
14.45
14.31
14.02
13.21
11.59
9.06
5.7
1.74
-2.52
-6.81
-10.91
-14.72
-18.27
-21.72
-25.3
-29.33
-33.97
-39.18
-44.49
-49.07
-51.83
-51.69
-47.94
-40.39
-29.53
-16.34
-2.07
11.98
24.71
35.26
43.02
47.68
49.18
47.8
44.08
38.79
32.76
26.73
21.27
16.67
13.03
10.34
8.47
7.26
6.48
5.83
5
3.74
1.89
-0.61
-3.69
-7.22
-11.04
-14.99
-18.96
-22.96
-27.12
-31.74
-37.14
-43.42
-50.28
-56.86
-61.92
-64.08
-62.33
-56.26
-46.25
-33.28
-18.66
-3.73
10.35
22.69
32.65
39.79
43.9
44.99
43.38
39.65
34.52
28.75
22.99
17.7
13.12
9.35
6.35
4.06
2.32
0.96
-0.31
-1.7
-3.42
-5.55
-8.08
-10.95
-14.11
-17.52
-21.13
-24.96
-29.04
-33.5
-38.45
-43.93
-49.58
-54.64
-57.88
-57.97
-53.89
-45.29
-32.68
-17.31
-0.77
15.45
30.21
42.83
52.93
60.35
64.97
66.83
66.14
63.4
59.27
54.45
49.49
44.71
40.2
35.99
32.14
28.79
26.04
23.83
21.88
19.77
17.02
13.32
8.61
3.06
-3
-9.18
-15.18
-20.85
-26.23
-31.61
-37.41
-43.98
-51.41
-59.23
-66.38
-71.38
-72.72
-69.33
-60.92
-48.02
-31.9
-14.13
3.73
20.4
35.01
47.02
56.17
62.41
65.85
66.74
65.48
62.57
58.51
53.81
48.89
44.07
39.58
35.56
32.06
29.11
26.66
24.62
22.82
21.01
18.82
15.88
11.96
7
1.23
-4.89
-10.85
-16.29
-21.12
-25.51
-29.89
-34.7
-40.33
-46.89
-54.17
-61.52
-67.87
-71.89
-72.27
-68.07
-59.06
-45.83
-29.57
-11.84
5.92
22.53
37.21
49.43
58.88
65.41
69.02
69.96
68.67
65.73
61.72
57.19
52.57
48.25
44.53
41.69
39.81
38.83
38.46
38.33
38.05
37.32
35.99
34.01
31.44
28.33
24.75
20.76
16.48
12.02
7.55
3.24
-0.82
-4.58
-8.1
-11.47
-14.83
-18.28
-21.92
-25.82
-29.97
-34.28
-38.55
-42.57
-46.14
-49.21
-51.91
-54.61
-57.77
-61.78
-66.77
-72.46
-78.06
-82.36
-84.01
-81.78
-74.96
-63.59
-48.45
-30.94
-12.69
4.79
20.36
33.35
43.5
50.79
55.37
57.44
57.3
55.39
52.24
48.44
