24.71
23.36
22.47
21.92
21.7
21.76
21.98
22.04
21.57
20.2
17.8
14.49
10.65
6.69
2.93
-0.51
-3.71
-6.88
-10.19
-13.73
-17.45
-21.21
-24.83
-28.18
-31.17
-33.84
-36.34
-38.99
-42.13
-46.01
-50.67
-55.73
-60.42
-63.63
-64.21
-61.26
-54.42
-44
-30.89
-16.38
-1.87
11.47
22.77
31.52
37.54
40.87
41.69
40.35
37.34
33.28
28.93
25
22.04
20.32
19.79
20.15
21.01
22.02
22.99
23.81
24.39
24.61
24.29
23.21
21.24
18.38
14.8
10.81
6.71
2.76
-0.97
-4.52
-8.03
-11.63
-15.38
-19.24
-23.14
-26.94
-30.53
-33.83
-36.85
-39.74
-42.78
-46.37
-50.86
-56.36
-62.5
-68.4
-72.75
-74.12
-71.38
-64.08
-52.59
-38.02
-21.88
-5.7
9.31
22.39
33.16
41.46
47.23
50.48
51.36
50.23
47.63
44.26
40.73
37.51
34.84
32.79
31.3
30.3
29.7
29.38
29.24
29.06
28.66
27.88
26.57
24.66
22.12
19.03
15.49
11.7
7.86
4.17
0.74
-2.47
-5.61
-8.93
-12.61
-16.71
-21.08
-25.45
-29.49
-32.97
-35.83
-38.21
-40.39
-42.73
-45.6
-49.27
-53.84
-59.14
-64.58
-69.2
-71.76
-71.06
-66.27
-57.23
-44.54
-29.38
-13.21
2.57
16.9
29.12
38.91
46.12
50.69
52.65
52.21
49.84
46.22
42.21
38.56
35.8
34.09
33.33
33.26
33.63
34.28
35.14
36.1
36.96
37.43
37.22
36.13
34.16
31.43
28.19
24.66
21.04
17.44
13.9
10.41
6.89
3.19
-0.87
-5.39
-10.36
-15.58
-20.72
-25.44
-29.52
-32.98
-36.09
-39.35
-43.25
-48.12
-53.93
-60.14
-65.76
-69.5
-70.06
-66.49
-58.5
-46.58
-31.9
-16.01
-0.43
13.63
25.35
34.35
40.47
43.7
44.17
42.19
38.36
33.44
28.26
23.59
19.91
17.44
16.16
15.85
16.23
16.93
17.61
17.96
17.77
16.91
15.35
13.09
10.17
6.65
2.63
-1.76
-6.36
-11.01
-15.59
-19.97
-24.11
-27.99
-31.68
-35.35
-39.24
-43.61
-48.65
-54.4
-60.58
-66.52
-71.18
-73.29
-71.63
-65.47
-54.8
-40.44
-23.83
-6.65
9.58
23.75
35.27
43.89
49.61
52.5
52.75
50.69
46.87
41.97
36.75
31.89
27.9
25.03
23.31
22.63
22.75
23.36
24.13
24.69
24.68
23.84
22.02
19.26
15.78
11.88
7.83
3.74
-0.43
-4.85
-9.65
-14.78
-20.03
-25.09
-29.69
-33.81
-37.67
-41.67
-46.21
-51.57
-57.7
-64.15
-70.12
-74.43
-75.84
-73.26
-66.11
-54.57
-39.56
-22.52
-5.05
11.44
25.95
37.89
46.98
53.13
56.41
57.11
55.74
53.01
49.64
46.19
43.04
40.31
38.02
36.14
34.72
33.83
33.47
33.5
33.65
33.55
32.86
31.37
29.04
26
22.47
18.66
14.73
10.69
6.45
1.9
-3.01
-8.18
-13.37
-18.28
-22.73
-26.74
-30.51
-34.36
-38.62
-43.52
-49.14
-55.31
-61.56
-66.97
-70.34
-70.3
-65.83
-56.55
-43.03
-26.63
-9.14
7.75
22.79
35.3
45.06
52.1
56.56
58.56
58.36
56.31
53.01
49.15
45.39
42.22
39.86
38.25
37.23
36.59
36.25
36.19
36.34
36.55
36.48
35.73
33.99
31.23
27.66
23.68
19.68
15.86
12.18
8.44
4.42
-0.03
-4.86
-9.86
-14.74
-19.23
-23.2
-26.72
-30.09
-33.74
-38.07
-43.29
-49.24
-55.31
-60.48
-63.52
-63.25
-58.87
-50.22
-37.85
-22.95
-7.07
8.21
21.63
32.42
40.29
45.28
47.56
47.32
44.81
40.4
34.66
28.35
22.31
17.22
13.45
11.03
9.69
9.04
8.77
8.68
8.7
8.71
8.56
8
6.75
4.62
1.56
-2.31
-6.72
-11.32
-15.79
-19.87
-23.53
-26.91
-30.27
-33.95
-38.22
-43.18
-48.72
-54.49
-59.82
-63.83
-65.44
-63.65
-57.78
-47.81
-34.41
-18.89
-2.81
12.39
25.61
36.21
43.94
48.74
50.7
50.05
47.19
42.75
37.48
32.18
27.57
24.08
21.89
20.83
20.52
20.5
20.32
19.76
18.73
17.28
15.53
13.47
11.06
8.19
4.78
0.86
-3.48
-8.12
-12.9
-17.68
-22.29
-26.64
-30.68
-34.48
-38.27
-42.38
-47.12
-52.64
-58.74
-64.79
-69.74
-72.29
-71.21
-65.76
-55.89
-42.34
-26.46
-9.86
6
20.07
31.77
40.89
47.37
51.29
52.79
52.19
49.99
46.83
43.32
39.94
37
34.59
32.75
31.49
30.76
30.43
30.25
29.91
29.08
27.59
25.4
22.62
19.4
15.87
12.09
8.08
3.86
-0.57
-5.19
-9.95
-14.76
-19.51
-24.12
-28.53
-32.79
-37.06
-41.58
-46.55
-52.07
-57.92
-63.55
-68.01
-70.12
-68.74
-63.12
-53.16
-39.55
-23.61
-6.95
8.93
22.95
34.56
43.57
50
53.91
55.39
54.67
52.22
48.67
44.78
41.19
38.31
36.24
34.88
34.04
33.51
33.13
32.74
32.19
31.33
30.01
28.16
25.79
22.99
19.87
16.53
12.98
9.19
5.08
0.61
-4.18
-9.17
-14.14
-18.89
-23.31
-27.45
-31.5
-35.76
-40.52
-45.88
-51.6
-57.01
-61.06
-62.56
-60.5
-54.36
-44.3
-31.18
-16.32
-1.23
12.8
24.85
34.39
41.24
45.36
46.84
45.87
42.84
38.39
33.36
28.58
24.71
22.05
20.47
19.6
19.03
18.5
17.95
17.38
16.79
16.01
14.74
12.63
9.5
5.36
0.52
-4.56
-9.42
-13.71
-17.32
-20.37
-23.25
-26.4
-30.27
-35.11
-40.86
-47.1
-53.07
-57.72
-59.93
-58.78
-53.79
-45.02
-33.17
-19.36
-4.91
8.94
21.24
31.37
39
44.01
46.45
46.56
44.72
41.51
37.57
33.48
29.71
26.51
23.97
22.09
20.81
20.06
19.72
19.61
19.45
19
18.02
16.42
14.18
11.39
8.18
4.69
1.03
-2.73
-6.61
-10.65
-14.92
-19.45
-24.16
-28.85
-33.24
-37.15
-40.55
-43.67
-46.9
-50.67
-55.19
-60.31
-65.38
-69.32
-70.88
-68.93
-62.86
-52.74
-39.39
-24.13
-8.4
6.56
19.97
31.41
40.73
47.83
52.61
54.99
55.14
53.47
50.66
47.49
44.56
42.22
40.52
39.32
38.46
37.81
37.35
37.06
36.82
36.46
35.74
34.5
32.67
30.32
27.58
24.6
21.47
18.25
14.9
11.41
7.73
3.89
-0.09
-4.11
-8.09
-11.98
-15.76
-19.45
-23.08
-26.64
-30.05
-33.22
-36.11
-38.78
-41.43
-44.4
-48
-52.44
-57.6
-62.98
-67.62
-70.36
-70.03
-65.83
-57.57
-45.77
-31.52
-16.2
-1.14
12.62
24.44
34.01
41.22
46.06
48.62
49.09
47.89
45.53
42.63
39.67
36.99
34.74
32.91
31.52
30.55
30.04
29.96
30.17
30.43
30.46
29.98
28.78
26.78
24.06
20.8
17.24
13.64
10.17
6.93
3.87
0.91
-2.09
-5.26
-8.65
-12.24
-15.92
-19.48
-22.77
-25.72
-28.43
-31.18
-34.33
-38.23
-43
-48.41
-53.83
-58.34
-60.86
-60.44
-56.52
-49.1
-38.75
-26.51
-13.56
-1.02
10.27
19.78
27.19
32.33
35.13
35.66
34.2
31.27
27.55
23.77
20.47
17.94
16.25
15.27
14.82
14.76
14.93
15.21
15.41
15.33
14.8
13.69
11.99
9.8
7.26
4.52
1.64
-1.37
-4.56
-7.97
-11.55
-15.2
-18.82
-22.36
-25.92
-29.68
-33.88
-38.7
-44.19
-50.3
-56.89
-63.63
-69.95
-75.06
-77.92
-77.56
-73.32
-65.12
-53.53
-39.59
-24.59
-9.75
3.98
15.99
25.94
33.68
39.22
42.64
44.17
44.17
43.05
41.32
39.45
37.82
36.64
35.96
35.69
35.73
35.96
36.34
36.78
37.16
37.24
36.73
35.41
33.21
30.29
26.94
23.54
20.32
17.33
14.44
11.42
8.12
4.53
0.78
-2.96
-6.6
-10.16
-13.77
-17.55
-21.49
-25.47
-29.29
-32.76
-35.8
-38.55
-41.26
-44.3
-48.05
-52.81
-58.67
-65.39
-72.32
-78.43
-82.43
-83.09
-79.59
-71.77
-60.19
-45.98
-30.49
-15.04
-0.6
12.19
22.99
31.6
37.92
41.94
43.81
43.88
42.69
40.85
38.87
37.14
35.83
35
34.63
34.69
35.12
35.82
36.62
37.31
37.68
37.57
36.9
35.68
33.95
31.81
29.37
26.72
23.92
21.01
17.96
14.76
11.41
7.94
4.41
0.85
-2.73
-6.38
-10.12
-13.94
-17.75
-21.44
-24.95
-28.32
-31.79
-35.68
-40.29
-45.71
-51.66
-57.41
-61.88
-63.86
-62.31
-56.74
-47.31
-34.86
-20.69
-6.23
7.32
19.14
28.77
36.05
40.92
43.36
43.42
41.36
37.69
33.11
28.46
24.42
21.41
19.54
18.66
18.46
18.61
18.82
18.88
18.69
18.18
17.33
16.07
14.37
12.19
9.59
6.71
3.71
0.63
-2.6
-6.25
-10.57
-15.76
-21.78
-28.44
-35.46
-42.64
-49.83
-56.84
-63.28
-68.4
-71.19
-70.56
-65.77
-56.72
-44.07
-29.07
-13.22
2.09
15.81
27.32
36.3
42.59
46.18
47.19
45.92
42.9
38.84
34.47
30.47
27.35
25.4
24.68
25.03
26.1
27.39
28.39
28.67
27.94
26.13
23.37
19.9
16
11.9
7.71
3.44
-1.02
-5.8
-11.01
-16.62
-22.5
-28.39
-34.08
-39.48
-44.67
-49.87
-55.38
-61.44
-68.06
-74.89
-81.14
-85.65
-87.04
-84.14
-76.31
-63.76
-47.59
-29.49
-11.26
5.59
20.16
32.05
41.18
47.59
51.3
52.46
51.39
48.73
45.25
41.69
38.57
36.06
34.1
32.52
31.25
30.31
29.74
29.49
29.34
28.97
28.01
26.23
23.61
20.29
16.51
12.48
8.28
3.85
-0.94
-6.15
-11.74
-17.49
-23.07
-28.2
-32.71
-36.67
-40.39
-44.28
-48.76
-54.05
-59.98
-65.94
-70.83
-73.33
-72.17
-66.48
-56.11
-41.73
-24.66
-6.54
11.01
26.78
40.04
50.47
58.04
62.82
64.96
64.66
62.31
58.47
53.9
49.35
45.48
42.69
41.03
40.31
40.21
40.35
40.41
40.18
39.52
38.33
36.54
34.11
31.06
27.42
23.28
18.78
14.06
9.27
4.46
-0.35
-5.18
-10.06
-15.01
-20.03
-25.23
-30.78
-36.9
-43.61
-50.54
-56.8
-61.11
-62.12
-58.91
-51.25
-39.71
-25.46
-9.89
5.65
20.07
32.52
42.31
48.95
52.16
52.01
49
43.96
37.93
31.89
26.55
22.34
19.31
17.28
15.96
15.03
14.21
13.32
12.29
11.1
9.71
8.02
5.83
2.97
-0.61
-4.75
-9.14
-13.41
-17.37
-21.07
-24.84
-29.12
-34.27
-40.33
-46.99
-53.53
-58.88
-61.92
-61.6
-57.24
-48.72
-36.59
-21.92
-6.08
9.52
23.71
35.62
44.71
50.69
53.51
53.36
50.69
46.21
40.78
35.26
30.3
26.27
23.21
20.96
19.24
17.78
16.37
14.89
13.3
11.59
9.74
7.69
5.32
2.43
-1.09
-5.27
-9.95
-14.86
-19.68
-24.15
-28.18
-31.82
-35.27
-38.82
-42.84
-47.62
-53.39
-60
-66.86
-72.89
-76.66
-76.76
-72.19
-62.71
-48.95
-32.22
-14.21
3.45
19.44
32.94
43.52
51.12
55.85
58
57.92
56.06
52.9
48.99
44.81
40.8
37.32
34.58
32.71
31.69
31.41
31.66
32.13
32.47
32.33
31.47
29.8
27.41
24.53
21.41
18.2
14.89
11.33
7.34
2.85
-2.04
-7.09
-11.98
-16.52
-20.66
-24.58
-28.54
-32.88
-37.86
-43.61
-49.89
-56.13
-61.33
-64.27
-63.77
-59.03
-49.9
-37
-21.57
-5.17
10.7
24.87
36.63
45.72
52.13
55.99
57.46
56.79
54.34
50.67
46.4
42.17
38.4
35.26
32.71
30.55
28.63
26.85
25.21
23.7
22.22
20.61
18.63
16.1
13
9.42
5.57
1.68
-2.15
-5.92
-9.75
-13.75
-17.99
-22.45
-27
-31.52
-35.9
-40.11
-44.23
-48.43
-52.95
-57.94
-63.31
-68.61
-72.89
-74.96
-73.59
-67.96
-57.92
-44.15
-27.95
-10.93
5.37
19.76
31.5
40.17
45.62
47.82
46.92
43.34
37.79
31.25
24.76
19.19
14.99
12.21
10.57
9.72
9.39
9.44
9.82
10.47
11.22
11.83
12.03
11.58
10.39
8.52
6.15
3.54
0.96
-1.42
-3.59
-5.73
-8.09
-10.98
-14.58
-18.87
-23.64
-28.43
-32.65
-35.56
-36.43
-34.62
-29.78
-21.96
-11.69
0.09
12.26
23.64
33.27
40.41
44.65
45.9
44.37
40.56
35.21
29.17
23.24
18.03
13.86
10.77
8.6
7.15
6.22
5.62
5.2
4.76
4.06
2.84
0.93
-1.75
-5.12
-9.02
-13.24
-17.65
-22.23
-27.04
-32.23
-37.98
-44.41
-51.47
-58.77
-65.51
-70.55
-72.68
-70.93
-64.91
-54.95
-42.06
-27.63
-13.09
0.36
11.9
21.04
27.6
31.61
33.27
32.98
31.32
29.03
26.83
25.27
24.58
24.68
25.21
25.84
26.37
26.8
27.28
27.91
28.62
29.14
29.06
28.02
25.85
22.56
18.34
13.43
8.06
2.36
-3.69
-10.15
-17.22
-25.1
-33.87
-43.36
-52.99
-61.72
-68.25
-71.24
-69.7
-63.28
-52.35
-37.92
-21.39
-4.27
12.14
26.83
39.12
48.67
55.31
59.06
60.06
58.62
55.22
50.47
45.06
39.56
34.41
29.74
25.52
21.64
18.03
14.77
12.06
10.09
8.9
8.27
7.74
6.75
4.83
1.76
-2.34
-7.14
-12.22
-17.26
-22.12
-26.85
-31.65
-36.78
-42.55
-49.17
-56.71
-64.85
-72.83
-79.42
-83.14
-82.63
-76.97
-66.04
-50.54
-31.92
-11.94
7.65
25.46
40.64
52.83
62
68.28
71.81
72.73
71.26
67.77
62.81
57.08
51.21
45.74
40.98
37.04
33.91
31.51
29.7
28.31
27.16
26.01
24.6
22.68
20.07
16.68
12.52
7.68
2.33
-3.41
-9.39
-15.52
-21.65
-27.62
-33.3
-38.64
-43.79
-49.08
-54.89
-61.46
-68.57
-75.45
-80.83
-83.23
-81.38
-74.67
-63.25
-48.07
-30.55
-12.24
5.47
21.5
35.13
45.9
53.59
58.17
59.82
58.86
55.86
51.46
46.37
41.2
36.37
32.08
28.37
25.23
22.64
20.65
19.27
18.37
17.66
16.74
15.2
12.76
9.37
5.17
0.44
-4.58
-9.63
-14.55
-19.19
-23.5
-27.57
-31.63
-36.01
-41.02
-46.73
-52.75
-58.23
-61.97
-62.7
-59.47
-51.87
-40.21
-25.4
-8.74
8.34
24.53
38.76
50.24
58.49
63.23
64.49
62.53
57.97
51.65
44.54
37.52
31.25
26.01
21.78
18.31
15.37
12.81
10.59
8.74
7.21
5.78
4.13
1.9
-1.19
-5.22
-10.08
-15.5
-21.13
-26.66
-31.93
-36.93
-41.88
-47.18
-53.19
-60.11
-67.71
-75.31
-81.71
-85.49
-85.34
-80.37
-70.39
-56
-38.42
-19.26
-0.14
17.58
32.94
45.47
54.98
61.5
65.16
66.13
64.69
61.25
56.41
50.85
45.29
40.31
36.28
33.33
31.28
29.81
28.53
27.09
25.26
22.97
20.26
17.23
13.95
10.46
6.66
2.46
-2.25
-7.47
-13.11
-18.95
-24.72
-30.19
-35.22
-39.86
-44.27
-48.77
-53.7
-59.37
-65.86
-72.84
-79.41
-84.19
-85.56
-82.12
-73.2
-59.12
-41.13
-21.09
-0.95
17.72
33.93
47.26
57.56
64.85
69.13
70.55
69.43
66.35
62.03
57.19
52.34
47.74
43.46
39.53
36.07
33.28
31.33
30.22
29.71
29.35
28.64
27.2
24.87
21.71
17.93
13.76
9.35
4.73
-0.19
-5.51
-11.28
-17.41
-23.67
-29.73
-35.33
-40.34
-44.8
-48.98
-53.26
-58.04
-63.59
-69.82
-76.19
-81.63
-84.72
-84.01
-78.43
-67.73
-52.52
-34.21
-14.62
4.51
21.82
36.47
48.07
56.54
61.93
64.36
64.03
61.3
56.73
51.01
44.9
39.06
33.93
29.78
26.63
24.36
22.74
21.55
20.55
19.57
18.49
17.19
15.54
13.38
10.57
7.03
2.82
-1.87
-6.78
-11.63
-16.22
-20.49
-24.5
-28.39
-32.35
-36.63
-41.42
-46.81
-52.54
-58
-62.14
-63.7
-61.55
-55.03
-44.23
-30.01
-13.71
3.14
19.22
33.54
45.41
54.37
60.07
62.35
61.33
57.5
51.67
44.85
37.98
31.78
26.59
22.44
19.17
16.55
14.37
12.47
10.69
8.85
6.75
4.13
0.8
-3.37
-8.29
-13.7
-19.24
-24.57
-29.49
-34.07
-38.61
-43.55
-49.33
-56.17
-63.86
-71.59
-78.08
-81.78
-81.26
-75.66
-64.92
-49.85
-31.85
-12.6
6.38
23.81
38.8
50.75
59.28
64.26
65.82
64.4
60.69
55.5
49.61
43.66
38.05
33.04
28.76
25.25
22.52
20.46
18.94
17.73
16.59
15.26
13.51
11.14
7.98
3.94
-0.89
-6.29
-11.88
-17.3
-22.33
-27
-31.59
-36.51
-42.2
-48.93
-56.7
-65.04
-73.1
-79.62
-83.19
-82.53
-76.81
-65.89
-50.44
-31.76
-11.56
8.41
26.67
42.19
54.42
63.24
68.81
71.45
71.55
69.56
65.92
61.18
55.88
50.5
45.46
41.02
37.32
34.38
32.1
30.33
28.82
27.32
25.57
23.39
20.67
17.37
13.51
9.09
4.15
-1.26
-7.02
-12.95
-18.84
-24.47
-29.71
-34.56
-39.18
-43.86
-48.95
-54.79
-61.52
-68.88
-76.07
-81.79
-84.45
-82.6
-75.4
-62.96
-46.31
-27.12
-7.27
11.64
28.47
42.54
53.54
61.27
65.72
67.03
65.57
61.95
56.91
51.21
45.49
40.25
35.77
32.14
29.3
27.07
25.24
23.63
22.14
20.71
19.25
17.6
15.52
12.8
9.28
4.99
0.13
-5.02
-10.16
-15.09
-19.73
-24.14
-28.45
-32.94
-37.89
-43.57
-49.96
-56.64
-62.66
-66.74
-67.49
-63.88
-55.54
-42.88
-26.97
-9.29
8.6
25.29
39.65
50.83
58.3
61.87
61.75
58.56
53.22
46.79
40.24
34.29
29.3
25.3
22.13
19.53
17.33
15.41
13.74
12.22
10.67
8.74
6.1
2.47
-2.17
-7.57
-13.31
-18.9
-24.02
-28.6
-32.84
-37.17
-42.12
-48.1
-55.19
-62.99
-70.49
-76.27
-78.73
-76.55
-69.12
-56.75
-40.58
-22.26
-3.55
14.03
29.46
42.12
51.72
58.15
61.42
61.66
59.2
54.61
48.71
42.37
36.38
31.27
27.16
23.89
21.16
18.73
16.48
14.47
12.75
11.27
9.78
7.92
5.33
1.83
-2.52
-7.47
-12.66
-17.79
-22.73
-27.53
-32.37
-37.48
-43.06
-49.28
-56.16
-63.46
-70.5
-76.09
-78.73
-76.98
-69.97
-57.8
-41.51
-22.81
-3.53
14.81
31.19
45.01
55.9
63.58
67.83
68.67
66.46
61.9
55.89
49.38
43.12
37.64
33.16
29.68
26.99
24.83
22.88
20.94
18.92
16.78
14.51
12.02
9.14
5.67
1.5
-3.36
-8.73
-14.32
-19.88
-25.22
-30.27
-35.08
-39.8
-44.65
-49.89
-55.73
-62.2
-68.99
-75.37
-80.15
-81.99
-79.71
-72.67
-61.04
-45.76
-28.3
-10.33
6.65
21.54
33.61
42.5
48.05
50.31
49.51
46.14
40.88
34.56
28.04
22.03
17.03
13.22
10.52
8.66
7.3
6.16
5.09
4.08
3.16
2.33
1.43
0.17
-1.79
-4.69
-8.57
-13.15
-18.02
-22.69
-26.85
-30.41
-33.52
-36.42
-39.4
-42.69
-46.45
-50.73
-55.36
-59.83
-63.19
-64.15
-61.42
-54.06
-41.89
-25.61
-6.68
13.12
32.09
48.97
62.98
73.78
81.29
85.59
86.92
85.72
82.66
78.58
74.27
70.36
67.16
64.67
62.75
61.15
59.69
58.17
56.43
54.24
51.36
47.58
42.81
37.1
30.69
23.96
17.28
10.93
5.03
-0.54
-6.06
-11.87
-18.28
-25.33
-32.68
-39.58
-44.91
-47.44
-46.12
-40.42
-30.53
-17.35
-2.25
13.23
27.72
40.18
49.94
56.61
60.04
60.28
57.6
52.57
46
38.81
31.86
25.73
20.7
16.77
13.75
11.47
9.73
8.41
7.33
6.26
4.87
2.84
-0.1
-4.05
-8.92
-14.43
-20.24
-26
-31.54
-36.86
-42.2
-47.94
-54.46
-62.02
-70.58
-79.63
-88.23
-95.01
-98.48
-97.36
-90.98
-79.53
-64.02
-46.03
-27.3
-9.35
6.73
20.29
31
38.76
43.57
45.59
45.18
42.85
39.23
34.92
30.45
26.18
22.34
19.04
16.29
14.07
12.3
10.94
9.92
9.13
8.36
7.33
5.72
3.26
-0.1
-4.23
-8.77
-13.32
-17.56
-21.37
-24.84
-28.2
-31.79
-35.92
-40.87
-46.73
-53.33
-60.13
-66.13
-70.03
-70.5
-66.53
-57.78
-44.76
-28.64
-11.03
6.45
22.43
35.92
46.35
53.48
57.33
58.21
56.59
53.12
48.54
43.57
38.78
34.56
31.11
28.45
26.51
25.18
24.31
23.75
23.28
22.62
21.52
19.76
17.28
14.16
10.62
6.86
2.99
-0.99
-5.27
-10.07
-15.64
-22.07
-29.24
-36.75
-43.86
-49.56
-52.72
-52.28
-47.61
-38.69
-26.24
-11.58
3.7
18.04
30.22
39.53
45.65
48.61
48.58
45.89
41.01
34.57
27.37
20.17
13.62
8.09
3.71
0.42
-1.87
-3.28
-3.95
-4.08
-4.02
-4.19
-4.99
-6.7
-9.35
-12.78
-16.63
-20.6
-24.52
-28.48
-32.77
-37.79
-43.74
-50.44
-57.18
-62.76
-65.74
-64.84
-59.27
-49.03
-34.87
-18.11
-0.34
16.9
32.32
44.93
54.17
59.82
62.04
61.32
58.35
53.94
48.81
43.53
38.51
33.98
30.06
26.84
24.32
22.5
21.31
20.59
20.14
19.64
18.74
17.12
14.57
11.07
6.8
2.11
-2.64
-7.16
-11.42
-15.67
-20.35
-25.92
-32.58
-40
-47.21
-52.75
-55.02
-52.74
-45.39
-33.38
-17.97
-0.95
15.84
30.82
42.95
51.68
56.89
58.74
57.53
53.73
47.92
40.81
33.2
25.82
19.23
13.73
9.32
5.82
3.02
0.71
-1.24
-2.97
-4.71
-6.71
-9.2
-12.31
-16.03
-20.18
-24.57
-29.09
-33.75
-38.67
-44.04
-49.95
-56.3
-62.63
-68.08
-71.47
-71.56
-67.35
-58.49
-45.4
-29.26
-11.72
5.51
20.96
33.63
42.95
48.65
50.75
49.44
45.22
38.87
31.42
23.95
17.36
12.18
8.51
6.1
4.55
3.42
2.38
1.12
-0.59
-2.94
-6.05
-9.9
-14.35
-19.2
-24.29
-29.59
-35.26
-41.55
-48.64
-56.38
-64.15
-70.77
-74.76
-74.67
-69.5
-59.06
-44.01
-25.77
-6.17
12.92
29.93
43.72
53.68
59.65
61.82
60.63
56.67
50.6
43.19
35.24
27.54
20.78
15.43
11.63
9.22
7.79
6.83
5.79
4.25
1.91
-1.35
-5.51
-10.38
-15.66
-21.03
-26.3
-31.52
-37.01
-43.22
-50.47
-58.62
-66.86
-73.78
-77.62
-76.79
-70.31
-58.12
-41.11
-20.85
0.73
21.77
40.7
56.39
68.15
75.7
79.12
78.82
75.49
70.04
63.41
56.44
49.71
43.56
38.05
33.17
28.94
25.42
22.65
20.57
18.91
17.18
14.82
11.38
6.69
0.91
-5.55
-12.14
-18.4
-24.13
-29.36
-34.41
-39.71
-45.7
-52.54
-59.97
-67.12
-72.64
-74.86
-72.32
-64.23
-50.74
-32.97
-12.73
7.94
27.23
43.87
57.09
66.59
72.32
74.41
73.16
69.03
62.68
54.88
46.49
38.25
30.74
24.25
18.88
14.56
11.09
8.28
5.92
3.87
2.04
0.36
-1.26
-2.97
-5
-7.59
-10.85
-14.72
-18.93
-23.12
-26.99
-30.44
-33.6
-36.74
-40.23
-44.41
-49.54
-55.71
-62.69
-69.76
-75.64
-78.62
-76.97
-69.5
-55.96
-37.27
-15.27
7.78
29.68
48.74
63.94
74.8
81.31
83.68
82.39
78.07
71.58
63.87
55.94
48.65
42.58
38.06
35.08
33.38
32.59
32.26
32
31.53
30.69
29.38
27.53
25.1
21.97
18.05
13.33
7.91
2.01
-4.09
-10.12
-15.92
-21.44
-26.75
-31.97
-37.24
-42.7
-48.55
-54.94
-61.84
-68.85
-74.99
-78.81
-78.65
-73.17
-61.86
-45.32
-25.09
-3.35
17.71
36.31
51.24
61.88
68.09
70.03
68.16
63.23
56.23
48.25
40.32
33.25
27.48
23.1
19.97
17.81
16.3
15.19
14.28
13.44
12.55
11.39
9.7
7.14
3.46
-1.34
-6.98
-12.93
-18.57
-23.52
-27.72
-31.54
-35.59
-40.44
-46.37
-53.16
-60.03
-65.73
-68.81
-67.93
-62.2
-51.49
-36.46
-18.44
0.82
19.58
36.27
49.7
59.06
63.94
64.37
60.85
54.29
45.92
37.04
28.75
21.76
16.28
12.17
9.13
6.85
5.18
4.01
3.25
2.63
1.75
0.14
-2.54
-6.4
-11.26
-16.69
-22.19
-27.37
-32.09
-36.47
-40.88
-45.81
-51.66
-58.53
-66.01
-73.06
-78.19
-79.76
-76.45
-67.64
-53.58
-35.38
-14.68
6.7
27.03
44.84
59.01
68.78
73.8
74.19
70.61
64.13
56.05
47.62
39.83
33.24
28.03
24.06
21.09
18.85
17.17
15.94
15.02
14.17
13.07
11.32
8.6
4.77
-0.09
-5.66
-11.51
-17.26
-22.67
-27.7
-32.51
-37.41
-42.82
-49.16
-56.62
-64.9
-73.07
-79.61
-82.7
-80.76
-72.89
-59.26
-40.98
-19.9
1.92
22.58
40.56
54.8
64.68
69.95
70.84
67.95
62.3
55.13
47.69
41.01
35.75
32.13
29.94
28.69
27.8
26.77
25.37
23.65
21.82
20.09
18.49
16.79
14.58
11.46
7.21
1.87
-4.2
-10.49
-16.48
-21.77
-26.3
-30.28
-34.23
-38.8
-44.48
-51.38
-59.02
-66.34
-71.86
-73.99
-71.45
-63.58
-50.53
-33.29
-13.49
6.98
26.24
42.81
55.65
64.26
68.54
68.79
65.62
59.89
52.67
45.06
38.01
32.23
27.99
25.28
23.78
23.09
22.8
22.61
22.32
21.78
20.94
19.67
17.85
15.3
11.87
7.48
2.21
-3.7
-9.86
-15.83
-21.26
-26.04
-30.28
-34.34
-38.71
-43.82
-49.91
-56.82
-63.95
-70.22
-74.23
-74.52
-69.96
-60.08
-45.33
-27.06
-7.2
12.14
29.15
42.6
51.89
56.91
57.92
55.46
50.26
43.28
35.59
28.2
21.88
17.03
13.7
11.69
10.73
10.55
10.87
11.36
11.66
11.35
10.12
7.82
4.5
0.4
-4.15
-8.8
-13.3
-17.55
-21.65
-25.91
-30.72
-36.41
-42.99
-49.97
-56.26
-60.4
-60.89
-56.67
-47.44
-33.79
-17.05
1.03
18.62
34.15
46.42
54.66
58.58
58.39
54.73
48.6
41.15
33.42
26.14
19.73
14.32
9.94
6.56
4.17
2.72
2.01
1.74
1.42
0.56
-1.28
-4.31
-8.5
-13.58
-19.1
-24.62
-29.85
-34.74
-39.51
-44.58
-50.37
-57.11
-64.54
-71.83
-77.59
-80.16
-78.08
-70.58
-57.79
-40.85
-21.49
-1.64
17.04
33.31
46.36
55.72
61.14
62.65
60.62
55.8
49.32
42.4
36.13
31.19
27.76
25.59
24.19
23.07
21.99
20.91
19.94
19.13
18.31
17.05
14.83
11.27
6.29
0.24
-6.27
-12.61
-18.36
-23.45
-28.14
-32.91
-38.26
-44.59
-52.03
-60.33
-68.73
-75.97
-80.49
-80.74
-75.66
-64.95
-49.26
-29.98
-8.99
11.78
30.67
46.49
58.53
66.57
70.69
71.23
68.69
63.77
57.32
50.29
43.61
37.99
33.83
31.11
29.52
28.58
27.79
26.83
25.5
23.79
21.7
19.23
16.29
12.74
8.46
3.47
-2.03
-7.67
-13.09
-18.11
-22.73
-27.19
-31.78
-36.77
-42.34
-48.54
-55.31
-62.33
-68.93
-74
-76.15
-74.05
-66.86
-54.58
-38.16
-19.24
0.3
18.75
34.85
47.82
57.3
63.19
65.59
64.86
61.6
56.65
50.95
45.4
40.66
37.08
34.71
33.39
32.82
32.69
32.68
32.51
31.91
30.71
28.81
26.25
23.1
19.5
15.55
11.3
6.74
1.91
-3.16
-8.34
-13.47
-18.44
-23.19
-27.73
-32.13
-36.56
-41.22
-46.33
-52.08
-58.33
-64.53
-69.61
-72.16
-70.78
-64.6
-53.58
-38.61
-21.27
-3.33
13.61
28.4
40.33
49.01
54.27
56.12
54.82
50.98
45.51
39.51
33.99
29.67
26.8
25.2
24.46
24.07
23.69
23.15
22.49
21.8
21.09
20.2
18.89
16.85
13.97
10.38
6.44
2.61
-0.77
-3.63
-6.16
-8.71
-11.64
-15.15
-19.34
-24.21
-29.68
-35.55
-41.3
-46.13
-48.91
-48.55
-44.27
-35.93
-24.14
-10.08
4.74
18.84
30.99
40.37
46.53
49.31
48.75
45.14
39.02
31.23
22.9
15.21
9.14
5.2
3.28
2.79
2.9
2.87
2.31
1.17
-0.39
-2.23
-4.4
-7.1
-10.59
-14.99
-20.25
-26.1
-32.14
-37.97
-43.27
-47.82
-51.6
-54.74
-57.51
-60.26
-63.28
-66.72
-70.43
-73.92
-76.32
-76.51
-73.38
-66.13
-54.56
-39.24
-21.44
-2.83
14.97
30.71
43.66
53.53
60.27
63.92
64.61
62.59
58.38
52.79
46.77
41.23
36.84
33.86
32.21
31.56
31.46
31.52
31.45
31.05
30.18
28.76
26.69
23.87
20.24
15.82
10.69
4.99
-1.07
-7.24
-13.29
-19.02
-24.32
-29.16
-33.63
-37.93
-42.25
-46.81
-51.67
-56.69
-61.44
-65.16
-66.85
-65.44
-60.12
-50.61
-37.32
-21.39
-4.4
12.02
26.47
38.09
46.56
52.04
54.91
55.63
54.62
52.24
48.9
45.02
41.12
37.64
34.89
32.9
31.49
30.38
29.29
28.05
26.65
25.11
23.44
21.52
19.15
16.16
12.44
8.07
3.25
-1.72
-6.54
-10.95
-14.85
-18.25
-21.29
-24.23
-27.4
-31.14
-35.73
-41.24
-47.32
-53.22
-57.77
-59.67
-57.78
-51.53
-41.05
-27.23
-11.44
4.77
19.99
33.14
43.51
50.7
54.58
55.23
53.04
48.67
43.04
37.12
31.75
27.43
24.29
22.12
20.58
19.36
18.29
17.34
16.48
15.64
14.62
13.11
10.81
7.54
3.29
-1.71
-7.12
-12.52
-17.6
-22.19
-26.35
-30.3
-34.42
-39.08
-44.54
-50.72
-57.11
-62.74
-66.33
-66.61
-62.68
-54.3
-42.01
-26.97
-10.63
5.51
20.21
32.53
41.85
47.79
50.21
49.31
45.62
39.99
33.51
27.21
21.91
18.01
15.56
14.26
13.68
13.42
13.17
12.81
12.31
11.65
10.76
9.45
7.49
4.63
0.72
-4.17
-9.77
-15.65
-21.38
-26.69
-31.59
-36.36
-41.45
-47.32
-54.25
-62.12
-70.33
-77.77
-82.96
-84.4
-80.97
-72.28
-58.78
-41.76
-22.91
-3.91
13.87
29.48
42.39
52.23
58.8
62.03
62.13
59.61
55.23
49.87
44.33
39.29
35.14
32.09
30.14
29.14
28.76
28.58
28.15
27.14
25.4
22.97
20
16.63
12.92
8.89
4.56
-0.05
-4.83
-9.64
-14.34
-18.81
-23.05
-27.17
-31.37
-35.92
-41.08
-46.96
-53.37
-59.68
-64.86
-67.62
-66.72
-61.35
-51.32
-37.28
-20.48
-2.53
14.95
30.63
43.56
53.22
59.4
62.17
61.84
58.95
54.24
48.54
42.64
37.16
32.48
28.75
25.95
23.99
22.7
21.93
21.49
21.17
20.71
19.9
18.57
16.6
13.95
10.64
6.72
2.27
-2.62
-7.78
-13.07
-18.31
-23.37
-28.17
-32.68
-36.94
-41.03
-45.12
-49.46
-54.34
-59.85
-65.75
-71.25
-75.11
-75.85
-72.24
-63.73
-50.62
-34.09
-15.79
2.54
19.44
33.88
45.21
53.08
57.38
58.21
55.95
51.31
45.19
38.57
32.33
27.09
23.14
20.47
18.85
17.96
17.49
17.22
16.99
16.72
16.27
15.42
13.91
11.48
8.02
3.66
-1.27
-6.37
-11.3
-15.9
-20.23
-24.5
-29.03
-34.1
-39.89
-46.34
-52.98
-58.88
-62.78
-63.34
-59.51
-50.95
-38.13
-22.27
-5.05
11.85
26.97
39.27
48.12
53.24
54.66
52.74
48.14
41.77
34.65
27.77
21.83
17.19
13.87
11.65
10.25
9.4
8.88
8.47
7.88
6.76
4.79
1.76
-2.29
-7.11
-12.32
-17.56
-22.61
-27.54
-32.59
-38.16
-44.58
-51.97
-60.07
-68.1
-74.82
-78.71
-78.31
-72.69
-61.69
-46.12
-27.48
-7.65
11.55
28.64
42.61
52.87
59.19
61.64
60.63
56.84
51.23
44.83
38.55
32.99
28.44
24.89
22.14
19.98
18.24
16.83
15.67
14.68
13.64
12.26
10.16
7.01
2.62
-2.92
-9.27
-15.92
-22.32
-28.16
-33.48
-38.64
-44.22
-50.72
-58.36
-66.84
-75.28
-82.31
-86.33
-85.95
-80.27
-69.19
-53.46
-34.47
-13.95
6.38
25.08
41.08
53.65
62.42
67.28
68.44
66.42
62.02
56.18
49.85
43.84
38.66
34.54
31.42
29.11
27.34
25.92
24.73
23.7
22.75
21.7
20.3
18.21
15.15
11.07
6.07
0.46
-5.41
-11.24
-16.88
-22.34
-27.79
-33.5
-39.78
-46.88
-54.83
-63.2
-71.03
-76.91
-79.19
-76.52
-68.24
-54.59
-36.69
-16.21
4.95
25.08
42.81
57.18
67.6
73.85
76.03
74.58
70.21
63.88
56.61
49.38
42.92
37.69
33.74
30.88
28.77
27.09
25.64
24.37
23.27
22.19
20.85
18.82
15.67
11.2
5.54
-0.86
-7.4
-13.56
-19.08
-24.01
-28.64
-33.36
-38.52
-44.39
-51.05
-58.39
-65.96
-72.87
-77.81
-79.24
-75.83
-66.84
-52.5
-34.01
-13.3
7.51
26.51
42.38
54.41
62.36
66.35
66.74
64.08
59.12
52.77
45.98
39.52
33.88
29.23
25.5
22.54
20.26
18.66
17.75
17.37
17.15
16.54
15.01
12.26
8.36
3.71
-1.18
-5.91
-10.38
-14.74
-19.34
-24.52
-30.5
-37.33
-44.79
-52.36
-59.14
-63.93
-65.39
-62.4
-54.4
-41.69
-25.36
-7.06
11.36
28.24
42.32
52.74
59.11
61.38
59.9
55.38
48.83
41.4
34.12
27.76
22.66
18.83
16.05
14.03
12.5
11.26
10.13
8.92
7.38
5.25
2.26
-1.71
-6.59
-12.08
-17.76
-23.28
-28.49
-33.5
-38.7
-44.54
-51.3
-58.94
-66.92
-74.2
-79.38
-80.97
-77.77
-69.18
-55.53
-37.98
-18.3
1.59
20.04
35.93
48.59
57.7
63.12
64.82
63.03
58.36
51.86
44.77
38.27
33.1
29.44
27.02
25.34
23.96
22.62
21.26
19.86
18.35
16.54
14.18
11.02
6.92
1.87
-3.95
-10.22
-16.59
-22.77
-28.67
-34.42
-40.35
-46.85
-54.17
-62.28
-70.74
-78.62
-84.65
-87.37
-85.53
-78.43
-66.23
-50
-31.5
-12.7
4.61
19.22
30.47
38.18
42.37
43.22
41.03
36.33
29.93
22.89
16.34
11.22
8.16
7.37
8.67
11.67
15.85
20.73
25.9
30.98
35.65
39.49
42.11
43.12
42.29
39.59
35.22
29.58
23.15
16.38
9.57
2.86
-3.78
-10.48
-17.42
-24.75
-32.52
-40.61
-48.53
-55.46
-60.23
-61.58
-58.45
-50.37
-37.7
-21.57
-3.64
14.31
30.74
44.56
55.14
62.2
65.69
65.81
63
58
51.75
45.29
39.43
34.66
31.09
28.52
26.64
25.17
23.94
22.83
21.75
20.55
19.03
17
14.31
10.91
6.85
2.24
-2.76
-8.02
-13.35
-18.62
-23.71
-28.62
-33.47
-38.49
-43.91
-49.84
-56.01
-61.84
-66.37
-68.49
-67.12
-61.56
-51.65
-37.89
-21.4
-3.66
13.71
29.27
41.91
50.96
56.14
57.53
55.55
50.89
44.53
37.55
31.01
25.65
21.83
19.44
18.08
17.26
16.56
15.71
14.58
13.06
11.02
8.33
4.88
0.71
-4.01
-9.02
-14.07
-18.96
-23.64
-28.22
-32.88
-37.88
-43.45
-49.71
-56.56
-63.59
-70.04
-74.8
-76.63
-74.48
-67.73
-56.4
-41.24
-23.49
-4.75
13.39
29.52
42.6
51.98
57.49
59.27
57.83
53.92
48.38
42.09
35.87
30.4
26.12
23.25
21.68
21.05
20.82
20.47
19.58
18.04
15.89
13.31
10.39
7.11
3.42
-0.67
-4.86
-8.58
-11.2
-12.33
-12.04
-10.96
-10.06
-10.34
-12.51
-16.9
-23.5
-32.06
-42.09
-52.76
-62.82
-70.65
-74.58
-73.36
-66.54
-54.63
-38.93
-21.12
-2.86
14.53
30.03
42.95
52.75
59.12
61.96
61.54
58.45
53.48
47.51
41.27
35.25
29.68
24.6
19.99
15.87
12.26
9.2
6.66
4.49
2.51
0.54
-1.55
-3.77
-6.1
-8.46
-10.87
-13.4
-16.2
-19.44
-23.25
-27.64
-32.52
-37.78
-43.34
-49.21
-55.42
-61.89
-68.25
-73.73
-77.3
-77.88
-74.66
-67.4
-56.44
-42.59
-26.97
-10.72
5.11
19.61
31.96
41.52
47.76
50.46
49.78
46.27
40.87
34.68
28.72
23.74
20.1
17.8
16.56
16.05
15.99
16.15
16.41
16.54
16.25
15.16
12.91
9.36
4.7
-0.61
-5.91
-10.62
-14.48
-17.57
-20.31
-23.21
-26.66
-30.8
-35.48
-40.22
-44.32
-46.85
-46.79
-43.18
-35.34
-23.19
-7.34
10.91
29.88
47.8
63.15
74.89
82.45
85.74
85.01
80.81
73.93
65.34
56.1
47.12
39.09
32.3
26.69
21.96
17.74
13.66
9.43
4.85
-0.19
-5.73
-11.68
-17.8
-23.8
-29.34
-34.2
-38.32
-41.85
-45.17
-48.75
-53.06
-58.33
-64.38
-70.4
-75.02
-76.58
-73.63
-65.39
-52.08
-34.91
-15.68
3.7
21.7
37.36
50.22
60.13
67.07
71.16
72.64
71.97
69.7
66.37
62.25
57.43
51.83
45.47
38.53
31.39
24.43
17.89
11.77
5.88
0.06
-5.74
-11.35
-16.55
-21.19
-25.36
-29.39
-33.8
-39.13
-45.7
-53.5
-61.98
-70.08
-76.41
-79.46
-78.06
-71.61
-60.31
-45.16
-27.69
-9.66
7.28
21.86
33.29
41.27
45.89
47.43
46.35
43.16
38.5
33.05
27.56
22.63
18.61
15.49
12.95
10.56
7.91
4.79
1.18
-2.82
-7.05
-11.38
-15.72
-20.07
-24.48
-29.13
-34.28
-40.25
-47.2
-55.02
-63.12
-70.42
-75.48
-76.77
-73.1
-63.92
-49.6
-31.31
-10.84
9.89
29.2
45.89
59.3
69.21
75.63
78.69
78.6
75.72
70.63
64.09
56.99
50.13
44.07
39.01
34.85
31.26
27.86
24.35
20.57
16.53
12.34
8.11
3.93
-0.18
-4.29
-8.59
-13.39
-19.1
-26.14
-34.76
-44.8
-55.47
-65.32
-72.46
-74.94
-71.42
-61.52
-46.05
-26.78
-5.93
14.39
32.61
47.81
59.59
67.83
72.54
73.84
72.09
67.99
62.5
56.67
51.32
46.86
43.27
40.19
37.24
34.19
31.1
28.26
25.93
24.21
22.89
21.49
19.44
16.24
11.72
6.03
-0.42
-7.08
-13.5
-19.45
-24.95
-30.34
-36.06
-42.56
-50.12
-58.58
-67.25
-74.92
-79.99
-80.84
-76.26
-65.84
-50.13
-30.61
-9.29
11.74
30.74
46.55
58.57
66.63
70.8
71.3
68.5
63.01
55.69
47.59
39.66
32.57
26.58
21.59
17.37
13.74
10.77
8.61
7.39
6.93
6.73
6.08
4.34
1.2
-3.2
-8.35
-13.63
-18.61
-23.22
-27.74
-32.66
-38.43
-45.33
-53.27
-61.79
-70
-76.7
-80.47
-79.98
-74.37
-63.49
-48.07
-29.55
-9.72
9.67
27.29
42.26
54.07
62.4
67.05
67.99
65.49
60.19
53.05
45.19
37.57
30.86
25.31
20.84
17.22
14.2
11.64
9.53
7.85
6.57
5.45
4.12
2.12
-0.93
-5.17
-10.46
-16.39
-22.44
-28.22
-33.57
-38.6
-43.66
-49.18
-55.55
-62.99
-71.45
-80.4
-88.84
-95.29
-98.04
-95.58
-87.09
-72.69
-53.49
-31.32
-8.23
13.91
33.72
50.36
63.41
72.74
78.42
80.7
80.02
77.03
72.48
67.07
61.4
55.85
50.65
45.97
41.95
38.73
36.37
34.78
33.62
32.44
30.77
28.31
25.01
21.05
16.69
12.17
7.52
2.65
-2.59
-8.31
-14.43
-20.71
-26.84
-32.58
-37.92
-43.05
-48.39
-54.4
-61.39
-69.29
-77.55
-85.07
-90.37
-91.96
-88.63
-79.82
-65.8
-47.63
-26.9
-5.42
15.14
33.57
49.1
61.39
70.4
76.18
78.82
78.54
75.72
70.98
65.09
58.85
52.9
47.67
43.35
39.96
37.51
35.96
35.21
35.06
35.15
35.09
34.46
33.04
30.76
27.75
24.21
20.39
16.39
12.22
7.75
2.87
-2.42
-7.91
-13.25
-18.08
-22.2
-25.67
-28.85
-32.18
-36.05
-40.56
-45.54
-50.58
-55.3
-59.46
-63.13
-66.65
-70.57
-75.43
-81.51
-88.61
-95.87
-101.82
-104.66
-102.73
-94.99
-81.3
-62.54
-40.37
-16.82
6.13
26.88
44.36
57.98
67.55
73.16
75.15
74.02
70.49
65.39
59.54
53.67
48.28
43.65
39.91
37.06
35.04
33.77
33.04
32.57
32
30.94
29.14
26.5
23.12
19.16
14.85
10.28
5.45
0.29
-5.26
-11.13
-17.12
-22.95
-28.41
-33.43
-38.16
-42.91
-48.08
-53.96
-60.67
-67.97
-75.21
-81.28
-84.82
-84.44
-79.16
-68.72
-53.7
-35.41
-15.56
4.13
22.25
37.83
50.32
59.48
65.28
67.84
67.45
64.6
59.95
54.22
48.16
42.32
37.11
32.72
29.21
26.56
24.72
23.62
23.1
22.85
22.42
21.31
19.11
15.72
11.36
6.48
1.58
-3.08
-7.57
-12.22
-17.43
-23.35
-29.82
-36.38
-42.51
-47.89
-52.51
-56.63
-60.73
-65.32
-70.81
-77.32
-84.55
-91.6
-97.01
-99.05
-96.12
-87.31
-72.69
-53.41
-31.3
-8.42
13.42
32.9
49.22
61.97
71
76.35
78.31
77.38
74.27
69.76
64.55
59.15
53.93
49.13
44.95
41.55
39.01
37.28
36.17
35.35
34.53
33.48
32.03
30.06
27.44
24.03
19.77
14.79
9.36
3.9
-1.26
-5.99
-10.43
-14.93
-19.85
-25.38
-31.4
-37.57
-43.44
-48.69
-53.27
-57.38
-61.44
-65.87
-71.01
-76.97
-83.61
-90.44
-96.65
-101.08
-102.4
-99.32
-90.99
-77.25
-58.8
-37.05
-13.81
9.09
30.1
48.12
62.47
72.87
79.29
81.98
81.43
78.35
73.61
68.04
62.38
57.14
52.6
48.84
45.82
43.43
41.54
39.96
38.51
36.94
34.98
32.4
29.04
24.93
20.21
15.15
9.95
4.73
-0.59
-6.16
-12.05
-18.19
-24.34
-30.2
-35.55
-40.35
-44.77
-49.19
-54.05
-59.66
-66.05
-72.78
-78.88
-82.99
-83.71
-79.86
-70.96
-57.26
-39.77
-19.99
0.4
19.8
36.85
50.56
60.28
65.76
67.11
64.82
59.72
52.86
45.31
37.98
31.43
25.87
21.24
17.42
14.37
12.17
10.87
10.36
10.24
9.88
8.59
5.93
1.8
-3.5
-9.4
-15.31
-20.8
-25.71
-30.15
-34.48
-39.11
-44.49
-50.83
-58.01
-65.39
-71.83
-75.82
-75.85
-70.79
-60.23
-44.72
-25.57
-4.63
16.16
35.11
50.93
62.8
70.33
73.55
72.8
68.77
62.4
54.72
46.75
39.27
32.75
27.35
23.06
19.7
17.08
14.95
13.01
10.91
8.28
4.83
0.42
-4.84
-10.71
-16.85
-23
-29.1
-35.31
-41.94
-49.39
-57.94
-67.57
-77.78
-87.51
-95.16
-98.88
-97.03
-88.66
-73.88
-53.96
-30.94
-7.14
15.43
35.48
52.4
66
76.21
82.89
85.91
85.43
82.02
76.78
70.95
65.58
61.15
57.53
54.22
50.7
46.73
42.5
38.39
34.68
31.39
28.21
24.63
20.19
14.7
8.29
1.32
-5.75
-12.52
-18.8
-24.61
-30.22
-36.05
-42.56
-50.22
-59.23
-69.37
-79.86
-89.26
-95.74
-97.38
-92.7
-81.1
-63.08
-40.16
-14.5
11.57
36.17
58.06
76.78
92.33
104.97
114.84
121.9
125.98
126.99
125.1
120.84
114.96
108.29
101.55
95.17
89.29
83.76
78.24
72.21
65.1
56.47
46.16
34.4
21.78
9.13
-2.84
-13.69
-23.44
-32.41
-41.04
-49.7
-58.5
-67.29
-75.78
-83.64
-90.66
-96.72
-101.82
-105.99
-109.33
-112.01
-114.35
-116.71
-119.31
-121.89
-123.44
-122.21
-116.08
-103.18
-82.67
-55.27
-23.32
9.63
39.76
63.89
80.27
88.79
90.77
88.28
83.41
77.72
72.05
66.64
61.48
56.57
52.06
48.16
44.99
42.51
40.56
38.93
37.49
36.18
34.98
33.78
32.34
30.37
27.61
24.04
19.91
15.73
12.04
9.21
7.25
5.85
4.48
2.64
0.08
-3.28
-7.34
-12.01
-17.22
-22.95
-29.04
-35.25
-41.34
-47.16
-52.81
-58.56
-64.7
-71.39
-78.55
-85.97
-93.4
-100.66
-107.52
-113.55
-118
-119.85
-118.02
-111.76
-100.81
-85.6
-67.03
-46.29
-24.68
-3.44
16.27
33.44
47.27
57.28
63.41
66.07
66.01
64.14
61.37
58.43
55.79
53.72
52.3
51.58
51.53
52.01
52.74
53.33
53.28
52.2
49.88
46.4
42.03
37.12
31.98
26.79
21.58
16.31
10.92
5.37
-0.3
-6
-11.62
-16.99
-21.98
-26.55
-30.78
-34.87
-39.09
-43.66
-48.61
-53.68
-58.26
-61.44
-62.13
-59.37
-52.55
-41.63
-27.25
-10.62
6.78
23.46
38.21
50.23
59.08
64.65
67.03
66.51
63.63
59.11
53.83
48.62
44.12
40.6
37.99
36.04
34.5
33.24
32.29
31.71
31.42
31.14
30.48
28.99
26.41
22.75
18.28
13.45
8.69
4.27
0.17
-3.86
-8.14
-12.95
-18.32
-24.04
-29.78
-35.18
-40.06
-44.42
-48.48
-52.61
-57.2
-62.55
-68.62
-74.92
-80.47
-83.93
-83.92
-79.48
-70.31
-56.9
-40.32
-22.01
-3.38
14.34
30.23
43.67
54.37
62.23
67.33
69.8
69.91
68.03
64.65
60.41
55.96
51.83
48.33
45.56
43.42
41.76
40.48
39.45
38.55
37.54
36.16
34.14
31.34
27.8
23.73
19.42
15.13
11.01
7.02
3.04
-1.11
-5.55
-10.27
-15.17
-20.06
-24.73
-28.98
-32.72
-35.96
-38.87
-41.74
-44.95
-48.86
-53.68
-59.33
-65.35
-70.85
-74.63
-75.4
-72.12
-64.33
-52.33
-37.07
-19.92
-2.34
14.46
29.62
42.64
53.17
61.03
66.11
68.43
68.25
66.03
62.44
58.17
53.83
49.88
46.55
43.94
42.01
40.66
39.77
39.17
38.67
38.04
37.04
35.48
33.19
30.17
26.47
22.29
17.81
13.2
8.52
3.77
-1.13
-6.26
-11.63
-17.13
-22.61
-27.85
-32.69
-37.02
-40.84
-44.28
-47.57
-51.02
-54.94
-59.59
-64.99
-70.84
-76.41
-80.62
-82.23
-80.17
-73.89
-63.56
-49.97
-34.38
-18.11
-2.37
11.86
23.88
33.18
39.45
42.68
43.14
41.38
38.14
34.16
30.06
26.28
23.08
20.58
18.8
17.7
17.17
17.03
16.98
16.68
15.78
14.06
11.42
8.03
4.16
0.13
-3.81
-7.61
-11.36
-15.22
-19.33
-23.67
-28.09
-32.37
-36.37
-40.09
-43.7
-47.51
-51.86
-56.97
-62.82
-69.05
-74.91
-79.37
-81.23
-79.45
-73.41
-63.08
-49.1
-32.59
-14.96
2.45
18.58
32.68
44.28
53.15
59.17
62.36
62.94
61.33
58.15
54.1
49.84
45.86
42.39
39.52
37.21
35.38
33.99
33.05
32.45
32.04
31.51
30.52
28.75
26.03
22.45
18.24
13.79
9.39
5.2
1.17
-2.89
-7.18
-11.8
-16.66
-21.58
-26.33
-30.74
-34.8
-38.57
-42.22
-45.94
-50
-54.66
-60.08
-66.16
-72.27
-77.34
-79.89
-78.55
-72.45
-61.57
-46.71
-29.31
-10.97
6.83
23
36.85
48
56.28
61.72
64.5
64.99
63.71
61.25
58.17
54.93
51.84
49.09
46.77
44.89
43.41
42.28
41.46
40.87
40.42
39.92
39.11
37.75
35.61
32.68
29.06
25.02
20.83
16.7
12.7
8.81
4.93
0.91
-3.38
-8.03
-13.03
-18.28
-23.55
-28.57
-33.16
-37.32
-41.29
-45.46
-50.33
-56.2
-63.07
-70.49
-77.54
-82.99
-85.51
-83.99
-77.84
-67.16
-52.7
-35.75
-17.82
-0.32
15.6
29.14
39.82
47.42
51.87
53.34
52.2
49.03
44.55
39.5
34.52
30.02
26.27
23.39
21.4
20.24
19.79
19.79
19.95
19.94
19.49
18.43
16.69
14.29
11.33
7.91
4.13
0.01
-4.44
-9.24
-14.35
-19.66
-24.94
-29.98
-34.62
-38.85
-42.87
-47.02
-51.67
-57.03
-62.91
-68.67
-73.21
-75.22
-73.51
-67.41
-56.94
-42.86
-26.42
-9.11
7.67
22.72
35.19
44.5
50.37
52.81
52.12
48.85
43.79
37.8
31.7
26.13
21.54
18.15
15.98
14.86
14.54
14.62
14.69
14.37
13.39
11.67
9.29
6.42
3.25
-0.13
-3.73
-7.61
-11.86
-16.49
-21.4
-26.46
-31.47
-36.29
-40.9
-45.4
-50.06
-55.22
-61.15
-67.89
-75.06
-81.8
-86.83
-88.7
-86.15
-78.43
-65.6
-48.5
-28.65
-7.83
12.25
30.24
45.29
57.02
65.39
70.57
72.84
72.59
70.28
66.46
61.68
56.49
51.38
46.72
42.84
39.9
37.93
36.79
36.16
35.67
34.93
33.61
31.56
28.72
25.17
21.04
16.48
11.61
6.51
1.25
-4.16
-9.7
-15.34
-21
-26.58
-32.01
-37.21
-42.29
-47.5
-53.19
-59.67
-66.89
-74.26
-80.49
-83.91
-82.91
-76.45
-64.5
-48.03
-28.72
-8.46
11.1
28.81
44
56.33
65.6
71.74
74.78
75.03
73
69.43
65.08
60.59
56.38
52.63
49.37
46.54
44.09
42.01
40.35
39.11
38.22
37.43
36.42
34.79
32.27
28.81
24.63
20.08
15.52
11.15
6.95
2.71
-1.82
-6.78
-12.19
-17.84
-23.45
-28.7
-33.39
-37.52
-41.3
-45.14
-49.56
-54.92
-61.28
-68.18
-74.54
-78.87
-79.56
-75.34
-65.69
-51.03
-32.64
-12.36
7.9
26.5
42.38
55.01
64.27
70.3
73.32
73.64
71.63
67.76
62.59
56.64
50.4
44.23
38.41
33.18
28.78
25.42
23.2
21.98
21.4
20.91
20.01
18.31
15.64
11.99
7.45
2.1
-3.92
-10.44
-17.26
-24.12
-30.86
-37.44
-43.98
-50.65
-57.65
-65.07
-72.8
-80.48
-87.42
-92.58
-94.73
-92.65
-85.53
-73.27
-56.58
-36.87
-15.92
4.53
23.1
38.83
51.15
59.77
64.59
65.74
63.7
59.25
53.41
47.15
41.29
36.27
32.24
29.21
27.12
25.93
25.55
25.7
25.92
25.63
24.33
21.78
18.09
13.64
8.89
4.15
-0.52
-5.27
-10.33
-15.82
-21.69
-27.68
-33.48
-38.86
-43.79
-48.4
-53.01
-58
-63.7
-70.26
-77.45
-84.58
-90.42
-93.43
-92.12
-85.53
-73.5
-56.8
-36.94
-15.78
4.88
23.62
39.5
52.05
61.16
66.98
69.82
70.08
68.29
64.98
60.74
56.08
51.42
47.03
43.07
39.64
36.86
34.86
33.7
33.21
32.98
32.36
30.77
27.88
23.8
19
14.14
9.7
5.84
2.3
-1.38
-5.62
-10.59
-16.15
-21.87
-27.29
-32.06
-36.11
-39.64
-43.04
-46.75
-51.11
-56.27
-62.05
-67.89
-72.83
-75.6
-74.82
-69.38
-58.78
-43.46
-24.79
-4.71
14.71
31.86
45.88
56.63
64.44
69.71
72.69
73.49
72.19
69.06
64.64
59.6
54.61
50.14
46.35
43.25
40.76
38.82
37.41
36.45
35.74
34.91
33.52
31.22
27.86
23.59
18.79
13.89
9.2
4.76
0.37
-4.29
-9.42
-14.97
-20.65
-26.05
-30.86
-35
-38.65
-42.16
-45.95
-50.33
-55.42
-61.06
-66.7
-71.39
-73.93
-73.07
-67.94
-58.32
-44.78
-28.54
-11.18
5.8
21.19
34.2
44.35
51.37
55.13
55.71
53.49
49.14
43.54
37.66
32.28
27.86
24.55
22.23
20.68
19.68
19.03
18.6
18.22
17.72
16.9
15.57
13.58
10.86
7.4
3.28
-1.33
-6.23
-11.17
-15.94
-20.45
-24.72
-28.94
-33.39
-38.33
-43.93
-50.11
-56.46
-62.25
-66.45
-67.99
-65.95
-59.84
-49.78
-36.46
-21.02
-4.79
10.93
25.05
36.7
45.31
50.57
52.45
51.27
47.63
42.38
36.42
30.59
25.53
21.54
18.67
16.73
15.45
14.54
13.81
13.07
12.19
10.94
9.08
6.38
2.69
-1.9
-7.16
-12.66
-17.99
-22.91
-27.45
-31.9
-36.77
-42.57
-49.64
-57.89
-66.68
-74.83
-80.77
-82.95
-80.22
-72.23
-59.5
-43.29
-25.24
-6.97
10.2
25.42
38.26
48.47
55.95
60.6
62.45
61.68
58.78
54.4
49.32
44.22
39.54
35.5
32.07
29.16
26.67
24.56
22.8
21.29
19.89
18.31
16.28
13.52
9.86
5.3
-0.04
-5.9
-11.98
-17.99
-23.77
-29.32
-34.79
-40.45
-46.63
-53.55
-61.28
-69.51
-77.48
-83.98
-87.56
-86.87
-81.11
-70.24
-55.11
-37.12
-17.91
1.07
18.72
34.35
47.57
58.13
65.9
70.82
73.02
72.76
70.52
66.87
62.42
57.73
53.19
49.05
45.4
42.23
39.53
37.26
35.36
33.69
31.98
29.91
27.17
23.58
19.19
14.24
9.04
3.87
-1.21
-6.28
-11.55
-17.2
-23.24
-29.53
-35.77
-41.68
-47.04
-51.78
-56.04
-60.03
-64.14
-68.74
-74.1
-80.19
-86.48
-91.88
-94.89
-94.03
-88.19
-77.11
-61.44
-42.56
-22.18
-1.92
17
33.79
48
59.38
67.77
73.12
75.55
75.41
73.27
69.77
65.54
61.09
56.81
52.98
49.73
47.14
45.21
43.86
42.92
42.2
41.44
40.4
38.83
36.59
33.62
29.96
25.73
21.05
16.08
10.94
5.78
0.7
-4.18
-8.84
-13.31
-17.69
-22.1
-26.59
-31.13
-35.61
-39.87
-43.79
-47.34
-50.63
-53.89
-57.48
-61.76
-66.97
-73.03
-79.36
-84.81
-87.82
-86.84
-80.75
-69.3
-53.22
-34.05
-13.71
6.04
23.88
39.04
51.2
60.24
66.11
68.86
68.68
66.01
61.54
56.12
50.57
45.54
41.38
38.19
35.87
34.26
33.17
32.49
32.06
31.64
30.92
29.53
27.2
23.89
19.81
15.41
11.14
7.28
3.8
0.42
-3.22
-7.39
-12.12
-17.2
-22.26
-26.98
-31.12
-34.7
-37.9
-41.05
-44.5
-48.58
-53.41
-58.79
-64.1
-68.34
-70.25
-68.65
-62.74
-52.41
-38.27
-21.54
-3.8
13.42
28.86
41.67
51.4
57.89
61.19
61.48
59.12
54.64
48.8
42.46
36.54
31.72
28.36
26.36
25.33
24.73
24.13
23.34
22.33
21.13
19.66
17.66
14.91
11.33
7.15
2.81
-1.26
-4.87
-8.21
-11.73
-15.88
-20.88
-26.56
-32.43
-37.92
-42.64
-46.52
-49.83
-53.06
-56.76
-61.38
-67.1
-73.69
-80.37
-85.89
-88.73
-87.48
-81.25
-69.99
-54.5
-36.25
-16.92
1.96
19.23
34.22
46.55
56.06
62.67
66.41
67.49
66.31
63.47
59.63
55.45
51.41
47.8
44.7
42.05
39.77
37.79
36.08
34.6
33.19
31.62
29.62
26.96
23.58
19.56
15.11
10.52
5.98
1.58
-2.74
-7.13
-11.74
-16.63
-21.71
-26.79
-31.59
-35.96
-39.89
-43.56
-47.34
-51.61
-56.68
-62.56
-68.82
-74.56
-78.48
-79.21
-75.65
-67.32
-54.54
-38.38
-20.33
-1.99
15.31
30.59
43.28
53.1
59.93
63.79
64.83
63.43
60.15
55.68
50.7
45.77
41.24
37.25
33.84
30.99
28.74
27.1
26
25.23
24.47
23.34
21.52
18.87
15.44
11.46
7.25
3.06
-0.96
-4.87
-8.87
-13.15
-17.83
-22.84
-27.98
-32.98
-37.6
-41.74
-45.43
-48.82
-52.17
-55.78
-59.91
-64.59
-69.45
-73.59
-75.69
-74.35
-68.53
-57.92
-43.11
-25.48
-6.77
11.29
27.4
40.75
50.99
58.08
62.1
63.22
61.73
58.08
52.92
47.06
41.3
36.31
32.49
29.89
28.27
27.26
26.47
25.63
24.61
23.38
21.94
20.24
18.2
15.7
12.67
9.08
4.99
0.49
-4.33
-9.36
-14.51
-19.67
-24.68
-29.47
-33.99
-38.37
-42.83
-47.54
-52.48
-57.21
-60.84
-62.17
-60
-53.59
-42.91
-28.75
-12.46
4.39
20.35
34.39
45.79
54.13
59.15
60.74
59.08
54.69
48.48
41.54
34.93
29.43
25.37
22.68
21
19.86
18.87
17.73
16.32
14.64
12.74
10.68
8.46
5.97
3.08
-0.33
-4.35
-8.91
-13.86
-18.99
-24.11
-29.06
-33.75
-38.18
-42.41
-46.67
-51.27
-56.53
-62.58
-69.15
-75.41
-80.04
-81.48
-78.43
-70.23
-57.14
-40.29
-21.38
-2.2
15.75
31.49
44.46
54.46
61.39
65.26
66.23
64.65
61.11
56.33
51.06
45.93
41.34
37.52
34.52
32.31
30.79
29.79
29.08
28.34
27.32
25.82
23.76
21.13
17.96
14.28
10.08
5.35
0.13
-5.45
-11.22
-16.92
-22.32
-27.24
-31.69
-35.84
-40.04
-44.72
-50.19
-56.48
-63.15
-69.3
-73.62
-74.76
-71.62
-63.73
-51.43
-35.78
-18.29
-0.55
16.14
30.89
43.19
52.8
59.59
63.5
64.65
63.36
60.22
55.98
51.37
46.92
42.94
39.55
36.73
34.46
32.72
31.46
30.59
29.9
29.1
27.89
26.01
23.35
19.91
15.87
11.49
7.07
2.79
-1.29
-5.3
-9.46
-13.99
-18.95
-24.13
-29.18
-33.71
-37.5
-40.66
-43.5
-46.5
-50.07
-54.43
-59.49
-64.87
-69.82
-73.33
-74.17
-71.22
-63.77
-51.87
-36.38
-18.84
-0.98
15.66
30.05
41.7
50.48
56.46
59.73
60.43
58.83
55.39
50.76
45.66
40.75
36.51
33.19
30.79
29.16
28.08
27.28
26.55
25.7
24.54
22.9
20.65
17.74
14.22
10.25
6.05
1.81
-2.37
-6.53
-10.76
-15.16
-19.72
-24.31
-28.69
-32.67
-36.19
-39.41
-42.65
-46.24
-50.23
-54.25
-57.42
-58.56
-56.58
-50.84
-41.34
-28.8
-14.35
0.72
15.25
28.29
39.18
47.4
52.61
54.69
53.8
50.45
45.38
39.49
33.6
28.31
24
20.77
18.56
17.17
16.32
15.74
15.13
14.27
13.01
11.28
9.08
6.45
3.4
-0.08
-4.04
-8.49
-13.35
-18.47
-23.64
-28.67
-33.41
-37.82
-41.9
-45.77
-49.59
-53.61
-58.12
-63.31
-69.09
-74.89
-79.64
-81.92
-80.44
-74.39
-63.77
-49.42
-32.7
-15.11
2.04
17.83
31.65
43.13
51.97
57.96
61.06
61.46
59.65
56.29
52.1
47.66
43.38
39.48
36.11
33.36
31.3
29.93
29.12
28.57
27.9
26.76
24.92
22.36
19.2
15.67
11.95
8.16
4.31
0.29
-4.01
-8.68
-13.67
-18.81
-23.87
-28.61
-32.92
-36.83
-40.5
-44.26
-48.45
-53.36
-59.06
-65.3
-71.31
-75.93
-77.75
-75.57
-68.67
-57.15
-41.9
-24.33
-6.05
11.52
27.26
40.5
50.85
58.2
62.55
64.12
63.28
60.59
56.72
52.35
48.04
44.08
40.55
37.4
34.59
32.22
30.41
29.23
28.59
28.18
27.54
26.25
24.06
20.96
17.14
12.9
8.52
4.18
-0.09
-4.33
-8.66
-13.16
-17.82
-22.5
-27.04
-31.3
-35.25
-39
-42.81
-46.99
-51.77
-57.24
-63.15
-68.85
-73.3
-75.25
-73.53
-67.42
-56.87
-42.59
-25.87
-8.22
8.96
24.59
37.95
48.64
56.45
61.27
63.16
62.39
59.42
54.9
49.52
43.97
38.78
34.33
30.84
28.38
26.88
26.12
25.79
25.49
24.87
23.64
21.69
19.03
15.79
12.15
8.29
4.34
0.33
-3.73
-7.9
-12.22
-16.68
-21.19
-25.65
-29.88
-33.8
-37.42
-40.92
-44.6
-48.73
-53.36
-58.1
-62.08
-64.06
-62.76
-57.33
-47.57
-34.1
-18.12
-1.14
15.4
30.27
42.62
51.88
57.77
60.29
59.74
56.71
51.96
46.3
40.48
35.09
30.48
26.82
24.14
22.32
21.18
20.47
19.91
19.19
18.01
16.19
13.66
10.55
7.08
3.51
-0.04
-3.6
-7.36
-11.52
-16.24
-21.44
-26.91
-32.32
-37.36
-41.92
-46.09
-50.19
-54.71
-60.07
-66.43
-73.44
-80.17
-85.19
-86.89
-83.97
-75.77
-62.48
-45.14
-25.38
-5.01
14.33
31.41
45.47
56.24
63.7
68.05
69.57
68.63
65.74
61.52
56.63
51.66
47.07
43.07
39.72
36.96
34.79
33.21
32.16
31.5
30.94
30.05
28.47
26
22.66
18.7
14.43
10.1
5.77
1.35
-3.35
-8.42
-13.84
-19.4
-24.81
-29.79
-34.22
-38.14
-41.79
-45.57
-49.88
-55.03
-61.01
-67.34
-72.95
-76.41
-76.2
-71.25
-61.25
-46.79
-29.21
-10.24
8.48
25.65
40.39
52.2
60.82
66.2
68.45
67.89
65.03
60.52
55.07
49.35
43.85
38.89
34.66
31.21
28.61
26.92
26.11
25.99
26.16
26.08
25.19
23.17
20.01
15.99
11.56
7.06
2.71
-1.51
-5.75
-10.16
-14.77
-19.56
-24.38
-29.14
-33.72
-38.08
-42.23
-46.23
-50.21
-54.37
-58.87
-63.74
-68.62
-72.74
-74.88
-73.71
-68.2
-57.99
-43.62
-26.33
-7.79
10.35
26.76
40.54
51.23
58.6
62.66
63.58
61.73
57.72
52.28
46.2
40.2
34.87
30.57
27.43
25.42
24.28
23.72
23.38
22.94
22.14
20.79
18.8
16.1
12.73
8.77
4.31
-0.48
-5.47
-10.52
-15.51
-20.4
-25.14
-29.77
-34.36
-39
-43.83
-48.95
-54.34
-59.76
-64.56
-67.77
-68.16
-64.59
-56.31
-43.25
-26.1
-6.13
15.08
35.92
54.89
70.72
82.44
89.49
91.8
89.81
84.37
76.48
67.07
56.85
46.34
35.92
25.88
16.5
7.92
0.21
-6.63
-12.56
-17.47
-21.19
-23.62
-24.92
-25.47
-25.89
-26.74
-28.37
-30.71
-33.37
-35.77
-37.37
-37.92
-37.51
-36.57
-35.68
-35.37
-36.08
-38.03
-41.19
-45.31
-49.78
-53.65
-55.66
-54.51
-49.15
-39.2
-25.05
-7.92
10.46
28.22
43.79
56.13
64.84
70.03
72.09
71.54
68.89
64.6
59.18
53.15
47.08
41.46
36.58
32.5
29.07
26.03
23.17
20.38
17.68
15.19
12.97
10.96
8.94
6.57
3.5
-0.52
-5.56
-11.44
-17.82
-24.27
-30.38
-35.85
-40.5
-44.36
-47.61
-50.64
-53.95
-57.95
-62.81
-68.22
-73.37
-77.04
-77.89
-74.85
-67.45
-55.91
-41.13
-24.39
-7.07
9.64
24.78
37.71
47.98
55.28
59.49
60.74
59.41
56.15
51.72
46.89
42.23
38.11
34.67
31.94
29.89
28.43
27.43
26.64
25.78
24.61
22.95
20.79
18.23
15.4
12.37
9.18
5.75
2.04
-1.99
-6.33
-10.92
-15.66
-20.47
-25.26
-30.04
-34.91
-40.02
-45.48
-51.14
-56.49
-60.61
-62.38
-60.79
-55.23
-45.75
-33.06
-18.33
-2.92
11.93
25.19
36.14
44.31
49.45
51.53
50.82
47.81
43.2
37.77
32.26
27.25
23.14
20.11
18.12
16.99
16.43
16.12
15.76
15.13
14.1
12.55
10.4
7.61
4.21
0.32
-3.82
-7.97
-11.94
-15.69
-19.36
-23.19
-27.41
-32.19
-37.47
-42.95
-48.09
-52.12
-54.19
-53.52
-49.57
-42.24
-31.92
-19.39
-5.76
7.85
20.45
31.26
39.72
45.49
48.41
48.51
46.14
41.87
36.52
30.92
25.71
21.22
17.47
14.29
11.52
9.12
7.1
5.44
4.02
2.49
0.49
-2.26
-5.76
-9.81
-14.05
-18.23
-22.26
-26.33
-30.74
-35.86
-41.92
-48.84
-56.11
-62.74
-67.46
-68.92
-66.15
-58.86
-47.53
-33.31
-17.61
-1.82
13.01
26.22
37.34
46.07
52.14
55.37
55.82
53.81
49.99
45.19
40.2
35.58
31.62
28.35
25.64
23.43
21.7
20.42
19.51
18.72
17.69
15.99
13.35
9.67
5.07
-0.14
-5.58
-10.93
-16
-20.77
-25.41
-30.22
-35.49
-41.47
-48.15
-55.19
-61.85
-67.08
-69.65
-68.5
-63.07
-53.43
-40.36
-25.05
-8.81
7.22
22.27
35.78
47.37
56.69
63.38
67.22
68.2
66.59
62.96
58.09
52.78
47.75
43.5
40.24
37.93
36.34
35.16
34.12
33.05
31.84
30.43
28.71
26.54
23.76
20.32
16.32
12.03
7.76
3.74
0.02
-3.59
-7.4
-11.71
-16.6
-21.89
-27.2
-32.1
-36.27
-39.66
-42.46
-45.1
-48.1
-51.9
-56.72
-62.41
-68.39
-73.74
-77.27
-77.84
-74.59
-67.21
-56.01
-41.88
-26.05
-9.84
5.64
19.63
31.69
41.62
49.29
54.6
57.54
58.22
56.98
54.36
50.95
47.31
43.8
40.66
37.95
35.7
33.94
32.61
31.62
30.82
30
28.99
27.63
25.84
23.56
20.75
17.46
13.8
9.99
6.2
2.6
-0.8
-4.1
-7.43
-10.91
-14.58
-18.4
-22.26
-26.07
-29.72
-33.1
-36.18
-38.91
-41.38
-43.75
-46.3
-49.33
-53.06
-57.52
-62.38
-66.92
-70.14
-70.91
-68.31
-61.88
-51.79
-38.78
-23.95
-8.5
6.49
20.18
31.9
41.18
47.68
51.29
52.17
50.79
47.83
44.03
40.01
36.17
32.71
29.73
27.25
25.35
24.08
23.36
23.01
22.66
21.92
20.46
18.13
15.02
11.37
7.51
3.69
0.06
-3.36
-6.67
-10.04
-13.62
-17.5
-21.68
-26.02
-30.25
-34.1
-37.32
-39.88
-41.97
-43.96
-46.29
-49.35
-53.27
-57.83
-62.39
-65.97
-67.43
-65.76
-60.4
-51.41
-39.49
-25.73
-11.3
2.8
15.9
27.56
37.43
45.15
50.4
53.01
53.14
51.23
47.98
44.12
40.22
36.61
33.42
30.65
28.3
26.38
24.95
24.04
23.57
23.39
23.25
22.91
22.16
20.91
19.1
16.78
13.99
10.82
7.33
3.61
-0.24
-4.13
-7.99
-11.78
-15.51
-19.23
-22.98
-26.81
-30.65
-34.41
-38
-41.33
-44.46
-47.61
-51.07
-55.16
-60.02
-65.48
-70.99
-75.61
-78.18
-77.62
-73.14
-64.55
-52.32
-37.41
-21.14
-4.78
10.61
24.32
35.94
45.26
52.19
56.72
58.94
59.13
57.73
55.25
52.22
49.08
46.13
43.56
41.47
39.9
38.87
38.29
38.01
37.79
37.32
36.33
34.67
32.31
29.38
26.13
22.77
19.42
16.04
12.54
8.81
4.84
0.73
-3.32
-7.16
-10.75
-14.19
-17.66
-21.29
-25.09
-28.89
-32.49
-35.73
-38.59
-41.21
-43.9
-46.99
-50.78
-55.43
-60.81
-66.38
-71.21
-74.12
-73.91
-69.75
-61.43
-49.43
-34.78
-18.73
-2.5
12.96
26.9
38.72
47.93
54.19
57.39
57.78
55.94
52.6
48.54
44.35
40.46
37.1
34.39
32.35
30.97
30.17
29.81
29.69
29.61
29.3
28.5
26.96
24.55
21.33
17.52
13.47
9.48
5.67
1.94
-1.91
-6.06
-10.51
-15.08
-19.48
-23.47
-26.97
-30.09
-33.08
-36.22
-39.79
-43.9
-48.42
-52.97
-56.82
-59.02
-58.54
-54.59
-46.82
-35.48
-21.45
-6.03
9.37
23.49
35.4
44.58
50.82
54.09
54.52
52.36
48.07
42.31
35.92
29.76
24.53
20.67
18.28
17.18
16.98
17.24
17.5
17.4
16.65
15.13
12.85
9.94
6.6
2.98
-0.89
-5.07
-9.68
-14.78
-20.28
-25.97
-31.58
-36.88
-41.77
-46.33
-50.78
-55.45
-60.66
-66.62
-73.24
-79.96
-85.73
-89.13
-88.78
-83.72
-73.71
-59.36
-41.95
-23.08
-4.27
13.23
28.56
41.22
50.98
57.8
61.81
63.31
62.7
60.48
57.18
53.39
49.6
46.22
43.53
41.62
40.47
39.9
39.73
39.68
39.48
38.83
37.44
35.12
31.8
27.56
22.69
17.49
12.24
7.05
1.91
-3.32
-8.74
-14.39
-20.19
-25.94
-31.43
-36.54
-41.32
-46.03
-51.08
-56.84
-63.5
-70.78
-77.87
-83.44
-85.95
-84.02
-76.87
-64.55
-48
-28.76
-8.65
10.69
28.06
42.76
54.52
63.29
69.13
72.15
72.56
70.78
67.41
63.15
58.69
54.54
50.95
47.98
45.6
43.72
42.3
41.25
40.44
39.61
38.43
36.57
33.82
30.19
25.83
21.01
16.03
11.06
6.18
1.36
-3.47
-8.41
-13.5
-18.77
-24.14
-29.46
-34.46
-38.83
-42.38
-45.11
-47.35
-49.71
-52.86
-57.32
-63.1
-69.59
-75.56
-79.38
-79.44
-74.58
-64.44
-49.6
-31.42
-11.74
7.64
25.21
40.02
51.54
59.61
64.23
65.61
64.1
60.28
54.94
48.94
43.09
38.03
34.11
31.45
29.97
29.52
29.84
30.64
31.58
32.26
32.35
31.6
29.92
27.36
24.03
20.02
15.33
9.97
3.96
-2.53
-9.21
-15.74
-21.85
-27.45
-32.68
-37.75
-42.91
-48.31
-53.95
-59.63
-64.83
-68.79
-70.44
-68.72
-62.84
-52.59
-38.53
-21.83
-4.06
13.26
28.88
41.92
51.85
58.34
61.26
60.7
57.1
51.23
44.15
37
30.7
25.87
22.65
20.84
20.02
19.75
19.68
19.59
19.36
18.92
18.16
16.91
14.91
11.96
7.92
2.82
-3.1
-9.5
-15.99
-22.27
-28.19
-33.81
-39.34
-45.09
-51.38
-58.34
-65.73
-72.78
-78.19
-80.39
-77.94
-70.04
-56.81
-39.36
-19.48
0.83
19.8
36.2
49.39
59.17
65.58
68.75
68.93
66.5
62.08
56.46
50.54
45.11
40.62
37.2
34.67
32.7
31.04
29.52
28.06
26.57
24.95
23.03
20.62
17.55
13.67
8.92
3.33
-2.95
-9.57
-16.15
-22.36
-28.03
-33.24
-38.29
-43.55
-49.36
-55.91
-63.15
-70.67
-77.68
-82.99
-85.15
-82.83
-75.18
-62.23
-44.94
-25
-4.4
15.02
31.93
45.59
55.83
62.78
66.76
68.12
67.24
64.52
60.43
55.5
50.26
45.2
40.66
36.8
33.64
31.07
28.95
27.15
25.51
23.88
22.07
19.86
17.07
13.58
9.35
4.46
-0.96
-6.67
-12.45
-18.06
-23.34
-28.24
-32.87
-37.48
-42.42
-48.04
-54.54
-61.81
-69.25
-75.75
-79.85
-80.06
-75.33
-65.38
-50.85
-33.13
-14
4.87
22.16
37.03
49.06
58.04
63.9
66.64
66.44
63.67
58.93
52.98
46.63
40.63
35.49
31.49
28.64
26.74
25.45
24.44
23.42
22.19
20.61
18.59
16.01
12.75
8.77
4.09
-1.09
-6.51
-11.89
-17.04
-21.9
-26.56
-31.18
-35.91
-40.9
-46.21
-51.82
-57.55
-62.95
-67.23
-69.38
-68.3
-63.17
-53.72
-40.43
-24.39
-7.12
9.85
25.17
37.92
47.5
53.62
56.22
55.56
52.18
46.94
40.88
34.98
29.94
26.07
23.29
21.33
19.86
18.65
17.62
16.73
15.92
15
13.7
11.68
8.73
4.85
0.25
-4.7
-9.66
-14.43
-19.1
-23.94
-29.31
-35.45
-42.38
-49.76
-56.92
-62.9
-66.57
-66.84
-62.91
-54.53
-42.12
-26.76
-9.91
6.9
22.41
35.7
46.22
53.65
57.87
58.93
57.13
53.02
47.42
41.2
35.12
29.69
25.12
21.37
18.28
15.66
13.37
11.34
9.52
7.83
6.11
4.1
1.48
-2.06
-6.62
-12.02
-17.83
-23.48
-28.5
-32.75
-36.43
-40.08
-44.28
-49.46
-55.69
-62.6
-69.39
-74.91
-77.82
-76.9
-71.33
-60.96
-46.44
-29.09
-10.59
7.4
23.58
37.17
47.87
55.64
60.6
62.89
62.75
60.53
56.74
52.05
47.12
42.5
38.49
35.18
32.47
30.2
28.26
26.57
25.08
23.7
22.31
20.7
18.65
15.98
12.55
8.34
3.41
-2
-7.6
-13.05
-18.11
-22.72
-27.02
-31.26
-35.75
-40.71
-46.26
-52.41
-58.91
-65.27
-70.56
-73.61
-73.17
-68.35
-58.95
-45.63
-29.66
-12.6
4.17
19.63
33.19
44.45
53.1
58.91
61.77
61.91
59.85
56.34
52.15
47.88
43.84
40.12
36.7
33.59
30.85
28.57
26.76
25.32
24
22.52
20.64
18.21
15.21
11.7
7.78
3.6
-0.75
-5.21
-9.78
-14.49
-19.35
-24.29
-29.14
-33.62
-37.51
-40.77
-43.6
-46.47
-49.94
-54.44
-60.01
-66.07
-71.48
-74.75
-74.46
-69.64
-60.17
-46.75
-30.75
-13.72
2.87
17.95
30.83
41.11
48.59
53.17
54.91
54.08
51.16
46.78
41.62
36.3
31.31
27.02
23.67
21.39
20.13
19.66
19.6
19.5
19.02
17.97
16.33
14.17
11.54
8.41
4.74
0.57
-3.92
-8.45
-12.72
-16.6
-20.24
-23.92
-27.96
-32.56
-37.69
-43.13
-48.5
-53.28
-56.79
-58.21
-56.71
-51.65
-42.84
-30.74
-16.39
-1.22
13.36
26.21
36.59
44.18
48.95
51.01
50.59
48.01
43.75
38.43
32.73
27.36
22.85
19.56
17.52
16.5
16.08
15.81
15.36
14.58
13.45
12.03
10.28
8.05
5.14
1.42
-3.08
-8.14
-13.41
-18.56
-23.39
-27.86
-32.06
-36.14
-40.25
-44.52
-49.11
-54.15
-59.58
-65.09
-69.96
-73.13
-73.43
-69.9
-62.1
-50.32
-35.47
-18.92
-2.14
13.59
27.33
38.52
46.91
52.5
55.44
55.99
54.56
51.62
47.71
43.37
39.06
35.11
31.76
29.09
27.11
25.75
24.85
24.19
23.53
22.61
21.25
19.33
16.88
13.99
10.8
7.44
3.91
0.14
-4.02
-8.62
-13.59
-18.67
-23.51
-27.82
-31.51
-34.73
-37.8
-41.13
-45.07
-49.76
-55.06
-60.49
-65.19
-68.02
-67.84
-63.77
-55.49
-43.39
-28.54
-12.38
3.58
18.09
30.34
39.98
46.97
51.43
53.58
53.63
51.87
48.69
44.6
40.18
35.93
32.19
29.1
26.63
24.7
23.25
22.23
21.58
21.1
20.5
19.45
17.71
15.23
12.15
8.78
5.43
2.32
-0.51
-3.21
-5.98
-9.03
-12.49
-16.32
-20.36
-24.37
-28.07
-31.31
-34.11
-36.68
-39.38
-42.63
-46.71
-51.55
-56.63
-60.92
-63.15
-62.11
-57.06
-47.99
-35.57
-21
-5.65
9.24
22.7
34.04
42.81
48.7
51.59
51.59
49.15
44.97
39.91
34.83
30.32
26.68
23.89
21.72
19.93
18.36
16.97
15.82
14.95
14.29
13.65
12.72
11.19
8.85
5.65
1.75
-2.57
-6.95
-11.11
-14.89
-18.34
-21.64
-25.07
-28.88
-33.2
-37.96
-42.89
-47.42
-50.78
-52.12
-50.67
-45.97
-37.99
-27.22
-14.54
-1.05
12.09
23.85
33.43
40.25
44.04
44.8
42.87
38.83
33.47
27.63
22.01
17.09
13.08
9.96
7.58
5.78
4.42
3.41
2.65
2.02
1.29
0.16
-1.67
-4.42
-8.13
-12.59
-17.46
-22.31
-26.83
-30.92
-34.68
-38.34
-42.25
-46.69
-51.84
-57.67
-63.79
-69.43
-73.42
-74.54
-71.77
-64.66
-53.46
-39.1
-22.91
-6.31
9.42
23.31
34.78
43.49
49.36
52.45
52.95
51.24
47.81
43.33
38.47
33.82
29.8
26.55
24
21.98
20.32
18.94
17.81
16.91
16.1
15.06
13.43
10.85
7.2
2.61
-2.53
-7.75
-12.73
-17.34
-21.75
-26.3
-31.32
-37.06
-43.55
-50.54
-57.47
-63.46
-67.42
-68.24
-65.08
-57.62
-46.18
-31.73
-15.6
0.76
16.1
29.57
40.64
49.1
54.84
57.86
58.28
56.41
52.78
48.11
43.21
38.7
34.93
31.95
29.59
27.6
25.78
24.1
22.58
21.24
19.96
18.48
16.44
13.56
9.67
4.88
-0.51
-6.14
-11.65
-16.88
-21.82
-26.66
-31.68
-37.2
-43.43
-50.36
-57.62
-64.44
-69.69
-72.15
-70.76
-64.91
-54.67
-40.74
-24.38
-7.05
9.8
24.98
37.67
47.35
53.81
57.07
57.33
55
50.7
45.18
39.22
33.53
28.61
24.7
21.84
19.9
18.68
17.97
17.51
17.01
16.12
14.51
11.93
8.31
3.81
-1.23
-6.43
-11.47
-16.27
-20.94
-25.83
-31.3
-37.6
-44.68
-52.11
-59.04
-64.31
-66.64
-64.97
-58.71
-48.02
-33.7
-17.08
0.33
17.09
32.05
44.37
53.52
59.21
61.41
60.43
56.88
51.66
45.85
40.45
36.26
33.69
32.74
33.02
33.94
34.87
35.27
34.88
33.65
31.73
29.41
26.98
24.69
22.61
20.63
18.4
15.35
10.81
4.19
-4.8
-15.89
-28.17
-40.1
-49.83
-55.55
-55.96
-50.63
-40.03
-25.52
-8.91
7.88
23.23
36.04
45.8
52.44
56.2
57.47
56.62
54.02
49.99
44.88
39.05
32.86
26.67
20.82
15.61
11.29
8
5.69
4.12
2.88
1.4
-0.89
-4.4
-9.28
-15.34
-22.14
-29.13
-35.86
-42.13
-48.07
-54.01
-60.28
-66.99
-73.82
-79.98
-84.32
-85.57
-82.65
-75.01
-62.79
-46.82
-28.44
-9.22
9.43
26.42
41.06
52.91
61.78
67.58
70.38
70.44
68.22
64.31
59.36
53.9
48.28
42.72
37.33
32.32
27.95
24.54
22.27
21.04
20.41
19.68
18.1
15.17
10.8
5.36
-0.5
-6.12
-11.1
-15.41
-19.39
-23.57
-28.52
-34.59
-41.88
-50.04
-58.25
-65.3
-69.82
-70.55
-66.82
-58.69
-46.95
-32.87
-17.83
-2.97
10.87
23.13
33.41
41.4
46.84
49.63
49.91
48.03
44.54
40.12
35.41
30.96
27.1
23.98
21.55
19.62
17.95
16.32
14.53
12.44
9.93
6.96
3.49
-0.45
-4.82
-9.57
-14.61
-19.86
-25.21
-30.57
-35.91
-41.29
-46.82
-52.66
-58.83
-65.16
-71.19
-76.11
-78.91
-78.59
-74.44
-66.3
-54.66
-40.54
-25.16
-9.72
4.84
17.87
28.92
37.59
43.56
46.69
47.09
45.25
41.86
37.7
33.43
29.48
26.08
23.31
21.21
19.74
18.81
18.19
17.58
16.61
15.03
12.71
9.69
6.1
2.13
-2.08
-6.39
-10.76
-15.19
-19.77
-24.56
-29.55
-34.44
-38.59
-41.04
-40.82
-37.23
-30.15
-20.13
-8.2
4.38
16.47
27.26
36.22
43.09
47.72
50.05
50.12
48.18
44.62
40.03
35.05
30.22
25.96
22.44
19.7
17.61
16.02
14.73
13.55
12.27
10.69
8.65
6.1
3.03
-0.43
-4.17
-8.05
-11.99
-16
-20.19
-24.74
-29.84
-35.52
-41.46
-46.95
-50.97
-52.38
-50.28
-44.32
-34.73
-22.36
-8.38
5.92
19.43
31.31
41.02
48.31
53.06
55.31
55.16
52.93
49.06
44.2
39.01
34.11
29.86
26.39
23.65
21.49
19.76
18.34
17.08
15.8
14.25
12.2
9.49
6.09
2.12
-2.23
-6.76
-11.37
-16.09
-21.05
-26.43
-32.4
-38.95
-45.88
-52.65
-58.43
-62.15
-62.81
-59.67
-52.57
-42
-29.06
-15.16
-1.65
10.42
20.41
27.98
33.03
35.54
35.6
33.47
29.63
24.73
19.46
14.41
9.99
6.41
3.75
1.96
0.87
0.19
-0.51
-1.68
-3.62
-6.41
-9.87
-13.64
-17.39
-20.95
-24.37
-27.89
-31.8
-36.4
-41.82
-48.03
-54.66
-61
-66.02
-68.55
-67.58
-62.55
-53.51
-41.15
-26.62
-11.26
3.68
17.2
28.55
37.33
43.34
46.62
47.36
45.95
42.86
38.69
34
29.29
24.91
21.06
17.83
15.2
13.12
11.48
10.1
8.76
7.13
4.92
1.96
-1.78
-6.15
-10.88
-15.69
-20.4
-25.02
-29.73
-34.82
-40.59
-47.12
-54.21
-61.18
-66.97
-70.27
-69.88
-64.99
-55.49
-42.03
-25.85
-8.51
8.48
23.91
37
47.38
54.92
59.63
61.61
61.06
58.33
53.98
48.77
43.43
38.52
34.31
30.78
27.76
25.09
22.73
20.73
19.14
17.87
16.7
15.29
13.31
10.54
6.92
2.54
-2.4
-7.62
-12.9
-18.08
-23.15
-28.25
-33.62
-39.53
-46.15
-53.44
-61.02
-68.05
-73.36
-75.61
-73.64
-66.76
-55.09
-39.48
-21.4
-2.52
15.55
31.6
44.84
54.92
61.74
65.45
66.3
64.69
61.15
56.32
50.91
45.6
40.87
37
34.01
31.77
30.1
28.84
27.84
26.96
26.03
24.87
23.27
21.06
18.14
14.51
10.22
5.4
0.29
-4.91
-9.98
-14.82
-19.48
-24.14
-29.03
-34.4
-40.43
-47.14
-54.38
-61.68
-68.22
-72.87
-74.37
-71.63
-64.05
-51.81
-35.87
-17.78
0.67
17.88
32.69
44.5
53.17
58.8
61.58
61.74
59.54
55.39
49.9
43.84
37.95
32.8
28.64
25.41
22.89
20.84
19.11
17.65
16.4
15.19
13.76
11.77
8.93
5.12
0.41
-4.87
-10.31
-15.5
-20.16
-24.28
-28.08
-31.93
-36.24
-41.26
-46.99
-53.09
-58.9
-63.43
-65.57
-64.21
-58.61
-48.62
-34.81
-18.39
-0.98
15.85
30.78
42.93
51.8
57.17
59.02
57.52
53.18
46.76
39.27
31.73
24.96
19.45
15.28
12.25
10.04
8.34
6.92
5.67
4.5
3.3
1.9
0.12
-2.21
-5.19
-8.85
-13.09
-17.72
-22.43
-26.94
-31.06
-34.8
-38.4
-42.3
-46.98
-52.74
-59.46
-66.46
-72.54
-76.14
-75.82
-70.61
-60.31
-45.61
-27.88
-8.83
9.88
26.9
41.32
52.6
60.48
64.95
66.22
64.73
61.14
56.21
50.69
45.19
40.15
35.81
32.28
29.59
27.66
26.34
25.4
24.56
23.56
22.2
20.35
17.98
15.05
11.55
7.45
2.75
-2.5
-8.18
-14.04
-19.8
-25.19
-30.03
-34.3
-38.2
-42.08
-46.41
-51.55
-57.62
-64.31
-70.77
-75.7
-77.59
-75.11
-67.53
-54.92
-38.24
-19.05
0.83
19.72
36.31
49.77
59.69
66.02
68.93
68.77
66.08
61.52
55.82
49.74
43.94
38.87
34.76
31.62
29.3
27.55
26.13
24.83
23.49
22.01
20.3
18.3
15.94
13.12
9.79
5.96
1.7
-2.8
-7.37
-11.85
-16.18
-20.41
-24.59
-28.83
-33.19
-37.78
-42.76
-48.27
-54.31
-60.53
-66.06
-69.6
-69.72
-65.28
-55.87
-41.97
-24.86
-6.23
12.16
28.87
42.83
53.4
60.27
63.42
63.14
59.97
54.69
48.2
41.41
35.06
29.67
25.44
22.34
20.08
18.36
16.95
15.8
14.92
14.34
13.87
13.16
11.74
9.21
5.45
0.66
-4.74
-10.24
-15.43
-20.07
-24.16
-27.85
-31.41
-35.22
-39.63
-44.81
-50.55
-56.16
-60.46
-62.05
-59.75
-52.96
-41.89
-27.49
-11.17
5.54
21.3
35.06
46.06
53.78
57.91
58.44
55.69
50.36
43.41
35.93
28.93
23.1
18.75
15.77
13.77
12.27
10.92
9.55
8.19
6.91
5.65
4.18
2.17
-0.65
-4.38
-8.84
-13.7
-18.56
-23.13
-27.32
-31.21
-35.09
-39.28
-44.14
-49.88
-56.45
-63.41
-69.8
-74.35
-75.63
-72.5
-64.44
-51.73
-35.45
-17.15
1.51
19.06
34.43
46.95
56.28
62.31
65.14
65.04
62.49
58.14
52.73
46.98
41.51
36.75
32.88
29.92
27.73
26.14
24.92
23.87
22.78
21.47
19.8
17.67
15.05
11.96
8.42
4.5
0.25
-4.26
-8.93
-13.67
-18.36
-22.93
-27.36
-31.64
-35.84
-40.09
-44.56
-49.47
-54.95
-60.86
-66.71
-71.52
-73.99
-72.84
-67.15
-56.72
-42.17
-24.85
-6.41
11.5
27.6
41.06
51.5
58.82
63.1
64.53
63.49
60.47
56.13
51.15
46.15
41.56
37.61
34.35
31.75
29.81
28.53
27.86
27.69
27.76
27.69
27.12
25.71
23.35
20.12
16.29
12.24
8.32
4.73
1.46
-1.72
-5.14
-9.08
-13.63
-18.66
-23.82
-28.72
-33.02
-36.62
-39.71
-42.75
-46.3
-50.83
-56.45
-62.72
-68.67
-72.9
-73.94
-70.65
-62.57
-50.07
-34.29
-16.8
0.75
16.96
30.87
41.9
49.86
54.76
56.81
56.43
54.15
50.62
46.46
42.17
38.12
34.53
31.52
29.17
27.49
26.4
25.7
25.13
24.4
23.28
21.66
19.54
16.98
14.06
10.84
7.39
3.73
-0.13
-4.16
-8.35
-12.66
-17.02
-21.34
-25.55
-29.61
-33.59
-37.64
-41.95
-46.58
-51.33
-55.61
-58.49
-58.84
-55.73
-48.67
-37.9
-24.31
-9.22
5.88
19.73
31.38
40.23
45.99
48.56
48.12
45.04
40.05
34.04
27.93
22.5
18.18
15.05
12.91
11.44
10.34
9.45
8.72
8.09
7.47
6.62
5.24
3.03
-0.15
-4.25
-8.99
-13.99
-18.89
-23.47
-27.69
-31.71
-35.79
-40.22
-45.23
-50.86
-56.92
-62.79
-67.44
-69.6
-68.07
-62.12
-51.79
-37.96
-22.06
-5.73
9.66
23.16
34.27
42.76
48.56
51.66
52.23
50.59
47.28
42.9
38.05
33.27
28.93
25.31
22.56
20.69
19.54
18.87
18.41
17.88
17.07
15.82
14.01
11.59
8.54
4.92
0.84
-3.62
-8.33
-13.17
-17.99
-22.64
-26.99
-31
-34.76
-38.43
-42.29
-46.62
-51.59
-57.23
-63.22
-68.83
-72.91
-74.11
-71.23
-63.65
-51.61
-36.19
-19.03
-1.84
14.01
27.69
38.82
47.3
53.12
56.28
56.96
55.5
52.52
48.74
44.81
41.19
38.04
35.33
32.99
30.97
29.36
28.24
27.62
27.32
27
26.22
24.66
22.2
19
15.38
11.7
8.15
4.73
1.24
-2.55
-6.83
-11.62
-16.81
-22.18
-27.44
-32.34
-36.66
-40.26
-43.21
-45.79
-48.46
-51.76
-56.05
-61.27
-66.77
-71.3
-73.33
-71.43
-64.77
-53.43
-38.4
-21.26
-3.8
12.51
26.7
38.32
47.21
53.34
56.73
57.5
55.96
52.71
48.5
44.09
40.05
36.65
33.92
31.77
30.13
29.01
28.46
28.44
28.75
29.05
28.95
28.11
26.37
23.79
20.56
16.99
13.32
9.7
6.14
2.56
-1.19
-5.22
-9.57
-14.18
-18.91
-23.56
-27.88
-31.7
-34.95
-37.73
-40.36
-43.28
-46.93
-51.55
-57.01
-62.72
-67.64
-70.5
-70.09
-65.56
-56.68
-43.96
-28.51
-11.79
4.69
19.65
32.23
41.95
48.66
52.41
53.38
51.88
48.38
43.54
38.15
32.99
28.68
25.53
23.49
22.25
21.41
20.67
19.89
19.05
18.18
17.22
16.05
14.47
12.34
9.62
6.37
2.7
-1.27
-5.46
-9.74
-14
-18.14
-22.1
-25.94
-29.79
-33.88
-38.37
-43.3
-48.38
-52.96
-56.04
-56.48
-53.35
-46.23
-35.38
-21.74
-6.66
8.46
22.4
34.32
43.67
50.15
53.57
53.93
51.5
46.83
40.76
34.26
28.18
23.16
19.43
16.93
15.32
14.2
13.22
12.14
10.84
9.31
7.57
5.58
3.25
0.45
-2.95
-6.93
-11.41
-16.17
-20.95
-25.56
-29.87
-33.91
-37.82
-41.81
-46.17
-51.16
-56.92
-63.33
-69.81
-75.35
-78.61
-78.19
-73.11
-63.08
-48.73
-31.41
-12.86
5.25
21.64
35.54
46.6
54.71
59.87
62.16
61.77
59.17
55.02
50.1
45.12
40.59
36.75
33.58
31.04
29.04
27.52
26.43
25.63
24.87
23.87
22.35
20.18
17.35
13.97
10.17
6.03
1.57
-3.24
-8.39
-13.8
-19.3
-24.68
-29.79
-34.61
-39.32
-44.19
-49.55
-55.56
-62.11
-68.63
-74.13
-77.3
-76.82
-71.74
-61.84
-47.72
-30.75
-12.59
5.12
21.19
34.91
45.99
54.34
59.95
62.88
63.36
61.8
58.78
54.92
50.75
46.62
42.75
39.27
36.28
33.9
32.2
31.12
30.46
29.85
28.9
27.28
24.84
21.65
17.93
13.97
9.92
5.78
1.4
-3.36
-8.54
-13.97
-19.35
-24.36
-28.8
-32.74
-36.43
-40.3
-44.77
-50.14
-56.41
-63.15
-69.44
-74.01
-75.41
-72.46
-64.6
-52.12
-36.16
-18.33
-0.34
16.36
30.85
42.64
51.6
57.71
61.07
61.84
60.34
57.03
52.51
47.45
42.44
37.96
34.3
31.58
29.74
28.59
27.86
27.27
26.55
25.51
24.02
22.02
19.52
16.56
13.2
9.51
5.55
1.37
-3.03
-7.65
-12.45
-17.34
-22.13
-26.66
-30.82
-34.68
-38.5
-42.65
-47.43
-52.82
-58.37
-63.11
-65.78
-65.13
-60.33
-51.19
-38.3
-22.84
-6.31
9.87
24.52
36.85
46.33
52.63
55.61
55.38
52.37
47.36
41.35
35.34
30.1
26.01
23.04
20.92
19.32
18.01
16.94
16.14
15.57
15.11
14.43
13.16
10.98
7.77
3.67
-0.99
-5.78
-10.4
-14.73
-18.85
-22.99
-27.4
-32.28
-37.68
-43.43
-49.08
-53.86
-56.76
-56.74
-53.01
-45.29
-33.89
-19.72
-4.08
11.64
26.15
38.44
47.82
53.91
56.64
56.21
53.12
48.1
42.04
35.82
30.17
25.54
22.03
19.45
17.46
15.71
14
12.3
10.66
9.07
7.36
5.2
2.25
-1.68
-6.49
-11.78
-17.07
-21.98
-26.44
-30.7
-35.17
-40.28
-46.26
-52.95
-59.88
-66.15
-70.6
-71.96
-69.15
-61.59
-49.46
-33.78
-16.1
1.78
18.34
32.57
43.99
52.52
58.26
61.35
62
60.51
57.33
53.01
48.14
43.24
38.72
34.84
31.74
29.43
27.75
26.45
25.2
23.7
21.77
19.36
16.54
13.41
10.03
6.4
2.45
-1.89
-6.65
-11.81
-17.2
-22.61
-27.75
-32.43
-36.62
-40.54
-44.59
-49.22
-54.68
-60.89
-67.26
-72.8
-76.25
-76.4
-72.38
-63.87
-51.27
-35.59
-18.23
-0.72
15.63
29.84
41.41
50.15
56.19
59.78
61.25
60.96
59.28
56.57
53.25
49.7
46.3
43.33
40.97
39.26
38.11
37.4
36.98
36.66
36.26
35.56
34.34
32.45
29.85
26.64
23.01
19.16
15.27
11.43
7.64
3.89
0.17
-3.45
-6.9
-10.13
-13.2
-16.28
-19.54
-23.15
-27.08
-31.16
-35.16
-38.82
-42.06
-44.98
-47.84
-51.05
-55.01
-60
-65.98
-72.45
-78.38
-82.34
-82.88
-78.92
-70.14
-57.1
-41.07
-23.59
-6.12
10.26
24.89
37.37
47.46
54.96
59.81
62.11
62.21
60.6
57.84
54.42
50.72
47.06
43.65
40.65
38.15
36.17
34.64
33.42
32.33
31.18
29.77
27.97
25.73
23.07
20.1
16.99
13.88
10.88
7.98
5.12
2.2
-0.86
-4.07
-7.39
-10.79
-14.23
-17.69
-21.12
-24.46
-27.59
-30.46
-33.04
-35.45
-37.87
-40.58
-43.87
-47.91
-52.69
-57.88
-62.76
-66.32
-67.43
-65.11
-58.85
-48.75
-35.58
-20.56
-5.07
9.64
22.67
33.51
41.93
47.86
51.32
52.39
51.28
48.39
44.32
39.76
35.31
31.36
28.09
25.49
23.44
21.9
20.82
20.14
19.75
19.44
18.88
17.79
15.97
13.42
10.35
7.11
4.05
1.34
-1.06
-3.41
-6.08
-9.34
-13.25
-17.6
-22.04
-26.17
-29.74
-32.69
-35.21
-37.69
-40.56
-44.15
-48.51
-53.31
-57.79
-60.86
-61.42
-58.6
-52.08
-42.19
-29.81
-16.09
-2.17
11.03
22.86
32.81
40.46
45.46
47.64
47.15
44.49
40.45
35.91
31.57
27.87
24.92
22.68
21.07
20.02
19.5
19.38
19.43
19.32
18.75
17.52
15.6
13.16
10.35
7.35
4.21
0.97
-2.34
-5.66
-8.93
-12.19
-15.55
-19.15
-23.1
-27.28
-31.47
-35.35
-38.71
-41.56
-44.13
-46.85
-50.15
-54.32
-59.41
-65
-70.36
-74.39
-75.9
-73.89
-67.83
-57.8
-44.56
-29.3
-13.41
1.83
15.49
27.04
36.26
43.16
47.81
50.3
50.82
49.64
47.19
44
40.6
37.4
34.66
32.45
30.77
29.57
28.83
28.49
28.46
28.57
28.57
28.21
27.22
25.46
22.86
19.52
15.62
11.43
7.21
3.11
-0.83
-4.68
-8.58
-12.61
-16.78
-21.02
-25.21
-29.24
-33.02
-36.52
-39.76
-42.8
-45.78
-48.92
-52.51
-56.79
-61.84
-67.32
-72.46
-76.11
-76.98
-74.02
-66.76
-55.47
-41.09
-24.98
-8.55
7.01
20.91
32.68
42.12
49.11
53.62
55.73
55.67
53.87
50.87
47.31
43.74
40.55
37.92
35.89
34.38
33.26
32.45
31.88
31.52
31.25
30.91
30.24
29
27.03
24.29
20.92
17.17
13.29
9.44
5.68
1.96
-1.81
-5.7
-9.75
-13.95
-18.25
-22.59
-26.87
-30.96
-34.73
-38.15
-41.3
-44.37
-47.72
-51.67
-56.44
-61.87
-67.41
-72.02
-74.35
-73.15
-67.59
-57.56
-43.76
-27.46
-10.21
6.61
21.94
35.07
45.56
53.11
57.62
59.23
58.35
55.63
51.84
47.65
43.55
39.83
36.62
33.97
31.92
30.46
29.54
29.03
28.7
28.24
27.36
25.85
23.62
20.74
17.37
13.73
10.02
6.33
2.62
-1.18
-5.19
-9.44
-13.84
-18.23
-22.4
-26.17
-29.51
-32.51
-35.41
-38.55
-42.28
-46.75
-51.83
-56.94
-61.09
-63.03
-61.59
-56.03
-46.31
-33.14
-17.82
-1.82
13.5
27.16
38.57
47.38
53.4
56.51
56.74
54.38
50.03
44.57
38.9
33.79
29.67
26.59
24.37
22.79
21.76
21.24
21.2
21.41
21.42
20.68
18.77
15.66
11.65
7.3
3.07
-0.85
-4.58
-8.44
-12.72
-17.5
-22.6
-27.69
-32.47
-36.8
-40.73
-44.46
-48.32
-52.57
-57.43
-62.86
-68.49
-73.57
-76.97
-77.43
-73.86
-65.67
-53.01
-36.86
-18.71
-0.28
16.93
31.85
43.93
53.02
59.18
62.61
63.53
62.29
59.35
55.33
50.88
46.57
42.79
39.72
37.35
35.59
34.35
33.51
32.95
32.48
31.9
30.94
29.39
27.08
24
20.25
16.01
11.57
7.2
3.04
-0.92
-4.89
-9.16
-13.95
-19.23
-24.71
-29.97
-34.64
-38.59
-42.05
-45.5
-49.51
-54.48
-60.38
-66.71
-72.44
-76.26
-76.82
-73.11
-64.68
-51.84
-35.59
-17.39
1.14
18.53
33.68
45.95
55.15
61.39
64.95
66.18
65.39
62.95
59.29
54.95
50.49
46.38
42.92
40.18
38.06
36.42
35.15
34.22
33.55
33.03
32.4
31.36
29.64
27.07
23.7
19.74
15.5
11.25
7.16
3.24
-0.62
-4.61
-8.83
-13.31
-17.96
-22.61
-27.09
-31.27
-35.09
-38.58
-41.9
-45.33
-49.23
-53.91
-59.42
-65.34
-70.74
-74.3
-74.68
-70.87
-62.52
-50.07
-34.57
-17.45
-0.21
15.88
29.83
41.1
49.44
54.88
57.66
58.1
56.62
53.63
49.62
45.08
40.57
36.6
33.59
31.84
31.5
32.54
34.75
37.68
40.66
42.9
43.65
42.5
39.48
35.14
30.27
25.56
21.31
17.34
13.15
8.21
2.29
-4.4
-11.39
-18.13
-24.28
-29.85
-35.13
-40.57
-46.54
-53.23
-60.56
-68.15
-75.34
-81.23
-84.75
-84.91
-80.95
-72.64
-60.35
-45.04
-28.11
-11.02
4.87
18.6
29.6
37.69
42.95
45.59
45.91
44.31
41.33
37.6
33.8
30.49
28
26.38
25.49
25.11
25.05
25.16
25.29
25.21
24.63
23.27
20.99
17.84
14.04
9.85
5.44
0.89
-3.84
-8.79
-13.96
-19.24
-24.46
-29.48
-34.21
-38.64
-42.94
-47.37
-52.21
-57.61
-63.37
-68.83
-72.88
-74.27
-71.88
-65.17
-54.31
-40.14
-23.94
-7.09
9.13
23.75
36.08
45.73
52.51
56.44
57.75
56.85
54.33
50.82
46.97
43.28
40.07
37.44
35.35
33.73
32.53
31.75
31.41
31.42
31.5
31.22
30.15
28
24.77
20.72
16.26
11.75
7.37
3.06
-1.35
-6.03
-11.01
-16.17
-21.28
-26.13
-30.61
-34.75
-38.66
-42.52
-46.52
-50.86
-55.7
-61.06
-66.65
-71.72
-75.1
-75.41
-71.52
-62.92
-50.01
-33.98
-16.48
0.83
16.71
30.4
41.57
50.11
55.99
59.27
60.14
59.01
56.44
53.1
49.54
46.14
43.11
40.54
38.43
36.77
35.55
34.69
34.08
33.56
32.92
31.92
30.36
28.1
25.13
21.55
17.57
13.44
9.37
5.47
1.78
-1.72
-5.14
-8.61
-12.29
-16.33
-20.75
-25.4
-29.98
-34.16
-37.71
-40.67
-43.27
-45.95
-49.13
-53.13
-58.08
-63.8
-69.74
-74.94
-78.14
-78.06
-73.68
-64.67
-51.47
-35.27
-17.62
-0.07
16.12
30.12
41.46
49.91
55.41
58.06
58.17
56.22
52.86
48.73
44.45
40.44
36.96
34.13
31.95
30.37
29.32
28.7
28.43
28.38
28.34
28.04
27.19
25.53
23
19.73
16.02
12.21
8.52
5.02
1.63
-1.8
-5.38
-9.12
-12.92
-16.66
-20.2
-23.48
-26.47
-29.22
-31.79
-34.33
-37
-40.01
-43.55
-47.66
-52.12
-56.27
-59.15
-59.58
-56.53
-49.51
-38.73
-25.13
-10.08
4.93
18.67
30.29
39.31
45.54
48.95
49.67
48.05
44.59
39.99
34.97
30.14
25.95
22.62
20.24
18.77
18.1
18.04
18.31
18.6
18.52
17.75
16.1
13.58
10.39
6.85
3.26
-0.23
-3.63
-7.11
-10.85
-14.94
-19.3
-23.78
-28.17
-32.32
-36.21
-39.87
-43.41
-47.04
-50.98
-55.48
-60.61
-66.1
-71.2
-74.73
-75.39
-72.06
-64.24
-52.24
-37.09
-20.24
-3.22
12.67
26.53
37.87
46.46
52.3
55.55
56.47
55.51
53.15
49.93
46.31
42.67
39.3
36.41
34.11
32.48
31.45
30.91
30.63
30.42
30.08
29.49
28.52
27.06
24.97
22.13
18.51
14.24
9.61
4.94
0.44
-3.84
-8.01
-12.27
-16.74
-21.4
-26.09
-30.57
-34.67
-38.35
-41.74
-45.08
-48.68
-52.82
-57.66
-63.12
-68.75
-73.67
-76.68
-76.51
-72.17
-63.31
-50.37
-34.45
-17.08
0.19
16.11
29.84
40.97
49.38
55.14
58.43
59.55
58.83
56.74
53.77
50.38
46.97
43.8
40.97
38.52
36.44
34.72
33.38
32.46
31.91
31.59
31.26
30.58
29.22
26.91
23.58
19.39
14.7
9.96
5.55
1.66
-1.78
-5.03
-8.43
-12.23
-16.5
-21.14
-25.9
-30.53
-34.83
-38.67
-42.05
-45.08
-48.01
-51.21
-55.05
-59.74
-65.14
-70.59
-75.03
-77.12
-75.6
-69.71
-59.38
-45.32
-28.82
-11.43
5.4
20.51
33.21
43.15
50.22
54.46
56.02
55.22
52.56
48.69
44.26
39.85
35.86
32.47
29.79
27.82
26.6
26.11
26.27
26.86
27.54
27.94
27.7
26.55
24.4
21.37
17.69
13.69
9.69
5.87
2.28
-1.2
-4.79
-8.66
-12.88
-17.33
-21.77
-25.89
-29.5
-32.52
-35.15
-37.73
-40.68
-44.31
-48.64
-53.21
-57.08
-59.06
-57.93
-52.92
-43.87
-31.41
-16.7
-1.19
13.76
27.08
38.04
46.29
51.69
54.28
54.26
51.99
48
42.94
37.54
32.45
28.15
24.88
22.6
21.08
20.04
19.23
18.49
17.73
16.82
15.58
13.78
11.23
7.9
3.92
-0.49
-5.06
-9.6
-14.05
-18.41
-22.73
-27.01
-31.21
-35.27
-39.17
-42.97
-46.85
-51.04
-55.8
-61.2
-67.03
-72.64
-76.96
-78.68
-76.61
-70.07
-59.1
-44.54
-27.79
-10.45
6.1
20.82
33.16
42.9
50.01
54.56
56.74
56.8
55.15
52.29
48.76
45.04
41.47
38.26
35.46
33.09
31.17
29.73
28.81
28.36
28.17
27.87
27.04
25.34
22.69
19.22
15.26
11.1
6.91
2.65
-1.81
-6.61
-11.74
-17.02
-22.21
-27.08
-31.51
-35.55
-39.43
-43.46
-47.96
-53.2
-59.19
-65.59
-71.6
-76.04
-77.6
-75.16
-68.16
-56.81
-42.07
-25.32
-8.08
8.34
23.04
35.48
45.4
52.73
57.51
59.88
60.1
58.56
55.71
52.06
48.15
44.42
41.18
38.56
36.55
35.03
33.88
33.01
32.35
31.75
30.95
29.61
27.42
24.2
20.04
15.28
10.37
5.66
1.26
-2.91
-7.12
-11.56
-16.26
-21.11
-25.85
-30.28
-34.31
-37.98
-41.46
-44.99
-48.88
-53.37
-58.55
-64.25
-69.83
-74.25
-76.24
-74.63
-68.72
-58.51
-44.75
-28.68
-11.72
4.77
19.77
32.55
42.75
50.22
55.03
57.35
57.49
55.8
52.73
48.75
44.35
40.01
36.1
32.89
30.47
28.8
27.73
27.1
26.68
26.24
25.53
24.3
22.35
19.63
16.24
12.46
8.61
4.94
1.5
-1.9
-5.51
-9.55
-14
-18.65
-23.15
-27.26
-30.92
-34.32
-37.8
-41.7
-46.17
-51.08
-55.9
-59.74
-61.47
-60.01
-54.69
-45.43
-32.88
-18.2
-2.77
12.12
25.51
36.73
45.38
51.24
54.19
54.32
51.96
47.71
42.35
36.73
31.59
27.43
24.48
22.63
21.57
20.86
20.11
19.07
17.64
15.87
13.83
11.53
8.93
5.92
2.47
-1.38
-5.51
-9.79
-14.14
-18.51
-22.94
-27.47
-32.05
-36.68
-41.33
-46.08
-51.07
-56.37
-61.81
-66.78
-70.23
-70.95
-67.84
-60.37
-48.75
-33.87
-17.15
-0.08
16
30.08
41.57
50.14
55.78
58.64
59.05
57.47
54.45
50.57
46.33
42.16
38.35
35.08
32.5
30.63
29.46
28.85
28.53
28.15
27.34
25.86
23.6
20.65
17.17
13.3
9.13
4.68
-0.05
-5.03
-10.2
-15.5
-20.86
-26.19
-31.36
-36.28
-40.85
-45.11
-49.26
-53.63
-58.5
-63.85
-69.24
-73.69
-75.9
-74.6
-68.96
-58.84
-44.91
-28.42
-10.89
6.25
21.89
35.33
46.24
54.51
60.21
63.47
64.51
63.65
61.34
58.11
54.54
51.09
48.05
45.49
43.3
41.32
39.45
37.69
36.13
34.84
33.79
32.77
31.46
29.53
26.71
23
18.57
13.79
9.01
4.5
0.28
-3.77
-7.87
-12.2
-16.77
-21.45
-26.05
-30.41
-34.47
-38.31
-42.12
-46.14
-50.61
-55.71
-61.41
-67.4
-73.02
-77.19
-78.69
-76.39
-69.65
-58.53
-43.9
-27.16
-9.93
6.41
20.9
33.1
42.88
50.22
55.13
57.63
57.87
56.16
53.07
49.27
45.35
41.76
38.69
36.19
34.23
32.78
31.83
31.36
31.18
31.02
30.46
29.15
26.91
23.79
20.05
16.03
12.04
8.21
4.54
0.96
-2.72
-6.58
-10.67
-14.93
-19.23
-23.36
-27.13
-30.44
-33.35
-36.1
-39.07
-42.62
-46.93
-51.82
-56.75
-60.79
-62.85
-61.87
-57.16
-48.57
-36.55
-22.1
-6.48
8.94
22.99
34.81
43.86
49.92
53.05
53.5
51.72
48.29
43.91
39.27
34.95
31.32
28.53
26.56
25.24
24.39
23.81
23.26
22.5
21.29
19.48
17
13.94
10.43
6.6
2.54
-1.73
-6.17
-10.74
-15.32
-19.79
-24.02
-27.96
-31.62
-35.1
-38.6
-42.31
-46.46
-51.23
-56.6
-62.3
-67.7
-71.83
-73.57
-71.88
-66.14
-56.35
-43.15
-27.72
-11.42
4.49
19
31.46
41.49
48.92
53.71
55.98
56
54.19
51.05
47.17
43.07
39.2
35.82
33.06
30.89
29.24
28.03
27.18
26.61
26.16
25.6
24.61
22.96
20.49
17.3
13.61
9.74
5.94
2.28
-1.36
-5.22
-9.53
-14.36
-19.58
-24.9
-29.99
-34.58
-38.58
-42.11
-45.42
-48.87
-52.8
-57.45
-62.78
-68.34
-73.23
-76.25
-76.11
-71.9
-63.3
-50.76
-35.37
-18.53
-1.68
14.02
27.73
39.04
47.77
53.98
57.83
59.51
59.24
57.32
54.16
50.33
46.41
42.94
40.17
38.07
36.41
34.93
33.49
32.12
30.9
29.88
28.92
27.78
26.15
23.77
20.57
16.66
12.34
7.93
3.72
-0.15
-3.73
-7.16
-10.64
-14.28
-18.12
-22.09
-26.07
-29.95
-33.66
-37.16
-40.5
-43.79
-47.26
-51.16
-55.71
-60.86
-66.24
-71.05
-74.17
-74.37
-70.66
-62.59
-50.45
-35.25
-18.45
-1.58
14.09
27.69
38.79
47.2
52.88
55.86
56.32
54.66
51.41
47.25
42.84
38.64
34.96
31.88
29.48
27.74
26.67
26.18
26.08
26.07
25.8
24.99
23.47
21.19
18.29
14.96
11.45
7.96
4.6
1.39
-1.77
-5.05
-8.58
-12.44
-16.56
-20.74
-24.77
-28.44
-31.71
-34.68
-37.63
-40.9
-44.78
-49.28
-53.97
-58.01
-60.23
-59.52
-55.13
-46.91
-35.41
-21.68
-7.01
7.34
20.38
31.39
39.91
45.66
48.53
48.6
46.19
41.93
36.65
31.27
26.55
22.99
20.67
19.38
18.71
18.24
17.65
16.79
15.62
14.2
12.6
10.8
8.72
6.16
2.91
-1.14
-5.94
-11.24
-16.68
-21.92
-26.8
-31.35
-35.74
-40.22
-45.02
-50.29
-56.01
-61.97
-67.6
-71.96
-73.85
-72.1
-65.93
-55.32
-41.07
-24.6
-7.52
8.68
22.95
34.71
43.73
49.97
53.54
54.63
53.56
50.79
46.84
42.28
37.59
33.18
29.34
26.27
24.04
22.59
21.74
21.25
20.81
20.17
19.14
17.62
15.51
12.77
9.35
5.26
0.56
-4.63
-10.08
-15.6
-21.01
-26.24
-31.34
-36.45
-41.74
-47.41
-53.58
-60.25
-67.15
-73.64
-78.7
-81.09
-79.66
-73.67
-63.12
-48.8
-32.06
-14.49
2.46
17.75
30.77
41.27
49.19
54.55
57.46
58.1
56.84
54.14
50.55
46.59
42.69
39.16
36.16
33.79
32.04
30.82
29.98
29.27
28.44
27.22
25.46
23.12
20.23
16.86
13.05
8.79
4.06
-1.06
-6.47
-11.95
-17.26
-22.29
-27.03
-31.67
-36.49
-41.78
-47.71
-54.27
-61.2
-67.93
-73.56
-76.96
-76.91
-72.52
-63.47
-50.23
-34
-16.38
1.03
16.95
30.61
41.65
49.95
55.51
58.39
58.76
56.98
53.61
49.29
44.68
40.27
36.37
33.09
30.41
28.24
26.47
25.02
23.77
22.59
21.31
19.74
17.73
15.22
12.16
8.54
4.38
-0.27
-5.29
-10.45
-15.45
-20.02
-24.02
-27.53
-30.78
-34.15
-38
-42.59
-47.95
-53.79
-59.48
-64.07
-66.37
-65.25
-59.95
-50.3
-36.87
-20.82
-3.65
13.14
28.28
40.87
50.43
56.75
59.88
60.06
57.72
53.49
48.11
42.42
37.07
32.52
28.88
26.08
23.92
22.23
20.88
19.8
18.81
17.67
16.09
13.8
10.7
6.86
2.49
-2.15
-6.82
-11.33
-15.63
-19.78
-24.03
-28.72
-34.22
-40.66
-47.75
-54.67
-60.14
-62.78
-61.45
-55.61
-45.52
-32.06
-16.53
-0.31
15.38
29.57
41.55
50.81
57
60.02
60.01
57.4
52.86
47.21
41.22
35.54
30.59
26.53
23.33
20.8
18.72
16.92
15.28
13.75
12.24
10.62
8.6
5.91
2.32
-2.17
-7.35
-12.81
-18.13
-22.99
-27.29
-31.21
-35.09
-39.36
-44.4
-50.4
-57.23
-64.31
-70.65
-74.95
-75.86
-72.36
-64.08
-51.44
-35.58
-18.02
-0.34
16.16
30.6
42.51
51.7
58.14
61.9
63.13
62.18
59.53
55.79
51.55
47.32
43.42
40
37.1
34.72
32.86
31.5
30.53
29.74
28.82
27.44
25.38
22.58
19.13
15.22
11.01
6.59
1.95
-2.96
-8.21
-13.72
-19.37
-24.94
-30.25
-35.19
-39.78
-44.18
-48.65
-53.45
-58.79
-64.65
-70.67
-76.04
-79.61
-80.12
-76.56
-68.49
-56.26
-40.92
-23.92
-6.76
9.37
23.68
35.82
45.64
53.11
58.17
60.81
61.17
59.59
56.62
52.99
49.39
46.34
44.12
42.78
42.25
42.41
43.16
44.29
45.54
46.51
46.8
46.12
44.38
41.67
38.24
34.29
29.95
25.22
20.03
14.35
8.24
1.91
-4.41
-10.48
-16.18
-21.48
-26.44
-31.13
-35.58
-39.81
-43.73
-47.28
-50.4
-53.11
-55.54
-57.95
-60.73
-64.29
-68.86
-74.38
-80.31
-85.64
-89.01
-89.05
-84.75
-75.75
-62.55
-46.31
-28.64
-11.13
4.97
18.88
30.29
39.16
45.6
49.76
51.83
52.08
50.86
48.6
45.73
42.58
39.45
36.47
33.75
31.3
28.99
26.57
23.69
19.99
15.24
9.52
3.24
-2.89
-8.02
-11.48
-12.96
-12.64
-11.14
-9.36
-8.08
-7.81
-8.59
-10.01
-11.4
-12.05
-11.45
-9.52
-6.6
-3.48
-1.26
-1.02
-3.59
-9.2
-17.33
-26.75
-35.81
-42.79
-46.34
-45.7
-40.82
-32.27
-21.15
-8.75
3.64
14.96
24.64
32.49
38.58
43.08
46.1
47.68
47.84
46.66
44.36
41.22
37.53
33.59
29.69
26.14
23.31
21.48
20.77
21.02
21.82
22.64
22.98
22.5
21.13
18.93
16.08
12.71
8.89
4.63
-0.09
-5.21
-10.63
-16.22
-21.88
-27.59
-33.34
-39.12
-44.83
-50.33
-55.49
-60.33
-65
-69.73
-74.56
-79.24
-83.06
-85
-84.03
-79.41
-71
-59.32
-45.3
-30.06
-14.54
0.64
15.15
28.74
41.11
51.79
60.2
65.88
68.68
68.82
66.88
63.61
59.72
55.8
52.23
49.27
47.04
45.58
44.81
44.52
44.43
44.2
43.57
42.4
40.66
38.43
35.83
33.03
30.17
27.4
24.83
22.5
20.37
18.29
16.09
13.52
10.36
6.47
1.78
-3.64
-9.64
-15.99
-22.47
-28.97
-35.45
-42
-48.73
-55.71
-62.86
-69.86
-76.05
-80.48
-82.08
-79.87
-73.32
-62.53
-48.29
-31.94
-15.05
0.9
14.75
25.79
33.74
38.65
40.85
40.85
39.28
36.81
34
31.28
28.83
26.68
24.77
23.1
21.77
20.97
20.88
21.54
22.66
23.71
24.03
23.07
20.67
17.07
12.86
8.64
4.81
1.37
-2.01
-5.82
-10.4
-15.79
-21.74
-27.75
-33.35
-38.24
-42.32
-45.71
-48.58
-51.19
-53.76
-56.53
-59.72
-63.5
-67.86
-72.43
-76.44
-78.75
-78.15
-73.69
-65
-52.45
-37.05
-20.16
-3.23
12.55
26.32
37.58
46.15
51.98
55.13
55.74
54.09
50.64
46.04
41.09
36.57
33.04
30.71
29.46
28.93
28.69
28.41
27.89
27.04
25.82
24.17
22.03
19.32
16
12.1
7.76
3.19
-1.38
-5.79
-10.01
-14.11
-18.22
-22.47
-26.98
-31.82
-37.02
-42.48
-47.87
-52.59
-55.72
-56.25
-53.36
-46.68
-36.4
-23.29
-8.47
6.83
21.39
34.17
44.31
51.21
54.6
54.61
51.76
46.88
40.93
34.8
29.14
24.32
20.41
17.3
14.81
12.76
11.06
9.62
8.3
6.94
5.29
3.09
0.16
-3.55
-7.97
-12.88
-18.01
-23.14
-28.18
-33.24
-38.55
-44.38
-50.9
-58.04
-65.39
-72.13
-77.13
-79.17
-77.22
-70.74
-59.87
-45.41
-28.65
-11.12
5.84
21.16
34.19
44.57
52.13
56.83
58.75
58.16
55.54
51.54
46.89
42.28
38.13
34.61
31.65
29.04
26.61
24.3
22.14
20.17
18.33
16.4
14.02
10.9
6.85
1.91
-3.68
-9.61
-15.53
-21.18
-26.45
-31.46
-36.5
-41.98
-48.27
-55.49
-63.24
-70.57
-76.09
-78.27
-75.95
-68.58
-56.51
-40.77
-22.86
-4.36
13.34
29.27
42.83
53.72
61.82
67.11
69.7
69.8
67.79
64.22
59.74
54.96
50.39
46.32
42.87
39.99
37.55
35.42
33.49
31.7
29.98
28.22
26.23
23.75
20.58
16.61
11.89
6.63
1.1
-4.46
-9.92
-15.27
-20.57
-25.88
-31.28
-36.86
-42.76
-49.13
-55.95
-62.88
-69.1
-73.32
-74.17
-70.52
-61.98
-49
-32.81
-15
2.87
19.61
34.43
46.91
56.75
63.73
67.7
68.7
67.06
63.4
58.48
53.07
47.79
43.04
38.99
35.65
32.96
30.81
29.05
27.53
26.06
24.45
22.55
20.26
17.51
14.25
10.45
6.16
1.45
-3.54
-8.62
-13.59
-18.34
-22.81
-27.06
-31.15
-35.2
-39.31
-43.59
-48.13
-52.91
-57.7
-61.92
-64.64
-64.77
-61.33
-53.83
-42.46
-28.1
-12.1
4.11
19.33
32.68
43.64
51.92
57.31
59.74
59.33
56.5
51.94
46.59
41.34
36.89
33.53
31.19
29.53
28.18
26.87
25.49
24.06
22.59
21.02
19.21
16.96
14.14
10.74
6.86
2.67
-1.64
-5.95
-10.21
-14.47
-18.8
-23.29
-27.97
-32.87
-38.01
-43.4
-48.9
-54.13
-58.36
-60.62
-59.91
-55.54
-47.38
-35.96
-22.32
-7.73
6.63
19.83
31.25
40.46
47.17
51.22
52.62
51.6
48.65
44.44
39.7
35.06
30.94
27.54
24.86
22.83
21.37
20.41
19.88
19.64
19.43
18.95
17.88
16.03
13.38
10.13
6.57
2.95
-0.66
-4.35
-8.33
-12.75
-17.56
-22.54
-27.33
-31.67
-35.46
-38.83
-42.08
-45.53
-49.5
-54.18
-59.57
-65.36
-70.9
-75.17
-76.97
-75.22
-69.34
-59.44
-46.26
-31
-14.95
0.77
15.35
28.27
39.19
47.9
54.22
58.07
59.55
58.96
56.84
53.81
50.5
47.35
44.64
42.45
40.74
39.45
38.51
37.82
37.22
36.54
35.61
34.35
32.79
31.04
29.21
27.34
25.37
23.18
20.7
17.96
15.11
12.37
9.91
7.79
5.95
4.28
2.69
1.22
-0.08
-1.17
-2.13
-3.14
-4.48
-6.36
-8.83
-11.76
-14.89
-17.91
-20.55
-22.7
-24.43
-25.97
-27.67
-29.85
-32.67
-36.11
-39.93
-43.81
-47.44
-50.65
-53.45
-56.04
-58.74
-61.92
-65.86
-70.58
-75.76
-80.67
-84.22
-85.24
-82.68
-76.02
-65.34
-51.44
-35.6
-19.23
-3.6
10.45
22.52
32.48
40.33
46.01
49.45
50.66
49.89
47.64
44.6
41.43
38.56
36.16
34.17
32.45
30.97
29.81
29.08
28.76
28.67
28.46
27.77
26.4
24.4
22
19.46
16.96
14.49
11.93
9.13
6.03
2.72
-0.67
-3.96
-7.06
-9.97
-12.8
-15.72
-18.89
-22.37
-26.05
-29.66
-32.89
-35.52
-37.6
-39.41
-41.43
-44.15
-47.85
-52.5
-57.68
-62.6
-66.27
-67.62
-65.78
-60.3
-51.27
-39.31
-25.4
-10.68
3.79
17.12
28.62
37.77
44.24
47.91
48.95
47.79
45.06
41.46
37.6
33.94
30.78
28.28
26.44
25.19
24.37
23.79
23.26
22.61
21.66
20.29
18.37
15.86
12.78
9.27
5.55
1.86
-1.65
-4.98
-8.26
-11.73
-15.59
-19.89
-24.55
-29.28
-33.75
-37.68
-40.95
-43.68
-46.24
-49.09
-52.7
-57.29
-62.72
-68.36
-73.18
-75.94
-75.52
-71.2
-62.93
-51.29
-37.31
-22.21
-7.05
7.38
20.56
32.11
41.71
49.04
53.91
56.34
56.62
55.24
52.76
49.72
46.48
43.34
40.5
38.16
36.48
35.46
34.95
34.65
34.22
33.38
32.01
30.14
27.86
25.3
22.59
19.79
16.95
14.03
10.98
7.69
4.1
0.22
-3.85
-7.96
-12.05
-16.17
-20.46
-25.01
-29.75
-34.46
-38.86
-42.76
-46.19
-49.38
-52.71
-56.57
-61.27
-66.85
-73.04
-79.11
-83.92
-86.17
-84.65
-78.68
-68.29
-54.19
-37.61
-19.88
-2.28
14.21
28.87
41.24
51.04
58.17
62.7
64.83
64.89
63.33
60.67
57.46
54.17
51.14
48.53
46.38
44.65
43.31
42.34
41.68
41.22
40.75
40.03
38.84
37.06
34.69
31.79
28.5
24.9
21.02
16.88
12.47
7.89
3.25
-1.29
-5.68
-9.9
-14.06
-18.25
-22.52
-26.82
-31.02
-34.99
-38.66
-42.09
-45.45
-49.01
-53.08
-57.94
-63.65
-69.96
-76.21
-81.3
-83.94
-82.89
-77.39
-67.3
-53.25
-36.47
-18.49
-0.8
15.4
29.36
40.73
49.51
55.83
59.83
61.65
61.52
59.76
56.89
53.47
49.97
46.68
43.68
40.94
38.42
36.23
34.56
33.61
33.34
33.46
33.47
32.78
31.01
28.06
24.19
19.85
15.48
11.37
7.55
3.85
0.09
-3.87
-8.04
-12.31
-16.55
-20.62
-24.44
-27.96
-31.25
-34.5
-38.02
-42.14
-47.01
-52.42
-57.73
-61.93
-63.88
-62.58
-57.48
-48.56
-36.32
-21.66
-5.74
10.22
25.09
37.87
47.89
54.73
58.31
58.81
56.65
52.46
47.01
41.16
35.74
31.37
28.36
26.62
25.74
25.18
24.45
23.29
21.7
19.84
17.88
15.83
13.49
10.57
6.81
2.16
-3.21
-8.95
-14.69
-20.17
-25.31
-30.25
-35.2
-40.38
-45.98
-52.1
-58.76
-65.79
-72.78
-78.9
-82.93
-83.5
-79.46
-70.3
-56.39
-38.99
-19.87
-0.87
16.53
31.46
43.55
52.75
59.1
62.7
63.69
62.39
59.32
55.14
50.51
46.01
41.99
38.65
36.04
34.11
32.75
31.77
30.9
29.86
28.38
26.31
23.58
20.29
16.55
12.5
8.21
3.69
-1.11
-6.21
-11.57
-17.1
-22.61
-27.93
-32.96
-37.69
-42.26
-46.93
-52.04
-57.87
-64.46
-71.39
-77.73
-82.08
-82.91
-79.03
-69.97
-56.2
-38.96
-19.99
-0.98
16.66
32.05
44.73
54.56
61.6
65.97
67.92
67.75
65.88
62.76
58.85
54.56
50.24
46.15
42.53
39.54
37.28
35.73
34.74
34.05
33.34
32.32
30.74
28.46
25.38
21.53
17
11.96
6.64
1.2
-4.26
-9.77
-15.36
-21.03
-26.68
-32.13
-37.24
-42
-46.6
-51.37
-56.67
-62.59
-68.81
-74.45
-78.21
-78.74
-74.96
-66.49
-53.73
-37.79
-20.16
-2.33
14.41
29.18
41.4
50.82
57.35
61.1
62.35
61.47
58.92
55.13
50.49
45.38
40.21
35.44
31.51
28.75
27.26
26.81
26.91
26.94
26.42
25.08
23.01
20.4
17.47
14.28
10.75
6.78
2.34
-2.43
-7.29
-12.05
-16.6
-20.95
-25.14
-29.18
-33.06
-36.81
-40.57
-44.64
-49.21
-54.23
-59.1
-62.74
-63.82
-61.15
-54.15
-43.01
-28.72
-12.69
3.58
18.82
32.14
42.98
50.98
55.91
57.71
56.54
52.94
47.76
42.03
36.66
32.28
29.05
26.82
25.26
24.06
23.01
21.97
20.82
19.47
17.79
15.72
13.17
10.07
6.35
1.94
-3.1
-8.56
-14.11
-19.38
-24.14
-28.4
-32.45
-36.72
-41.64
-47.47
-54.16
-61.27
-67.95
-73.06
-75.39
-73.92
-68.1
-58.03
-44.44
-28.5
-11.58
5.05
20.32
33.48
44.03
51.71
56.47
58.43
57.91
55.41
51.5
46.83
41.99
37.47
33.6
30.58
28.42
27.02
26.14
25.51
24.85
23.87
22.4
20.35
17.71
14.55
10.94
6.92
2.48
-2.4
-7.7
-13.29
-18.92
-24.28
-29.1
-33.3
-37.04
-40.68
-44.71
-49.52
-55.32
-61.9
-68.62
-74.41
-77.9
-77.8
-73.19
-63.87
-50.45
-34.24
-16.82
0.3
15.99
29.62
40.94
49.86
56.37
60.44
62.07
61.43
58.92
55.1
50.66
46.25
42.35
39.23
36.93
35.32
34.17
33.23
32.28
31.2
29.9
28.31
26.32
23.8
20.68
17.01
12.98
8.83
4.78
0.83
-3.18
-7.52
-12.33
-17.53
-22.8
-27.76
-32.13
-35.9
-39.31
-42.84
-46.98
-52.08
-58.15
-64.74
-70.89
-75.25
-76.4
-73.23
-65.33
-53.14
-37.84
-21.05
-4.34
11.06
24.39
35.28
43.61
49.37
52.6
53.47
52.32
49.65
46.02
41.99
37.97
34.23
30.89
28.01
25.68
23.98
22.97
22.59
22.64
22.75
22.46
21.41
19.42
16.58
13.18
9.59
6.09
2.79
-0.41
-3.72
-7.31
-11.22
-15.32
-19.42
-23.33
-26.95
-30.33
-33.62
-37.06
-40.91
-45.33
-50.28
-55.35
-59.74
-62.36
-62.08
-58.06
-50.04
-38.47
-24.35
-9.02
6.2
20.17
32.08
41.38
47.78
51.17
51.71
49.78
46.01
41.15
35.96
31.1
27.03
23.93
21.77
20.34
19.36
18.59
17.84
17.03
16.09
14.96
13.49
11.52
8.92
5.61
1.64
-2.84
-7.63
-12.51
-17.27
-21.76
-25.94
-29.88
-33.75
-37.79
-42.23
-47.17
-52.46
-57.67
-62.03
-64.58
-64.35
-60.59
-53
-41.87
-28.02
-12.67
2.76
17.01
29.16
38.68
45.37
49.28
50.58
49.53
46.48
41.95
36.63
31.27
26.53
22.82
20.24
18.65
17.75
17.27
16.98
16.66
16.13
15.17
13.64
11.48
8.71
5.39
1.61
-2.61
-7.18
-11.99
-16.85
-21.58
-26.06
-30.29
-34.37
-38.48
-42.84
-47.62
-52.97
-58.85
-64.96
-70.64
-74.85
-76.37
-74.13
-67.56
-56.75
-42.5
-26.1
-8.98
7.57
22.56
35.36
45.62
53.21
58.14
60.53
60.63
58.82
55.59
51.5
47.09
42.8
38.89
35.49
32.6
30.22
28.33
26.89
25.81
24.91
23.95
22.7
20.92
18.5
15.36
11.56
7.16
2.32
-2.78
-7.98
-13.1
-18.05
-22.76
-27.26
-31.62
-35.99
-40.58
-45.62
-51.26
-57.39
-63.57
-68.91
-72.28
-72.49
-68.69
-60.57
-48.56
-33.66
-17.21
-0.65
14.8
28.24
39.11
47.18
52.46
55.1
55.43
53.85
50.85
46.98
42.78
38.7
35.04
31.92
29.36
27.29
25.63
24.28
23.13
21.99
20.69
19.04
16.96
14.44
11.5
8.17
4.45
0.3
-4.27
-9.15
-14.19
-19.17
-23.89
-28.25
-32.2
-35.82
-39.27
-42.77
-46.55
-50.79
-55.39
-59.94
-63.57
-65.13
-63.44
-57.66
-47.67
-34.11
-18.31
-1.91
13.58
27.03
37.82
45.76
50.89
53.34
53.29
51.02
46.97
41.77
36.15
30.86
26.42
23.11
20.88
19.45
18.5
17.76
17.12
16.56
16.03
15.37
14.24
12.28
9.23
5.15
0.33
-4.73
-9.6
-14.03
-18.05
-21.85
-25.77
-30.12
-35.16
-40.99
-47.44
-53.88
-59.31
-62.45
-62.11
-57.57
-48.83
-36.65
-22.31
-7.21
7.4
20.62
31.9
40.91
47.41
51.25
52.39
50.98
47.47
42.6
37.23
32.19
28.06
25.03
22.95
21.49
20.27
19.06
17.76
16.4
14.92
13.23
11.14
8.5
5.22
1.3
-3.15
-8.01
-13.14
-18.36
-23.5
-28.38
-32.96
-37.39
-41.99
-47.18
-53.2
-59.9
-66.57
-71.98
-74.71
-73.49
-67.66
-57.29
-43.22
-26.74
-9.28
7.83
23.59
37.28
48.43
56.76
62.15
64.69
64.65
62.52
58.94
54.57
50.01
45.7
41.89
38.67
35.99
33.76
31.89
30.28
28.81
27.34
25.69
23.64
21
17.68
13.67
9.07
4.08
-1.1
-6.26
-11.28
-16.08
-20.64
-25.03
-29.33
-33.71
-38.4
-43.61
-49.46
-55.8
-62.06
-67.28
-70.18
-69.54
-64.59
-55.23
-42.18
-26.72
-10.31
5.66
20.17
32.57
42.52
49.84
54.47
56.44
55.98
53.51
49.6
44.91
40.04
35.45
31.39
27.95
25.11
22.8
20.96
19.54
18.44
17.49
16.51
15.29
13.63
11.43
8.68
5.44
1.86
-1.89
-5.71
-9.53
-13.36
-17.21
-21.07
-24.93
-28.78
-32.72
-36.91
-41.48
-46.36
-51.11
-54.85
-56.44
-54.87
-49.54
-40.58
-28.76
-15.26
-1.32
12.07
24.18
34.54
42.73
48.31
50.98
50.68
47.8
43.16
37.76
32.55
28.11
24.62
21.92
19.77
18
16.57
15.51
14.82
14.33
13.74
12.68
10.86
8.14
4.62
0.58
-3.65
-7.79
-11.68
-15.31
-18.81
-22.37
-26.22
-30.55
-35.47
-40.88
-46.42
-51.35
-54.66
-55.3
-52.39
-45.62
-35.27
-22.26
-7.85
6.58
19.87
31.11
39.78
45.61
48.5
48.58
46.12
41.67
35.97
29.96
24.44
19.97
16.64
14.16
12.04
9.88
7.59
5.3
3.31
1.73
0.42
-1.02
-3.05
-5.99
-9.86
-14.36
-19.09
-23.62
-27.71
-31.35
-34.77
-38.32
-42.39
-47.28
-53.04
-59.38
-65.54
-70.4
-72.64
-71.11
-65.15
-54.88
-41.15
-25.33
-8.95
6.69
20.71
32.58
42.1
49.13
53.61
55.58
55.26
53.1
49.69
45.63
41.43
37.45
33.87
30.79
28.24
26.2
24.62
23.35
22.17
20.83
19.13
16.98
14.38
11.39
8.08
4.46
0.51
-3.85
-8.61
-13.69
-18.88
-23.92
-28.59
-32.88
-36.95
-41.13
-45.83
-51.29
-57.48
-63.93
-69.78
-73.92
-75.18
-72.66
-65.93
-55.21
-41.27
-25.34
-8.83
6.97
21.05
32.79
41.95
48.52
52.66
54.59
54.61
53.1
50.51
47.3
43.91
40.62
37.61
34.98
32.81
31.17
30.09
29.47
29.09
28.55
27.45
25.44
22.44
18.58
14.27
9.92
5.88
2.24
-1.19
-4.76
-8.81
-13.51
-18.73
-24.1
-29.2
-33.74
-37.69
-41.27
-44.87
-48.87
-53.51
-58.81
-64.42
-69.68
-73.6
-75.04
-72.97
-66.76
-56.41
-42.61
-26.61
-9.88
6.19
20.54
32.49
41.71
48.16
51.97
53.44
52.93
50.88
47.78
44.07
40.17
36.44
33.17
30.53
28.6
27.32
26.53
26
25.44
24.59
23.26
21.37
18.97
16.2
13.16
9.92
6.46
2.73
-1.31
-5.59
-9.97
-14.25
-18.26
-21.93
-25.36
-28.76
-32.45
-36.71
-41.65
-47.08
-52.38
-56.6
-58.65
-57.55
-52.76
-44.31
-32.78
-19.18
-4.63
9.76
23.08
34.58
43.7
49.97
53.14
53.18
50.46
45.72
39.91
34
28.78
24.63
21.6
19.46
17.89
16.57
15.27
13.88
12.32
10.6
8.74
6.76
4.59
2.1
-0.87
-4.48
-8.74
-13.52
-18.52
-23.46
-28.14
-32.57
-36.93
-41.49
-46.49
-52.04
-58.01
-63.93
-68.95
-71.95
-71.72
-67.34
-58.46
-45.5
-29.55
-12.15
5.13
20.97
34.49
45.2
52.89
57.57
59.37
58.64
55.86
51.63
46.65
41.55
36.84
32.86
29.69
27.27
25.42
23.94
22.72
21.64
20.61
19.49
18.1
16.21
13.67
10.4
6.48
2.08
-2.6
-7.41
-12.25
-17.07
-21.87
-26.63
-31.27
-35.8
-40.28
-44.94
-50.04
-55.76
-61.91
-67.76
-72.1
-73.47
-70.63
-63
-50.86
-35.31
-17.91
-0.27
16.27
30.83
42.9
52.18
58.55
61.97
62.62
60.88
57.37
52.8
47.81
42.93
38.48
34.64
31.45
28.94
27.01
25.54
24.3
23.1
21.74
20.12
18.14
15.8
13.03
9.83
6.19
2.14
-2.2
-6.72
-11.28
-15.81
-20.27
-24.67
-29.08
-33.62
-38.44
-43.7
-49.5
-55.71
-61.87
-67.13
-70.39
-70.44
-66.42
-57.99
-45.54
-30.11
-13.12
3.92
19.72
33.39
44.41
52.53
57.68
59.91
59.4
56.55
51.99
46.51
40.97
36.01
31.95
28.81
26.34
24.26
22.37
20.59
18.98
17.57
16.3
14.98
13.31
11.03
7.94
4.06
-0.44
-5.25
-10.03
-14.52
-18.57
-22.24
-25.68
-29.24
-33.22
-37.88
-43.22
-48.82
-53.78
-56.9
-56.92
-52.96
-44.81
-33.01
-18.72
-3.37
11.7
25.39
36.91
45.72
51.43
53.89
53.24
49.97
44.9
38.99
33.12
27.93
23.65
20.26
17.58
15.43
13.69
12.31
11.21
10.19
8.99
7.29
4.86
1.68
-2.15
-6.37
-10.76
-15.15
-19.49
-23.87
-28.42
-33.39
-38.98
-45.26
-52
-58.52
-63.75
-66.38
-65.25
-59.68
-49.76
-36.25
-20.47
-3.87
12.22
26.78
39.08
48.64
55.13
58.38
58.45
55.73
50.93
44.99
38.87
33.33
28.77
25.2
22.4
20.06
18.01
16.17
14.57
13.19
11.84
10.24
8.04
5.03
1.18
-3.35
-8.27
-13.27
-18.13
-22.77
-27.21
-31.6
-36.17
-41.2
-46.89
-53.28
-60.05
-66.48
-71.43
-73.57
-71.68
-65.03
-53.65
-38.43
-20.87
-2.75
14.31
29.17
41.26
50.46
56.84
60.57
61.77
60.67
57.65
53.28
48.3
43.4
39.09
35.57
32.79
30.51
28.47
26.49
24.54
22.69
21.03
19.52
17.96
16
13.25
9.49
4.72
-0.77
-6.54
-12.11
-17.14
-21.54
-25.43
-29.16
-33.15
-37.82
-43.45
-50.04
-57.21
-64.09
-69.45
-71.87
-70.13
-63.57
-52.32
-37.33
-20.12
-2.42
14.25
28.75
40.46
49.1
54.68
57.43
57.69
55.98
52.88
48.92
44.56
40.11
35.76
31.69
28.07
25.07
22.8
21.2
20.09
19.14
18.05
16.54
14.45
11.69
8.24
4.12
-0.56
-5.56
-10.58
-15.26
-19.37
-22.9
-26.12
-29.47
-33.39
-38.17
-43.78
-49.83
-55.53
-59.84
-61.58
-59.76
-53.78
-43.72
-30.31
-14.8
1.32
16.67
30.16
41.02
48.83
53.36
54.66
53.06
49.18
43.9
38.1
32.49
27.48
23.21
19.65
16.75
14.49
12.9
11.93
11.38
10.94
10.22
8.89
6.75
3.79
0.16
-3.9
-8.08
-12.16
-16.03
-19.74
-23.49
-27.57
-32.27
-37.67
-43.6
-49.48
-54.36
-57.08
-56.54
-51.99
-43.35
-31.21
-16.7
-1.24
13.81
27.34
38.56
46.98
52.3
54.42
53.46
49.86
44.35
37.9
31.45
25.78
21.25
17.9
15.42
13.45
11.71
10.07
8.54
7.1
5.67
4.01
1.83
-1.08
-4.78
-9.09
-13.72
-18.33
-22.67
-26.67
-30.52
-34.57
-39.28
-45.04
-51.9
-59.45
-66.72
-72.31
-74.73
-72.85
-66.15
-54.92
-40.2
-23.4
-6.03
10.61
25.53
38.09
47.93
54.85
58.85
60.09
58.93
55.88
51.54
46.48
41.24
36.18
31.56
27.48
23.97
21.02
18.61
16.7
15.19
13.91
12.6
10.93
8.58
5.38
1.38
-3.16
-7.84
-12.33
-16.46
-20.35
-24.33
-28.83
-34.2
-40.55
-47.64
-54.86
-61.26
-65.68
-66.92
-64.07
-56.72
-45.18
-30.43
-13.91
2.78
18.29
31.66
42.38
50.34
55.62
58.41
58.9
57.37
54.17
49.8
44.81
39.76
35.08
31.03
27.66
24.88
22.58
20.62
18.92
17.39
15.93
14.39
12.57
10.31
7.46
4.02
0.06
-4.25
-8.71
-13.12
-17.39
-21.47
-25.38
-29.19
-33.02
-37.07
-41.61
-46.83
-52.69
-58.73
-63.98
-67.09
-66.71
-61.9
-52.51
-39.2
-23.32
-6.52
9.69
24.13
36.08
45.19
51.34
54.55
54.94
52.83
48.75
43.42
37.62
32.07
27.22
23.24
20.1
17.64
15.75
14.35
13.38
12.75
12.23
11.5
10.21
8.11
5.15
1.51
-2.47
-6.41
-10.07
-13.39
-16.54
-19.83
-23.58
-28.03
-33.23
-39.02
-44.96
-50.27
-53.95
-54.93
-52.36
-45.89
-35.83
-23.11
-9.03
5.09
18.16
29.42
38.44
44.92
48.71
49.73
48.16
44.4
39.18
33.35
27.71
22.83
18.97
16.01
13.66
11.59
9.64
7.8
6.19
4.86
3.62
2.11
-0.16
-3.47
-7.84
-12.87
-18.02
-22.75
-26.83
-30.35
-33.67
-37.23
-41.39
-46.33
-52.03
-58.22
-64.26
-69.18
-71.67
-70.46
-64.68
-54.26
-40.03
-23.48
-6.34
9.88
24.19
36.13
45.55
52.43
56.74
58.5
57.91
55.34
51.37
46.62
41.67
36.99
32.96
29.79
27.55
26.1
25.13
24.25
23.11
21.53
19.55
17.27
14.78
11.98
8.67
4.7
0.03
-5.14
-10.5
-15.78
-20.82
-25.59
-30.19
-34.7
-39.3
-44.21
-49.63
-55.69
-62.13
-68.24
-72.89
-74.75
-72.68
-66.09
-55.1
-40.55
-23.79
-6.36
10.28
25.01
37.09
46.22
52.44
55.97
57.18
56.42
54.09
50.59
46.35
41.78
37.24
33
29.23
26.05
23.46
21.43
19.82
18.44
17.03
15.36
13.23
10.58
7.48
4.06
0.47
-3.19
-6.94
-10.84
-15
-19.42
-24.04
-28.72
-33.29
-37.67
-41.88
-46.12
-50.67
-55.73
-61.19
-66.49
-70.61
-72.28
-70.36
-64.26
-54.12
-40.83
-25.74
-10.28
4.35
17.4
28.46
37.39
44.07
48.39
50.28
49.77
47.1
42.69
37.19
31.33
25.89
21.51
18.59
17.19
17.05
17.67
18.46
18.87
18.51
17.16
14.75
11.33
7.05
2.15
-3.04
-8.21
-13.1
-17.6
-21.8
-25.93
-30.32
-35.24
-40.8
-46.86
-52.89
-58.01
-61.11
-61.06
-57.02
-48.75
-36.67
-21.84
-5.65
10.55
25.63
38.77
49.33
56.75
60.5
60.26
56.11
48.69
39.09
28.61
18.37
9.05
0.85
-6.34
-12.69
-18.21
-22.82
-26.44
-29.22
-31.55
-33.99
-36.95
-40.45
-44.11
-47.25
-49.33
-50.16
-50.06
-49.65
-49.6
-50.41
-52.26
-55.05
-58.39
-61.56
-63.46
-62.79
-58.27
-49.17
-35.58
-18.54
0.35
19.38
37.14
52.78
65.83
76.02
83.07
86.76
87.06
84.35
79.45
73.49
67.57
62.44
58.37
55.17
52.44
49.8
47.03
44.18
41.38
38.69
36.05
33.18
29.76
25.55
20.48
14.71
8.56
2.34
-3.72
-9.63
-15.54
-21.72
-28.37
-35.54
-42.97
-50.05
-55.88
-59.36
-59.51
-55.66
-47.71
-36.14
-21.92
-6.3
9.47
24.26
37.14
47.42
54.6
58.48
59.2
57.23
53.33
48.38
43.22
38.4
34.19
30.53
27.16
23.84
20.43
16.97
13.65
10.67
8.15
5.99
3.99
1.85
-0.72
-3.86
-7.55
-11.62
-15.79
-19.77
-23.38
-26.7
-30.06
-33.97
-39.01
-45.56
-53.6
-62.48
-70.99
-77.47
-80.2
-77.85
-69.88
-56.73
-39.74
-20.8
-1.86
15.5
30.3
42.09
50.8
56.52
59.4
59.6
57.5
53.65
48.79
43.67
38.88
34.71
31.21
28.24
25.67
23.45
21.64
20.29
19.35
18.66
17.86
16.57
14.42
11.14
6.63
0.96
-5.65
-12.86
-20.29
-27.53
-34.32
-40.58
-46.44
-52.22
-58.31
-65
-72.28
-79.72
-86.47
-91.32
-92.96
-90.28
-82.67
-70.22
-53.71
-34.47
-14.08
5.92
24.18
39.68
51.67
59.78
63.99
64.71
62.74
59.02
54.45
49.65
44.95
40.46
36.3
32.68
29.88
28.13
27.41
27.45
27.74
27.7
26.83
24.83
21.65
17.45
12.55
7.29
2.04
-2.96
-7.69
-12.28
-17.08
-22.51
-28.87
-36.13
-43.79
-50.77
-55.64
-56.93
-53.55
-45.19
-32.39
-16.39
1.13
18.47
34.15
47.05
56.43
61.92
63.6
61.95
57.83
52.31
46.41
40.91
36.19
32.26
28.87
25.79
22.87
20.16
17.74
15.6
13.59
11.39
8.64
5.06
0.53
-4.85
-10.79
-16.9
-22.8
-28.27
-33.34
-38.31
-43.7
-50.04
-57.65
-66.32
-75.28
-83.14
-88.25
-89.13
-84.83
-75.29
-61.34
-44.48
-26.5
-9.08
6.49
19.38
29.11
35.48
38.46
38.23
35.19
30.01
23.51
16.53
9.74
3.58
-1.7
-6.1
-9.7
-12.58
-14.79
-16.35
-17.3
-17.8
-18.09
-18.39
-18.89
-19.54
-20.02
-19.79
