-204.86
-207.49
-203.77
-191.81
-171.15
-143.02
-110.1
-75.68
-42.79
-13.63
10.66
29.7
43.53
52.48
57.09
58.23
57.11
55.07
53.21
52.15
51.9
52.02
52.01
51.57
50.75
49.82
48.94
48.01
46.56
43.89
39.37
32.68
23.92
13.63
2.64
-8.25
-18.51
-28.11
-37.59
-47.96
-60.28
-75.13
-91.99
-108.97
-123.05
-130.81
-129.49
-117.96
-97.14
-69.78
-39.48
-9.7
17.09
39.66
57.69
71.35
80.82
86.28
88.04
86.75
83.42
79.24
75.18
71.73
68.85
66.09
63
59.37
55.34
51.28
47.53
44.13
40.62
36.23
30.07
21.57
10.76
-1.67
-14.63
-26.97
-38.01
-47.72
-56.79
-66.37
-77.73
-91.75
-108.54
-127
-144.71
-158.33
-164.33
-160.08
-144.79
-119.94
-88.76
-55.22
-22.67
6.86
32.8
55.39
74.94
91.3
103.92
112.24
116.18
116.4
114.06
110.45
106.54
102.71
98.89
94.79
90.26
85.44
80.81
76.82
73.68
71.05
68.06
63.6
56.69
46.98
34.86
21.36
7.81
-4.71
-15.67
-25.29
-34.34
-43.9
-54.99
-68.37
-84.22
-101.92
-119.79
-135.16
-144.76
-145.55
-135.71
-115.35
-86.61
-53.02
-18.55
13.52
41.15
63.54
80.78
93.26
101.43
105.68
106.51
104.61
100.85
96.15
91.23
86.52
82.12
77.92
73.79
69.75
65.94
62.5
59.34
56.04
51.91
46.18
38.45
28.83
17.98
6.82
-3.85
-13.63
-22.75
-31.92
-42.11
-54.14
-68.2
-83.45
-97.88
-108.56
-112.39
-107.1
-92.13
-68.89
-40.45
-10.52
17.53
41.46
60.26
73.87
82.68
87.2
87.97
85.61
80.9
74.73
68
61.41
55.43
50.25
45.89
42.29
39.34
36.86
34.58
32.05
28.73
24.06
17.7
9.65
0.31
-9.69
-19.73
-29.46
-38.94
-48.67
-59.41
-71.9
-86.47
-102.6
-118.58
-131.68
-138.66
-136.78
-124.72
-103.24
-74.93
-43.51
-12.62
15.05
38.14
56.38
70.07
79.57
85.15
87.08
85.9
82.47
77.87
73.13
68.91
65.33
62.1
58.73
54.91
50.65
46.32
42.4
39.11
36.23
33
28.45
21.79
12.8
1.98
-9.67
-21
-31.2
-40.12
-48.23
-56.47
-65.9
-77.37
-91.08
-106.31
-121.22
-133
-138.55
-135.37
-122.48
-100.93
-73.49
-43.77
-15.12
10.26
31.5
48.73
62.45
72.99
80.37
84.5
85.46
83.78
80.36
76.25
72.35
69.09
66.41
63.88
61.06
57.73
54.02
50.32
46.96
44.01
41.08
37.55
32.74
26.26
18.12
8.79
-1
-10.55
-19.31
-27.08
-34.03
-40.56
-47.25
-54.74
-63.58
-74.07
-85.89
-98.01
-108.49
-114.89
-114.88
-107.02
-91.38
-69.55
-44.23
-18.39
5.49
25.88
42.2
54.45
62.89
67.84
69.62
68.71
65.81
61.75
57.35
53.15
49.41
46.1
43.08
40.28
37.75
35.55
33.61
31.59
28.94
25.09
19.74
13
5.36
-2.48
-9.94
-16.8
-23.18
-29.55
-36.5
-44.61
-54.2
-65.15
-76.66
-87.12
-94.38
-96.13
-90.76
-77.92
-58.75
-35.64
-11.47
11.11
30.33
45.36
56.11
62.85
65.97
65.9
63.24
58.7
53.12
47.25
41.63
36.49
31.81
27.52
23.58
20.04
16.95
14.25
11.65
8.62
4.53
-1.19
-8.83
-18.25
-28.92
-40.06
-50.86
-60.78
-69.78
-78.35
-87.37
-97.75
-109.83
-122.96
-135.26
-143.96
-146.14
-139.75
-124.3
-101.22
-73.31
-43.91
-15.97
8.64
29.13
45.48
57.94
66.71
71.93
73.85
72.99
70.18
66.4
62.47
58.81
55.47
52.26
48.99
45.69
42.66
40.22
38.5
37.17
35.43
32.28
26.89
18.99
9.05
-1.92
-12.66
-22.26
-30.4
-37.45
-44.35
-52.21
-62.01
-74.22
-88.49
-103.39
-116.51
-124.84
-125.67
-117.45
-100.45
-76.71
-49.43
-21.9
3.39
25.12
43
57.17
67.82
74.99
78.76
79.5
77.91
74.92
71.38
67.83
64.43
61.02
57.42
53.53
49.52
45.68
42.33
39.52
36.92
33.85
29.48
23.15
14.69
4.56
-6.29
-16.76
-26.05
-33.91
-40.83
-47.77
-55.96
-66.34
-79.22
-93.9
-108.53
-120.39
-126.5
-124.5
-113.4
-94.01
-68.72
-40.79
-13.43
10.95
30.99
46.28
56.93
63.26
65.63
64.58
60.85
55.43
49.4
43.64
38.66
34.62
31.4
28.85
26.85
25.32
24.08
22.68
20.51
16.91
11.44
4.08
-4.73
-14.26
-23.77
-32.8
-41.3
-49.68
-58.71
-69.22
-81.69
-95.79
-110.09
-122.03
-128.51
-126.78
-115.38
-94.76
-67.21
-36.21
-5.38
22.43
45.57
63.5
76.34
84.45
88.22
88.15
85.03
79.98
74.33
69.23
65.34
62.65
60.55
58.24
55.16
51.21
46.81
42.56
38.87
35.6
32.04
27.18
20.08
10.42
-1.45
-14.53
-27.62
-39.76
-50.55
-60.25
-69.67
-79.88
-91.87
-106.17
-122.42
-139.12
-153.64
-162.72
-163.29
-153.48
-133.34
-104.89
-71.52
-36.99
-4.47
24.06
47.83
66.89
81.64
92.49
99.75
103.68
104.68
103.37
100.58
97.24
94.13
91.75
90.16
89.04
87.85
86.07
83.36
79.68
75.2
70.18
64.79
59.02
52.67
45.45
37.09
27.55
17.01
5.88
-5.37
-16.29
-26.73
-36.71
-46.5
-56.51
-67.29
-79.39
-93.2
-108.58
-124.45
-138.61
-147.99
-149.44
-140.74
-121.52
-93.57
-60.38
-26.04
5.93
33.32
55.38
72.41
85.08
93.96
99.39
101.63
101.13
98.63
95.07
91.39
88.28
86
84.5
83.45
82.49
81.26
79.48
76.97
73.67
69.58
64.78
59.41
53.54
47.16
40.18
32.42
23.81
14.4
4.47
-5.58
-15.3
-24.37
-32.75
-40.64
-48.5
-56.93
-66.63
-78.06
-91.13
-104.82
-117.06
-125.04
-125.92
-117.84
-100.64
-76.19
-47.71
-18.84
7.54
29.91
48.06
62.44
73.46
81.05
84.89
84.83
81.4
75.89
70
65.15
61.99
60.27
59.14
57.71
55.52
52.66
49.59
46.72
44.05
41.11
37.13
31.36
23.48
13.76
2.97
-7.87
-17.92
-26.8
-34.72
-42.32
-50.48
-60.05
-71.61
-85.16
-99.92
-114.11
-125.09
-129.91
-126.14
-112.74
-90.51
-62.05
-30.88
-0.56
26.28
48.24
65.03
76.98
84.6
88.35
88.61
85.98
81.26
75.47
69.71
64.77
61.05
58.42
56.39
54.32
51.73
48.45
44.68
40.79
36.99
33.18
28.8
23.1
15.43
5.64
-5.87
-18.22
-30.39
-41.6
-51.58
-60.49
-68.93
-77.64
-87.38
-98.82
-112.24
-127.21
-142.32
-155.07
-162.35
-161.21
-149.9
-128.53
-99.24
-65.57
-31.48
-0.24
26.25
47.45
63.8
76.1
85.02
90.94
94.04
94.56
92.96
89.93
86.3
82.8
79.9
77.75
76.17
74.86
73.42
71.55
69.01
65.69
61.54
56.58
50.87
44.44
37.31
29.47
20.92
11.79
2.29
-7.27
-16.62
-25.57
-34.12
-42.45
-50.95
-60.1
-70.47
-82.49
-96.19
-110.79
-124.5
-134.65
-138.25
-132.96
-117.9
-94.16
-64.51
-32.57
-1.81
25.3
47.58
64.9
77.7
86.48
91.63
93.47
92.47
89.37
85.14
80.8
77.16
74.6
73.08
72.21
71.51
70.56
69.12
67.17
64.77
61.96
58.72
54.84
50.06
44.09
36.85
28.49
19.45
10.36
1.82
-5.76
-12.28
-17.97
-23.3
-28.88
-35.34
-43.26
-53.03
-64.5
-76.71
-87.62
-94.48
-94.43
-85.59
-67.79
-42.87
-14.09
14.95
41.38
63.61
81.26
94.52
103.55
108.23
108.47
104.6
97.72
89.59
82.05
76.39
72.94
71.08
69.61
67.28
63.34
57.74
51.05
44.2
37.97
32.63
27.73
22.32
15.33
6.13
-5.15
-17.57
-29.74
-40.3
-48.46
-54.29
-58.7
-63.21
-69.46
-78.8
-91.9
-108.59
-127.89
-148.16
-167.34
-183.26
-193.97
-198.12
-195.23
-185.81
-171.07
-152.59
-131.79
-109.86
-87.77
-66.56
-47.42
-31.49
-19.47
-11.23
-5.8
-1.82
1.85
5.65
9.23
11.9
13.15
12.94
11.79
10.31
8.87
7.3
4.99
1.16
-4.73
-12.66
-22.07
-32
-41.47
-49.88
-57.25
-64.2
-71.82
-81.29
-93.43
-108.31
-124.84
-140.77
-153
-158.31
-154.28
-140.08
-116.78
-87.02
-54.3
-21.95
7.57
33.03
54.18
71.34
84.94
95.25
102.38
106.4
107.63
106.72
104.58
102.2
100.22
98.82
97.62
96.03
93.54
90.08
85.91
81.47
77
72.36
67.08
60.52
52.3
42.36
31.08
19.08
7.01
-4.61
-15.51
-25.75
-35.65
-45.83
-57.03
-70.02
-85.18
-102.19
-119.58
-134.78
-144.52
-145.74
-136.6
-117.15
-89.42
-56.8
-23.02
8.8
36.75
60.09
78.84
93.29
103.65
110.05
112.74
112.29
109.66
106.01
102.44
99.69
97.99
97.19
96.85
96.61
96.21
95.58
94.69
93.48
91.77
89.27
85.77
81.09
75.26
68.46
60.96
53.08
45.08
37.16
29.46
22.06
14.97
8.17
1.57
-4.92
-11.33
-17.57
-23.53
-29.04
-34.07
-38.74
-43.29
-48.11
-53.61
-60.18
-68.05
-76.99
-86.1
-93.56
-96.86
-93.32
-81.02
-59.6
-30.7
2.47
36
66.54
92.21
112.75
128.94
141.8
151.86
159
162.8
163.09
160.18
154.79
147.59
138.94
128.77
116.97
103.75
89.78
76.04
63.38
52.09
41.83
31.84
21.46
10.51
-0.65
-11.32
-20.98
-29.55
-37.57
-45.95
-55.53
-66.82
-79.77
-93.96
-108.97
-124.71
-141.7
-160.96
-183.6
-210.08
-239.59
-269.52
-295.66
-312.92
-316.65
-304.04
-275.21
-233.37
-184.11
-134.01
-88.97
-52.91
-27.16
-10.78
-1.34
4.11
8.14
12.58
18.36
25.61
33.8
41.92
48.79
53.3
54.78
53.22
49.23
43.7
37.41
30.7
23.44
15.29
6.04
-4.18
-14.85
-25.37
-35.36
-44.76
-54.01
-63.83
-75.15
-88.64
-104.4
-121.41
-137.33
-148.83
-152.35
-145.24
-126.75
-98.4
-63.55
-26.38
9.37
41.2
68.06
90.05
107.71
121.54
131.76
138.47
141.82
142.27
140.54
137.51
133.92
130.27
126.73
123.31
119.97
116.68
113.31
109.63
105.23
99.7
92.76
84.44
75.02
64.86
54.25
43.27
31.86
19.99
7.76
-4.53
-16.49
-27.82
-38.42
-48.48
-58.43
-68.87
-80.55
-94.04
-109.47
-126.04
-141.78
-153.74
-158.7
-154.15
-139.18
-114.78
-83.58
-49.02
-14.44
17.58
45.37
68.21
85.96
98.92
107.63
112.75
114.96
114.91
113.17
110.36
107.16
104.24
102.15
101.21
101.41
102.45
103.92
105.33
106.32
106.62
106.04
104.42
101.6
97.35
91.56
84.25
75.75
66.69
57.88
50.03
43.49
38.17
33.66
29.66
26.18
23.63
22.54
23.07
24.78
26.68
27.6
26.66
23.41
17.58
8.64
-4.42
-22.8
-47.02
-75.9
-106.25
-133.58
-153.6
-163.98
-165.25
-160.16
-152.23
-143.82
-135.23
-125.15
-112.04
-95.51
-76.84
-58.39
-42.3
-29.49
-19.43
-10.86
-2.83
4.64
10.56
13.58
12.79
8.16
0.63
-8.4
-17.53
-25.88
-33.26
-40.03
-46.84
-54.31
-62.93
-73.07
-85.07
-99.08
-114.72
-130.68
-144.49
-152.85
-152.56
-141.56
-119.85
-89.58
-54.43
-18.53
14.76
43.42
66.83
85.34
99.64
110.34
117.79
122.19
123.78
122.99
120.46
117
113.31
109.92
107.02
104.56
102.29
99.91
97.15
93.79
89.61
84.44
78.15
70.75
62.35
53.22
43.61
33.69
23.42
12.65
1.22
-10.88
-23.35
-35.73
-47.49
-58.31
-68.29
-78.01
-88.51
-100.89
-115.8
-132.77
-149.83
-163.66
-170.38
-166.78
-151.54
-125.74
-92.58
-56.34
-21.01
10.69
37.57
59.59
77.23
90.96
101.02
107.61
111.03
111.88
110.9
108.84
106.21
103.26
100.04
96.53
92.85
89.34
86.39
84.31
82.95
81.75
79.76
76
69.95
61.72
52.09
42.14
32.75
24.23
16.21
7.9
-1.42
-12.01
-23.52
-35.11
-45.9
-55.29
-63.3
-70.43
-77.64
-85.98
-96.39
-109.27
-124.13
-139.25
-151.75
-158.16
-155.41
-141.96
-118.46
-87.67
-53.65
-20.47
8.88
32.98
51.79
65.97
76.27
83.06
86.47
86.69
84.2
79.95
75.13
70.82
67.69
65.82
64.75
63.81
62.43
60.37
57.72
54.76
51.68
48.46
44.78
40.17
34.19
26.62
17.58
7.53
-2.87
-12.93
-22.19
-30.47
-38.02
-45.29
-52.95
-61.65
-71.97
-84.13
-97.76
-111.58
-123.35
-130.24
-129.49
-119.42
-100.13
-73.63
-43.27
-12.79
14.81
37.8
55.74
69.02
78.23
83.81
86.05
85.24
81.96
77.15
71.9
67.2
63.65
61.39
60.12
59.35
58.5
57.17
55.09
52.16
48.37
43.76
38.34
32.14
25.15
17.32
8.66
-0.82
-10.94
-21.46
-32
-42.23
-51.94
-61.09
-69.92
-78.92
-88.73
-100.02
-113.14
-127.82
-142.76
-155.6
-163.33
-163.02
-152.91
-133.03
-105.4
-73.37
-40.65
-10.2
16.22
38.15
55.92
70.1
81.12
89.21
94.51
97.21
97.71
96.53
94.25
91.35
88.16
84.88
81.62
78.44
75.42
72.57
69.79
66.82
63.29
58.77
52.97
45.86
37.62
28.6
19.12
9.38
-0.52
-10.57
-20.67
-30.62
-40.17
-49.12
-57.49
-65.59
-73.96
-83.34
-94.36
-107.29
-121.5
-135.33
-146.1
-150.72
-146.68
-132.98
-110.61
-82.32
-51.73
-22.26
3.78
25.41
42.74
56.31
66.71
74.26
79.09
81.36
81.36
79.6
76.71
73.35
70.06
67.2
64.88
63.02
61.38
59.69
57.71
55.23
52.11
48.21
43.47
37.87
31.47
24.4
16.84
8.96
0.9
-7.22
-15.28
-23.17
-30.76
-37.98
-44.81
-51.45
-58.25
-65.82
-74.71
-85.15
-96.6
-107.5
-115.48
-117.93
-112.89
-99.77
-79.69
-55.06
-28.88
-3.83
18.25
36.46
50.53
60.47
66.39
68.5
67.29
63.61
58.64
53.51
49.03
45.51
42.73
40.2
37.5
34.52
31.52
28.93
27
25.57
23.98
21.32
16.82
10.19
1.79
-7.55
-16.87
-25.43
-32.98
-39.8
-46.55
-54.04
-63.04
-74
-86.82
-100.56
-113.35
-122.63
-125.73
-120.73
-107.1
-86.04
-60.1
-32.41
-5.81
17.81
37.55
53.31
65.29
73.69
78.64
80.32
79.14
75.87
71.5
67.02
63.25
60.51
58.66
57.22
55.63
53.49
50.7
47.47
44.04
40.52
36.73
32.25
26.63
19.54
10.96
1.19
-9.29
-19.91
-30.2
-39.87
-48.88
-57.39
-65.84
-74.84
-85.09
-97.15
-111.09
-126.09
-140.32
-151.09
-155.52
-151.39
-137.89
-115.92
-87.88
-56.92
-26.1
2.3
26.99
47.56
64.18
77.23
87.1
94.08
98.4
100.3
100.06
98.08
94.89
91.08
87.22
83.8
81.01
78.87
77.12
75.37
73.14
70.01
65.65
59.98
53.09
45.2
36.63
27.6
18.23
8.51
-1.6
-12.09
-22.81
-33.45
-43.66
-53.14
-61.86
-70.13
-78.64
-88.32
-99.94
-113.71
-128.78
-143.13
-153.84
-157.86
-152.94
-138.39
-115.37
-86.5
-55.1
-24.25
3.8
27.86
47.59
63.2
75.11
83.79
89.67
93.11
94.46
94.06
92.25
89.45
86.13
82.78
79.84
77.56
76
74.96
74.08
72.84
70.7
67.22
62.2
55.73
48.23
40.24
32.26
24.5
16.82
8.92
0.51
-8.45
-17.68
-26.72
-35.16
-42.82
-49.89
-56.94
-64.73
-74.05
-85.31
-98.14
-111.17
-121.99
-127.73
-125.85
-115.12
-96.06
-70.85
-42.6
-14.41
11.38
33.51
51.56
65.55
75.52
81.5
83.58
82.2
78.18
72.72
67.06
62.22
58.73
56.57
55.3
54.32
53.12
51.45
49.31
46.82
44
40.69
36.47
30.86
23.55
14.6
4.48
-6.1
-16.37
-25.85
-34.42
-42.38
-50.25
-58.66
-68.18
-79.22
-91.85
-105.49
-118.72
-129.33
-134.65
-132.34
-121.19
-101.62
-75.69
-46.45
-17.08
9.87
32.93
51.63
66.12
76.8
84.04
88.19
89.59
88.72
86.21
82.76
79.03
75.48
72.37
69.73
67.49
65.48
63.54
61.44
58.9
55.6
51.26
45.76
39.18
31.82
23.99
15.88
7.47
-1.43
-11.03
-21.3
-31.94
-42.4
-52.21
-61.11
-69.34
-77.47
-86.34
-96.66
-108.77
-122.39
-136.39
-148.77
-156.92
-158.16
-150.54
-133.53
-108.43
-78.03
-45.83
-15.02
12.29
35.25
54.05
69.26
81.38
90.64
97.12
100.96
102.58
102.63
101.8
100.6
99.24
97.61
95.46
92.66
89.34
85.91
82.79
80.24
78.03
75.58
72.12
67.08
60.4
52.58
44.43
36.66
29.52
22.69
15.41
6.96
-2.93
-13.92
-25.11
-35.49
-44.37
-51.67
-57.97
-64.34
-71.99
-81.89
-94.42
-109.04
-124.09
-136.91
-144.39
-143.77
-133.61
-114.32
-88.15
-58.38
-28.46
-1.05
22.37
41.36
56.17
67.21
74.93
79.72
82.04
82.45
81.54
79.91
78
76.19
74.7
73.77
73.5
73.93
74.91
76.17
77.27
77.78
77.38
75.93
73.56
70.45
66.85
62.89
58.64
54.14
49.44
44.67
39.95
35.37
30.94
26.62
22.35
18.04
13.57
8.79
3.63
-1.81
-7.09
-11.39
-13.67
-13.07
-9.19
-2.34
6.48
15.85
24.26
30.49
33.8
34.08
31.8
27.97
23.87
20.76
19.56
20.48
22.84
25.21
25.6
22.04
13.01
-2.16
-23.1
-48.34
-75.43
-101.4
-123.29
-139.01
-147.96
-151.16
-150.99
-150.23
-151.13
-154.72
-160.65
-167.63
-174
-178.39
-179.93
-178.41
-174.19
-168.17
-161.73
-156.56
-154.32
-156.25
-162.56
-172.06
-182.1
-188.94
-188.75
-178.67
-157.87
-127.8
-91.79
-53.91
-17.77
14.25
41.3
63.56
81.74
96.43
108.01
116.66
122.45
125.63
126.53
125.64
123.55
120.83
117.99
115.4
113.23
111.4
109.65
107.57
104.66
100.49
94.77
87.46
78.81
69.25
59.22
48.99
38.56
27.72
16.26
4.12
-8.44
-20.92
-32.76
-43.57
-53.38
-62.66
-72.3
-83.31
-96.5
-111.98
-128.75
-144.64
-156.55
-161.22
-156.18
-140.63
-115.76
-84.47
-50.51
-17.48
12
36.64
56.23
71.28
82.44
90.27
95.19
97.58
97.92
96.83
94.96
92.86
90.88
89.12
87.51
85.92
84.19
82.23
79.94
77.22
73.87
69.74
64.69
58.69
51.89
44.46
36.61
28.4
19.81
10.68
0.98
-9.18
-19.5
-29.52
-38.84
-47.3
-55.16
-63.11
-72.11
-83.03
-96.11
-110.52
-124.21
-134.17
-137.28
-131.22
-115.31
-90.76
-60.37
-27.71
3.79
31.63
54.43
71.81
83.97
91.35
94.4
93.66
89.9
84.24
77.99
72.38
68.27
65.85
64.76
64.25
63.6
62.34
60.35
57.77
54.79
51.45
47.54
42.66
36.36
28.32
18.58
7.55
-4.04
-15.39
-25.9
-35.33
-43.94
-52.35
-61.42
-72
-84.68
-99.42
-115.29
-130.26
-141.43
-145.63
-140.38
-124.77
-99.95
-68.86
-35.35
-3.18
25
47.92
65.48
78.28
87
92.18
94.21
93.45
90.49
86.12
81.28
76.88
73.55
71.51
70.58
70.22
69.84
68.93
67.19
64.51
60.87
56.24
50.59
43.85
35.99
27.01
17
6.11
-5.44
-17.32
-29.13
-40.45
-50.99
-60.72
-69.97
-79.38
-89.86
-102.22
-116.89
-133.39
-149.99
-163.69
-170.8
-168.01
-153.57
-128.16
-94.77
-57.81
-21.66
10.61
37.73
59.92
78.09
92.99
104.85
113.58
119.19
122.18
123.43
123.96
124.39
124.76
124.64
123.46
120.98
117.46
113.55
109.94
106.95
104.35
101.49
97.62
92.23
85.33
77.33
68.93
60.8
53.4
46.89
41.16
35.85
30.54
24.86
18.75
12.45
6.52
1.52
-2.17
-4.6
-6.12
-7.15
-7.76
-7.49
-5.36
-0.19
8.88
22.01
38.51
56.97
75.7
93
107.48
118
123.62
123.6
117.48
105.25
87.44
65.03
39.21
11.15
-18.17
-47.74
-76.34
-102.35
-123.92
-139.48
-148.36
-151.17
-149.66
-146.18
-142.75
-140.48
-139.28
-138.22
-136.16
-132.46
-127.27
-121.49
-116.26
-112.38
-109.97
-108.48
-107
-104.82
-101.86
-98.76
-96.75
-97.1
-100.71
-107.79
-117.6
-128.61
-138.6
-145.01
-145.42
-138.08
-122.44
-99.37
-71.11
-40.64
-10.95
15.62
37.76
55.07
67.75
76.22
80.93
82.39
81.28
78.54
75.21
72.23
70.13
68.94
68.27
67.57
66.44
64.75
62.71
60.6
58.55
56.33
53.33
48.76
41.99
32.86
21.8
9.74
-2.25
-13.37
-23.34
-32.46
-41.42
-51.04
-62.04
-74.84
-89.39
-104.88
-119.64
-131.2
-136.77
-134.03
-121.96
-101.33
-74.54
-44.91
-15.7
10.72
33.13
51.33
65.66
76.51
84.13
88.66
90.3
89.45
86.79
83.19
79.47
76.26
73.82
72.02
70.46
68.62
66.14
62.87
58.96
54.6
49.94
44.85
38.99
31.96
23.43
13.42
2.29
-9.39
-20.99
-32.1
-42.55
-52.48
-62.22
-72.21
-83.01
-95.2
-109.15
-124.62
-140.42
-154.2
-162.93
-163.63
-154.42
-135.23
-107.89
-75.63
-42.03
-10.1
18.22
42.18
61.87
77.71
90.09
99.27
105.36
108.5
109
107.41
104.39
100.68
96.88
93.37
90.29
87.55
84.9
82.06
78.72
74.62
69.6
63.63
56.75
49.07
40.59
31.23
20.88
9.51
-2.65
-15.15
-27.38
-38.8
-49.17
-58.64
-67.71
-77.13
-87.69
-100.01
-114.26
-129.81
-145.08
-157.46
-163.91
-161.78
-149.72
-128.28
-99.78
-67.65
-35.33
-5.42
20.65
42.48
60.13
73.73
83.29
88.85
90.7
89.63
86.75
83.25
80.06
77.56
75.64
73.92
72.04
69.9
67.71
65.77
64.17
62.64
60.47
56.83
51.05
42.92
32.83
21.58
10.17
-0.6
-10.32
-19.13
-27.6
-36.61
-47.04
-59.59
-74.33
-90.5
-106.32
-119.11
-125.92
-124.25
-112.88
-92.38
-65.01
-34.04
-2.86
25.84
50.48
70.45
85.73
96.5
102.93
105.27
104.03
100.13
94.79
89.29
84.59
81.16
78.8
76.95
74.9
72.14
68.48
64.06
59.17
54.03
48.63
42.67
35.71
27.35
17.37
5.93
-6.5
-19.28
-31.78
-43.56
-54.5
-64.8
-74.98
-85.79
-98.05
-112.38
-128.78
-146.15
-162.21
-173.74
-177.42
-170.84
-153.33
-126.29
-92.8
-56.73
-21.72
9.6
35.83
56.75
72.86
85.03
94.05
100.52
104.73
106.79
106.83
105.09
102.04
98.29
94.41
90.78
87.54
84.61
81.77
78.75
75.3
71.19
66.24
60.36
53.51
45.72
36.98
27.27
16.55
4.97
-7.16
-19.3
-30.9
-41.59
-51.43
-60.84
-70.51
-81.21
-93.56
-107.77
-123.38
-139.03
-152.42
-160.6
-160.71
-150.87
-131
-103
-70.21
-36.43
-4.8
22.89
46.11
65.2
80.59
92.46
100.7
105.22
106.24
104.49
101.06
97.07
93.38
90.39
88.08
86.15
84.26
82.12
79.59
76.63
73.23
69.33
64.76
59.29
52.61
44.57
35.18
24.77
13.86
3.1
-7.04
-16.34
-24.93
-33.15
-41.46
-50.34
-60.27
-71.63
-84.52
-98.36
-111.71
-122.17
-126.94
-123.65
-111.21
-90.39
-63.6
-34.2
-5.46
20.24
41.65
58.51
71.08
79.63
84.41
85.63
83.8
79.75
74.67
69.72
65.75
63.07
61.43
60.23
58.86
56.93
54.42
51.49
48.38
45.11
41.47
37.03
31.32
23.99
15.04
4.75
-6.28
-17.36
-27.9
-37.58
-46.45
-54.83
-63.32
-72.57
-83.24
-95.8
-110.22
-125.72
-140.53
-152.06
-157.39
-154.14
-141.27
-119.5
-91.25
-59.89
-28.88
-0.86
22.77
41.73
56.5
67.75
76.06
81.76
85.03
86.08
85.22
82.93
79.77
76.29
72.97
70.1
67.78
65.91
64.18
62.19
59.52
55.88
51.14
45.4
38.85
31.73
24.22
16.34
8
-0.9
-10.44
-20.55
-30.99
-41.39
-51.38
-60.76
-69.62
-78.42
-87.91
-98.92
-111.95
-126.72
-141.87
-154.97
-163.01
-163.24
-154.02
-135.49
-109.53
-79.22
-47.97
-18.63
7.02
28.27
45.26
58.5
68.5
75.63
80.14
82.26
82.37
80.99
78.74
76.19
73.77
71.69
69.96
68.55
67.3
66.01
64.39
62.07
58.66
53.9
47.8
40.62
32.87
25
17.31
9.77
2.08
-6.03
-14.69
-23.69
-32.57
-40.83
-48.16
-54.73
-61.13
-68.3
-77.16
-88.26
-101.27
-114.83
-126.57
-133.63
-133.39
-124.38
-106.78
-82.48
-54.45
-25.94
0.39
22.92
41.03
54.77
64.47
70.46
73.03
72.63
69.94
65.86
61.47
57.69
55.09
53.69
53.04
52.44
51.27
49.3
46.71
43.9
41.13
38.24
34.64
29.58
22.56
13.65
3.51
-6.86
-16.59
-25.23
-32.88
-40.08
-47.64
-56.35
-66.91
-79.59
-94.03
-108.93
-122.03
-130.46
-131.55
-123.65
-106.79
-82.77
-54.65
-25.76
1.12
24.33
43.29
58.12
69.16
76.66
80.76
81.67
79.87
76.18
71.59
67.01
63.08
60.03
57.75
55.98
54.36
52.6
50.44
47.67
44.16
39.89
34.87
29.14
22.64
15.2
6.68
-2.94
-13.37
-24.04
-34.29
-43.63
-52.01
-59.83
-67.81
-76.75
-87.32
-99.9
-114.38
-129.93
-144.88
-156.65
-162.29
-159.26
-146.28
-124.02
-94.93
-62.57
-30.54
-1.5
23.2
43.4
59.55
72.22
81.81
88.54
92.63
94.44
94.49
93.34
91.46
89.18
86.68
84.1
81.6
79.34
77.42
75.75
74.06
71.9
68.82
64.51
58.97
52.47
45.43
38.19
30.89
23.36
15.28
6.37
-3.45
-13.91
-24.55
-34.79
-44.28
-53.08
-61.69
-71.02
-82.03
-95.31
-110.59
-126.43
-140.26
-148.97
-149.75
-141.11
-123.36
-98.65
-70.26
-41.61
-15.41
6.85
24.77
38.66
48.96
55.99
59.9
60.94
59.62
56.8
53.56
50.84
49.21
48.66
48.75
48.87
48.54
47.62
46.29
44.86
43.5
42.02
39.9
36.49
31.28
24.15
15.5
6.08
-3.21
-11.72
-19.24
-26.06
-32.8
-40.18
-48.86
-59.15
-71
-83.76
-96.06
-105.83
-110.64
-108.3
-97.6
-78.85
-53.87
-25.59
2.89
29.01
51.25
69.1
82.66
92.33
98.44
101.34
101.4
99.25
95.65
91.52
87.64
84.53
82.31
80.71
79.23
77.36
74.74
71.28
67.11
62.41
57.28
51.6
45.09
37.4
28.27
17.72
6.03
-6.29
-18.63
-30.5
-41.63
-52.04
-62
-72.04
-82.79
-94.92
-108.88
-124.55
-140.95
-155.96
-166.63
-169.88
-163.46
-146.88
-121.67
-90.97
-58.57
-27.73
-0.5
22.46
41.43
57.03
69.66
79.48
86.51
90.91
93.1
93.7
93.32
92.41
91.18
89.69
87.97
86.08
84.11
82.01
79.55
76.34
72.01
66.31
59.31
51.31
42.68
33.78
24.75
15.62
6.26
-3.35
-13.16
-22.98
-32.54
-41.6
-50.06
-58.08
-66.12
-74.92
-85.26
-97.69
-112
-126.94
-140.22
-148.9
-150.22
-142.48
-125.73
-101.74
-73.5
-44.34
-17.01
6.79
26.45
42.09
54.14
63.07
69.26
73.13
75.19
76.07
76.34
76.41
76.43
76.34
76.03
75.49
74.84
74.26
73.77
73.22
72.21
70.29
67.16
62.79
57.41
51.36
44.89
38.08
30.84
23.02
14.59
5.75
-3.1
-11.5
-19.05
-25.59
-31.34
-36.83
-42.92
-50.44
-59.88
-71
-82.53
-92.32
-97.73
-96.47
-87.33
-70.64
-48.2
-22.75
2.81
26.13
45.78
61.22
72.5
79.9
83.8
84.6
82.83
79.22
74.66
70.08
66.19
63.27
61.12
59.24
57.01
54.07
50.42
46.39
42.49
39.03
36.03
33.07
29.49
24.7
18.38
10.69
2.2
-6.33
-14.24
-21.18
-27.2
-32.65
-38.05
-43.97
-50.93
-59.36
-69.38
-80.5
-91.38
-99.81
-103.24
-99.52
-87.83
-69.06
-45.63
-20.71
2.72
22.7
38.49
50.32
58.91
64.89
68.65
70.34
70.07
68.19
65.3
62.16
59.49
57.82
57.28
57.71
58.78
60.14
61.54
62.85
64.05
65.15
66.26
67.44
68.7
69.84
70.49
70.19
68.55
65.53
61.48
57.2
53.62
51.53
51.12
51.84
52.31
50.68
45.16
34.59
18.89
-0.92
-23.04
-45.65
-67.62
-88.97
-110.85
-134.88
-162.15
-192.26
-223.03
-250.79
-271.4
-281.43
-279.08
-264.47
-239.48
-207.19
-171.24
-135.28
-102.53
-75.4
-55.05
-41.33
-32.9
-27.74
-23.74
-19.22
-13.24
-5.59
3.31
12.59
21.13
27.81
31.79
32.85
31.45
28.56
25.38
22.77
20.99
19.7
18.1
15.34
10.83
4.48
-3.33
-11.89
-20.35
-28.05
-34.68
-40.49
-46.21
-52.95
-61.83
-73.56
-87.96
-103.74
-118.53
-129.29
-133.14
-128.18
-114.14
-92.44
-65.81
-37.46
-10.22
14.04
34.54
51.35
64.96
75.83
84.18
90.07
93.51
94.69
94.08
92.39
90.42
88.82
87.93
87.75
87.97
88.19
88
87.09
85.25
82.37
78.44
73.54
67.75
61.24
54.09
46.36
38.1
29.34
20.13
10.59
0.85
-8.88
-18.4
-27.57
-36.49
-45.54
-55.43
-66.85
-80.01
-94.14
-107.29
-116.58
-119.08
-112.75
-97.31
-74.37
-46.92
-18.41
8.22
31.15
49.72
64.03
74.51
81.56
85.45
86.5
85.2
82.25
78.51
74.78
71.62
69.27
67.67
66.59
65.75
64.88
63.69
61.85
59.01
54.9
49.41
42.61
34.75
26.09
16.79
6.91
-3.54
-14.48
-25.69
-36.81
-47.51
-57.58
-67.04
-76.27
-85.86
-96.58
-109.08
-123.55
-139.33
-154.63
-166.67
-172.33
-168.94
-155.33
-132.25
-102.23
-68.81
-35.53
-5.02
21.33
43.24
61.07
75.33
86.37
94.43
99.76
102.72
103.79
103.53
102.4
100.7
98.61
96.22
93.62
90.95
88.33
85.74
82.99
79.72
75.42
69.73
62.52
54
44.64
34.93
25.22
15.52
5.62
-4.8
-15.86
-27.39
-38.97
-50.11
-60.51
-70.2
-79.61
-89.43
-100.44
-113.31
-128.14
-144.21
-159.75
-172.01
-177.78
-174.33
-160.25
-136.05
-104.15
-68.24
-32.26
0.52
28.06
49.73
66.05
78.14
87.3
94.55
100.46
105.15
108.44
110.1
110.08
108.6
106.14
103.29
100.67
98.77
97.8
97.61
97.65
97.09
95.29
92.22
88.91
87.21
89.23
96.15
107.34
120.02
129.82
132.14
123.75
103.96
74.86
40.58
5.88
-25.25
-50.57
-69.83
-84.44
-96.74
-109.14
-123.38
-139.79
-156.91
-171.61
-179.9
-178.27
-165.07
-141.26
-110.2
-76.43
-44.16
-16.17
6.49
23.97
36.8
45.41
50.08
51.24
49.84
47.25
44.89
43.73
43.92
44.91
45.8
45.79
44.6
42.47
40
37.78
36.09
34.69
32.93
29.94
25.02
17.85
8.64
-1.91
-12.87
-23.43
-33.09
-41.8
-49.94
-58.18
-67.23
-77.8
-90.27
-104.58
-119.82
-134.14
-144.84
-149
-144.3
-129.92
-106.93
-78.1
-47.04
-17.19
9.1
30.8
47.97
61.17
70.94
77.55
81.09
81.79
80.16
77.05
73.44
70.17
67.72
66.14
65.12
64.21
62.99
61.18
58.65
55.37
51.35
46.51
40.75
33.92
25.94
16.83
6.74
-4.08
-15.34
-26.74
-38.04
-49.04
-59.61
-69.78
-79.79
-90.18
-101.69
-114.97
-130.18
-146.45
-161.69
-172.87
-176.71
-170.81
-154.47
-129.05
-97.54
-63.63
-30.68
-0.98
24.43
45.46
62.52
76.06
86.46
93.99
98.89
101.43
101.9
100.68
98.21
95.01
91.59
88.44
85.79
83.65
81.79
79.81
77.24
73.67
68.83
62.63
55.24
46.99
38.24
29.27
20.12
10.62
0.49
-10.43
-22.01
-33.84
-45.37
-56.16
-66.13
-75.66
-85.52
-96.64
-109.66
-124.54
-140.1
-154.07
-163.34
-164.88
-156.64
-138.36
-111.75
-80.04
-47.01
-15.94
11.1
33.39
51.18
65.07
75.6
83.07
87.66
89.66
89.57
88.13
86.06
83.96
82.15
80.72
79.56
78.49
77.34
75.93
74.12
71.77
68.76
64.93
60.1
54.02
46.5
37.45
27.08
15.85
4.48
-6.37
-16.25
-25.12
-33.35
-41.62
-50.62
-61.02
-73.1
-86.66
-100.72
-113.47
-122.46
-125.13
-119.56
-105.15
-82.98
-55.58
-26.21
2.02
26.9
47.37
63.34
75.18
83.29
87.86
89.05
87.2
83.04
77.68
72.35
68.08
65.31
63.89
63.16
62.34
60.85
58.41
55.12
51.23
46.99
42.44
37.37
31.38
24.04
15.1
4.66
-6.79
-18.52
-29.81
-40.19
-49.66
-58.57
-67.66
-77.69
-89.37
-103.01
-118.28
-133.95
-147.83
-157.07
-158.83
-151.17
-133.74
-108.1
-77.24
-44.79
-13.97
13.12
35.64
53.78
68.14
79.33
87.66
93.24
96.15
96.66
95.28
92.7
89.62
86.59
83.94
81.76
80
78.46
76.88
74.9
72.17
68.39
63.41
57.26
50.16
42.37
34.05
25.25
15.83
5.67
-5.24
-16.69
-28.25
-39.42
-49.84
-59.44
-68.59
-78.01
-88.59
-101.11
-115.73
-131.77
-147.31
-159.56
-165.32
-161.99
-148.46
-125.6
-96.08
-63.57
-31.68
-3.01
21.15
40.67
56.08
68
76.88
83.02
86.68
88.24
88.2
87.09
85.35
83.32
81.17
79.04
77.03
75.21
73.55
71.85
69.74
66.78
62.66
57.27
50.79
43.54
35.82
27.72
19.17
10.01
0.17
-10.13
-20.53
-30.57
-39.91
-48.46
-56.39
-64.11
-72.23
-81.46
-92.39
-105.13
-118.89
-131.84
-141.2
-144.01
-138.09
-122.88
-99.76
-71.66
-42.17
-14.4
9.69
29.42
44.98
56.81
65.18
70.11
71.63
70.11
66.44
61.9
57.72
54.75
53.15
52.48
52.01
51.08
49.47
47.33
45.06
42.96
40.95
38.56
35.02
29.71
22.38
13.4
3.61
-5.98
-14.56
-21.85
-28.16
-34.26
-41.12
-49.65
-60.34
-73.02
-86.66
-99.33
-108.46
-111.51
-106.57
-93.13
-72.24
-46.34
-18.51
8.32
32.02
51.53
66.67
77.7
85.01
88.86
89.47
87.18
82.66
76.87
70.92
65.73
61.77
58.96
56.77
54.51
51.61
47.86
43.4
38.6
33.83
29.19
24.51
19.28
12.98
5.29
-3.72
-13.54
-23.46
-32.87
-41.55
-49.72
-57.95
-66.9
-77.12
-88.96
-102.53
-117.42
-132.55
-145.92
-154.88
-156.7
-149.45
-132.9
-108.64
-79.69
-49.58
-21.25
3.48
24.1
40.91
54.52
65.45
73.91
79.96
83.59
85
84.6
82.96
80.77
78.59
76.77
75.38
74.26
73.06
71.43
69.09
65.89
61.81
56.91
51.24
44.85
37.7
29.7
20.78
10.97
0.44
-10.51
-21.52
-32.29
-42.67
-52.72
-62.69
-72.99
-84.11
-96.51
-110.32
-125.03
-139.19
-150.42
-155.92
-153.32
-141.53
-121.3
-95.06
-66.21
-38.05
-12.93
8.07
25
38.4
48.82
56.52
61.53
63.88
63.9
62.26
59.87
57.6
55.99
55.17
54.85
54.57
53.89
52.62
50.8
48.65
46.33
43.89
41.1
37.59
32.96
26.92
19.49
11.01
2.04
-6.77
-14.92
-22.24
-28.9
-35.34
-42.2
-50.08
-59.43
-70.31
-82.16
-93.7
-102.94
-107.59
-105.73
-96.39
-80.01
-58.32
-33.89
-9.29
13.41
33
49
61.37
70.19
75.54
77.63
76.88
74.03
70.06
66.03
62.78
60.8
60.1
60.33
60.85
61.04
60.43
58.86
56.44
53.42
50.03
46.26
41.86
36.39
29.51
21.14
11.6
1.54
-8.38
-17.69
-26.36
-34.7
-43.22
-52.49
-62.98
-74.96
-88.42
-102.74
-116.51
-127.5
-133.03
-130.76
-119.57
-100.07
-74.58
-46.4
-18.74
6.11
27.13
44.35
58.23
69.23
77.48
83.03
86
86.79
86.09
84.58
82.82
81.07
79.41
77.85
76.41
75.1
73.86
72.43
70.43
67.44
63.21
57.72
51.2
44.01
36.41
28.51
20.2
11.31
1.76
-8.37
-18.81
-29.11
-38.92
-48.04
-56.65
-65.21
-74.51
-85.36
-98.3
-113.13
-128.61
-142.47
-151.77
-153.75
-146.7
-130.65
-107.35
-79.8
-51.29
-24.53
-1.09
18.5
34.48
47.29
57.29
64.73
69.79
72.79
74.13
74.3
73.68
72.54
70.96
68.99
66.74
64.41
62.28
60.51
59.06
57.58
55.55
52.44
47.94
42.1
35.31
28.12
21.03
14.25
7.63
0.83
-6.52
-14.56
-23.1
-31.66
-39.7
-46.83
-53.05
-58.82
-64.96
-72.38
-81.74
-92.99
-105.08
-115.99
-123.05
-123.74
-116.47
-101.18
-79.41
-53.85
-27.51
-2.9
18.42
35.88
49.6
59.89
67.02
71.14
72.49
71.55
69.11
66.17
63.66
62.12
61.61
61.73
61.82
61.37
60.14
58.29
56.13
53.88
51.49
48.58
44.59
39.03
31.73
22.95
13.26
3.38
-6.1
-14.89
-23.1
-31.11
-39.45
-48.69
-59.26
-71.28
-84.3
-97.19
-108.04
-114.58
-114.63
-106.94
-91.62
-70.27
-45.54
-20.35
2.9
22.76
38.81
51.27
60.6
67.17
71.19
72.85
72.5
70.73
68.26
65.81
63.82
62.43
61.48
60.72
59.87
58.76
57.3
55.39
52.89
49.64
45.53
40.55
34.78
28.34
21.29
13.59
5.17
-3.94
-13.59
-23.4
-32.96
-41.92
-50.22
-58.1
-66.08
-74.83
-84.99
-96.8
-109.83
-122.73
-133.3
-138.93
-137.35
-127.49
-109.87
-86.54
-60.4
-34.29
-10.3
10.65
28.51
43.68
56.55
67.28
75.83
82.07
86.03
87.89
88.02
86.91
85.07
83
81.14
79.81
79.21
79.35
80.03
80.87
81.32
80.8
78.89
75.44
70.63
64.93
58.91
52.99
47.27
41.51
35.3
28.27
20.28
11.57
2.65
-5.89
-13.6
-20.3
-26.18
-31.74
-37.7
-44.78
-53.4
-63.44
-73.9
-82.97
-88.37
-87.95
-80.43
-65.9
-45.84
-22.7
0.81
22.46
40.91
55.75
67.25
75.89
82.07
86.05
87.99
88.17
87.05
85.28
83.5
82.19
81.5
81.29
81.25
81.11
80.75
80.2
79.54
78.72
77.52
75.5
72.16
67.1
60.2
51.64
41.85
31.47
21.21
11.7
3.35
-3.63
-9.32
-13.97
-17.92
-21.53
-25.18
-29.32
-34.56
-41.68
-51.52
-64.8
-81.96
-103.02
-127.59
-154.75
-182.91
-209.82
-232.61
-248.23
-254.06
-248.63
-231.95
-205.68
-172.8
-137.03
-102.14
-71.26
-46.37
-28.07
-15.67
-7.59
-1.99
2.76
7.68
13.13
18.96
24.7
29.77
33.61
35.75
36
34.45
31.48
27.57
23.18
18.5
13.52
8
1.71
-5.5
-13.55
-22.16
-30.92
-39.39
-47.33
-54.81
-62.28
-70.54
-80.41
-92.31
-105.8
-119.28
-130.21
-135.71
-133.5
-122.65
-103.98
-79.73
-52.88
-26.23
-1.75
19.53
37.38
51.91
63.34
71.88
77.83
81.63
83.85
85.01
85.48
85.39
84.72
83.46
81.75
79.92
78.38
77.47
77.23
77.32
77.08
75.69
72.46
67.08
59.78
51.2
42.22
33.55
25.46
17.75
9.88
1.36
-8.03
-18.02
-28.1
-37.7
-46.51
-54.65
-62.6
-71.17
-81.21
-93.33
-107.57
-123.03
-137.75
-148.95
-153.68
-149.74
-136.45
-114.99
-88.01
-58.79
-30.28
-4.43
17.93
36.77
52.37
64.96
74.65
81.51
85.77
87.87
88.37
87.84
86.72
85.3
83.71
82.07
80.49
79.11
78.1
77.46
77.06
76.47
75.09
72.31
67.71
61.26
53.4
44.9
36.54
28.87
21.94
15.35
8.44
0.56
-8.49
-18.46
-28.65
-38.22
-46.59
-53.69
-60.03
-66.53
-74.28
-84.12
-96.36
-110.56
-125.31
-138.27
-146.57
-147.44
-139.07
-121.32
-95.92
-66.02
-35.26
-6.79
17.43
36.75
51.48
62.3
69.84
74.56
76.83
77.06
75.86
73.88
71.74
69.83
68.35
67.28
66.55
66.04
65.61
65.04
64.06
62.34
59.69
56.03
51.51
46.34
40.67
34.53
27.82
20.4
12.32
3.79
-4.79
-13.03
-20.71
-27.84
-34.73
-41.85
-49.75
-58.91
-69.61
-81.63
-94
-104.91
-111.96
-112.7
-105.51
-90.21
-68.32
-42.62
-16.31
7.95
28.6
45.22
58.15
67.87
74.66
78.59
79.68
78.24
74.95
70.8
66.77
63.58
61.52
60.48
60.11
59.93
59.51
58.49
56.59
53.67
49.68
44.69
38.84
32.34
25.34
17.93
10.13
1.9
-6.78
-15.81
-25.05
-34.24
-43.14
-51.59
-59.65
-67.68
-76.33
-86.31
-98.08
-111.37
-124.86
-136.22
-142.58
-141.36
-131.15
-112.25
-86.68
-57.54
-28.13
-1.05
22.24
41.35
56.58
68.42
77.3
83.49
87.31
89.17
89.65
89.26
88.31
86.88
84.9
82.37
79.54
76.88
74.83
73.56
72.74
71.61
69.23
64.89
58.39
50.1
40.79
31.24
21.94
12.93
3.87
-5.67
-15.92
-26.73
-37.6
-47.94
-57.3
-65.66
-73.39
-81.25
-90.11
-100.79
-113.63
-128.21
-143.06
-155.7
-163.08
-162.5
-152.45
-133.29
-107.17
-77.37
-47.27
-19.45
4.75
25.13
42.12
56.28
67.99
77.32
84.25
88.87
91.42
92.35
92.18
91.33
90.01
88.28
86.11
83.59
80.93
78.46
76.43
74.82
73.24
71.02
67.47
62.09
54.8
46.03
36.55
27.23
18.75
11.37
4.82
-1.57
-8.51
-16.49
-25.46
-34.91
-44.1
-52.45
-59.82
-66.68
-73.85
-82.34
-92.9
-105.78
-120.41
-135.29
-148.13
-156.13
-156.8
-148.61
-131.64
-107.63
-79.48
-50.39
-23.08
0.8
20.68
36.77
49.64
59.83
67.74
73.61
77.63
80.01
81.05
81.07
80.37
79.22
77.81
76.31
74.87
73.66
72.8
72.28
71.85
71.02
69.15
65.65
60.29
53.3
45.34
37.26
29.69
22.88
16.51
10.01
2.85
-5.13
-13.66
-22.15
-30.02
-37.01
-43.27
-49.38
-56.14
-64.33
-74.44
-86.31
-98.84
-110
-117.16
-117.81
-110.42
-95.07
-73.49
-48.54
-23.31
-0.21
19.39
35.14
47.28
56.12
61.9
64.77
65.02
63.27
60.37
57.26
54.69
53.04
52.28
52.07
51.99
51.67
50.89
49.55
47.67
45.3
42.42
38.94
34.68
29.36
22.79
14.92
6.02
-3.39
-12.69
-21.31
-29
-35.88
-42.4
-49.2
-57
-66.45
-77.96
-91.51
-106.31
-120.64
-132.03
-137.71
-135.48
-124.45
-105.43
-80.73
-53.41
-26.5
-2.15
18.5
35.26
48.43
58.45
65.65
70.3
72.65
73.11
72.22
70.57
68.71
66.98
65.53
64.4
63.57
62.99
62.56
62.06
61.1
59.22
56.05
51.45
45.59
38.86
31.61
24.06
16.1
7.49
-1.97
-12.26
-23.06
-33.89
-44.24
-53.82
-62.66
-71.15
-79.97
-89.95
-101.73
-115.4
-130.04
-143.64
-153.43
-156.57
-151.11
-136.73
-114.89
-88.35
-60.29
-33.41
-9.38
11.18
28.4
42.72
54.58
64.27
71.92
77.63
81.49
83.62
84.25
83.7
82.35
80.6
78.8
77.13
75.63
74.2
72.63
70.64
67.97
64.38
59.72
54.01
47.36
39.96
31.98
23.5
14.57
5.26
-4.26
-13.72
-22.82
-31.33
-39.27
-46.89
-54.67
-63.26
-73.22
-84.93
-98.14
-111.8
-123.91
-131.85
-133.07
-125.95
-110.47
-88.37
-62.57
-36.27
-11.96
9.02
26.46
40.75
52.29
61.24
67.47
70.9
71.73
70.54
68.23
65.67
63.49
61.86
60.62
59.39
57.88
56.02
53.98
51.99
50.17
48.27
45.73
41.86
36.08
28.27
18.8
8.46
-1.87
-11.54
-20.35
-28.55
-36.73
-45.57
-55.66
-67.37
-80.63
-94.7
-108.11
-118.63
-123.82
-121.59
-111.01
-92.69
-68.74
-42.11
-15.81
7.93
27.98
44.26
57.33
67.83
76.17
82.43
86.49
88.33
88.17
86.55
84.16
81.62
79.29
77.23
75.32
73.35
71.17
68.69
65.81
62.41
58.32
53.39
47.57
40.89
33.49
25.51
17.05
8.17
-1.08
-10.63
-20.35
-30.07
-39.62
-48.98
-58.31
-68
-78.63
-90.74
-104.44
-119.02
-132.75
-143.02
-147.07
-142.78
-129.55
-108.54
-82.27
-53.9
-26.26
-1.24
20.37
38.57
53.76
66.34
76.56
84.51
90.29
94.05
96.08
96.69
96.19
94.84
92.77
90.14
87.14
84.09
81.38
79.33
78.03
77.14
75.98
73.68
69.5
63.21
55.16
46.22
37.37
29.3
22.11
15.32
8.15
-0.1
-9.65
-20.15
-30.9
-41.08
-50.14
-58.02
-65.06
-72
-79.73
-89.11
-100.64
-114.09
-128.21
-140.71
-148.73
-149.61
-141.78
-125.36
-102.22
-75.34
-47.92
-22.56
-0.7
17.26
31.69
43.22
52.38
59.5
64.73
68.09
69.67
69.61
68.19
65.83
62.98
60.12
57.67
55.86
54.76
54.2
53.79
53.03
51.42
48.61
44.51
39.24
33.1
26.33
19.11
11.49
3.52
-4.71
-13.01
-21.12
-28.81
-35.96
-42.62
-49.01
-55.56
-62.8
-71.26
-81.18
-92.17
-103.01
-111.64
-115.67
-113.1
-102.97
-85.91
-63.86
-39.64
-16.01
4.92
22.09
35.34
45.06
51.79
55.93
57.78
57.59
55.82
53.1
50.23
47.89
46.5
46.03
46.1
46.13
45.61
44.26
42.04
39.15
35.85
32.32
28.55
24.34
19.38
13.34
6.09
-2.26
-11.34
-20.65
-29.71
-38.22
-46.14
-53.68
-61.22
-69.33
-78.64
-89.65
-102.39
-116.08
-128.94
-138.39
-141.73
-137.01
-123.69
-102.99
-77.44
-50.14
-23.89
-0.59
18.93
34.68
47.17
56.96
64.51
70.1
73.87
76
76.68
76.24
75.07
73.54
71.96
70.46
69.09
67.73
66.27
64.54
62.4
59.72
56.39
52.33
47.43
41.64
34.91
27.26
18.78
9.68
0.24
-9.19
-18.32
-26.95
-35.09
-42.97
-51.02
-59.85
-70.05
-82
-95.52
-109.53
-122.03
-130.42
-132.14
-125.57
-110.64
-88.94
-63.26
-36.69
-11.82
9.8
27.61
41.77
52.71
60.85
66.54
70.08
71.83
72.1
71.31
69.77
67.8
65.66
63.55
61.59
59.79
58.07
56.3
54.37
52.19
49.69
46.79
43.34
39.1
33.85
27.38
19.71
11.11
2.05
-6.89
-15.25
-22.83
-29.76
-36.45
-43.46
-51.31
-60.4
-70.78
-82.01
-93.03
-102.17
-107.34
-106.64
-98.92
-84.28
-64.12
-40.78
-16.89
5.34
24.42
39.67
50.98
58.52
62.61
63.66
62.27
59.21
55.34
51.4
47.87
44.93
42.49
40.39
38.55
37.02
35.93
35.3
34.89
34.13
32.32
28.81
23.3
15.97
7.39
-1.62
-10.3
-18.18
-25.24
-31.91
-38.99
-47.39
-57.73
-70
-83.19
-95.31
-103.78
-106.13
-100.83
-87.81
-68.58
-45.68
-21.98
0.16
19.29
34.86
46.86
55.5
60.93
63.28
62.86
60.33
56.64
52.78
49.47
46.91
44.81
42.61
39.89
36.63
33.22
30.19
27.83
25.95
23.84
20.57
15.39
8.11
-0.87
-10.73
-20.58
-29.76
-38.14
-46.04
-54.1
-63.1
-73.68
-86.11
-100.01
-114.12
-126.34
-134.03
-134.73
-126.96
-110.85
-88.13
-61.7
-34.64
-9.4
12.66
31.17
46.3
58.26
67.17
73.09
76.26
77.2
76.66
75.32
73.63
71.69
69.39
66.61
63.38
59.94
56.66
53.82
51.48
49.35
46.86
43.28
37.99
30.7
21.65
11.51
1.24
-8.31
-16.71
-24.13
-31.31
-39.3
-49.08
-61.09
-74.84
-88.78
-100.52
-107.35
-107.05
-98.61
-82.64
-61.12
-36.88
-12.72
9.25
27.89
42.93
54.55
63.08
68.8
71.97
72.96
72.23
70.33
67.72
64.78
61.71
58.6
55.55
52.65
49.94
47.4
44.84
41.98
38.5
34.12
28.7
22.3
15.15
7.59
0
-7.44
-14.8
-22.5
-31.18
-41.34
-53.02
-65.35
-76.48
-83.93
-85.33
-79.21
-65.69
-46.47
-24.39
-2.47
16.91
32.44
43.9
51.61
56.04
57.44
55.97
51.9
45.85
38.82
31.9
25.98
21.51
18.39
16.17
14.25
12.12
9.45
6.05
1.94
-2.79
-7.94
-13.33
-18.83
-24.43
-30.3
-36.78
-44.32
-53.35
-64.03
-76.03
-88.16
-98.47
-104.53
-104.12
-96.06
-80.73
-60.01
-36.79
-13.99
6.18
22.57
35.01
43.77
49.23
51.57
50.94
47.64
42.36
36.13
30.1
25.25
22.03
20.29
19.39
18.47
16.78
13.94
9.96
5.1
-0.36
-6.23
-12.48
-19.18
-26.44
-34.45
-43.51
-53.98
-66.08
-79.46
-92.88
-104.16
-110.61
-109.85
-100.7
-83.69
-60.95
-35.57
-10.61
11.65
30.06
44.48
55.32
63.05
67.98
70.22
69.92
67.41
63.3
58.42
53.57
49.31
45.84
42.96
40.22
37.15
33.41
28.9
23.69
17.91
11.69
5.03
-2.16
-10.08
-18.94
-29.03
-40.62
-53.87
-68.58
-83.88
-98.09
-108.87
-113.73
-110.77
-99.36
-80.42
-56.2
-29.69
-3.74
19.51
38.94
54.3
65.84
74.04
79.33
82.13
82.81
81.8
79.55
76.45
72.84
68.96
64.99
61.09
57.37
53.85
50.38
46.64
42.22
36.77
30.12
22.39
13.91
5.1
-3.67
-12.25
-20.79
-29.76
-39.79
-51.48
-64.9
-79.27
-92.73
-102.61
-106.13
-101.32
-87.74
-66.74
-41.02
-13.77
12.27
35.33
54.66
70.17
81.97
90.17
94.86
96.35
95.29
92.6
89.24
85.86
82.69
79.52
75.99
71.85
67.17
62.37
57.94
54.16
50.91
47.57
43.33
37.47
29.69
20.28
10.02
-0.17
-9.5
-17.68
-24.97
-32.12
-40.11
-49.81
-61.64
-75.21
-89.15
-101.19
-108.63
-109.09
-101.21
-85.26
-63.08
-37.56
-11.78
11.75
31.53
47.03
58.34
65.84
69.93
71.04
69.73
66.72
62.82
58.75
55.03
51.84
49.16
46.86
44.82
42.99
41.31
39.61
37.6
34.88
31.09
26.05
19.83
12.78
5.36
-2.01
-9.12
-16.1
-23.42
-31.71
-41.46
-52.59
-64.15
-74.27
-80.58
-80.86
-73.87
-59.84
-40.5
-18.53
3.18
22.38
37.79
49.11
56.61
60.75
61.86
60.18
56.04
50.07
43.19
36.48
30.88
26.93
24.63
23.57
23.04
22.38
21.09
18.89
15.73
11.68
6.89
1.56
-4.16
-10.15
-16.38
-22.95
-30.09
-38.02
-46.82
-56.09
-64.78
-71.24
-73.62
-70.46
-61.25
-46.75
-28.81
-9.77
8.15
23.36
35.06
43.1
47.64
48.94
47.34
43.29
37.48
30.8
24.22
18.56
14.32
11.54
9.92
8.96
8.13
7.04
5.48
3.43
0.92
-1.95
-5.08
-8.44
-12.05
-16.03
-20.56
-25.91
-32.3
-39.8
-48.08
-56.34
-63.21
-67.05
-66.39
-60.4
-49.32
-34.46
-17.83
-1.51
12.84
24.31
32.6
37.73
39.75
38.74
34.96
29.02
21.99
15.11
9.51
5.84
4.11
3.76
3.92
3.77
2.75
0.76
-1.95
-4.94
-7.88
-10.67
-13.48
-16.7
-20.7
-25.82
-32.18
-39.72
-48.03
-56.26
-63.1
-66.97
-66.41
-60.62
-49.85
-35.37
-19.11
-3.08
11.22
22.93
31.72
37.53
40.28
39.92
36.62
30.94
23.86
16.61
10.29
5.55
2.46
0.57
-0.79
-2.32
-4.47
-7.41
-10.98
-14.92
-18.93
-22.88
-26.85
-31.17
-36.31
-42.74
-50.76
-60.28
-70.66
-80.67
-88.54
-92.37
-90.64
-82.69
-68.96
-50.96
-30.83
-10.78
7.38
22.5
34.06
42
46.55
48.04
46.94
43.77
39.12
33.66
28.08
23.01
18.92
15.96
13.93
12.31
10.46
7.84
4.2
-0.37
-5.63
-11.22
-16.97
-22.88
-29.08
-35.85
-43.47
-52.26
-62.4
-73.81
-85.83
-97.07
-105.57
-109.13
-106.07
-95.77
-79.03
-57.88
-34.96
-12.84
6.61
22.42
34.38
42.75
47.99
50.57
51.01
49.77
47.34
44.08
40.29
36.18
31.98
27.97
24.46
21.66
19.53
17.73
15.75
13.07
9.35
4.55
-1.18
-7.56
-14.37
-21.46
-28.83
-36.58
-44.93
-54.23
-64.73
-76.31
-88.17
-98.71
-105.74
-107
-100.92
-87.26
-67.19
-43.11
-17.91
5.74
25.95
41.78
53.18
60.63
64.82
66.41
65.93
63.84
60.55
56.55
52.29
48.18
44.48
41.28
38.54
36.13
33.89
31.61
29.06
25.94
21.9
16.66
10.12
2.43
-6.01
-14.66
-23.03
-30.91
-38.49
-46.32
-55.17
-65.53
-77.22
-89.02
-98.7
-103.66
-101.69
-91.87
-74.92
-53.03
-29.12
-6
14.31
30.76
43.08
51.42
56.1
57.47
56.05
52.54
47.87
43.02
38.84
35.88
34.36
34.12
34.72
35.59
36.1
35.69
33.98
30.81
26.25
20.58
14.15
7.31
0.28
-6.89
-14.36
-22.46
-31.64
-42.29
-54.39
-67.23
-79.23
-88.08
-91.31
-87.07
-74.85
-55.74
-32.18
-7.26
16.2
36.16
51.64
62.51
69.12
71.97
71.61
68.63
63.78
57.91
51.86
46.35
41.82
38.41
36.02
34.4
33.2
32.01
30.36
27.74
23.73
18.1
10.89
2.45
-6.71
-16.04
-25.21
-34.19
-43.34
-53.27
-64.69
-77.95
-92.61
-107.21
-119.32
-126.02
-124.78
-114.22
-94.68
-68.2
-37.88
-7.1
21.37
45.8
65.54
80.7
91.67
98.85
102.54
103.11
101.16
97.62
93.56
89.94
87.28
85.5
84.1
82.39
79.98
76.79
73.16
69.46
65.88
62.22
57.9
52.26
44.81
35.49
24.73
13.32
2.16
-8.05
-17
-24.92
-32.43
-40.38
-49.67
-60.91
-74.17
-88.67
-102.68
-113.63
-118.7
-115.58
-103.25
-82.48
-55.61
-25.93
3.29
29.61
51.74
69.46
83.13
93.25
100.14
104.04
105.19
104.06
101.34
97.87
94.33
91.16
88.38
85.77
83.04
80.09
77.03
74.13
71.6
69.4
67.12
64.18
59.97
54.19
46.96
38.84
30.61
22.97
16.29
10.45
4.96
-0.85
-7.5
-15.19
-23.68
-32.43
-40.79
-48.28
-54.78
-60.58
-66.33
-72.87
-80.98
-91.08
-102.92
-115.31
-126.2
-132.95
-133.08
-124.99
-108.6
-85.43
-58.27
-30.35
-4.48
17.5
34.86
47.71
56.52
61.8
63.93
63.33
60.63
56.75
52.8
49.76
48.18
48.04
48.82
49.76
50.22
49.87
48.73
47.04
44.99
42.58
39.55
35.48
30.01
22.97
14.59
5.4
-3.9
-12.67
-20.51
-27.39
-33.66
-39.89
-46.81
-55.09
-65.06
-76.53
-88.48
-99.08
-106.01
-107.02
-100.7
-86.94
-67.07
-43.51
-19.03
3.91
23.68
39.54
51.47
59.83
65.08
67.59
67.73
65.96
62.91
59.34
56.03
53.52
52.02
51.28
50.82
50.16
48.96
47.16
44.85
42.09
38.84
34.91
30.08
24.24
17.47
9.96
2
-6.18
-14.47
-22.77
-30.97
-38.94
-46.59
-53.97
-61.37
-69.32
-78.43
-89.08
-101.04
-113.18
-123.52
-129.57
-129.06
-120.68
-104.61
-82.51
-57.05
-31.11
-7.05
13.79
30.93
44.53
54.96
62.51
67.46
70.13
70.96
70.49
69.24
67.56
65.59
63.35
60.86
58.23
55.74
53.63
52.01
50.7
49.24
47.04
43.6
38.69
32.49
25.48
18.24
11.22
4.54
-2.05
-8.95
-16.5
-24.8
-33.57
-42.31
-50.52
-57.89
-64.5
-70.84
-77.67
-85.78
-95.69
-107.22
-119.29
-129.9
-136.52
-136.75
-129.16
-113.73
-91.99
-66.62
-40.6
-16.47
4.17
20.75
33.49
42.92
49.57
53.84
55.99
56.34
55.3
53.46
51.41
49.65
48.44
47.78
47.52
47.36
47.07
46.45
45.4
43.92
42.03
39.72
36.91
33.4
28.94
23.41
16.81
9.42
1.65
-6.11
-13.55
-20.57
-27.21
-33.61
-39.96
-46.55
-53.74
-61.89
-71.06
-80.75
-89.67
-95.84
-97.12
-91.88
-79.7
-61.56
-39.66
-16.74
4.68
22.8
36.75
46.41
52.1
54.28
53.46
50.25
45.48
40.16
35.25
31.47
29.05
27.7
26.85
25.97
24.83
23.58
22.57
22
21.67
20.95
18.99
15.14
9.24
1.76
-6.38
-14.19
-21.02
-26.74
-31.8
-37.06
-43.46
-51.71
-61.94
-73.48
-84.74
-93.42
-97.02
-93.54
-82.19
-63.74
-40.4
-15.14
9.18
30.51
47.87
61.17
70.79
77.11
80.39
80.86
78.93
75.33
70.99
66.84
63.54
61.29
59.87
58.81
57.64
56.05
54
51.63
49.17
46.71
44.12
41.03
36.9
31.23
23.81
14.85
4.99
-4.88
-13.99
-21.94
-28.84
-35.28
-42.07
-50
-59.61
-70.99
-83.6
-96.13
-106.56
-112.37
-111.28
-101.96
-84.65
-61.22
-34.74
-8.46
15
34.3
49.31
60.64
69.05
75.01
78.67
80.01
79.2
76.69
73.25
69.69
66.63
64.33
62.74
61.61
60.65
59.65
58.47
57.01
55.11
52.6
49.32
45.16
40.13
34.26
27.62
20.31
12.46
4.32
-3.84
-11.73
-19.18
-26.16
-32.84
-39.59
-46.91
-55.33
-65.24
-76.56
-88.48
-99.33
-106.76
-108.32
-102.31
-88.39
-67.86
-43.36
-18.04
5.33
24.97
40.22
51.26
58.6
62.7
63.89
62.48
59.03
54.35
49.4
45.06
41.84
39.78
38.48
37.38
35.98
34.01
31.51
28.73
25.95
23.27
20.48
17.12
12.59
6.45
-1.36
-10.41
-19.88
-28.88
-36.8
-43.56
-49.57
-55.61
-62.42
-70.56
-80.12
-90.74
-101.5
-110.97
-117.29
-118.52
-113.14
-100.59
-81.6
-58.11
-32.87
-8.66
12.32
28.78
40.37
47.39
50.49
50.42
47.97
43.96
39.24
34.63
30.76
27.99
26.32
25.54
25.28
25.23
25.18
24.96
24.36
23.03
20.53
16.49
10.8
3.74
-4.05
-11.82
-18.95
-25.23
-30.97
-36.92
-44.03
-53.05
-64.07
-76.21
-87.57
-95.58
-97.65
-92.02
-78.41
-58.2
-34.04
-9.09
13.86
32.97
47.54
57.71
64
66.95
67.03
64.76
60.83
56.14
51.65
48.04
45.51
43.77
42.2
40.29
37.84
35.1
32.49
30.34
28.49
26.34
23.05
17.9
10.71
1.9
-7.63
-16.9
-25.24
-32.48
-39.03
-45.7
-53.4
-62.84
-74.2
-86.86
-99.21
-108.89
-113.27
-110.2
-98.81
-79.88
-55.65
-29.18
-3.44
19.38
38.22
52.93
63.83
71.32
75.68
77.16
76.16
73.3
69.43
65.42
61.9
59.08
56.81
54.71
52.44
49.9
47.2
44.62
42.33
40.21
37.81
34.46
29.51
22.66
14.08
4.41
-5.44
-14.68
-22.85
-30.02
-36.72
-43.73
-51.84
-61.59
-73.01
-85.44
-97.4
-106.74
-111.05
-108.32
-97.65
-79.7
-56.54
-31.16
-6.55
15.01
32.38
45.41
54.52
60.24
62.98
63.05
60.86
57.1
52.72
48.66
45.6
43.72
42.68
41.9
40.85
39.34
37.51
35.67
33.93
32.09
29.56
25.7
20.11
12.94
4.83
-3.3
-10.63
-16.79
-21.97
-26.86
-32.3
-39.06
-47.57
-57.67
-68.61
-78.94
-86.67
-89.64
-86.09
-75.23
-57.68
-35.44
-11.36
11.62
31.25
46.32
56.68
62.81
65.4
65.05
62.27
57.67
52.03
46.29
41.29
37.52
35.02
33.42
32.22
31.02
29.7
28.29
26.77
24.91
22.21
18.11
12.25
4.75
-3.8
-12.53
-20.67
-27.85
-34.27
-40.61
-47.8
-56.65
-67.45
-79.66
-91.77
-101.41
-105.87
-102.92
-91.59
-72.67
-48.6
-22.7
1.83
22.77
39.2
51.29
59.67
64.91
67.28
66.94
64.24
59.97
55.25
51.23
48.63
47.55
47.4
47.33
46.54
44.67
41.87
38.62
35.44
32.5
29.53
25.9
20.88
14.04
5.52
-4.07
-13.79
-22.77
-30.56
-37.18
-43.13
-49.12
-55.95
-64.27
-74.45
-86.37
-99.07
-110.69
-118.65
-120.22
-113.5
-98.08
-75.41
-48.39
-20.51
5.18
26.79
43.75
56.47
65.76
72.31
76.5
78.45
78.25
76.27
73.13
69.68
66.61
64.37
62.94
62.02
61.17
60.03
58.41
56.28
53.67
50.61
47.05
42.93
38.17
32.69
26.43
19.35
11.45
2.84
-6.24
-15.46
-24.41
-32.77
-40.38
-47.35
-54.03
-61.01
-68.96
-78.34
-89.02
-99.96
-109.16
-114.04
-112.2
-102.3
-84.64
-61.2
-35.09
-9.52
13.01
31.23
44.97
54.71
61.1
64.59
65.47
64.06
60.93
56.92
52.98
49.86
47.9
46.94
46.43
45.79
44.63
42.91
40.91
38.94
37.13
35.26
32.81
29.2
23.98
17.15
9.15
0.77
-7.12
-13.92
-19.49
-24.22
-28.84
-34.15
-40.76
-48.91
-58.39
-68.46
-77.84
-84.72
-87.1
-83.32
-72.66
-55.75
-34.55
-11.82
9.71
27.99
42.01
51.64
57.28
59.42
58.54
55.19
50.11
44.31
38.89
34.7
32.09
30.82
30.21
29.54
28.39
26.78
25.09
23.68
22.56
21.24
18.92
14.77
8.42
0.15
-9.14
-18.27
-26.28
-32.74
-37.98
-42.93
-48.78
-56.55
-66.62
-78.52
-90.77
-101.11
-106.91
-105.98
-97.16
-80.83
-58.93
-34.37
-10.27
10.89
27.78
40.22
48.74
54.1
56.86
57.37
55.87
52.81
48.92
45.05
41.97
40.03
39.06
38.49
37.64
36.06
33.66
30.78
27.85
25.2
22.79
20.23
16.94
12.35
6.21
-1.35
-9.78
-18.32
-26.3
-33.26
-39.18
-44.43
-49.67
-55.71
-63.27
-72.74
-83.91
-95.71
-106.24
-113.03
-113.67
-106.61
-91.76
-70.63
-45.93
-20.75
2.3
21.67
36.93
48.45
56.85
62.67
66.15
67.44
66.77
64.58
61.61
58.6
56.15
54.52
53.54
52.8
51.83
50.31
48.18
45.59
42.78
39.89
36.86
33.4
29.14
23.71
17.01
9.25
0.91
-7.4
-15.17
-22.1
-28.25
-33.88
-39.4
-45.32
-52.13
-60.24
-69.75
-80.14
-90.03
-97.32
-99.66
-95.21
-83.38
-65.14
-42.83
-19.38
2.51
20.99
35.26
45.39
51.82
55.11
55.74
54.18
51.04
47.05
43.03
39.64
37.19
35.58
34.4
33.2
31.76
30.2
28.86
28
27.54
26.92
25.32
22.01
16.71
9.77
2.01
-5.6
-12.36
-18.08
-23.12
-28.19
-34.13
-41.64
-51
-61.78
-72.69
-81.69
-86.36
-84.64
-75.56
-59.72
-39.19
-16.87
4.45
22.77
37.22
47.83
54.96
58.94
59.88
57.96
53.61
47.79
41.71
36.53
32.95
30.98
30.06
29.41
28.42
26.9
25.04
23.19
21.56
19.99
17.96
14.79
9.94
3.26
-4.86
-13.65
-22.22
-29.92
-36.5
-42.24
-47.77
-53.92
-61.46
-70.88
-82.08
-94.18
-105.37
-113.17
-115.05
-109.18
-95.22
-74.56
-49.96
-24.67
-1.44
18.08
33.5
45.24
53.93
60.03
63.72
65.06
64.3
61.97
58.85
55.7
53.04
51.04
49.53
48.15
46.55
44.54
42.13
39.44
36.64
33.8
30.77
27.25
22.8
17.07
9.92
1.57
-7.43
-16.42
-24.79
-32.28
-39.03
-45.48
-52.23
-59.86
-68.82
-79.27
-90.97
-102.99
-113.65
-120.61
-121.46
-114.52
-99.48
-77.75
-52.03
-25.51
-0.94
20.01
36.79
49.66
59.14
65.65
69.44
70.67
69.59
66.72
62.74
58.44
54.53
51.48
49.49
48.4
47.87
47.48
46.86
45.77
44.12
41.89
39.09
35.66
31.53
26.61
20.83
14.2
6.86
-0.96
-8.92
-16.66
-23.89
-30.48
-36.54
-42.32
-48.26
-54.85
-62.55
-71.63
-81.91
-92.46
-101.52
-106.74
-105.8
-97.28
-81.21
-59.33
-34.5
-9.87
12
29.69
42.85
51.85
57.25
59.58
59.27
56.88
53.2
49.15
45.62
43.12
41.68
40.9
40.24
39.3
37.99
36.53
35.21
34.1
32.93
31.1
27.89
22.86
16.07
8.06
-0.31
-8.25
-15.36
-21.78
-28.14
-35.29
-44.03
-54.7
-66.93
-79.49
-90.36
-97.11
-97.59
-90.53
-76.15
-56.11
-33.07
-9.9
11.06
28.42
41.68
50.92
56.41
58.49
57.61
54.48
50.07
45.46
41.53
38.71
36.89
35.65
34.46
33.08
31.51
29.94
28.52
27.1
25.22
22.23
17.56
10.94
2.63
-6.73
-16.25
-25.18
-33.17
-40.37
-47.44
-55.25
-64.65
-76.04
-89.03
-102.28
-113.5
-120.03
-119.47
-110.55
-93.59
-70.54
-44.38
-18.2
5.57
25.6
41.53
53.61
62.25
67.77
70.46
70.72
69.16
66.56
63.69
61.07
58.88
56.91
54.84
52.42
49.65
46.8
44.21
42.04
40.04
37.58
33.83
28.13
20.34
10.92
0.79
-9.05
-17.84
-25.4
-32.17
-39.03
-47.06
-57.08
-69.29
-82.95
-96.31
-106.83
-111.87
-109.42
-98.81
-81
-58.32
-33.76
-10.12
10.63
27.58
40.69
50.32
56.91
60.79
62.28
61.82
60.06
57.75
55.52
53.7
52.23
50.82
49.16
47.15
44.94
42.84
41.05
39.46
37.61
34.78
30.29
23.83
15.64
6.5
-2.64
-10.94
-18.07
-24.29
-30.36
-37.24
-45.77
-56.28
-68.31
-80.51
-90.71
-96.44
-95.56
-87.02
-71.37
-50.64
-27.82
-5.88
12.95
27.68
38.33
45.52
49.88
51.78
51.35
48.71
44.22
38.59
32.77
27.68
23.96
21.78
20.88
20.68
20.53
19.94
18.66
16.61
13.79
10.19
5.78
0.53
-5.45
-11.97
-18.8
-25.82
-33.16
-41.13
-50.04
-59.7
-69.15
-76.58
-79.71
-76.52
-66.06
-48.98
-27.46
-4.5
16.93
34.74
48.08
57.15
62.67
65.37
65.72
63.93
60.23
55.05
49.1
43.24
38.24
34.51
32.07
30.55
29.4
28.03
26
23.03
19.05
14.13
8.47
2.34
-3.98
-10.29
-16.54
-22.91
-29.79
-37.73
-47.17
-58.11
-69.71
-80.22
-87.16
-88.06
-81.26
-66.62
-45.73
-21.41
3.17
25.4
43.8
58.01
68.49
75.94
80.95
83.86
84.85
84.09
81.88
78.64
74.93
71.3
68.16
65.72
63.97
62.71
61.64
60.46
58.9
56.71
53.66
49.47
43.8
36.32
26.76
15.06
1.33
-14.19
-31.2
-49.29
-67.76
-85.28
-99.85
-109.06
-110.76
-103.91
-89.09
-68.57
-45.6
-23.44
-4.41
10.51
21.51
29.39
34.97
38.68
40.61
40.75
39.22
36.46
33.07
29.64
26.59
24.09
22.12
20.51
19.07
17.52
15.61
13.01
9.54
5.14
-0.06
-5.78
-11.75
-17.75
-23.74
-29.89
-36.56
-44.21
-53.16
-63.34
-73.85
-82.97
-88.38
-87.84
-80.06
-65.23
-45.14
-22.64
-0.81
18
32.56
42.8
49.38
53.14
54.74
54.52
52.69
49.45
45.23
40.66
36.4
33
30.68
29.34
28.59
27.9
26.75
24.8
21.91
18.13
13.65
8.7
3.48
-1.9
-7.4
-13.09
-19.18
-26
-33.93
-43.11
-53.11
-62.67
-69.81
-72.24
-68.23
-57.21
-40.19
-19.47
2.12
22
38.5
50.96
59.5
64.58
66.62
65.97
63.02
58.42
53.04
47.89
43.76
40.94
39.19
37.86
36.24
33.9
30.87
27.51
24.28
21.39
18.69
15.65
11.62
6.14
-0.88
-9.03
-17.6
-25.81
-33.16
-39.52
-45.22
-50.86
-57.22
-64.94
-74.33
-85.04
-95.89
-104.87
-109.55
-107.78
-98.47
-82.12
-60.7
-37.1
-14.19
5.93
22.32
35.04
44.65
51.79
56.86
59.96
61.16
60.6
58.64
55.85
52.82
50.05
47.77
45.96
44.38
42.75
40.88
38.73
36.41
34.02
31.56
28.87
25.67
21.63
16.58
10.53
3.77
-3.29
-10.24
-16.83
-23
-28.84
-34.52
-40.21
-46.08
-52.4
-59.52
-67.75
-76.97
-86.38
-94.37
-98.78
-97.56
-89.52
-74.86
-55.21
-33.13
-11.34
8.06
23.96
36.23
45.26
51.65
55.83
58.06
58.56
57.64
55.71
53.29
50.8
48.46
46.31
44.29
42.36
40.58
39.04
37.76
36.56
35.06
32.85
29.7
25.66
21.03
16.19
11.39
6.62
1.66
-3.7
-9.51
-15.62
-21.7
-27.43
-32.65
-37.44
-42.04
-46.83
-52.21
-58.53
-65.88
-73.87
-81.45
-87
-88.61
-84.71
-74.69
-59.22
-40.12
-19.86
-0.8
15.37
27.9
36.76
42.38
45.21
45.62
43.99
40.79
36.67
32.41
28.72
26.02
24.37
23.49
22.94
22.37
21.61
20.7
19.75
18.79
17.63
15.88
13.1
9.02
3.66
-2.58
-9.13
-15.4
-21
-25.91
-30.36
-34.82
-39.78
-45.73
-52.92
-61.21
-69.86
-77.45
-82.05
-81.78
-75.43
-63.02
-45.88
-26.31
-6.79
10.7
25.08
36.11
43.99
48.99
51.25
50.88
48.21
43.94
39.03
34.52
31.09
28.95
27.8
27.02
26.02
24.46
22.34
19.95
17.63
15.57
13.62
11.3
7.98
3.22
-3.03
-10.31
-17.83
-24.85
-30.96
-36.22
-41.1
-46.2
-52.09
-59.17
-67.63
-77.34
-87.69
-97.37
-104.47
-106.86
-102.84
-91.81
-74.65
-53.44
-30.84
-9.29
9.63
25.23
37.53
46.82
53.35
57.27
58.7
57.98
55.67
52.56
49.45
46.91
45.13
43.88
42.66
41.01
38.66
35.72
32.56
29.56
26.9
24.37
21.48
17.64
12.44
5.87
-1.69
-9.58
-17.12
-23.85
-29.67
-34.87
-39.95
-45.52
-52.12
-60.02
-69.13
-78.81
-87.76
-94.15
-96.02
-91.8
-80.91
-64.1
-43.25
-20.9
0.53
19.28
34.53
46.18
54.53
59.91
62.58
62.79
60.93
57.62
53.7
49.97
46.99
44.97
43.74
42.84
41.81
40.33
38.34
35.99
33.55
31.19
28.87
26.29
22.96
18.44
12.52
5.4
-2.32
-9.91
-16.7
-22.4
-27.19
-31.6
-36.33
-42
-49
-57.37
-66.7
-76.01
-83.81
-88.24
-87.53
-80.59
-67.44
-49.32
-28.44
-7.3
11.9
27.72
39.51
47.23
51.13
51.67
49.4
45.09
39.66
34.17
29.5
26.19
24.3
23.48
23.13
22.72
21.99
20.94
19.75
18.52
17.1
15.08
11.98
7.49
1.7
-4.91
-11.65
-17.9
-23.4
-28.3
-33.2
-38.89
-46.06
-54.97
-65.11
-75.11
-82.86
-86.06
-82.91
-72.8
-56.59
-36.33
-14.59
6.23
24.49
39.4
50.76
58.62
63.08
64.3
62.66
58.89
54.03
49.18
45.22
42.52
40.94
39.96
38.93
37.46
35.47
33.16
30.86
28.67
26.45
23.72
19.97
14.81
8.17
0.39
-7.92
-16.06
-23.5
-30.02
-35.84
-41.58
-48.03
-55.93
-65.59
-76.62
-87.72
-96.82
-101.51
-99.76
-90.59
-74.52
-53.41
-29.97
-6.9
13.85
31.29
45.3
56.15
64.13
69.35
71.83
71.8
69.81
66.73
63.48
60.75
58.81
57.5
56.34
54.87
52.81
50.21
47.31
44.44
41.74
39.09
36.09
32.28
27.25
20.91
13.48
5.51
-2.35
-9.56
-15.87
-21.44
-26.81
-32.74
-39.96
-48.9
-59.4
-70.52
-80.57
-87.37
-88.84
-83.56
-71.38
-53.44
-31.95
-9.52
11.5
29.56
43.99
54.87
62.57
67.53
70.03
70.3
68.63
65.52
61.64
57.71
54.27
51.6
49.62
48.02
46.43
44.56
42.27
39.6
36.67
33.59
30.4
27.02
23.24
18.81
13.57
7.51
0.87
-5.96
-12.55
-18.62
-24.11
-29.17
-34.11
-39.22
-44.85
-51.28
-58.67
-66.86
-75.1
-81.93
-85.44
-83.81
-76.02
-62.33
-44.29
-24.29
-4.78
12.36
26.18
36.43
43.32
47.12
48.1
46.64
43.36
39.13
34.94
31.58
29.45
28.42
28.01
27.63
26.87
25.65
24.15
22.69
21.42
20.22
18.61
16.01
11.94
6.33
-0.41
-7.51
-14.15
-19.78
-24.37
-28.42
-32.74
-38.2
-45.33
-54.09
-63.74
-72.87
-79.65
-82.2
-79.11
-69.89
-55.17
-36.62
-16.53
2.84
19.78
33.38
43.44
50.28
54.29
55.84
55.23
52.8
49.13
44.95
41.07
38.11
36.34
35.58
35.33
34.98
34.09
32.51
30.37
27.93
25.4
22.76
19.81
16.19
11.62
6.04
-0.4
-7.3
-14.22
-20.77
-26.75
-32.15
-37.12
-41.9
-46.85
-52.33
-58.78
-66.51
-75.47
-84.98
-93.54
-99.11
-99.58
-93.55
-80.84
-62.7
-41.43
-19.66
0.37
17.3
30.7
40.85
48.29
53.5
56.84
58.53
58.83
58.05
56.58
54.83
53.08
51.46
50.01
48.7
47.5
46.38
45.27
44
42.31
39.96
36.8
32.87
28.39
23.56
18.55
13.33
7.82
1.94
-4.27
-10.62
-16.87
-22.8
-28.32
-33.47
-38.38
-43.3
-48.59
-54.7
-62
-70.55
-79.78
-88.31
-94.18
-95.32
-90.24
-78.71
-61.82
-41.74
-21
-1.72
14.81
28.23
38.77
46.83
52.71
56.51
58.3
58.33
57.07
55.18
53.28
51.78
50.73
49.96
49.19
48.26
47.18
46.1
45.07
44.02
42.59
40.38
37.06
32.6
27.36
21.85
16.61
11.91
7.68
3.54
-0.98
-6.17
-12
-18.13
-24.02
-29.17
-33.36
-36.74
-39.84
-43.43
-48.29
-54.93
-63.27
-72.41
-80.63
-85.67
-85.35
-78.32
-64.56
-45.5
-23.61
-1.65
18.11
34.31
46.55
55.02
60.15
62.33
61.97
59.54
55.7
51.23
46.87
43.13
40.25
38.17
36.66
35.46
34.35
33.18
31.86
30.32
28.52
26.43
24.08
21.64
19.35
17.57
16.57
16.5
17.18
18.22
19.02
18.97
17.71
15.16
11.58
7.43
3.13
-1.1
-5.33
-9.84
-14.97
-20.86
-27.36
-33.97
-40.03
-44.91
-48.24
-50.06
-50.8
-51.21
-52.15
-54.3
-57.88
-62.42
-66.68
-68.91
-67.26
-60.46
-48.27
-31.67
-12.61
6.62
24.02
38.36
49.29
57.12
62.44
65.83
67.69
68.38
68.24
67.72
67.31
67.43
68.34
70.02
72.22
74.57
76.7
78.44
79.76
80.76
81.47
81.81
81.52
80.29
77.94
74.56
70.53
66.44
62.92
60.44
59.11
58.77
59.12
59.91
61.13
63.08
66.15
70.56
76.09
81.98
87.1
90.25
90.46
87.21
80.57
71.26
60.75
51.22
45.31
45.51
53.4
69.07
90.97
116.33
142.02
165.32
184.38
198.23
206.48
209.09
206.25
198.47
186.71
172.18
156.17
139.66
123.14
106.74
90.33
73.86
57.44
41.35
25.95
11.57
-1.54
-13.34
-24.01
-33.91
-43.52
-53.26
-63.4
-73.89
-84.5
-94.87
-104.66
-113.73
-122.06
-129.77
-137.02
-143.93
-150.57
-156.92
-162.82
-168.01
-172.19
-175.18
-177.1
-178.42
-179.93
-182.45
-186.5
-191.85
-197.45
-201.5
-201.96
-197.17
-186.4
-170.15
-150.03
-128.29
-107.16
-88.3
-72.52
-59.81
-49.65
-41.41
-34.67
-29.28
-25.28
-22.62
-21.15
-20.42
-19.86
-18.94
-17.28
-14.71
-11.22
-6.95
-2.24
2.35
6.04
7.95
7.42
4.18
-1.52
-9.05
-17.6
-26.42
-34.89
-42.56
-49.06
-54.15
-57.79
-60.24
-62.05
-63.87
-66.24
-69.4
-73.25
-77.46
-81.67
-85.64
-89.38
-93.12
-97.26
-102.23
-108.27
-115.14
-121.9
-126.95
-128.46
-124.91
-115.71
-101.53
-84.11
-65.72
-48.45
-33.68
-21.94
-13.13
-6.85
-2.71
-0.44
0.23
-0.28
-1.43
-2.58
-3.14
-2.83
-1.64
0.16
2.22
4.21
5.92
7.27
8.2
8.63
8.45
7.58
5.95
3.67
0.9
-2.16
-5.31
-8.52
-11.82
-15.33
-19.1
-23.12
-27.27
-31.39
-35.34
-39.13
-42.94
-47.13
-52.18
-58.42
-65.84
-73.75
-80.85
-85.32
-85.37
-79.8
-68.38
-52.08
-32.79
-12.79
5.85
21.63
33.81
42.36
47.64
50.2
50.61
49.4
47.11
44.28
41.42
38.92
37
35.63
34.62
33.77
32.93
32.08
31.24
30.37
29.29
27.65
25.08
21.35
16.53
11
5.3
-0.03
-4.71
-8.79
-12.63
-16.7
-21.41
-26.9
-32.97
-39.19
-45.04
-50.16
-54.52
-58.44
-62.6
-67.81
-74.67
-83.26
-92.81
-101.66
-107.48
-107.92
-101.27
-87.11
-66.53
-41.81
-15.77
9.04
30.84
48.83
62.94
73.52
81
85.8
88.24
88.69
87.56
85.34
82.49
79.4
76.27
73.18
70.08
66.97
63.91
61.11
58.72
56.76
54.96
52.8
49.69
45.27
39.53
32.91
26.13
19.8
14.27
9.41
4.75
-0.26
-6
-12.45
-19.24
-25.77
-31.59
-36.51
-40.79
-44.99
-49.84
-55.99
-63.82
-73.26
-83.57
-93.25
-100.26
-102.33
-97.69
-85.66
-66.98
-43.71
-18.66
5.44
26.56
43.7
56.74
66.09
72.28
75.73
76.82
75.9
73.52
70.34
67.01
63.98
61.35
58.93
56.41
53.61
50.64
47.83
45.54
43.88
42.6
41.11
38.73
35.02
29.92
23.79
17.28
11.02
5.47
0.77
-3.3
-7.2
-11.47
-16.46
-22.21
-28.39
-34.38
-39.67
-44.01
-47.67
-51.34
-55.89
-62.06
-70.05
-79.31
-88.45
-95.45
-98.03
-94.28
-83.31
-65.56
-42.86
-17.92
6.37
27.66
44.55
56.65
64.26
68.01
68.61
66.78
63.2
58.59
53.64
48.98
45.07
42.11
40.14
38.99
38.35
37.87
37.18
35.93
33.88
30.92
27.09
22.57
17.6
12.42
7.13
1.75
-3.83
-9.76
-16.17
-23.06
-30.25
-37.44
-44.25
-50.45
-56.04
-61.36
-67.09
-74
-82.6
-92.84
-103.63
-112.98
-118.22
-116.77
-106.98
-88.72
-63.59
-34.41
-4.46
23.45
47.49
66.88
81.57
91.81
97.85
99.98
98.73
94.96
89.82
84.46
79.66
75.68
72.28
69.04
65.61
61.99
58.34
54.9
51.62
48.1
43.7
37.8
30.16
21.05
11.24
1.63
-7.09
-14.73
-21.73
-28.9
-37
-46.41
-56.86
-67.57
-77.58
-86.2
-93.33
-99.6
-106.2
-114.51
-125.65
-139.88
-156.23
-172.25
-184.33
-188.44
-181.37
-161.78
-130.94
-92.43
-51.12
-11.71
22.56
50.42
72.32
89.54
103.3
114.19
122.18
127.11
129.04
128.53
126.45
123.71
120.87
118.03
115
111.49
107.45
103.03
98.58
94.3
90.08
85.43
79.59
71.85
61.89
49.99
37.03
24.3
12.95
3.66
-3.73
-10.08
-16.67
-24.62
-34.46
-45.93
-58.07
-69.65
-79.66
-87.75
-94.33
-100.52
-107.78
-117.6
-131.06
-148.39
-168.52
-188.91
-205.63
-214.2
-210.71
-193.14
-162.26
-121.52
-76.12
-31.42
8.55
41.79
68.31
89.2
105.71
118.62
128.17
134.38
137.48
138.15
137.37
136.09
134.85
133.73
132.4
130.55
128.09
125.25
122.44
119.98
117.8
115.39
111.93
106.62
99
89.15
77.68
65.56
53.8
43.09
33.62
25.04
16.53
7.21
-3.53
-15.71
-28.71
-41.46
-52.92
-62.43
-70.07
-76.59
-83.18
-91.17
-101.66
-115.24
-131.56
-148.98
-164.5
-174.16
-174.1
-161.79
-137.09
-102.54
-62.56
-22.12
14.68
45.46
69.59
87.63
100.55
109.21
114.17
115.88
114.88
111.93
108
104.02
100.68
98.25
96.65
95.57
94.72
93.93
93.12
92.06
90.32
87.2
82.1
74.75
65.45
55.05
44.51
34.6
25.53
16.96
8.23
-1.27
-11.75
-22.92
-34.09
-44.48
-53.62
-61.64
-69.3
-77.83
-88.53
-102.15
-118.28
-135.04
-149.19
-156.8
-154.37
-139.97
-114.04
-79.41
-40.53
-2.18
31.8
59.2
79.58
93.69
102.74
107.82
109.66
108.77
105.68
101.12
96.01
91.24
87.42
84.74
83
81.83
80.87
79.84
78.56
76.73
73.9
69.51
63.12
54.69
44.62
33.69
22.69
12.07
1.76
-8.76
-20.05
-32.39
-45.52
-58.79
-71.39
-82.76
-92.81
-102.08
-111.59
-122.7
-136.57
-153.57
-172.64
-190.88
-204.01
-207.48
-198.06
-175.09
-140.94
-100.28
-58.4
-19.74
13.21
39.89
60.95
77.42
90.04
99.23
105.26
108.56
109.73
109.44
108.21
106.28
103.67
100.41
96.72
93.06
90.02
88.01
86.96
86.21
84.73
81.47
75.86
68.02
58.71
48.96
39.54
30.68
22.03
12.9
2.72
-8.66
-20.88
-33.18
-44.83
-55.39
-65.02
-74.38
-84.6
-96.88
-112.04
-129.93
-148.95
-166.06
-177.2
-178.54
-167.68
-144.68
-112.17
-74.5
-36.37
-1.56
27.81
51.28
69.38
82.96
92.77
99.32
102.99
104.2
103.44
101.22
98.03
94.3
90.37
86.58
83.16
80.21
77.72
75.53
73.36
70.9
67.8
63.81
58.73
52.46
44.98
36.37
26.75
16.34
5.46
-5.55
-16.35
-26.68
-36.38
-45.44
-53.98
-62.29
-70.85
-80.39
-91.63
-104.86
-119.39
-133.21
-143.15
-145.73
-138.36
-120.34
-93.22
-60.23
-25.33
8
37.41
61.78
80.9
94.99
104.39
109.47
110.69
108.72
104.43
98.85
93.01
87.71
83.44
80.17
77.51
74.87
71.75
67.89
63.33
58.26
52.8
46.92
40.36
32.77
23.82
13.41
1.71
-10.79
-23.39
-35.33
-46.07
-55.48
-63.91
-72.15
-81.16
-91.93
-105.12
-120.74
-137.82
-154.2
-166.63
-171.48
-165.77
-148.23
-120
-84.36
-45.81
-8.72
23.85
50.55
71.5
87.54
99.54
108.08
113.43
115.82
115.66
113.54
110.17
106.19
102.1
98.25
94.9
92.19
90.09
88.4
86.68
84.31
80.71
75.44
68.37
59.73
50.01
39.76
29.4
19.03
8.48
-2.58
-14.38
-26.83
-39.51
-51.75
-63.06
-73.24
-82.69
-92.27
-103.17
-116.47
-132.69
-151.23
-170.01
-185.55
-193.66
-190.71
-174.92
-147.15
-110.79
-70.66
-31.46
3.45
32.58
56.02
74.6
89.18
100.24
108.01
112.68
114.66
114.66
113.46
111.73
109.79
107.63
105.12
102.16
98.97
95.99
93.69
92.19
91
89.08
85.19
78.52
69.04
57.65
45.72
34.53
24.76
16.25
8.19
-0.45
-10.39
-21.77
-34.11
-46.55
-58.21
-68.47
-77.23
-84.89
-92.32
-100.64
-111.05
-124.36
-140.48
-157.96
-173.78
-183.91
-184.35
-172.58
-148.55
-114.91
-76.23
-37.56
-2.89
25.63
47.74
64.35
76.62
85.35
90.89
93.35
93.04
90.58
86.9
82.96
79.52
76.91
75.09
73.81
72.72
71.54
70.02
67.99
65.23
61.56
56.9
51.21
44.56
36.96
28.39
18.78
8.22
-3
-14.36
-25.19
-34.98
-43.56
-51.2
-58.52
-66.41
-75.75
-87.29
-101.25
-117
-132.77
-145.67
-152.21
-149.33
-135.44
-111.17
-79.39
-44.33
-10.38
19.15
42.67
60.12
72.37
80.45
85.09
86.66
85.47
82.02
77.16
71.96
67.46
64.32
62.67
62.16
62.17
61.98
61.01
58.92
55.61
51.16
45.73
39.45
32.34
24.29
15.1
4.65
-6.97
-19.41
-32.14
-44.56
-56.21
-66.95
-76.87
-86.43
-96.24
-107.05
-119.65
-134.55
-151.57
-169.39
-185.27
-195.44
-196.1
-184.68
-160.94
-127.23
-87.82
-47.53
-10.34
21.44
47.21
67.49
83.17
94.99
103.4
108.79
111.63
112.55
112.17
110.96
109.13
106.73
103.76
100.41
97.09
94.24
92.09
90.36
88.3
84.91
79.43
71.68
62.22
52.07
42.14
32.84
23.87
14.52
4.04
-7.83
-20.78
-34.03
-46.7
-58.19
-68.37
-77.73
-87.17
-97.92
-111.12
-127.38
-146.17
-165.42
-181.63
-190.58
-188.58
-173.76
-146.9
-111.25
-71.58
-32.65
2.03
30.89
53.94
72.13
86.49
97.64
105.76
110.89
113.19
113.05
111.12
108.12
104.66
101.17
97.88
94.86
92.08
89.44
86.78
83.88
80.48
76.28
70.97
64.4
56.59
47.74
38.18
28.17
17.83
7.14
-3.96
-15.38
-26.75
-37.61
-47.49
-56.28
-64.3
-72.32
-81.42
-92.63
-106.5
-122.52
-138.84
-152.31
-159.16
-156.15
-141.74
-116.82
-84.55
-49.32
-15.42
14.11
37.85
55.72
68.27
76.1
79.63
79.32
75.93
70.65
64.95
60.2
57.2
55.96
55.82
55.71
54.76
52.61
49.57
46.31
43.4
40.87
38.01
33.74
27.03
17.53
5.71
-7.23
-19.89
-31.2
-40.76
-48.96
-56.77
-65.43
-76.13
-89.6
-105.85
-123.75
-140.96
-154.11
-159.62
-154.66
-138.24
-111.68
-78.34
-42.61
-8.6
20.88
44.7
63.07
76.79
86.62
92.95
95.93
95.76
93.06
88.79
84.13
80.05
77.11
75.24
73.94
72.48
70.25
66.98
62.76
57.95
52.87
47.61
41.89
35.19
26.93
16.84
5.05
-7.82
-20.9
-33.41
-44.86
-55.2
-64.79
-74.3
-84.55
-96.43
-110.64
-127.35
-145.74
-163.67
-177.81
-184.32
-180.07
-163.7
-136.26
-100.93
-62.02
-23.69
11.02
40.62
64.84
84.14
99.18
110.49
118.47
123.51
125.98
126.33
125.04
122.59
119.4
115.85
112.28
108.98
106.13
103.75
101.58
99.12
95.64
90.46
83.17
73.86
63.09
51.7
40.44
29.69
19.29
8.75
-2.48
-14.62
-27.43
-40.27
-52.41
-63.41
-73.41
-83.16
-93.79
-106.45
-121.75
-139.24
-157.07
-172.1
-180.55
-179.01
-165.57
-140.64
-106.9
-68.59
-30.21
4.64
33.94
57.24
75.09
88.35
97.71
103.56
106.18
105.92
103.35
99.27
94.5
89.71
85.3
81.41
77.99
74.89
71.93
68.95
65.77
62.19
57.97
52.89
46.78
39.58
31.36
22.27
12.51
2.29
-8.17
-18.57
-28.56
-37.78
-46.03
-53.36
-60.23
-67.42
-75.91
-86.55
-99.68
-114.74
-129.96
-142.51
-149.01
-146.46
-133.26
-109.84
-78.74
-43.86
-9.36
21.5
46.85
66.28
80.31
89.73
95.32
97.63
97.24
94.84
91.23
87.21
83.4
80.15
77.52
75.41
73.71
72.33
71.14
69.87
68.06
65.11
60.42
53.68
44.99
34.89
24.16
13.54
3.41
-6.31
-16.08
-26.44
-37.65
-49.49
-61.31
-72.38
-82.17
-90.72
-98.68
-107.16
-117.54
-130.89
-147.46
-166.1
-184.04
-197.23
-201.35
-193.29
-172.29
-140.43
-101.97
-61.91
-24.49
7.85
34.55
56.22
73.84
88.02
98.97
106.72
111.38
113.42
113.51
112.42
110.73
108.73
106.45
103.79
100.75
97.55
94.63
92.38
90.92
89.76
87.92
84.21
77.79
68.54
57.24
45.24
33.93
24.11
15.77
8.09
-0.08
-9.71
-21.1
-33.82
-46.9
-59.22
-69.97
-79
-86.82
-94.55
-103.62
-115.35
-130.51
-148.79
-168.3
-185.61
-196.37
-196.47
-183.46
-157.56
-121.74
-80.77
-39.77
-2.6
28.76
54.24
74.75
91.31
104.43
114.11
120.18
122.79
122.56
120.43
117.39
114.1
110.8
107.42
103.81
100.01
96.27
92.96
90.29
88.19
86.15
83.4
79.11
72.67
63.97
53.43
41.98
30.73
20.64
12.15
5.06
-1.39
-8.22
-16.26
-25.78
-36.45
-47.42
-57.74
-66.72
-74.19
-80.6
-86.85
-94.17
-103.75
-116.43
-132.25
-149.98
-166.91
-179.19
-182.71
-174.49
-153.76
-122.49
-84.85
-45.88
-10.02
19.98
43.3
60.49
72.62
80.58
84.9
85.96
84.29
80.75
76.4
72.25
68.89
66.45
64.73
63.42
62.39
61.68
61.34
61.2
60.73
59.1
55.52
49.64
41.71
32.54
23.19
14.4
6.39
-1.24
-9.17
-17.98
-27.78
-38.14
-48.31
-57.61
-65.76
-73.07
-80.41
-88.98
-99.91
-113.8
-130.13
-146.9
-160.72
-167.49
-163.65
-147.44
-119.69
-83.64
-44
-5.46
28.49
56.16
77.38
92.87
103.5
109.94
112.69
112.27
109.53
105.54
101.4
97.96
95.49
93.74
92.17
90.3
88.01
85.54
83.22
81.08
78.68
75.18
69.69
61.72
51.45
39.67
27.53
16.06
5.81
-3.32
-12
-21.2
-31.68
-43.71
-56.85
-70.07
-82.24
-92.61
-101.14
-108.65
-116.56
-126.48
-139.67
-156.46
-175.71
-194.57
-208.79
-213.68
-205.57
-183.23
-148.51
-105.91
-61.13
-19.23
16.68
45.75
68.74
86.96
101.3
112.07
119.23
122.9
123.63
122.36
120.04
117.36
114.55
111.48
107.94
103.9
99.65
95.73
92.64
90.55
89.06
87.22
83.83
77.96
69.28
58.36
46.34
34.56
23.99
14.86
6.62
-1.8
-11.44
-22.93
-36.14
-50.32
-64.27
-76.91
-87.64
-96.6
-104.68
-113.25
-123.83
-137.62
-155.08
-175.39
-196.21
-213.76
-223.46
-221.21
-204.74
-174.66
-134.37
-89.17
-44.55
-4.75
28.07
53.7
73.06
87.33
97.41
103.87
107.18
107.92
106.89
104.85
102.43
99.9
97.34
94.69
92.04
89.62
87.72
86.51
85.77
84.84
82.77
78.62
71.89
62.83
52.33
41.58
31.58
22.66
14.44
6.04
-3.39
-14.16
-25.89
-37.64
-48.36
-57.38
-64.76
-71.28
-78.27
-87.14
-98.95
-113.86
-130.64
-146.6
-157.88
-160.44
-151.31
-129.76
-97.75
-59.46
-20.01
16.09
46.01
68.85
85.19
96.18
102.78
105.58
104.92
101.32
95.65
89.1
82.86
77.78
74.25
72.11
70.89
69.97
68.75
66.78
63.79
59.73
54.69
48.83
42.2
34.71
26.12
16.13
4.65
-8.11
-21.59
-35.02
-47.67
-59.16
-69.47
-79.01
-88.44
-98.59
-110.3
-124.2
-140.39
-157.83
-174.13
-185.62
-188.23
-178.78
-156.26
-122.48
-81.66
-39.15
0.19
33.15
58.65
77.22
90.17
98.78
103.86
105.86
105.09
102.04
97.49
92.37
87.59
83.72
80.93
78.99
77.41
75.69
73.42
70.39
66.51
61.78
56.18
49.68
42.17
33.57
23.83
12.99
1.26
-11.03
-23.43
-35.51
-46.95
-57.65
-67.77
-77.72
-88.2
-99.98
-113.87
-130.27
-148.68
-167.21
-182.48
-190.25
-186.59
-169.42
-139.39
-100.03
-56.58
-14.4
22.6
52.65
75.96
93.76
107.32
117.39
124.15
127.51
127.54
124.63
119.54
113.23
106.63
100.45
95.1
90.63
86.8
83.2
79.38
74.96
69.68
63.43
56.21
48.09
39.11
29.31
18.66
7.21
-4.87
-17.23
-29.37
-40.86
-51.39
-61.02
-70.08
-79.21
-89.22
-101.01
-115.33
-132.3
-150.88
-168.54
-181.38
-185.17
-176.72
-155.16
-122.56
-83.3
-42.65
-5.18
26.34
51.13
69.66
82.82
91.2
95.12
94.92
91.37
85.76
79.6
74.12
69.92
66.8
64.03
60.88
57.04
52.76
48.78
45.7
43.64
41.93
39.29
34.38
26.34
15.28
2.27
-11.11
-23.32
-33.56
-41.94
-49.47
-57.67
-68.07
-81.73
-98.7
-117.66
-135.82
-149.36
-154.27
-147.62
-128.67
-99.28
-63.4
-25.86
9.06
38.68
62.13
79.87
92.77
101.49
106.28
107.26
104.82
99.87
93.79
88.02
83.64
81.01
79.78
79.06
77.9
75.63
72.05
67.44
62.28
56.96
51.43
45.24
37.65
28
16.06
2.27
-12.41
-26.8
-39.95
-51.51
-61.8
-71.63
-82.04
-93.98
-108.15
-124.85
-143.7
-163.19
-180.58
-192.14
-194.11
-184.03
-161.77
-129.85
-92.52
-54.39
-18.91
12.27
39.1
62.2
82.03
98.58
111.51
120.64
126.27
129.06
129.76
128.92
126.81
123.58
119.51
115.08
110.87
107.3
104.4
101.75
98.6
94.22
88.07
80.13
70.75
60.49
49.81
38.87
27.47
15.26
1.97
-12.26
-26.88
-41.09
-54.15
-65.73
-76.11
-86.21
-97.36
-110.93
-127.68
-147.21
-167.47
-184.85
-194.97
-193.89
-179.57
-152.66
-116.48
-75.86
-35.63
0.71
31.64
57.21
78.28
95.6
109.4
119.53
125.89
128.74
128.91
127.51
125.62
123.94
122.61
121.36
119.79
117.61
114.84
111.75
108.64
105.66
102.57
98.83
93.82
87.04
78.37
68.14
57.01
45.78
35.14
25.44
16.65
8.39
0.04
-8.97
-19
-29.97
-41.4
-52.57
-62.73
-71.53
-79.1
-86.12
-93.62
-102.75
-114.52
-129.48
-147.29
-166.35
-183.65
-195.13
-196.7
-185.6
-161.57
-127.11
-86.84
-45.97
-8.75
22.45
47.22
66.29
80.62
90.84
97.19
99.87
99.49
97.13
94.08
91.45
89.77
88.95
88.46
87.78
86.65
85.21
83.85
82.84
82.04
80.77
78.08
73.07
65.41
55.51
44.41
33.39
23.4
14.7
6.79
-1.28
-10.38
-20.82
-32.22
-43.64
-54.05
-62.8
-69.94
-76.25
-83.04
-91.8
-103.73
-119.24
-137.41
-155.79
-170.61
-177.6
-173.35
-156.5
-128.38
-92.66
-54.15
-17.33
14.86
41.28
62.17
78.31
90.32
98.42
102.7
103.42
101.36
97.68
93.68
90.38
88.29
87.26
86.72
86.01
84.71
82.81
80.62
78.48
76.39
73.85
70.04
64.12
55.71
45.11
33.25
21.36
10.49
1.16
-6.86
-14.38
-22.42
-31.78
-42.68
-54.67
-66.84
-78.16
-87.96
-96.21
-103.55
-111.14
-120.34
-132.38
-147.91
-166.62
-186.69
-204.76
-216.4
-217.23
-204.43
-177.94
-140.67
-97.64
-54.33
-15.03
18.03
44.67
65.89
82.9
96.51
107.01
114.48
119.09
121.27
121.62
120.74
119.11
117.04
114.69
112.16
109.53
106.88
104.3
101.8
99.27
96.47
93.01
88.5
82.58
75.09
66.07
55.79
44.73
33.45
22.48
12.17
2.59
-6.52
-15.63
-25.26
-35.74
-47.06
-58.81
-70.33
-80.9
-90.03
-97.7
-104.45
-111.33
-119.67
-130.84
-145.71
-164.15
-184.54
-203.58
-216.74
-219.43
-208.44
-183.25
-146.42
-102.86
-58.27
-17.49
16.76
43.89
64.85
81.02
93.47
102.71
108.85
112.08
112.88
112.06
110.54
109.02
107.81
106.79
105.63
104.06
102.06
99.92
98.01
96.48
95.04
92.92
89.16
83.06
74.46
63.94
52.62
41.71
32.07
23.84
16.49
8.99
0.36
-9.92
-21.65
-34.01
-45.85
-56.2
-64.61
-71.34
-77.31
-83.83
-92.26
-103.62
-118.12
-134.72
-150.93
-163.13
-167.36
-160.57
-141.77
-112.5
-76.54
-38.64
-3.12
27.13
51.04
68.87
81.46
89.6
93.83
94.55
92.44
88.49
83.94
79.85
76.8
74.72
73.08
71.29
69.06
66.64
64.58
63.35
62.88
62.41
60.73
56.65
49.64
40.06
29.08
18.13
8.23
-0.4
-8.39
-16.83
-26.66
-38.19
-50.93
-63.79
-75.62
-85.67
-93.89
-100.93
-107.94
-116.33
-127.38
-141.85
-159.41
-178.17
-194.62
-204.19
-202.65
-187.57
-159.41
-121.5
-78.97
-37.1
0.24
31.26
55.99
75.43
90.66
102.39
110.89
116.37
119.15
119.81
119.06
117.53
115.66
113.6
111.32
108.77
105.97
103.08
100.41
98.19
96.47
94.91
92.81
89.33
83.74
75.73
65.53
53.91
41.86
30.32
19.83
10.33
1.29
-8.15
-18.72
-30.73
-43.88
-57.33
-70.07
-81.31
-90.85
-99.12
-107.16
-116.21
-127.49
-141.86
-159.47
-179.33
-199.04
-214.83
-222.3
-217.66
-199.04
-167.49
-126.75
-82.15
-38.96
-0.93
30.31
55.03
74.4
89.64
101.53
110.33
116.19
119.41
120.52
120.23
119.15
117.65
115.82
113.58
110.86
107.75
104.51
101.46
98.84
96.62
94.43
91.66
87.59
81.69
73.79
64.18
53.54
42.7
32.4
23.01
14.41
6.1
-2.62
-12.39
-23.49
-35.73
-48.47
-60.8
-71.88
-81.22
-88.84
-95.36
-101.81
-109.47
-119.56
-132.82
-149.1
-166.85
-183.1
-193.77
-194.77
-183.28
-158.96
-124.23
-83.63
-42.41
-4.97
26.13
50.32
68.35
81.42
90.53
96.31
99.21
99.79
98.8
97.03
95.08
93.22
91.38
89.37
87.11
84.78
82.74
81.28
80.45
79.88
78.83
76.5
72.31
66.16
58.46
49.95
41.39
33.19
25.32
17.37
8.81
-0.59
-10.63
-20.7
-30.03
-38.12
-44.94
-51.11
-57.81
-66.37
-77.95
-92.92
-110.36
-127.91
-141.97
-148.59
-144.69
-129.14
-103.34
-70.78
-35.99
-3.15
24.95
47.12
63.51
74.81
81.75
84.86
84.62
81.67
76.94
71.47
66.22
61.76
58.26
55.58
53.49
51.83
50.48
49.29
47.96
45.97
42.76
37.89
31.28
23.2
14.24
4.95
-4.26
-13.34
-22.5
-32.04
-42.18
-52.9
-63.86
-74.59
-84.65
-93.86
-102.46
-111.15
-120.95
-132.91
-147.62
-164.58
-181.81
-196
-203.22
-200.08
-185.01
-158.82
-124.44
-85.95
-47.36
-11.68
19.42
45.33
66.12
82.08
93.7
101.55
106.36
108.85
109.63
109.13
107.63
105.4
102.7
99.87
97.25
95.14
93.79
93.21
93.18
93.06
91.98
88.98
83.45
75.43
65.65
55.36
45.68
37.19
29.69
22.32
14.01
4.08
-7.56
-20.32
-33.25
-45.43
-56.31
-65.92
-74.88
-84.3
-95.48
-109.49
-126.56
-145.53
-163.73
-177.35
-182.49
-176.42
-158.6
-130.87
-96.84
-60.74
-26.19
4.53
30.55
51.97
69.28
82.94
93.26
100.48
104.99
107.36
108.25
108.27
107.85
107.09
105.91
104.15
101.8
99.03
96.19
93.61
91.38
89.22
86.6
82.87
77.62
70.79
62.77
54.22
45.83
38.08
31.05
24.43
17.61
9.91
0.87
-9.55
-20.9
-32.36
-43.08
-52.45
-60.39
-67.4
-74.4
-82.54
-92.86
-105.91
-121.42
-137.92
-152.77
-162.6
-164.23
-155.65
-136.76
-109.47
-77.03
-43.02
-10.44
18.74
43.6
63.84
79.47
90.66
97.73
101.29
102.11
101.06
98.93
96.36
93.8
91.55
89.8
88.61
87.9
87.46
86.97
85.96
84.01
80.77
76.08
70.02
62.88
54.96
46.54
37.73
28.47
18.71
8.47
-2.03
-12.41
-22.24
-31.21
-39.24
-46.54
-53.65
-61.38
-70.64
-82.1
-95.67
-110.11
-122.92
-130.84
-130.74
-120.78
-101.07
-73.77
-42.34
-10.52
18.73
43.65
63.63
78.74
89.31
95.7
98.29
97.66
94.61
90.11
85.18
80.61
76.94
74.34
72.72
71.74
70.96
69.92
68.15
65.35
61.35
56.13
49.83
42.68
34.91
26.69
18.03
8.84
-1.05
-11.74
-23.17
-35.02
-46.82
-58.08
-68.51
-78.09
-87.22
-96.62
-107.24
-119.89
-134.85
-151.34
-167.19
-179.16
-183.61
-177.79
-160.81
-134.13
-101.11
-65.9
-32.14
-2.14
23.28
44.36
61.64
75.58
86.39
94.24
99.44
102.53
104.13
104.76
104.69
104.01
102.71
100.9
98.84
96.92
95.43
94.38
93.37
91.64
88.39
82.97
75.29
65.79
55.36
44.95
35.15
26.04
17.09
7.59
-3.02
-14.77
-27.11
-39.17
-50.12
-59.62
-67.95
-76.03
-85.1
-96.37
-110.58
-127.53
-145.74
-162.45
-174.01
-176.88
-168.72
-149.37
-120.99
-87.38
-52.83
-20.75
6.94
29.86
48.55
63.73
75.85
85.03
91.3
94.84
96.14
95.88
94.71
93.11
91.2
88.93
86.21
83.11
79.98
77.3
75.45
74.41
73.57
71.91
68.39
62.39
54.03
44.18
34.04
24.67
16.5
9.23
1.98
-6.23
-15.97
-27.2
-39.2
-50.93
-61.44
-70.28
-77.64
-84.34
-91.55
-100.44
-111.88
-125.97
-141.74
-157.01
-168.63
-173.14
-167.9
-151.95
-126.56
-94.9
-61.09
-28.98
-1.15
21.35
38.77
51.97
61.72
68.49
72.41
73.62
72.5
69.82
66.58
63.74
61.93
61.32
61.66
62.45
63.15
63.38
62.91
61.66
59.57
56.58
52.59
47.48
41.14
33.53
24.73
15.03
4.88
-5.15
-14.62
-23.31
-31.35
-39.13
-47.21
-56.17
-66.57
-78.8
-92.78
-107.65
-121.52
-131.63
-134.99
-129.31
-113.89
-89.99
-60.5
-29
1.18
27.81
49.86
67.26
80.45
89.9
96.04
99.26
100.05
99.06
97.02
94.68
92.59
90.99
89.84
88.84
87.64
85.94
83.61
80.53
76.55
71.45
64.9
56.75
47.06
36.28
25.02
13.91
3.25
-7.11
-17.62
-28.78
-40.75
-53.23
-65.51
-76.85
-86.82
-95.61
-104.01
-113.26
-124.66
-138.98
-155.94
-173.85
-189.65
-199.52
-199.96
-188.98
-166.87
-136.16
-100.87
-65.16
-32.25
-3.74
20.15
40.02
56.6
70.33
81.33
89.63
95.42
99.13
101.35
102.65
103.38
103.63
103.26
102.14
100.26
97.86
95.39
93.21
91.44
89.68
87.18
83.08
76.79
68.29
58.19
47.51
37.31
28.23
20.32
13
5.37
-3.35
-13.56
-25.03
-37
-48.5
-58.73
-67.39
-74.82
-81.94
-89.94
-100.05
-113.08
-129.06
-146.83
-163.91
-176.79
-181.75
-176.01
-158.75
-131.5
-97.77
-61.86
-27.6
2.55
27.78
48.48
65.49
79.57
91.01
99.79
105.83
109.24
110.39
109.92
108.48
106.59
104.5
102.26
99.84
97.26
94.68
92.25
90.01
87.67
84.64
80.18
73.77
65.28
55.14
44.19
33.39
23.48
14.7
6.77
-0.95
-9.16
-18.31
-28.33
-38.71
-48.65
-57.42
-64.67
-70.62
-75.99
-81.8
-89.1
-98.68
-110.89
-125.24
-140.2
-153.22
-161.04
-160.55
-149.85
-128.98
-100.1
-66.93
-33.54
-3.2
22.25
42.46
58.04
69.78
78.18
83.37
85.32
84.3
81.02
76.6
72.34
69.26
67.81
67.79
68.56
69.37
69.66
69.18
67.93
65.96
63.2
59.49
54.65
48.57
41.29
32.95
23.68
13.63
3.01
-7.89
-18.62
-28.72
-37.9
-46.19
-54.02
-62.12
-71.41
-82.6
-95.87
-110.46
-124.47
-135.02
-138.94
-133.73
-118.56
-94.67
-65.1
-33.76
-4.23
21.1
41.33
56.69
67.9
75.64
80.37
82.36
81.99
79.83
76.63
73.1
69.75
66.8
64.28
62.16
60.41
58.99
57.79
56.47
54.49
51.28
46.44
39.94
32.09
23.42
14.38
5.19
-4.18
-13.95
-24.3
-35.24
-46.56
-57.84
-68.63
-78.62
-87.84
-96.73
-106.17
-117.2
-130.66
-146.59
-163.77
-179.56
-190.38
-192.68
-184.08
-164.32
-135.29
-100.61
-64.36
-30.01
0.22
25.53
46.08
62.5
75.44
85.42
92.86
98.13
101.59
103.49
104.04
103.35
101.56
98.91
95.79
92.68
90.05
88.15
86.88
85.73
83.92
80.65
75.39
68.15
59.42
49.98
40.58
31.64
23.13
14.62
5.58
-4.37
-15.29
-26.77
-38.24
-49.05
-58.88
-67.89
-76.79
-86.78
-99.07
-114.41
-132.34
-150.88
-166.63
-175.66
-174.7
-162.29
-139.31
-108.71
-74.52
-40.6
-9.76
16.57
38.15
55.38
68.88
79.2
86.79
92.03
95.27
96.83
97.06
96.29
94.83
92.91
90.69
88.25
85.72
83.32
81.27
79.71
78.42
76.86
74.19
69.69
63.08
54.71
45.46
36.37
28.23
21.23
14.92
8.43
0.92
-8.03
-18.21
-28.88
-39.08
-48.05
-55.53
-61.82
-67.74
-74.41
-82.89
-93.88
-107.27
-121.83
-135.13
-143.98
-145.22
-136.75
-118.36
-91.88
-60.68
-28.6
1.11
26.47
46.85
62.5
74.02
81.9
86.43
87.94
86.96
84.3
80.99
77.96
75.8
74.69
74.45
74.67
74.97
75.01
74.56
73.42
71.43
68.44
64.38
59.23
53.05
45.92
37.91
29.08
19.51
9.37
-1.11
-11.58
-21.72
-31.26
-40.15
-48.54
-56.89
-65.91
-76.41
-88.98
-103.5
-118.74
-132.29
-140.95
-141.66
-132.58
-113.79
-87.38
-56.77
-25.69
2.86
27.13
46.58
61.45
72.26
79.5
83.54
84.77
83.76
81.22
77.98
74.78
72.11
70.15
68.79
67.81
66.96
66.04
64.92
63.37
61.07
57.63
52.73
46.29
38.53
29.93
21.04
12.24
3.54
-5.4
-15.05
-25.74
-37.35
-49.33
-60.87
-71.28
-80.34
-88.48
-96.7
-106.23
-118.12
-132.65
-148.93
-164.73
-176.75
-181.45
-176.1
-159.77
-133.74
-101.16
-66.09
-32.23
-2.04
23.48
44.46
61.5
75.14
85.7
93.32
98.25
100.89
101.81
101.57
100.54
98.98
97
94.76
92.49
90.5
89.03
88.06
87.19
85.74
82.85
77.86
70.59
61.41
51.18
40.92
31.36
22.66
14.38
5.72
-4.07
-15.25
-27.44
-39.78
-51.31
-61.4
-70.05
-77.91
-86.07
-95.77
-107.92
-122.7
-139.23
-155.34
-167.84
-173.17
-168.54
-152.86
-127.33
-95.07
-60.16
-26.41
3.63
28.88
49.43
65.86
78.7
88.23
94.63
98.25
99.68
99.69
98.88
97.61
95.87
93.51
90.49
87.06
83.74
81.08
79.33
78.24
77.03
74.67
70.26
63.43
54.51
44.46
34.46
25.51
17.99
11.61
5.5
-1.31
-9.49
-19.06
-29.41
-39.63
-48.89
-56.82
-63.66
-70.18
-77.47
-86.63
-98.36
-112.6
-128.15
-142.59
-152.67
-155.09
-147.6
-129.85
-103.63
-72.35
-40.02
-10.03
15.48
35.83
51.3
62.52
70.08
74.35
75.66
74.52
71.74
68.35
65.33
63.37
62.66
62.89
63.44
63.65
63.07
61.61
59.46
56.93
54.16
51.06
47.23
42.18
35.57
27.31
17.73
7.4
-2.98
-12.82
-21.8
-29.88
-37.4
-44.93
-53.25
-63.16
-75.28
-89.69
-105.59
-121.07
-133.31
-139.16
-136.12
-123.18
-101.28
-73.13
-42.34
-12.45
13.97
35.64
52.4
64.74
73.33
78.68
81.19
81.25
79.38
76.24
72.6
69.12
66.27
64.2
62.82
61.89
61.11
60.17
58.76
56.58
53.31
48.72
42.78
35.64
27.66
19.15
10.29
1.09
-8.62
-18.94
-29.76
-40.77
-51.52
-61.63
-70.96
-79.68
-88.31
-97.63
-108.5
-121.51
-136.54
-152.3
-166.17
-174.69
-174.5
-163.51
-141.76
-111.57
-76.78
-41.51
-9.03
18.83
41.65
59.91
74.35
85.59
94.08
100.11
103.99
106.02
106.48
105.62
103.68
100.97
97.89
94.95
92.62
91.17
90.51
90.14
89.25
87.04
83.02
77.16
69.96
62.2
54.59
47.5
40.79
33.92
26.25
17.36
7.29
-3.42
-13.98
-23.66
-32.03
-39.23
-45.9
-53.15
-62.24
-74.14
-88.94
-105.2
-119.85
-129.02
-129.5
-120.4
-104.04
-85.4
-70.43
-63.82
-67.51
-80.26
-98.48
-117.55
-133.01
-141.28
-139.92
-127.86
-105.65
-75.47
-40.87
-5.94
25.68
51.67
71.25
84.94
94.06
100.05
104.08
106.77
108.32
108.59
107.41
104.75
100.84
96.18
91.39
87.11
83.81
81.66
80.41
79.46
77.92
74.93
69.91
62.81
54.11
44.67
35.39
26.83
19.07
11.67
3.94
-4.7
-14.45
-24.97
-35.55
-45.34
-53.76
-60.76
-66.86
-73.06
-80.58
-90.47
-103.14
-118.03
-133.36
-146.25
-153.34
-151.71
-139.88
-118.41
-89.82
-57.89
-26.48
1.53
24.65
42.71
56.22
65.81
71.86
74.51
74.07
71.19
66.91
62.52
59.1
57.28
56.98
57.64
58.41
58.59
57.79
56.09
53.79
51.23
48.45
45.15
40.74
34.67
26.66
16.93
6.16
-4.83
-15.33
-25.04
-34.03
-42.63
-51.29
-60.38
-70.33
-81.56
-94.3
-108.24
-122.06
-133.39
-139.21
-136.77
-124.6
-103.18
-74.94
-43.39
-12.19
15.9
39.37
57.87
71.72
81.45
87.57
90.49
90.67
88.71
85.38
81.47
77.69
74.52
72.12
70.39
69.01
67.63
65.89
63.59
60.57
56.78
52.2
46.83
40.69
33.8
26.15
17.68
8.36
-1.84
-12.77
-24.16
-35.57
-46.57
-56.87
-66.46
-75.7
-85.24
-95.95
-108.6
-123.46
-139.89
-155.95
-168.63
-174.43
-170.5
-155.63
-130.88
-99.3
-64.91
-31.49
-1.64
23.57
44.23
60.94
74.31
84.73
92.42
97.65
100.83
102.4
102.75
102.13
100.66
98.45
95.73
92.83
90.19
88.11
86.68
85.54
84.04
81.36
76.85
70.33
62.16
53.1
43.95
35.23
26.9
18.46
9.29
-1.03
-12.44
-24.38
-36.08
-46.9
-56.59
-65.45
-74.25
-84.06
-95.9
-110.38
-127.1
-144.43
-159.43
-168.52
-168.43
-157.42
-135.9
-106.46
-73.03
-39.63
-9.34
16.26
36.91
53.13
65.58
74.77
81.03
84.71
86.33
86.57
86.09
85.38
84.64
83.83
82.79
81.51
80.16
79.01
78.26
77.8
77.16
75.62
72.47
67.36
60.42
52.27
43.77
35.59
27.99
20.73
13.24
4.96
-4.36
-14.44
-24.68
-34.32
-42.84
-50.18
-56.78
-63.42
-71.11
-80.76
-92.86
-107.02
-121.71
-134.22
-141.21
-139.68
-128.08
-106.99
-79.11
-48.37
-18.64
7.29
28.25
44.4
56.5
65.2
70.75
73.07
72.25
68.84
63.94
58.95
55.1
53.05
52.7
53.36
54.14
54.29
53.45
51.68
49.24
46.38
43.13
39.24
34.29
27.88
19.81
10.21
-0.41
-11.33
-21.82
-31.37
-39.84
-47.51
-54.92
-62.86
-72.11
-83.35
-96.82
-111.96
-127.13
-139.62
-146.23
-144.17
-132.06
-110.58
-82.35
-51.12
-20.64
6.31
28.4
45.59
58.53
68.01
74.57
78.45
79.8
78.91
76.31
72.72
68.91
65.48
62.74
60.7
59.22
58.06
56.97
55.69
53.9
51.26
47.45
42.27
35.78
28.22
20
11.43
2.67
-6.32
-15.69
-25.51
-35.7
-45.95
-55.8
-64.93
-73.27
-81.21
-89.56
-99.36
-111.44
-125.88
-141.55
-155.96
-165.75
-167.56
-159.12
-140.11
-112.37
-79.32
-44.93
-12.61
15.49
38.57
56.91
71.19
82.09
90.08
95.48
98.58
99.78
99.56
98.39
96.57
94.25
91.5
88.4
85.19
82.19
79.65
77.53
75.45
72.7
68.56
62.52
54.6
45.27
35.35
25.57
16.29
7.37
-1.74
-11.67
-22.78
-34.92
-47.48
-59.61
-70.58
-80.09
-88.41
-96.23
-104.61
-114.6
-126.9
-141.39
-156.71
-170.27
-178.59
-178.41
-167.75
-146.69
-117.49
-83.82
-49.55
-17.76
9.88
32.9
51.56
66.22
77.17
84.59
88.81
90.45
90.33
89.29
88
86.84
85.87
85.05
84.28
83.59
83.03
82.62
82.2
81.36
79.54
76.26
71.31
64.92
57.63
50.13
42.88
35.98
29.08
21.59
13.03
3.27
-7.33
-18.07
-28.15
-37
-44.55
-51.29
-58.17
-66.33
-76.64
-89.24
-103.13
-116.08
-125.09
-127.16
-120.33
-104.39
-81.07
-53.45
-25.06
1.16
23.43
41.17
54.65
64.43
70.94
74.55
75.59
74.62
72.43
69.96
68.06
67.24
67.56
68.69
70.06
71.09
71.34
70.6
68.93
66.47
63.34
59.55
54.86
48.96
41.55
32.62
22.51
11.85
1.35
-8.45
-17.43
-25.87
-34.32
-43.36
-53.56
-65.3
-78.76
-93.61
-108.77
-122.23
-131.27
-133.12
-125.88
-109.3
-85.01
-56.12
-26.24
1.51
25.17
44.07
58.44
68.9
76.06
80.38
82.26
82.17
80.75
78.73
76.7
75.04
73.79
72.74
71.63
70.23
68.46
66.32
63.79
60.77
57.03
52.38
46.74
40.17
32.81
24.81
16.18
6.87
-3.12
-13.7
-24.56
-35.29
-45.47
-54.9
-63.65
-72.19
-81.26
-91.7
-104.14
-118.57
-133.92
-147.99
-157.77
-160.22
-153.33
-136.82
-112.36
-83.06
-52.42
-23.45
2.02
23.32
40.67
54.56
65.48
73.76
79.64
83.32
85.09
85.26
84.21
82.36
80.12
77.9
75.98
74.46
73.22
71.92
70.15
67.53
63.81
58.99
53.22
46.74
39.7
32.18
24.1
15.4
6.06
-3.79
-13.93
-24.08
-34.02
-43.6
-52.84
-61.97
-71.46
-81.96
-94.12
-108.07
-123.02
-137.07
-147.39
-151.02
-145.83
-131.35
-109.07
-81.95
-53.53
-26.91
-4
14.54
28.98
39.9
47.76
52.73
54.91
54.57
52.37
49.29
46.39
44.46
43.8
44.22
45.22
46.26
46.98
47.3
47.31
47.11
46.61
45.48
43.28
39.55
34.09
27.05
18.96
10.51
2.4
-4.99
-11.65
-17.93
-24.4
-31.76
-40.59
-51.29
-63.78
-77.23
-89.96
-99.59
-103.54
-99.85
-87.93
-68.81
-44.88
-19.2
5.47
27.23
45.22
59.34
69.84
76.93
80.78
81.6
79.83
76.24
71.84
67.63
64.41
62.52
61.76
61.56
61.14
59.9
57.61
54.43
50.77
47.05
43.34
39.33
34.43
28.02
19.75
9.78
-1.3
-12.65
-23.5
-33.43
-42.45
-50.93
-59.42
-68.49
-78.69
-90.45
-103.89
-118.47
-132.71
-144.13
-149.76
-147
-134.65
-113.41
-85.82
-55.43
-25.71
0.84
23.12
41.15
55.55
66.98
75.82
82.22
86.2
87.96
87.91
86.62
84.67
82.5
80.37
78.29
76.21
74.05
71.78
69.32
66.55
63.24
59.14
54.07
48.01
41.09
33.46
25.26
16.47
7.06
-2.93
-13.29
-23.62
-33.47
-42.54
-50.84
-58.73
-66.89
-76.12
-87.14
-100.15
-114.57
-128.79
-140.3
-146.21
-144.13
-132.92
-113.22
-87.32
-58.43
-29.78
-3.73
18.56
37.01
52.12
64.47
74.43
82.08
87.44
90.62
91.99
92.02
91.18
89.74
87.77
85.29
82.46
79.59
77.1
75.19
73.65
71.86
68.94
64.2
57.46
49.14
40.07
31.12
22.8
15.09
7.55
-0.43
-9.23
-18.87
-28.95
-38.89
-48.11
-56.35
-63.7
-70.64
-77.91
-86.3
-96.4
-108.14
-120.53
-131.56
-138.55
-138.91
-131.01
-114.9
-92.32
-66.2
-39.69
-15.24
5.77
23.06
36.89
47.68
55.64
60.87
63.51
63.94
62.82
60.95
59.05
57.65
56.94
56.8
56.9
56.77
56.03
54.39
51.84
48.52
44.66
40.39
35.66
30.23
23.82
16.25
7.68
-1.44
-10.53
-19.07
-26.89
-34.1
-41.11
-48.38
-56.38
-65.53
-76.12
-88.09
-100.74
-112.53
-121.2
-124.29
-119.9
-107.43
-87.87
-63.5
-37.17
-11.53
11.62
31.35
47.43
59.97
69.11
75.02
77.95
78.36
76.91
74.39
71.58
69.04
67.1
65.82
65.05
64.52
63.91
62.88
61.16
58.56
55.05
50.71
45.66
39.95
33.46
25.96
17.22
7.22
-3.73
-15.03
-26.05
-36.3
-45.69
-54.44
-63.1
-72.29
-82.67
-94.69
-108.37
-123.04
-137.08
-148.07
-153.27
-150.48
-138.76
-118.9
-93.19
-64.69
-36.35
-10.32
12.33
31.39
47.18
60.08
70.39
78.26
83.83
87.3
88.99
89.32
88.67
87.39
85.75
83.93
82.07
80.28
78.58
76.84
74.79
72.05
68.27
63.26
57.1
50.08
42.53
34.73
26.72
18.41
9.62
0.3
-9.4
-19.14
-28.54
-37.36
-45.64
-53.77
-62.38
-72.26
-84.06
-97.93
-113.14
-127.94
-139.73
-145.59
-143.22
-131.67
-111.77
-85.86
-57.12
-28.66
-2.75
19.42
37.67
52.31
63.86
72.68
79.04
83.13
85.22
85.71
85.03
83.65
81.89
79.97
78.02
76.11
74.36
72.77
71.26
69.52
67.12
63.61
58.75
52.63
45.61
38.19
30.77
23.44
16.02
8.17
-0.32
-9.45
-18.86
-28.03
-36.47
-44.02
-50.89
-57.67
-65.16
-74.09
-84.82
-96.99
-109.45
-120.21
-126.85
-127.1
-119.52
-104.07
-82.21
-56.6
-30.32
-6.12
14.25
30.16
41.91
50.25
55.93
59.49
61.27
61.59
60.83
59.53
58.2
57.25
56.86
56.93
57.23
57.44
57.25
56.44
54.88
52.52
49.35
45.38
40.66
35.26
29.22
22.54
15.21
7.2
-1.47
-10.63
-20.01
-29.25
-38.04
-46.28
-54.12
-62
-70.57
-80.49
-92.27
-105.83
-120.27
-133.72
-143.58
-147.13
-142.39
-128.87
-107.74
-81.61
-53.64
-26.73
-2.84
17.17
33.3
46.01
55.8
63.07
68.1
71.11
72.44
72.51
71.83
70.84
69.85
68.97
68.19
67.43
66.7
66.01
65.32
64.45
62.97
60.38
56.26
50.57
43.69
36.3
29.07
22.33
15.96
9.43
2.19
-6.1
-15.25
-24.71
-33.73
-41.73
-48.53
-54.41
-60.13
-66.69
-75.12
-86.01
-99.14
-113.16
-125.62
-133.51
-134.07
-125.8
-108.94
-85.49
-58.46
-30.99
-5.47
16.8
35.47
50.73
62.84
72.01
78.38
82.23
84.07
84.5
84.12
83.28
82.06
80.36
78.1
75.38
72.5
69.91
67.97
66.73
65.81
64.55
62.18
58.18
52.45
45.39
37.75
30.27
23.44
17.27
11.38
5.15
-1.89
-9.89
-18.57
-27.31
-35.45
-42.54
-48.57
-54.03
-59.83
-67.06
-76.54
-88.51
-102.16
-115.63
-126.21
-131.02
-127.86
-115.94
-96.27
-71.34
-44.44
-18.67
3.77
21.92
35.81
46.02
53.19
57.74
59.91
59.93
58.27
55.67
52.99
50.94
49.84
49.63
49.89
50.17
50.14
49.65
48.71
47.29
45.33
42.65
39.06
34.38
28.54
21.58
13.71
5.26
-3.37
-11.82
-19.89
-27.55
-34.99
-42.45
-50.26
-58.73
-68.19
-78.87
-90.69
-102.91
-113.95
-121.55
-123.33
-117.56
-103.86
-83.37
-58.51
-32.19
-7.09
14.97
33.07
47.03
57.05
63.49
66.82
67.59
66.52
64.41
61.95
59.61
57.59
55.9
54.42
53.09
51.91
50.9
49.98
48.96
47.5
45.19
41.69
36.93
31.06
24.5
17.72
11.08
4.59
-2
-9.15
-17.2
-26.22
-35.92
-45.69
-54.97
-63.42
-71.19
-78.86
-87.33
-97.47
-109.74
-123.78
-138.17
-150.53
-157.97
-157.9
-148.86
-131.03
-106.29
-77.65
-48.35
-21.09
2.6
22.28
38.27
51.16
61.4
69.2
74.64
77.84
79.12
78.94
77.82
76.12
74.02
71.58
68.82
65.92
63.14
60.76
58.84
57.12
55.08
52.07
47.62
41.65
34.54
26.96
19.61
12.97
7.02
1.38
-4.6
-11.51
-19.59
-28.62
-38.02
-47.06
-55.22
-62.38
-68.95
-75.75
-83.74
-93.73
-105.91
-119.64
-133.2
-144.07
-149.49
-147.22
-136.33
-117.5
-92.89
-65.45
-38.1
-13.02
8.63
26.58
41.09
52.58
61.44
67.98
72.53
75.45
77.12
77.9
78.08
77.88
77.45
76.98
76.64
76.56
76.76
77.08
77.18
76.63
74.99
71.98
67.59
62.05
55.82
49.37
43.05
36.9
30.66
23.91
16.36
7.97
-0.94
-9.8
-18.05
-25.42
-32
-38.31
-45.09
-53.14
-62.96
-74.49
-86.84
-98.25
-106.36
-108.78
-103.81
-91.09
-71.77
-48.27
-23.54
-0.34
19.46
35.03
46.41
54.13
58.81
60.9
60.75
58.7
55.34
51.47
48.01
45.7
44.89
45.39
46.61
47.8
48.33
47.91
46.56
44.49
41.95
39.02
35.62
31.57
26.65
20.76
13.97
6.48
-1.38
-9.29
-16.94
-24.17
-30.98
-37.53
-44.17
-51.42
-59.82
-69.77
-81.2
-93.24
-104.18
-111.66
-113.31
-107.52
-94.03
-74.08
-50.1
-24.91
-1.02
19.9
37.14
50.69
60.92
68.26
73.02
75.45
75.87
74.74
72.67
70.32
68.18
66.48
65.12
63.84
62.42
60.78
59
57.15
55.1
52.52
48.99
44.24
38.29
31.51
24.35
17.18
10.05
2.79
-4.87
-13.05
-21.56
-29.99
-37.89
-45.04
-51.6
-58.16
-65.5
-74.32
-84.8
-96.31
-107.32
-115.61
-118.8
-115.02
-103.56
-85.14
-61.72
-35.99
-10.61
12.37
31.85
47.53
59.63
68.62
74.91
78.89
80.91
81.36
80.65
79.19
77.3
75.18
72.95
70.69
68.5
66.54
64.89
63.54
62.21
60.46
57.74
53.7
48.24
41.7
34.62
27.6
21.01
14.83
8.74
2.3
-4.79
-12.53
-20.63
-28.61
-36.02
-42.67
-48.72
-54.64
-61.14
-68.88
-78.15
-88.51
-98.64
-106.5
-109.78
-106.59
-96.12
-78.98
-57.06
-32.98
-9.39
11.73
29.29
43.09
53.44
60.84
65.73
68.44
69.27
68.62
66.98
64.87
62.72
60.76
58.98
57.26
55.53
53.8
52.21
50.86
49.68
48.38
46.48
43.51
39.25
33.82
27.69
21.48
15.74
10.68
6.1
1.51
-3.63
-9.61
-16.29
-23.16
-29.56
-35.02
-39.49
-43.35
-47.31
-52.19
-58.62
-66.75
-76.04
-85.14
-92.1
-94.74
-91.35
-81.23
-65.09
-44.85
-23.08
-2.26
15.81
30.32
41.22
48.85
53.61
55.77
55.56
53.34
49.76
45.67
41.98
39.36
38.08
37.95
38.51
39.16
39.41
38.94
37.62
35.48
32.6
29.13
25.18
20.85
16.12
10.98
5.36
-0.74
-7.25
-13.93
-20.54
-26.79
-32.57
-37.94
-43.16
-48.7
-55.07
-62.68
-71.53
-81.06
-89.98
-96.45
-98.46
-94.49
-84.02
-67.83
-47.78
-26.33
-5.75
12.31
27.09
38.47
46.72
52.2
55.26
56.31
55.82
54.4
52.56
50.7
48.96
47.31
45.71
44.21
42.96
42.13
41.69
41.34
40.55
38.75
35.62
31.15
25.74
19.95
14.27
8.95
3.92
-1.15
-6.62
-12.73
-19.48
-26.6
-33.62
-40.1
-45.79
-50.77
-55.51
-60.74
-67.28
-75.65
-85.74
-96.57
-106.29
-112.51
-113.01
-106.4
-92.67
-73.25
-50.58
-27.39
-5.92
12.47
27.39
39.06
47.98
54.61
59.26
62.16
63.54
63.77
63.26
62.46
61.6
60.72
59.66
58.21
56.31
54.12
51.98
50.2
48.84
47.55
45.73
42.75
38.27
32.46
25.92
19.37
13.37
8.04
3.06
-2.09
-7.87
-14.47
-21.73
-29.24
-36.5
-43.12
-48.93
-54.04
-58.86
-64.04
-70.33
-78.29
-88
-98.69
-108.75
-115.94
-118.02
-113.43
-101.82
-84.24
-62.72
-39.74
-17.52
2.4
19.29
33.02
43.79
51.87
57.47
60.83
62.28
62.26
61.31
59.9
58.37
56.83
55.29
53.72
52.14
50.7
49.58
48.83
48.27
47.45
45.79
42.83
38.47
32.98
26.97
21.1
15.78
11.03
6.5
1.71
-3.73
-9.88
-16.49
-23.16
-29.49
-35.28
-40.57
-45.62
-50.85
-56.77
-63.85
-72.26
-81.62
-90.79
-97.94
-100.94
-98.03
-88.43
-72.73
-52.73
-30.97
-9.95
8.48
23.37
34.65
42.71
48.1
51.24
52.44
51.98
50.24
47.76
45.13
42.9
41.37
40.56
40.25
40.13
39.9
39.35
38.37
36.86
34.73
31.89
28.3
23.95
18.96
13.42
7.47
1.17
-5.46
-12.33
-19.36
-26.35
-33.11
-39.52
-45.65
-51.82
-58.51
-66.3
-75.48
-85.81
-96.26
-105.09
-110.14
-109.48
-102.05
-87.97
-68.64
-46.28
-23.38
-2.04
16.35
31.21
42.55
50.78
56.39
59.86
61.63
62.05
61.5
60.27
58.67
56.92
55.23
53.7
52.44
51.45
50.63
49.77
48.53
46.54
43.54
39.4
34.27
28.43
22.27
16.07
9.95
3.83
-2.54
-9.4
-16.87
-24.78
-32.76
-40.36
-47.25
-53.4
-59.18
-65.31
-72.57
-81.54
-92.24
-103.76
-114.35
-121.66
-123.35
-117.86
-104.92
-85.68
-62.39
-37.68
-13.9
7.41
25.52
40.33
52.08
61.05
67.52
71.75
74.08
74.91
74.68
73.83
72.65
71.29
69.73
67.91
65.81
63.55
61.35
59.37
57.57
55.65
53.09
49.38
44.27
37.9
30.75
23.45
16.52
10.19
4.32
-1.5
-7.7
-14.55
-22.01
-29.72
-37.14
-43.83
-49.62
-54.77
-59.91
-65.84
-73.29
-82.51
-93.08
-103.72
-112.45
-116.99
-115.33
-106.4
-90.5
-69.25
-45.17
-20.92
1.39
20.54
36.22
48.66
58.29
65.43
70.3
73.11
74.17
73.95
72.96
71.63
70.19
68.66
66.97
65.06
63.02
61.03
59.25
57.68
56.1
54.06
51.09
46.83
41.27
34.75
27.85
21.22
15.28
10.04
5.13
-0.04
-5.96
-12.72
-20.02
-27.24
-33.75
-39.25
-43.85
-48.08
-52.71
-58.49
-65.91
-75.02
-85.17
-94.99
-102.51
-105.51
-102.25
-92.04
-75.57
-54.8
-32.34
-10.69
8.37
23.99
36.12
45.06
51.19
54.76
56.03
55.35
53.29
50.61
48.06
46.21
45.29
45.21
45.54
45.8
45.54
44.56
42.84
40.57
37.89
34.91
31.53
27.58
22.86
17.23
10.7
3.47
-4.11
-11.64
-18.78
-25.33
-31.34
-36.99
-42.64
-48.67
-55.45
-63.28
-72.18
-81.7
-90.68
-97.35
-99.7
-96.1
-85.9
-69.87
-49.89
-28.44
-7.83
10.38
25.44
37.28
46.1
52.11
55.5
56.55
55.71
53.57
50.79
47.88
45.12
42.64
40.46
38.63
37.18
36.05
35.08
33.92
32.19
29.57
25.93
21.38
16.2
10.69
5.1
-0.52
-6.23
-12.18
-18.47
-25.05
-31.75
-38.3
-44.48
-50.17
-55.47
-60.69
-66.34
-73.02
-81.16
-90.82
-101.32
-111.13
-118.04
-119.71
-114.4
-101.65
-82.5
-59.23
-34.62
-11.16
9.57
26.94
41.08
52.4
61.26
67.84
72.23
74.6
75.34
74.93
73.92
72.65
71.28
69.76
68.04
66.12
64.17
62.4
60.91
59.55
57.9
55.39
51.59
46.37
40.03
33.14
26.39
20.2
14.66
9.45
4.07
-1.91
-8.61
-15.8
-22.94
-29.48
-35.09
-39.86
-44.25
-49.04
-54.99
-62.63
-71.89
-81.97
-91.24
-97.54
-98.71
-93.23
-80.82
-62.6
-40.78
-18.01
3.37
21.89
36.98
48.83
57.91
64.64
69.33
72.12
73.21
72.92
71.65
69.86
67.91
65.98
64.07
62.09
59.99
57.84
55.83
54.12
52.71
51.31
49.44
46.59
42.43
37.03
30.75
24.21
17.95
12.31
7.31
2.65
-2.1
-7.32
-13.13
-19.39
-25.7
-31.61
-36.81
-41.27
-45.31
-49.5
-54.54
-60.99
-69.06
-78.31
-87.59
-95.01
-98.44
-96.07
-87.07
-72
-52.67
-31.6
-11.21
6.75
21.53
33.13
41.89
48.14
52
53.54
52.95
50.76
47.72
44.66
42.2
40.61
39.79
39.45
39.24
38.91
38.34
37.46
36.19
34.44
32.08
29.03
25.29
20.92
16.05
10.77
5.16
-0.7
-6.7
-12.7
-18.51
-23.98
-29.08
-33.92
-38.79
-44.09
-50.28
-57.62
-65.98
-74.59
-82
-86.33
-85.78
-79.21
-66.66
-49.42
-29.71
-9.96
7.82
22.48
33.76
41.99
47.67
51.24
52.96
53.02
51.7
49.41
46.68
44.02
41.75
39.99
38.64
37.57
36.6
35.64
34.55
33.15
31.21
28.52
24.96
20.59
15.61
10.23
4.59
-1.31
-7.54
-14.14
-20.94
-27.66
-33.91
-39.51
-44.57
-49.5
-54.9
-61.34
-69.17
-78.31
-88.09
-97.24
-103.96
-106.35
-102.86
-92.82
-76.79
-56.44
-34.17
-12.37
7.13
23.39
36.31
46.3
53.92
59.6
63.56
65.89
66.67
66.09
64.49
62.31
59.94
57.66
55.6
53.75
52.06
50.41
48.7
46.78
44.47
41.56
37.88
33.39
28.18
22.49
16.53
10.46
4.3
-2.03
-8.61
-15.38
-22.19
-28.78
-34.92
-40.55
-45.87
-51.31
-57.47
-64.85
-73.55
-83
-91.82
-98.04
-99.57
-94.9
-83.69
-66.91
-46.65
-25.4
-5.39
11.98
26.18
37.35
45.89
52.14
56.32
58.57
59.16
58.47
56.96
55.08
53.08
51.08
49.1
47.14
45.23
43.43
41.76
40.13
38.38
36.3
33.7
30.49
26.64
22.18
17.17
11.67
5.77
-0.37
-6.58
-12.61
-18.27
-23.48
-28.3
-32.93
-37.73
-43.1
-49.39
-56.8
-65.1
-73.54
-80.76
-85.04
-84.7
-78.69
-67.02
-50.86
-32.21
-13.32
3.9
18.3
29.54
37.76
43.31
46.47
47.44
46.46
43.98
40.71
37.46
34.95
33.46
32.85
32.6
32.09
30.91
29.05
26.79
24.58
22.66
20.95
18.99
16.18
12
6.34
-0.47
-7.75
-14.73
-20.88
-26.08
-30.63
-35.16
-40.37
-46.83
-54.77
-63.9
-73.3
-81.46
-86.52
-86.71
-80.96
-69.25
-52.78
-33.58
-13.96
4.13
19.53
31.82
41.13
47.76
51.99
54.02
54.08
52.57
50.07
47.28
44.78
42.91
41.7
40.87
40.04
38.84
37.06
34.67
31.81
28.65
25.35
21.95
18.29
14.11
9.1
3.11
-3.8
-11.3
-18.91
-26.17
-32.8
-38.86
-44.6
-50.44
-56.83
-64.13
-72.55
-82.01
-91.92
-101.06
-107.61
-109.55
-105.26
-94.14
-76.92
-55.56
-32.63
-10.55
9.02
25.34
38.49
48.9
57.06
63.25
67.65
70.39
71.65
71.69
70.79
69.19
67.08
64.67
62.18
59.86
57.87
56.25
54.83
53.22
51
47.82
43.57
38.4
32.64
26.66
20.69
14.81
8.93
2.87
-3.53
-10.31
-17.38
-24.54
-31.53
-38.12
-44.2
-49.92
-55.72
-62.28
-70.21
-79.64
-89.82
-99
-104.8
-104.88
-97.85
-83.82
-64.44
-42.32
-20.14
0.15
17.57
32.03
43.81
53.17
60.17
64.8
67.2
67.76
67.1
65.86
64.45
63.05
61.58
59.85
57.77
55.38
52.9
50.64
48.78
47.29
45.85
43.92
40.96
36.7
31.23
25.02
18.73
12.91
7.82
3.28
-1.14
-5.97
-11.52
-17.8
-24.48
-31
-36.82
-41.63
-45.49
-48.91
-52.65
-57.53
-64.11
-72.46
-81.89
-90.98
-97.74
-100.05
-96.36
-86.11
-70.09
-50.17
-28.83
-8.37
9.56
24.21
35.56
43.94
49.71
53.12
54.4
53.81
51.81
49
46.06
43.52
41.71
40.68
40.27
40.18
40.15
39.89
39.21
37.97
36.09
33.53
30.31
26.45
21.98
16.89
11.18
4.94
-1.65
-8.27
-14.6
-20.41
-25.66
-30.53
-35.36
-40.57
-46.53
-53.5
-61.49
-70.09
-78.33
-84.74
-87.55
-85.25
-77.11
-63.51
-45.86
-26.26
-6.83
10.8
25.66
37.44
46.21
52.23
55.81
57.28
57.06
55.62
53.48
51.08
48.75
46.68
44.93
43.47
42.29
41.38
40.69
40.1
39.31
37.9
35.44
31.68
26.7
20.92
14.87
8.97
3.36
-2.13
-7.83
-13.98
-20.59
-27.42
-34.12
-40.35
-45.98
-51.11
-56.13
-61.62
-68.17
-76.21
-85.64
-95.62
-104.48
-110.07
-110.32
-103.93
-90.88
-72.48
-50.95
-28.79
-8.02
10.15
25.37
37.85
47.91
55.79
61.53
65.14
66.8
66.93
66.1
64.86
63.54
62.18
60.62
58.71
56.45
54.07
51.87
50.09
48.67
47.25
45.29
42.26
37.93
32.44
26.26
20.03
14.23
9.02
4.17
-0.81
-6.34
-12.64
-19.53
-26.57
-33.3
-39.37
-44.75
-49.69
-54.65
-60.14
-66.7
-74.65
-83.93
-93.83
-102.93
-109.28
-110.83
-106.12
-94.8
-77.79
-57.04
-34.95
-13.71
5.16
20.9
33.39
42.86
49.68
54.21
56.84
57.96
58.01
57.4
56.4
55.17
53.75
52.09
50.22
48.28
46.53
45.23
44.46
43.99
43.3
41.82
39.11
35.16
30.35
25.29
20.51
16.21
12.21
8.05
3.3
-2.24
-8.41
-14.79
-20.88
-26.31
-30.96
-35.02
-38.93
-43.32
-48.8
-55.71
-63.92
-72.57
-80.12
-84.64
-84.32
-78.05
-65.83
-48.86
-29.16
-9.05
9.49
25.18
37.51
46.57
52.68
56.2
57.36
56.45
53.89
50.37
46.65
43.48
41.33
40.25
39.98
40.01
39.89
39.25
37.95
35.96
33.38
30.27
26.69
22.59
17.9
12.54
6.5
-0.09
-7.01
-13.96
-20.65
-26.93
-32.78
-38.31
-43.74
-49.32
-55.37
-62.2
-70.01
-78.68
-87.55
-95.3
-100.15
-100.27
-94.35
-82.17
-64.72
-43.97
-22.33
-1.98
15.62
29.82
40.61
48.34
53.46
56.37
57.44
57.05
55.6
53.51
51.15
48.85
46.85
45.3
44.21
43.49
42.92
42.24
41.15
39.38
36.78
33.27
28.87
23.73
18.03
11.97
5.75
-0.54
-6.89
-13.37
-20.02
-26.81
-33.59
-40.16
-46.38
-52.21
-57.88
-63.86
-70.72
-78.85
-88.2
-97.94
-106.45
-111.57
-111.24
-104.16
-90.3
-70.94
-48.34
-25.05
-3.21
15.8
31.43
43.77
53.15
59.95
64.45
66.93
67.7
67.18
65.83
64.05
62.14
60.2
58.27
56.35
54.5
52.82
51.35
49.97
48.4
46.2
43.02
38.7
33.4
27.48
21.39
15.41
9.56
3.57
-2.84
-9.87
-17.39
-24.98
-32.14
-38.48
-43.97
-48.89
-53.91
-59.73
-66.93
-75.6
-85.14
-94.14
-100.58
-102.34
-97.81
-86.51
-69.32
-48.27
-25.94
-4.74
13.66
28.51
39.8
47.88
53.19
56.1
56.93
56.04
53.95
51.23
48.51
46.23
44.62
43.64
43.04
42.54
41.88
40.88
39.49
37.66
35.41
32.72
29.56
25.82
21.41
16.21
10.23
3.61
-3.3
-10.07
-16.32
-21.84
-26.74
-31.37
-36.28
-41.99
-48.89
-57
-65.79
-74.16
-80.47
-82.91
-80.01
-71.12
-56.72
-38.36
-18.21
1.53
19.15
33.68
44.8
52.63
57.39
59.31
58.66
55.91
51.79
47.2
43.07
40.02
38.2
37.32
36.79
35.97
34.51
32.37
29.82
27.2
24.74
22.37
19.71
16.22
11.43
5.15
-2.42
-10.72
-18.99
-26.6
-33.23
-38.99
-44.37
-50.11
-56.93
-65.28
-75.16
-85.87
-96.01
-103.63
-106.63
-103.36
-93.14
-76.61
-55.61
-32.68
-10.37
9.38
25.59
38.15
47.47
54.09
58.45
60.83
61.48
60.76
59.16
57.22
55.35
53.76
52.44
51.2
49.81
48.12
46.07
43.71
41.07
38.15
34.9
31.18
26.88
21.9
16.2
9.81
2.81
-4.61
-12.24
-19.85
-27.21
-34.16
-40.7
-46.98
-53.35
-60.35
-68.48
-77.97
-88.42
-98.57
-106.41
-109.62
-106.34
-95.81
-78.74
-57.13
-33.61
-10.71
9.76
26.91
40.57
51.01
58.6
63.72
66.77
68.22
68.57
68.27
67.57
66.56
65.19
63.4
61.28
59.06
56.98
55.26
53.83
52.41
50.56
47.89
44.15
39.41
33.91
27.98
21.88
15.71
9.41
2.88
-3.94
-11
-18.08
-24.93
-31.32
-37.16
-42.61
-48.02
-53.93
-60.93
-69.38
-79.08
-89.08
-97.64
-102.59
-101.97
-94.63
-80.73
-61.73
-39.89
-17.69
2.86
20.54
34.9
46.04
54.26
59.89
63.19
64.48
64.18
62.86
61.13
59.49
58.21
57.32
56.63
55.93
55.1
54.21
53.42
52.81
52.25
51.37
49.7
46.89
42.85
37.87
32.4
26.89
21.54
16.26
10.72
4.57
-2.29
-9.66
-17.05
-23.9
-29.8
-34.64
-38.8
-42.93
-47.88
-54.32
-62.48
-71.8
-80.93
-87.9
-90.62
-87.58
-78.36
-63.79
-45.72
-26.43
-8.01
8.12
21.32
31.52
38.92
43.76
46.23
46.55
45.08
42.38
39.15
36.12
33.85
32.57
32.18
32.31
32.5
32.34
