-285.74
-307.83
-331.97
-356.52
-378.24
-392.75
-394.77
-383.62
-362.38
-336.27
-309.62
-284.48
-264.75
-251.52
-242.37
-228.44
-206.7
-177.56
-143.59
-106.59
-68.24
-39.55
-29.46
-40.14
-58.58
-81.35
-110.28
-150.46
-203.21
-265.53
-344.07
-437.94
-534.79
-601.21
-624.88
-608.35
-565.72
-510.73
-456.25
-431.51
-457.05
-534.78
-630.31
-724.87
-807.83
-876.74
-927.41
-842.87
-565.51
-125.67
263.64
553.11
745.16
887.03
992.77
1070.5
1126.1
1146.3
1123.3
1063.2
1002.5
955.84
925.13
902.52
883.66
866.09
834.49
778.63
699.83
623.48
559.07
507.05
461.21
418.68
378.59
332.47
275.36
209.45
151.83
109.06
81.4
64.13
53.97
48.49
41.6
29.17
11.07
-5.11
-16.45
-22.85
-26.59
-29.17
-31.75
-36.64
-45.19
-57.08
-68.95
-79.21
-87.51
-94.73
-101.84
-109.85
-119.46
-130.92
-143.84
-157.52
-171.12
-184.13
-196.53
-208.76
-221.62
-236.18
-253.61
-274.78
-299.67
-326.63
-352.22
-371.75
-380.71
-376.43
-359.18
-332.13
-300.03
-267.28
-236.73
-209.1
-183.79
-159.99
-137.5
-116.68
-98.11
-81.85
-67.3
-53.53
-39.73
-25.53
-11.18
2.74
15.83
27.73
37.76
44.24
44.4
35.02
13.94
-18.36
-58.21
-99.38
-135.34
-161.55
-176.98
-184.09
-187.34
-190.88
-197.18
-206.65
-218.13
-230.07
-241.08
-249.58
-253.47
-250.48
-239.68
-223.11
-206.23
-196.3
-198.94
-214.71
-238.16
-259.9
-270.92
-266.67
-248.62
-222.59
-195.09
-170.16
-148.41
-128.29
-108.37
-88.75
-70.91
-56.32
-45.23
-36.37
-27.79
-17.8
-5.92
6.76
18.35
26.95
31.55
32.42
30.9
28.84
27.74
28.24
29.99
31.99
33.25
33.19
31.99
30.36
29.21
29.2
30.45
32.5
34.6
36.07
36.51
35.97
34.82
33.56
32.61
32.13
32.04
32.14
32.22
32.17
31.99
31.79
31.66
31.64
31.75
31.93
32.08
32.16
32.11
31.93
31.62
31.23
30.77
30.34
29.98
29.73
29.65
29.72
29.91
30.1
30.2
30.03
29.45
28.31
26.48
23.94
20.69
16.82
12.49
7.92
3.36
-0.89
-4.58
-7.44
-9.27
-9.94
-9.37
-7.57
-4.63
-0.68
4.08
9.41
15.07
20.8
26.39
31.64
36.44
40.7
44.39
47.54
50.2
52.46
54.42
56.15
57.74
59.23
60.65
62
63.26
64.38
65.31
66.02
66.47
66.63
66.5
66.08
65.41
64.57
63.62
62.63
61.66
60.77
60.01
59.4
58.96
58.64
58.39
58.15
57.84
57.39
56.72
55.76
54.49
52.91
51.05
48.98
46.8
44.62
42.56
40.74
39.29
38.26
37.7
37.59
37.87
38.48
39.32
40.3
41.28
42.19
42.94
43.5
43.84
43.94
43.83
43.51
43.01
42.37
41.6
40.73
39.78
38.76
37.7
36.62
35.54
34.49
33.48
32.56
31.74
31.04
30.5
30.14
29.94
29.91
30.03
30.3
30.65
31.02
31.37
31.65
31.82
31.86
31.73
31.41
30.89
30.15
29.2
28.12
26.99
25.94
25.07
24.51
24.29
24.44
24.92
25.68
26.69
27.88
29.23
30.71
32.23
33.68
34.93
35.87
36.44
36.71
36.88
37.23
38.04
39.52
41.67
44.33
47.25
50.21
53.17
56.26
59.82
64.13
69.36
75.36
81.74
88.01
93.87
99.35
104.94
111.32
119.17
128.81
140.09
152.41
165.16
177.94
190.91
204.6
219.69
236.68
255.77
277.11
300.67
326.19
352.59
377.7
398.38
411.39
414.68
408.13
393.42
372.91
348.53
321.17
291.17
259.43
228.09
200.28
178.84
164.93
157.14
152.08
145.93
136.09
122.23
106.19
90.91
78.77
70.53
65.07
60
53.13
43.45
31.99
21.25
13.98
11.56
13.27
16.39
17.44
13.91
5.48
-5.79
-16.25
-22.18
-21.4
-14.31
-3.69
6.4
12.11
11.07
3.13
-9.83
-24.56
-37.46
-45.48
-46.86
-41.89
-33.07
-24.89
-22.43
-28.82
-42.94
-58.82
-67.93
-63.29
-43.84
-15.98
8.67
18.76
9.01
-16.79
-47.03
-67.49
-67.96
-46.78
-11.06
26.95
55.52
68.12
65.11
52.02
35.51
19.93
5.78
-8.72
-24.53
-39.54
-48.92
-48.3
-36.87
-18.59
-0.63
9.92
8.67
-5.15
-29.5
-60.44
-92.76
-119.77
-133.64
-127.42
-98.54
-51.53
2.25
48.67
76.72
82.82
70.79
47.83
19.87
-10.77
-43.5
-76.06
-102.73
-115.87
-110.46
-88.49
-59.22
-34.99
-24.86
-30.16
-45.02
-60.91
-71.63
-75.45
-73.5
-66.55
-53.55
-32.89
-5.56
22.83
43.11
46.71
30.49
-0.62
-34.91
-59.78
-67.44
-58.27
-39.46
-20.71
-9.16
-6.27
-8.18
-8.04
-0.8
13.78
31.14
44.67
49.56
45.21
34.89
23.29
15.45
13.29
15.73
19.85
23.29
25.56
27.79
31.29
36.21
45.48
60.96
83.51
112.94
148.69
189.59
232.56
271.94
300.05
318.85
333.02
348.32
369.06
396.66
430.13
466.67
502.72
535.46
577.92
641.9
731.42
838.26
945.57
1036.7
1102.5
1143.7
1168.8
1207.3
1281.8
1397.2
1537.4
1674.2
1782.2
1849
1876.8
1767.3
1470.7
995.62
416.05
-167.36
-676.8
-1077.2
-1366.7
-1560.5
-1679.5
-1727.7
-1710.3
-1639.3
-1535.2
-1421.4
-1316.2
-1228.1
-1158.2
-1104.1
-1049.6
-982.2
-897.79
-802.96
-709.39
-626.88
-559.83
-508.33
-470.71
-437.03
-400.45
-355.75
-305.92
-257.75
-217.15
-186.77
-166.5
-154.82
-145.8
-134.49
-118.56
-99.55
-80.67
-64.79
-53.26
-46.18
-43.02
-41.58
-40.03
-37.49
-34.69
-32.9
-33.15
-35.88
-40.95
-47.92
-56.16
-64.98
-73.64
-81.71
-88.76
-94.4
-98.4
-100.73
-101.5
-100.91
-99.17
-96.41
-92.74
-88.15
-82.59
-76.03
-68.51
-60.15
-51.15
-41.61
-31.55
-20.92
-9.6
2.4
14.84
27.13
38.42
47.85
54.8
59.22
61.65
63.05
64.36
65.97
67.54
67.95
65.4
58.61
47.61
33.8
19.4
6.49
-3.95
-12.36
-20.58
-31.31
-46.47
-66.21
-88.8
-111.54
-131.89
-148.68
-162.38
-174.96
-190.19
-211.53
-241.29
-279.92
-325.42
-372.51
-412.4
-433.91
-427.79
-393.75
-339.47
-279.08
-228.61
-200.75
-200.61
-224.31
-260.91
-298.89
-336.09
-373.92
-414.67
-458.7
-504.75
-551.33
-598.11
-644.7
-692.29
-749.66
-818.34
-889.74
-947.73
-977.27
-972.68
-939.75
-890.68
-841.46
-814.95
-820.85
-853.3
-895.47
-930.39
-949.22
-951.95
-941.71
-848.07
-641.2
-338.84
-0.32
310.96
557.64
731.38
830.16
881.8
906.55
905.02
877.05
827.13
765.64
703.91
649.02
603.8
570.38
546.61
521.11
486.46
441.72
392.07
344.36
303.31
270.61
247.32
231.11
213.98
190.83
161.16
128.72
98.48
74.26
57.76
50.05
49.72
52.44
55.32
57.79
61.33
67.88
79.19
95.68
117.06
141.32
165.24
186.28
203.21
215.95
224.89
232.14
239.29
246.92
254.04
259.08
260.96
259.69
256.14
251.39
250.08
255.7
269.21
288.41
309.32
328.35
343.82
355.59
364.16
375.81
395.23
423.52
457.36
491.18
520.69
544.8
564.97
583.44
609.51
650.08
707.05
776.7
852.32
928.66
1004.1
1079.3
1105
1046.6
893.87
670.61
420.68
182.41
-25.97
-203.91
-358.05
-492.75
-598.36
-662.78
-680.26
-658.25
-615.47
-573.07
-545.15
-534.66
-535.5
-532.43
-514.3
-478.98
-433.6
-388.65
-351.99
-324.86
-304.71
-288.31
-270.48
-248.66
-223.09
-197.02
-173.75
-154.91
-139.84
-126.73
-114.03
-99.64
-82.96
-64.79
-47.3
-32.15
-19.65
-8.9
1.17
10.92
20.33
28.26
37.07
46.57
55.86
63.37
67.03
64.64
54.81
37.78
15.98
-6.35
-25.08
-36.65
-39.17
-32.74
-19.08
-0.72
19.91
41.16
62.29
82.82
102.77
122.1
140.32
156.4
168.91
176.43
178
173.61
163.99
150.87
136.33
122.03
108.8
96.53
84.53
72.01
58.56
44.28
29.9
16.34
4.33
-5.78
-14.11
-21.19
-27.76
-34.49
-41.96
-50.47
-60.26
-71.55
-84.33
-97.99
-110.83
-120.22
-123.3
-118.25
-105.29
-86.95
-67.16
-49.7
-36.8
-28.5
-23.04
-18.15
-12.25
-5.18
1.93
7.4
9.92
9.13
5.67
0.81
-4.17
-8.45
-11.61
-13.26
-12.55
-8.26
0.7
14.31
30.72
46.4
57.22
60.08
54.15
41.16
24.5
7.9
-5.91
-15.91
-22.61
-27.56
-32.79
-40.32
-51.97
-69.09
-92.23
-120.34
-150.18
-176.41
-192.81
-194.4
-179.61
-151.23
-115.57
-80.01
-50.06
-27.5
-10.66
3.55
17.23
30.18
40.52
46.54
48.42
48.58
50.49
56.95
67.82
81.35
95.66
109.75
123.55
137.32
150.97
163.81
174.68
181.3
182.18
177.31
168.25
157.25
146.37
137.08
130.04
125.23
119.47
110.08
96.44
80.32
64.35
50.45
39.38
30.98
24.39
11.61
-13.31
-50.7
-95.15
-139.95
-180.92
-216.87
-248.31
-276.2
-315.44
-376.01
-456.52
-544.12
-623.97
-687.23
-732
-760.47
-776.32
-805.87
-867.9
-963.21
-1074.3
-1180.2
-1269
-1339.1
-1394.5
-1440.4
-1510.5
-1627.3
-1789.4
-1970.3
-2138.6
-2274.5
-2372.1
-2433.8
-2280.9
-1825.5
-1116
-318.78
402.54
967.44
1370.3
1640.7
1815
1924.5
1961.7
1925
1826
1694.5
1562.5
1448.6
1357.1
1283.9
1226.9
1163.4
1077
966.93
851.07
750.58
677.65
634.07
615.76
609.99
599.57
572.24
525.83
471.04
421.45
385.05
362.94
351.87
346.77
335.4
314.69
283.29
246.12
209.96
179.11
154.64
135.61
120.24
104.8
86
61.95
34.43
6.54
-19.31
-42.08
-61.97
-79.77
-96.24
-112.76
-131.68
-154.42
-181.43
-211.61
-242.09
-268.6
-286.61
-292.74
-286.39
-270.26
-248.5
-225.24
-203.25
-183.5
-165.65
-149.04
-133.27
-118.52
-105.34
-93.72
-83.01
-72.3
-60.94
-48.96
-37.04
-26.18
-17.13
-10.15
-4.71
0.14
5.3
11.25
17.74
24.04
29.32
33.07
35.38
36.91
38.59
41.15
44.81
49.19
53.5
57.02
59.3
60.48
61.14
61.96
63.56
66.33
70.39
75.42
80.52
84.13
84.38
79.8
70.11
56.6
41.84
28.54
18.48
11.86
7.41
3.34
-1.64
-7.85
-14.76
-21.59
-27.92
-33.87
-39.78
-45.81
-51.69
-56.85
-60.69
-62.77
-63.17
-62.26
-60.66
-58.95
-57.5
-56.41
-55.54
-54.67
-53.49
-51.73
-49.25
-46.05
-42.27
-38.23
-34.26
-30.69
-27.71
-25.21
-22.96
-20.68
-18.16
-15.54
-13.12
-11.49
-11.08
-12.03
-13.95
-15.92
-16.7
-15.28
-11.2
-4.76
2.85
9.64
12.77
8.95
-4.86
-30.31
-66.55
-109.99
-155.03
-195.83
-228.34
-251.48
-267.08
-278.57
-289.28
-301.32
-315.37
-331.14
-348.05
-365.31
-381.49
-394.38
-401.19
-399.47
-388.04
-367.63
-340.75
-310.84
-281.04
-253.36
-228.39
-205.69
-184.41
-163.9
-143.96
-124.78
-106.72
-90.01
-74.72
-60.78
-48
-36.16
-25.13
-14.75
-4.98
4.28
13.08
21.47
29.42
36.88
43.76
49.94
55.35
59.96
63.83
67.04
69.66
71.79
73.47
74.73
75.61
76.22
76.7
77.2
77.86
78.75
79.84
80.98
82
82.64
82.75
82.17
80.88
78.87
76.21
73.04
69.5
65.73
62.61
60.89
60.85
62.17
64.24
66.48
68.53
70.21
71.38
72.61
74.49
77.12
80.14
82.91
84.98
86.17
86.53
86.24
87.13
90.85
97.9
107.31
117.49
127.07
135.31
141.92
146.82
154.75
169.8
193.03
221.76
251.54
278.75
301.54
319.45
332.68
351.4
384.76
435.73
499.46
567.34
632.22
690.22
739.81
780.33
826.43
891.05
976.85
1074
1166.8
1242.8
1295.8
1324.7
1331.9
1341
1374.8
1443.5
1540.2
1650
1761
1868.8
1974.6
1951.9
1721.6
1283.5
721.66
147.95
-358.46
-765.45
-1071.9
-1290.4
-1429.2
-1499.7
-1507.3
-1462.7
-1387.1
-1304.1
-1230.8
-1175.4
-1141.1
-1126.9
-1116.4
-1091.6
-1044.6
-980.43
-910.66
-845.52
-791.09
-750.3
-724.64
-706.08
-685.79
-661.47
-638.23
-622.13
-614.09
-608.58
-596.73
-570.97
-524.22
-454.47
-367.35
-274.63
-187.34
-112.13
-51.35
-4.35
26.63
40.77
40.61
31.14
16.49
1.39
-10.16
-15.92
-15.53
-9.95
-0.04
14.13
33.23
56.73
86.03
123.62
172.41
229.53
289.24
343.9
385.16
418.14
439
443.88
432.76
400.43
351.27
293.99
237.46
187.38
144.76
105.15
64.67
21.79
-22.35
-63.13
-95.17
-113.8
-116.37
-103.23
-80.28
-55.93
-39.51
-38.84
-56.31
-88.93
-129.63
-170.04
-203.78
-229.41
-248.43
-263.82
-278.45
-294.13
-312.73
-336.18
-365.44
-398.46
-430.02
-452.28
-457.89
-442.62
-407.77
-359.87
-307.74
-258.9
-217.23
-183.22
-155.35
-131.85
-110.24
-88.86
-67.23
-45.72
-24.97
-5.42
12.64
29.01
43.61
59.29
78.99
104.38
135.22
170.06
207
243.98
278.82
309.32
336.75
362.57
386.88
408.19
424.62
435.12
439.61
438.59
413.06
353.34
263.27
158.68
57.18
-30.52
-101.5
-157.49
-201.7
-235.71
-260.03
-274.06
-278.12
-274.2
-265.08
-252.96
-239.02
-222.97
-205.95
-186.47
-163.04
-135.68
-106.08
-76.65
-49.44
-25.74
-5.03
13.33
31.66
52.4
77.05
105.73
137.33
169.98
201.67
232.21
260.92
287.68
312.53
335.59
357.28
378.56
400.69
424.24
449.9
473.96
489.23
487.53
463.5
417.28
355.08
286.8
208.51
124.51
42.67
-28.59
-83.73
-121.03
-141.68
-148.28
-144.57
-135.03
-121.76
-107
-92.48
-79.04
-66.19
-53.44
-40.29
-27.54
-16.73
-7.86
-1.3
2.71
4.53
5.45
6.44
8.22
10.48
11.88
11.59
8.19
0.14
-14.05
-30.83
-48.21
-64.98
-81.2
-98.08
-116.87
-138.81
-164.42
-193.01
-222.98
-253.02
-282.18
-310.45
-338.67
-368.06
-400.28
-437.12
-479.99
-528.85
-581.54
-632.39
-673.08
-694.93
-692.1
-663.98
-615.53
-555.29
-492.02
-432.2
-378.49
-330.68
-287.64
-248.83
-214.57
-185.33
-160.76
-139.38
-119.29
-99.04
-78.34
-58.07
-39.93
-25.3
-14.67
-7.42
-2.08
2.93
8.64
15.18
21.85
27.5
31.23
32.71
32.41
31.32
30.52
30.78
32.29
34.72
37.41
39.8
41.54
42.67
43.47
44.27
45.27
46.44
47.61
48.47
48.79
48.5
47.69
46.57
45.37
44.33
43.6
43.31
43.46
44.08
45.14
46.6
48.35
50.27
52.24
54.15
55.93
57.5
58.86
59.94
60.72
61.2
61.45
61.58
61.79
62.29
63.28
64.86
67.02
69.6
72.43
75.35
78.31
81.4
84.81
88.74
93.32
98.54
104.22
110.16
116.17
122.28
128.73
135.9
144.22
153.99
165.25
177.86
191.44
205.59
220.03
234.55
249.27
264.65
281.52
300.81
322.92
347.14
371.29
391.95
405.48
409.15
401.94
384.75
359.86
330.08
298.2
266.64
237.36
211.79
190.53
173.26
158.83
145.88
133.4
121.18
109.54
98.82
88.87
79.17
69.2
58.86
48.62
39.03
30.39
22.51
15.11
8.17
2.08
-2.67
-5.97
-8.44
-11.05
-14.52
-18.85
-23.23
-26.65
-28.57
-29.17
-29.21
-29.38
-29.91
-30.59
-31.16
-31.69
-32.56
-34.17
-36.57
-39.33
-41.64
-42.53
-41.3
-37.59
-31.45
-23.38
-14.33
-5.53
1.68
6.47
8.64
8.67
7.48
5.93
4.41
3.05
1.98
1.54
2.23
4.31
7.37
10.33
11.72
10.43
6.23
0.05
-6.55
-11.89
-15.03
-15.94
-15.38
-14.33
-13.51
-13.07
-12.72
-12.22
-11.58
-11.22
-11.73
-13.38
-15.96
-18.61
-20.32
-20.32
-18.38
-14.76
-10.08
-5.06
-0.44
2.94
4.21
2.79
-1.35
-7.4
-13.84
-19.05
-21.76
-21.5
-18.63
-14.02
-8.55
-2.87
2.59
7.65
12.09
15.8
18.81
21.36
23.85
26.55
29.4
31.91
33.28
32.81
30.2
25.79
20.49
15.45
11.58
9.16
7.92
7.14
6.22
4.88
3.34
1.93
0.75
-0.62
-2.89
-6.56
-11.4
-16.5
-20.64
-23.1
-24.15
-24.97
-26.9
-30.53
-34.94
-38.07
-37.79
-33.19
-25.36
-17.14
-11.81
-11.47
-16.04
-23.43
-30.74
-35.71
-37.58
-37.13
-35.68
-34.08
-32.11
-28.89
-23.74
-16.87
-9.44
-2.92
1.6
3.93
4.66
4.49
3.81
2.47
0.14
-3.25
-7.25
-10.97
-13.42
-13.86
-12.17
-8.83
-4.85
-1.32
0.78
0.91
-0.77
-3.52
-6.29
-8.31
-9.36
-9.9
-10.65
-12.06
-14.13
-16.36
-18.34
-20.04
-21.85
-24.09
-26.63
-28.71
-29.18
-27.43
-23.83
-19.9
-17.61
-18.38
-22.18
-27.58
-32.48
-35.16
-35.01
-32.52
-28.63
-24.02
-18.82
-12.82
-5.97
1.21
7.79
12.71
15.41
15.89
14.69
12.49
9.81
7.05
4.53
2.52
1.14
0.3
-0.33
-1.28
-2.9
-5.25
-8.03
-10.75
-13.03
-14.78
-16.18
-17.53
-18.91
-20.18
-21.06
-21.37
-21.28
-21.22
-21.66
-22.79
-24.41
-25.99
-26.91
-26.85
-25.78
-24.01
-21.8
-19.27
-16.52
-13.78
-11.54
-10.37
-10.66
-12.16
-14.09
-15.33
-14.9
-12.4
-8.03
-2.32
4.19
11.22
18.77
26.78
34.72
41.54
45.88
46.67
43.68
37.71
30.3
23.29
18.12
15.33
14.5
14.57
14.33
13.08
10.76
7.83
4.89
2.36
0.31
-1.4
-3
-4.6
-6.28
-7.95
-9.45
-10.63
-11.42
-11.93
-12.34
-12.79
-13.09
-12.73
-11.01
-7.44
-2.12
4.11
10.02
14.51
17.02
17.66
16.98
15.42
13.24
10.62
7.87
5.66
4.7
5.4
7.62
10.76
14.18
17.58
20.87
23.97
26.56
27.95
27.34
24.23
18.77
11.75
4.32
-2.43
-7.71
-11.32
-13.38
-14.25
-14.22
-13.44
-11.9
-9.71
-7.25
-5.3
-4.71
-6.02
-9.19
-13.53
-18.02
-21.81
-24.61
-26.51
-27.78
-28.52
-28.65
-28
-26.44
-24.01
-20.86
-17.31
-13.91
-11.4
-10.48
-11.47
-14.13
-17.69
-21.16
-23.86
-25.58
-26.47
-26.64
-25.87
-23.7
-19.77
-14.23
-7.77
-1.42
4.08
8.43
11.75
14.33
16.17
16.8
15.62
12.42
7.79
3.04
-0.49
-2.09
-2.16
-1.86
-2.33
-3.84
-5.66
-6.46
-5.41
-2.88
-0.35
0.42
-1.59
-6.03
-11.54
-16.51
-20
-21.94
-22.84
-23.24
-23.43
-23.24
-22.45
-21.05
-19.39
-18.02
-17.37
-17.6
-18.55
-19.89
-21.18
-22.04
-22.26
-21.91
-21.54
-22.02
-24.31
-28.89
-35.43
-42.3
-47.27
-48.14
-43.68
-34.4
-22.31
-10.35
-1.25
3.31
3.3
0.22
-3.59
-5.81
-5.48
-3.37
-1.88
-3.94
-11.4
-23.71
-37.74
-48.98
-53.63
-50.68
-42.55
-34.03
-29.87
-32.6
-41.43
-53.14
-63.68
-69.93
-70.34
-64.07
-50.29
-28.4
0.5
32.23
59.67
75.29
74.96
60.95
41.56
27.27
25.22
35.74
52.93
69.29
81.22
91.53
107.01
132.69
166.75
199.22
216.38
207.92
173.51
124.14
77.75
50.7
49.92
69.34
93.07
103.12
88.46
50.63
3.22
-34.62
-47.89
-33.19
-0.71
31.23
45.97
37.05
10.84
-18.15
-36.17
-37.87
-28.04
-16.64
-10.93
-9.89
-5.18
12.17
44.01
81.91
110.36
114.72
89.18
39.4
-20.8
-76.81
-119.65
-148.03
-166.14
-179.79
-193.04
-207.45
-222.85
-238.25
-252.04
-261.16
-261.23
-247.82
-218.75
-176.05
-125.9
-76.38
-33.96
-0.54
26.97
54.09
84.8
118.32
149
169.42
174.61
165.53
148.69
132.66
123.32
120.82
120.2
115.9
105.69
92.39
81.58
77.28
79.02
81.88
79.63
68.51
50.24
30.47
16.1
12.2
20
36.79
57.14
74.59
83.34
81.44
69.97
52.59
34.22
19.72
13.1
16.8
30.76
51.75
75.48
96.21
109.26
113.2
111.13
110.23
118.56
140.97
165.23
177.48
166.15
130.09
79.67
29.65
-9.43
-36.3
-58.48
-87.81
-132.37
-192.75
-260.22
-319.63
-356.75
-363.19
-338.57
-290.28
-230.06
-167.23
-106.47
-48.09
6.58
52.33
81.42
86.61
65.42
23.09
-27.42
-71.1
-97.13
-103.03
-93.99
-78.62
-64.56
-55.49
-51.09
-48.46
-44.82
-38.97
-31.51
-23.88
-17.24
-12.04
-7.8
-3.71
1.1
7
13.62
20.15
25.78
30.15
33.34
35.74
37.5
38.86
39.65
39.31
37.44
34.08
29.75
25.3
21.6
19.31
18.72
19.8
21.99
24.82
28.06
31.61
35.52
39.85
44.62
49.84
55.58
61.56
67.75
74.39
81.75
90.12
99.66
110.36
122.08
134.61
147.09
158.78
169
177.14
182.62
184.84
183
175.88
166.02
154.36
141.61
128.35
115.08
102.16
89.88
78.48
68.2
59.35
51.7
45.12
39.55
34.97
31.32
28.57
26.66
25.53
25.21
25.23
25.29
25.13
24.6
23.58
22.06
20.1
17.9
15.73
13.63
11.69
10.06
8.81
7.96
7.47
7.26
7.18
7.16
6.97
6.48
5.66
4.54
3.22
1.88
0.72
-0.03
-0.17
0.41
1.79
3.92
6.66
9.77
13
16.13
18.94
21.37
23.36
24.88
25.88
26.25
25.87
24.63
22.48
19.48
15.8
11.68
7.36
2.97
-1.46
-6.05
-10.97
-16.34
-22.16
-28.24
-34.35
-40.29
-46.11
-52.16
-59.06
-67.44
-77.67
-89.61
-102.61
-115.75
-128.32
-140.18
-151.98
-164.97
-180.44
-199.07
-220.4
-242.89
-264.61
-284.15
-301.41
-317.89
-335.87
-356.96
-381.25
-407.05
-431.88
-453.48
-470.46
-481.98
-487.25
-485.35
-476.21
-461.64
-445.83
-434.01
-429.79
-432.56
-436.47
-432.58
-412.95
-374.9
-323.02
-267.63
-220.2
-188.46
-173.8
-171.96
-176.23
-181.09
-184.4
-186.14
-185.77
-180.68
-167.06
-142.65
-109.31
-73.38
-42.96
-24.33
-18.14
-18.96
-18.31
-9.02
11.38
40.53
73.59
106.33
136.01
162.64
188.1
214.2
241.25
267.78
291.76
312.1
329.47
343.12
354.1
366.17
385.09
415.61
458.58
509.92
561.63
604.29
623.75
611.72
569.85
508.58
440.61
374.87
314.86
260.32
210.16
153.8
84.54
3.77
-80.1
-158.65
-228.52
-291.05
-349.58
-406.73
-477.13
-570.63
-686.13
-811.56
-932.4
-1038.7
-1125.9
-1192.6
-1160.2
-985.9
-686.68
-334.28
-3.33
266.13
467.05
608.93
701.17
762.85
792.29
785.33
744.97
683.61
614.99
546.65
483.32
429.18
388.79
354.79
319.17
279.32
240.77
211.3
195.52
194.09
204.94
218.35
227.55
227.73
218.29
204.51
192.87
187.33
188.64
194.84
202.7
205.29
203.19
195.83
185.29
174.37
164.88
157.44
151.65
146.87
141.96
135.54
126.45
115.4
103.78
92.76
83.13
75.15
68.85
64.54
61.91
59.78
57.47
54.55
50.78
46.11
40.54
34.17
27.29
19.92
11.52
1.87
-9.07
-21.01
-33.47
-45.88
-57.68
-68.46
-78.18
-87.41
-96.67
-106.46
-116.98
-128.17
-139.82
-151.7
-163.63
-175.65
-188.02
-201.06
-215.26
-231.3
-249.82
-270.87
-293.49
-315.49
-333.85
-345.55
-348.62
-342.7
-328.87
-309.19
-285.75
-260.25
-233.97
-207.95
-183.13
-160.4
-140.31
-122.83
-107.47
-93.44
-80.07
-67.04
-54.41
-42.39
-31.32
-21.42
-12.66
-4.79
2.53
9.62
16.59
23.22
29.02
33.43
36.03
36.71
35.78
33.81
31.39
28.86
26.31
23.6
20.58
17.25
13.9
11.03
9.11
8.47
9.1
10.7
12.83
15.12
17.39
19.66
22.2
25.32
29.31
34.4
40.84
48.39
55.86
60.67
59.2
47.87
24.8
-8.92
-48.91
-88.66
-121.91
-144.97
-157.87
-163.78
-167.25
-171.98
-179.67
-190.04
-201.34
-211.89
-220.67
-226.93
-229.46
-226.74
-218.3
-206.09
-195.07
-190.65
-196.66
-212.69
-233.52
-250.75
-256.5
-247.04
-224.27
-194.02
-160.96
-127.81
-95.24
-63.26
-32.23
-3.22
22.41
43.97
62.3
82.46
109.24
144.99
188.23
235.22
282.12
326.11
365.71
400.7
435.26
472.85
514.04
555.57
592.65
621.29
639.1
645.12
617.75
545.9
435.27
306.76
182.22
74.27
-13.76
-83.49
-138.08
-180.54
-209.81
-226.67
-232.33
-229.64
-221.64
-210.25
-196.38
-180.59
-163.56
-143.4
-118.71
-89.31
-57.7
-26.61
1.88
25.94
43.57
52.58
52.93
45.44
31.47
14.03
-2.37
-12.51
-12.08
1.18
27.49
66.76
118.54
173.2
220.24
251.4
264.34
262.14
250.15
232.87
213.69
194.06
172.88
147.72
115.38
73.79
23.47
-31.44
-84.62
-130.07
-165.46
-192.74
-214.55
-231.39
-239.77
-235.19
-214.34
-178.65
-134.44
-91.36
-58.31
-39.02
-31.61
-30.79
-31.38
-31.18
-31.18
-33.58
-40.41
-51.8
-65.27
-77.07
-83.92
-84.01
-76.76
-67.35
-57.92
-49.38
-41.53
-33.12
-23.1
-11.47
0.37
9.74
14.31
13.41
7.16
-3.42
-15.8
-27.51
-37.06
-44.25
-50.88
-57.51
-63.45
-68.07
-70.52
-68.23
-59.32
-43.47
-21.98
0.53
22.45
43.62
63.66
82.59
103.18
127.46
155.82
186.69
213.77
235.91
254.01
268.75
281.75
298.41
322.99
357.89
402.93
451.41
502.91
559.44
623.24
666.81
669.29
622.54
536.46
461.22
399.88
346.58
298.09
241.75
178.47
116.85
62.46
17.35
-20.08
-58.01
-98.32
-140.63
-184.97
-230.02
-272.23
-311.76
-348.46
-381.32
-412.84
-441.42
-466.14
-488.45
-510.02
-532.01
-560.15
-597.63
-642.57
-690.04
-729.41
-750.4
-747.35
-719.86
-646.15
-526.11
-379.71
-236.05
-117.05
-28.33
34.47
77.54
105.84
122.88
127.67
121.45
108.64
94.49
82.96
75.04
69.08
63.52
57.95
50.41
41.57
34.82
34.62
43.92
63
90.04
120.15
148.87
171.53
185.84
192.13
192.34
188.43
181.6
172.27
160.69
147.47
133
118.06
103.68
90.81
79.73
70.24
61.58
55.66
50.61
45.26
38.92
31.01
20.92
7.94
-7.91
-26.13
-45.61
-64.97
-82.16
-95.64
-104.66
-109.46
-110.8
-108.7
-102.81
-92.29
-76.3
-53.72
-24.18
11.93
54.18
96.85
136.75
172.23
203.12
230.35
256.11
283.19
314.5
352.06
395.58
442.38
486.66
521.32
540.56
542.62
530.26
509.38
486.18
464.43
445.03
426.07
404.84
379.62
350.44
318.41
284.7
249.79
213.57
176.42
139.33
103.98
72.44
46.29
25.94
10.47
-2
-13.67
-26.01
-39.56
-53.83
-67.64
-79.75
-89.4
-96.55
-101.75
-105.84
-109.42
-112.7
-115.46
-117.2
-117.51
-116.24
-113.63
-110.15
-106.37
-102.74
-99.45
-96.44
-93.48
-90.35
-86.96
-83.31
-79.54
-75.81
-72.28
-69.04
-66.07
-63.35
-60.83
-58.45
-56.23
-54.16
-52.26
-50.58
-49.16
-48.07
-47.34
-47.01
-47.08
-47.5
-48.17
-48.93
-49.6
-49.92
-49.65
-48.54
-46.37
-43.03
-38.45
-32.69
-25.87
-18.2
-9.93
-1.29
7.52
16.37
25.18
34
42.89
52.01
61.55
71.67
82.49
94.04
106.15
118.4
130.18
140.46
147.97
151.42
149.34
140.58
124.56
101.27
71.41
36.67
-0.61
-37.81
-72.04
-100.92
-122.79
-136.76
-142.86
-142.15
-136.36
-127.48
-117.58
-108.35
-101.08
-96.45
-94.6
-95.09
-97.11
-99.83
-102.42
-104.18
-104.62
-103.72
-101.49
-98.07
-93.88
-89.07
-83.83
-78.35
-72.63
-66.48
-59.88
-52.78
-45.02
-36.76
-28.09
-19.12
-10.23
-1.91
5.46
11.48
15.78
18.2
18.6
17.04
13.81
9.32
3.96
-1.88
-7.77
-13.44
-18.69
-23.48
-27.8
-31.77
-35.59
-39.38
-43.19
-47.04
-50.85
-54.5
-57.87
-60.82
-63.29
-65.31
-66.96
-68.32
-69.53
-70.71
-72.05
-73.71
-75.85
-78.62
-82.18
-86.59
-91.89
-98.06
-105.01
-112.69
-121.02
-129.99
-139.66
-150.09
-161.35
-173.35
-185.95
-198.89
-211.9
-224.91
-238.09
-251.85
-266.81
-283.62
-302.71
-324.08
-347.28
-371.64
-396.72
-422.49
-449.15
-476.52
-503.44
-527.47
-545.37
-554.26
-552.82
-542.11
-525.29
-506.58
-489.51
-476.05
-466.28
-458.89
-452.2
-444.81
-435.38
-422.43
-404.56
-381.59
-355.91
-332.47
-317.33
-314.49
-323.13
-337.02
-346.88
-344.56
-326.69
-295.73
-258.04
-220.26
-186.26
-156.44
-129.14
-102.93
-77.97
-55.67
-37.39
-23.17
-11.48
-0.13
12.77
27.79
43.88
59.03
71.3
79.56
83.93
85.61
86.23
87.07
88.6
90.3
91.19
90.26
87.14
82.23
76.54
71.3
67.49
65.53
65.24
66.06
67.41
68.86
70.28
71.81
73.6
75.73
78.05
80.27
82.02
83.05
83.29
82.86
82.05
81.15
80.38
79.89
79.76
79.99
80.56
81.4
82.43
83.54
84.68
85.69
86.46
86.94
87.14
87.09
86.89
86.66
86.52
86.64
87.14
88.15
89.71
91.76
94.19
96.8
99.3
101.36
102.64
102.85
101.77
99.26
95.31
90.06
83.8
76.88
69.72
62.77
56.44
51.03
46.78
43.7
41.77
40.82
40.63
40.9
41.35
41.78
42.02
42
41.67
41.14
40.51
39.9
39.46
39.28
39.46
39.99
40.86
42.01
43.33
44.72
46.05
47.23
48.21
48.96
49.5
49.87
50.15
50.39
50.64
50.93
51.25
51.55
51.78
51.87
51.77
51.42
50.78
49.89
48.82
47.67
46.5
45.41
44.46
43.68
43
42.35
41.61
40.63
39.26
37.37
34.89
31.81
28.2
24.18
19.93
15.71
11.76
8.28
5.5
3.53
2.39
2.03
2.33
3.13
4.16
5.21
6.08
6.63
6.78
6.53
5.96
5.22
4.45
3.82
3.49
3.56
4.13
5.18
6.71
8.69
11.04
13.71
16.59
19.6
22.63
25.56
28.31
30.89
33.34
35.77
38.34
41.24
44.63
48.61
53.18
58.31
63.9
69.85
75.96
82.03
87.8
92.92
97.07
99.94
101.35
101.32
100.11
98.13
95.93
93.99
92.59
91.81
91.53
91.59
91.92
92.65
94.07
96.5
100.08
104.65
109.77
114.83
119.34
123.24
126.96
131.38
137.45
145.88
156.78
169.71
183.88
198.5
213.18
227.99
243.35
259.93
278.5
299.87
324.65
352.61
382.08
409.64
430.73
441.02
438.1
422.52
397.52
367.66
337.04
308.11
281.47
256.79
233.72
212.5
193.82
178.06
164.88
153.24
141.98
130.47
118.97
108.51
100.18
94.58
91.27
88.98
85.97
80.7
72.33
61.04
48.04
35.06
23.88
15.68
10.65
8.12
6.8
5.39
3.11
-0.08
-3.84
-7.69
-11.55
-15.57
-19.8
-23.93
-27.19
-28.88
-28.9
-28.08
-27.69
-28.74
-31.25
-34.13
-35.99
-35.98
-34.64
-33.57
-34.36
-37.35
-41.02
-42.91
-40.94
-34.95
-26.83
-19.56
-15.52
-15.27
-17.48
-19.98
-21.08
-20.32
-18.42
-16.4
-14.81
-13.36
-11.2
-7.61
-2.48
3.64
9.82
15.08
18.66
20.08
19.23
16.29
11.82
6.61
1.65
-2.19
-4.58
-5.85
-6.6
-7.5
-8.86
-10.6
-12.33
-13.63
-14.52
-15.53
-17.28
-19.92
-22.9
-25.17
-25.83
-24.41
-21.41
-18.05
-15.53
-14.37
-14.22
-14.16
-13.29
-11.13
-8
-4.75
-2.14
-0.42
0.76
1.55
1.58
0.05
-3.89
-10.46
-18.67
-26.42
-31.4
-32.3
-29.47
-24.54
-19.46
-15.6
-13.09
-10.99
-8.18
-4.46
-0.84
1.09
0.04
-4.26
-10.92
-18.38
-25.23
-30.8
-35.09
-38.24
-40.17
-40.52
-38.91
-35.38
-30.43
-25.05
-20.29
-16.69
-14.33
-13.02
-12.57
-12.86
-13.87
-15.54
-17.68
-20
-22.06
-23.42
-23.71
-22.66
-20.14
-16.49
-12.38
-8.77
-6.47
-5.96
-7.23
-9.97
-13.74
-18.2
-23.27
-28.7
-33.98
-38.14
-40.02
-38.85
-34.65
-28.29
-21.24
-14.8
-9.56
-5.3
-1.52
2.09
5.23
7.06
6.71
3.8
-1.27
-7.32
-12.84
-16.7
-18.45
-18.54
-17.88
-17.42
-17.58
-18.23
-18.91
-19.33
-19.66
-20.32
-21.54
-22.72
-22.71
-20.25
-15.01
-8.07
-1.59
2.13
1.96
-1.69
-7.03
-11.8
-14.28
-13.99
-11.69
-8.7
-6.27
-4.79
-4.01
-3.35
-2.49
-1.54
-1.1
-1.84
-4
-7.26
-10.75
-13.28
-13.71
-11.41
-6.23
1.45
10.88
20.97
30.01
36.06
37.17
32.15
21.1
5.66
-11.1
-25.67
-35.08
-38.11
-35.43
-29.13
-21.64
-14.67
-8.87
-4.16
-0.52
1.83
2.22
0.24
-3.83
-8.89
-13.36
-15.89
-16.07
-14.5
-12.31
-10.68
-10.15
-10.5
-11.1
-11.08
-9.97
-7.7
-4.69
-1.72
0.34
0.83
-0.54
-3.68
-8.02
-12.84
-17.26
-20.63
-22.47
-22.46
-20.3
-15.8
-8.99
-0.21
9.65
19.34
27.51
33.22
36.26
37.05
36.4
35.07
33.36
30.89
26.99
21.36
14.5
7.73
2.5
-0.31
-0.87
-0.27
0.14
-0.43
-1.83
-3.24
-3.93
-3.91
-3.95
-5.14
-8.07
-12.3
-16.6
-19.67
-20.88
-20.56
-19.78
-19.45
-19.87
-20.67
-21.28
-21.66
-22.6
-25.32
-30.56
-37.88
-45.7
-51.97
-55.22
-55.14
-52.44
-48.23
-43.18
-37.46
-30.92
-23.59
-16.03
-9.04
-3.3
0.86
3.43
4.52
4.17
2.45
-0.32
-3.49
-6.12
-7.37
-6.99
-5.4
-3.57
-2.55
-2.87
-4.31
-6.08
-7.34
-7.69
-7.39
-7.1
-7.52
-8.93
-11.14
-13.65
-16.06
-18.07
-19.55
-20.46
-20.75
-20.55
-20.13
-19.8
-19.86
-20.45
-21.58
-23.25
-25.6
-28.72
-32.48
-36.25
-39.08
-40.03
-38.61
-34.87
-29.26
-22.15
-13.64
-3.8
6.69
16.4
23.41
26.18
24.25
18.48
10.8
3.34
-2.24
-5.17
-5.49
-3.85
-1.09
1.84
4.07
4.97
4.26
1.97
-1.49
-5.5
-9.31
-12.16
-13.44
-12.98
-11.33
-9.53
-8.66
-9.15
-10.54
-11.7
-11.55
-9.7
-6.77
-4
-2.41
-2.39
-3.62
-5.56
-7.83
-10.41
-13.38
-16.51
-19.23
-20.78
-20.62
-18.71
-15.46
-11.33
-6.39
-0.41
6.88
15.23
23.65
30.63
34.75
35.42
33.01
28.7
23.82
19.37
15.7
12.7
10.02
7.37
4.49
1.08
-3.1
-8.1
-13.59
-18.86
-23.12
-25.88
-27.31
-28.01
-28.56
-29.07
-29.03
-27.84
-25.24
-21.65
-17.83
-14.36
-11.13
-7.45
-2.6
3.42
9.6
14.32
16.24
15.14
12.1
8.95
7.42
8.32
11.43
15.85
20.59
24.95
28.61
31.5
33.65
35.2
36.43
37.74
39.48
41.61
43.62
44.72
44.34
42.41
39.35
35.54
31.08
25.6
18.6
10.01
0.39
-9.08
-17.16
-23.1
-26.93
-29.2
-30.56
-31.38
-31.69
-31.42
-30.65
-29.76
-29.22
-29.23
-29.37
-28.6
-25.63
-19.66
-11.01
-1.52
5.94
8.35
3.72
-8.06
-25.04
-43.78
-60.3
-71.2
-74.31
-68.93
-55.87
-37.18
-16.01
3.75
18.17
24.09
20.13
7.2
-11.58
-31.84
-49.49
-61.99
-68.93
-71.88
-73.51
-76.32
-81.64
-89.19
-97.01
-102.64
-104.13
-101.04
-94.47
-86.32
-77.89
-68.65
-56.06
-36.54
-7.36
31.85
78.58
128.22
174.88
211.74
231.28
226.24
192.87
133.77
59.65
-12.75
-65.96
-88.95
-82.41
-58.38
-34.55
-24.86
-34.33
-58.59
-87.54
-110.63
-120.59
-114.52
-92.76
-57.18
-8.05
52.82
119.7
183.42
234.99
269.7
288.68
297.19
299.9
301.24
300.88
293.64
273.69
239.19
195.31
152.5
122.33
112.19
128.99
175.05
246.25
333.19
424.38
510.05
584.57
646.58
663.95
618.72
514.36
374.39
227.79
94.01
-21.79
-123.97
-219.98
-312.87
-405.39
-493.95
-572.56
-637.21
-686.83
-722.06
-743.32
-735.97
-692.06
-608.17
-490.76
-357.93
-233.93
-139.17
-82.74
-60.67
-60.62
-71
-81.76
-87.4
-87.31
-83.29
-76.63
-67.18
-53.8
-35.96
-16.34
2.69
19.49
33.2
43.93
53.02
61.4
69.73
77.82
83.51
84.78
80.58
71.1
57.98
44.05
31.05
20.68
13.97
11.3
12.62
17.64
25.75
36.45
49.38
61.82
71.45
76.58
76.78
72.34
63.48
49.81
30.52
4.33
-33.69
-83.86
-145.18
-213.92
-284.9
-352.92
-413.79
-464.43
-484.13
-460.71
-394.85
-300.96
-198
-100.67
-16.27
53.49
110
155.8
190.41
213.77
226.89
232.83
234.2
232.58
228.34
220.94
209.5
190.88
163.2
128.39
91.03
55.65
25.79
3.4
-11.05
-18.32
-21.08
-21.76
-21.91
-21.67
-21.02
-19.8
-17.87
-15.28
-12.46
-10.32
-9.15
-11.29
-14.37
-16.52
-16.27
-12.68
-5.38
4.87
16.81
29.18
41.1
52.46
63.05
72.89
81.99
90.25
96.46
99.6
98.79
93.8
85.21
73.48
58.86
40.55
21.34
0.88
-21.91
-48.21
-78.38
-111.53
-146.33
-181.06
-214.45
-245.97
-276.68
-308.02
-341.67
-379.37
-422.44
-471.06
-522.89
-572.45
-611.52
-632.06
-628.41
-599.88
-551.33
-491.29
-428.83
-370.49
-319.09
-274.3
-234.89
-199.96
-169.34
-143.17
-120.92
-101.1
-81.75
-61.41
-39.83
-18.12
1.75
18.06
29.95
37.78
42.88
46.85
50.88
55.39
59.86
63.32
64.95
64.46
62.28
59.35
56.68
54.99
54.42
54.64
54.94
54.71
53.6
51.66
49.28
46.89
44.85
43.34
42.31
41.61
41.07
40.57
40.13
39.78
39.54
39.38
39.26
39.07
38.81
38.45
38.03
37.65
37.33
37.11
37.05
37.18
37.51
38.13
39.11
40.49
42.26
44.3
46.46
48.63
50.74
52.81
54.94
57.26
59.81
62.51
65.09
67.19
68.53
69.04
68.99
68.88
69.34
70.88
73.73
77.72
82.45
87.48
92.59
98.06
104.43
112.46
122.6
134.91
148.89
163.71
178.49
192.77
206.59
220.54
235.65
253.06
273.78
298.19
325.45
353.28
377.99
395.32
401.7
395.49
377.63
351.34
320.97
290.5
262.25
236.66
212.98
190.31
168.46
148.04
130.04
114.93
102.26
90.84
79.55
67.92
56.47
46.08
37.33
30.22
24.02
18
11.83
5.73
0.24
-4.11
-7
-8.05
-6.87
-3.16
3.04
10.86
18.63
24.26
26.15
23.93
18.47
11.6
5.41
1.64
1.04
3.22
6.77
9.74
10.51
8.48
4.51
0.43
-1.91
-1.95
-0.68
-0.06
-1.8
-6.05
-11.22
-14.81
-15.12
-12.29
-8.26
-5.57
-5.93
-9.43
-14.81
-20.39
-24.9
-27.81
-28.76
-27.39
-23.45
-17.28
-10.19
-4.13
-0.97
-1.68
-5.84
-12.02
-18.49
-23.9
-27.4
-28.5
-26.82
-22.26
-15.27
-7.02
0.98
7.42
11.87
14.81
17.05
19.12
20.96
22.06
21.85
20.16
17.09
12.82
7.56
1.39
-5.14
-11.11
-15.6
-18.13
-19.01
-19.13
-19.18
-19.18
-18.49
-16.58
-13.76
-11.33
-10.78
-12.8
-16.76
-21.07
-24.29
-26.08
-27.31
-28.96
-31.19
-33.03
-33.16
-31.11
-27.68
-24.72
-23.85
-25.49
-28.58
-31.51
-33.17
-33.77
-34.25
-35.39
-37.23
-38.79
-38.94
-37.2
-34.11
-30.63
-27.34
-23.51
-17.97
-10.52
-1.94
5.95
10.9
11.44
7.78
1.58
-4.86
-9.88
-13.79
-17.79
-23.01
-29.51
-36.13
-40.99
-42.5
-39.75
-33.45
-26.64
-22.41
-22.49
-27.59
-37.03
-48.88
-59.63
-62.85
-52.13
-27.21
7.96
45.42
73.76
83.48
72.21
46.98
25.19
24.53
48.26
90.62
140.71
184.53
212.21
222.46
222.08
227.56
254.38
299.76
356.51
418.29
476.13
521.29
547.26
551.14
542.58
537.53
538.59
549.62
576.18
614.88
655.33
685.52
650.59
523.61
387.64
289.53
222.02
179.26
150.49
125.11
96.39
61.92
6.13
-74.81
-187.97
-323.92
-459.2
-574.46
-660.22
-716.06
-746.33
-750.95
-727.3
-685.87
-637.03
-587.23
-543.25
-509.4
-485.92
-469.62
-452.44
-425.29
-390.09
-351.31
-312.56
-278.32
-251.63
-232.81
-219.91
-208.24
-192.27
-172.1
-149.56
-126.53
-105.55
-88.41
-75.37
-65.27
-55.64
-43.65
-28.79
-11.73
6.3
23.39
37.8
48.38
54.61
56.58
54.7
49.37
40.73
28.82
14.06
-2.77
-20.47
-37.58
-52.65
-64.91
-74.35
-81.64
-87.82
-93.84
-100.16
-106.49
-113
-117.72
-119.55
-118.33
-114.76
-110.08
-105.52
-101.81
-98.91
-96.18
-92.81
-88.5
-83.76
-79.77
-77.82
-79.01
-84.1
-93.47
-106.86
-122.61
-137.17
-145.6
-142.93
-126.36
-97.17
-60.89
-25.55
1.32
15.54
17.49
10.57
-1.02
-14.17
-27.81
-42.01
-56.87
-71.8
-85.53
-96.55
-104.49
-110.19
-114.95
-119.92
-125.03
-128.7
-128.13
-124.4
-117.42
-107.67
-96.34
-84.81
-74.13
-64.52
-55.47
-46.1
-35.7
-23.53
-9.71
5.09
20.07
34.74
49.2
63.98
79.65
96.41
114.42
133.1
151.66
169.36
185.95
201.74
217.63
234.55
253.19
273.77
295.39
316.22
333.87
345.89
350.3
346.1
333.36
313.16
287.45
258.41
227.76
196.3
163.89
129.83
93.78
56.55
20.34
-11.79
-37.09
-54.12
-63.2
-65.92
-64.07
-59.11
-51.83
-42.84
-33.09
-23.99
-16.95
-12.73
-10.87
-9.99
-8.68
-6.41
-3.87
-2.64
-4.28
-9.3
-16.8
-24.83
-31.35
-34.98
-35.4
-33.13
-28.94
-23.45
-17.29
-11.24
-6.5
-4.39
-5.65
-9.79
-15.12
-19.45
-20.94
-18.88
-13.67
-6.27
2.31
11.37
20.23
27.8
32.56
33.22
29.42
22.09
13.25
5.17
-0.36
-2.59
-1.83
0.55
2.41
1.21
-5.08
-17.1
-33.44
-50.58
-64.13
-70.59
-68.86
-60.48
-48.8
-37.24
-27.99
-21.79
-18.27
-16.77
-16.72
-17.4
-17.76
-16.61
-12.95
-6.52
1.7
9.91
16.05
18.66
17.19
12.19
4.93
-2.97
-9.74
-13.96
-14.96
-13.13
-9.78
-6.72
-5.36
-6.07
-7.95
-9.25
-8.4
-4.69
1.34
8.45
15.32
21.33
26.67
31.88
37.16
41.86
44.7
44.34
40.09
32.29
22.24
11.69
2.29
-4.85
-9.4
-11.77
-12.94
-14.1
-16.35
-20.22
-25.66
-31.97
-38.11
-43.08
-46.23
-47.26
-46.15
-43.09
-38.48
-33.02
-27.61
-22.95
-19.39
-16.86
-15.21
-14.78
-16.57
-21.96
-31.88
-45.72
-60.82
-73.07
-78.3
-73.94
-60.26
-40.25
-18.39
1.02
15.43
24.62
30.32
35.43
42.9
54.66
71.16
91.06
111.14
126.76
132.69
124.16
98.33
55.66
0.5
-59.2
-113.8
-154.46
-175.39
-174.96
-155.2
-120.33
-75.23
-24.77
26.43
73.61
112.02
137.86
149.34
147.27
134.66
115.39
92.94
69.6
46.65
25.01
6.09
-8.44
-17.03
-18.88
-14.39
-5.14
6.77
19.45
31.89
44.19
56.81
69.96
82.96
94.3
102.16
105.17
102.77
95.3
83.57
68.46
51
32.53
14.94
0.5
-8.73
-11.83
-9.42
-3.58
2.89
7.7
9.82
9.63
8.37
7.23
6.72
6.44
5.48
2.99
-1.3
-7.05
-13.76
-20.99
-28.65
-36.62
-44.31
-50.47
-53.55
-52.35
-46.82
-38.22
-28.37
-18.8
-9.99
-1.47
7.12
15.24
21.14
22.57
18.07
8.16
-4.9
-18.07
-29.05
-37.2
-43.32
-48.65
-53.86
-58.52
-61.52
-61.93
-59.59
-55.18
-49.92
-44.87
-40.52
-36.66
-32.77
-28.29
-23.08
-17.42
-11.87
-6.96
-2.9
0.46
3.53
6.59
9.42
10.94
9.57
3.81
-7.08
-22.41
-40.08
-56.96
-69.77
-76.03
-74.73
-66.44
-53.05
-37.14
-21.42
-8.09
1.44
6.85
8.81
8.81
8.73
10.17
13.75
18.78
23.41
25.42
23.27
16.82
7.42
-2.73
-11.54
-17.82
-21.45
-23.1
-23.64
-23.68
-23.59
-23.68
-24.17
-25.33
-26.97
-28.44
-28.88
-27.62
-24.56
-20.21
-15.71
-12.36
-11.26
-12.73
-16.16
-20.09
-22.69
-22.43
-18.66
-11.7
-2.48
7.95
18.79
29.5
39.59
48.26
54.57
57.68
57.23
53.61
47.74
40.93
34.33
28.69
24.24
20.7
17.36
13.39
8.26
2.05
-4.57
-10.65
-15.43
-18.6
-20.17
-20.21
-18.67
-15.53
-11.03
-5.95
-1.34
2.01
4.06
5.63
7.86
11.27
15.37
18.7
19.66
17.45
12.66
6.93
2.13
-0.3
0.05
2.77
7.02
12.12
17.76
24.11
31.42
39.71
48.61
57.02
63.28
65.83
63.88
58.05
50.09
42.09
35.56
30.79
26.98
23.07
18.68
14.13
10.13
6.92
3.91
0.15
-4.93
-10.97
-16.83
-21.37
-24.4
-26.77
-29.67
-33.69
-38.19
-41.53
-41.98
-38.8
-32.86
-26.16
-20.97
-18.72
-19.55
-22.56
-26.29
-29.39
-30.99
-30.95
-29.66
-27.58
-25.06
-22.03
-18.08
-12.79
-6.11
1.4
8.59
14.2
17.32
17.77
16.01
12.84
9.01
5.01
1.1
-2.63
-6.03
-9.04
-11.51
-13.3
-14.47
-15.07
-15.3
-15.4
-15.65
-16.32
-17.54
-19.36
-21.53
-23.84
-25.94
-27.39
-27.8
-26.91
-24.74
-21.55
-17.8
-13.94
-10.45
-7.8
-6.51
-7.04
-9.72
-14.19
-19.5
-24.25
-26.99
-26.81
-23.58
-17.92
-10.75
-2.94
4.92
12.43
18.98
23.68
25.42
23.39
17.86
10.54
4.19
1.39
3.06
7.8
12.43
13.67
10.14
3.17
-4.09
-8.82
-10.32
-10.33
-11.44
-14.99
-20.09
-24.19
-25.22
-23.22
-20.46
-19.61
-21.82
-25.75
-28.49
-27.67
-22.96
-16.29
-10.53
-7.72
-8.18
-10.76
-13.92
-16.5
-17.94
-17.94
-16
-11.36
-3.42
7.71
20.95
34.53
46.66
56.02
62.13
65.11
65.54
64.18
61.82
59.28
57.24
56.1
55.69
55.39
54.34
51.81
47.71
42.48
36.75
30.83
24.55
17.65
10.35
3.65
-1.13
-3.11
-2.53
-0.86
0.06
-0.81
-3.09
-5.19
-5.42
-3.12
0.83
4.48
5.96
4.52
0.99
-2.74
-4.67
-3.58
0.66
7.16
14.53
21.43
27.08
31.27
34.33
36.73
38.64
39.81
39.5
37.09
32.36
25.87
18.69
11.97
6.55
2.41
-1.06
-4.66
-8.88
-13.6
-18.21
-22.13
-25.25
-28.14
-31.71
-36.91
-44.22
-53.49
-64.01
-74.64
-84.04
-90.84
-93.87
-92.39
-86.47
-77.13
-66.11
-55.32
-46.11
-38.78
-32.83
-27.32
-21.55
-15.15
-8.02
0.07
9.47
20.37
32.47
44.86
56.35
65.88
72.88
77.02
78.15
76.05
70.59
62.09
51.36
39.55
27.59
15.96
4.54
-6.84
-18.18
-28.96
-38.48
-46.25
-52.08
-56.15
-58.74
-60.13
-60.57
-60.53
-60.59
-61.19
-62.4
-63.5
-63.24
-60.38
-54.29
-45.32
-34.74
-24.09
-14.68
-7.27
-2.06
0.97
1.84
0.56
-2.58
-6.85
-10.96
-13.43
-13.1
-9.34
-2.29
7.3
18.22
29
38.17
44.53
47.33
46.44
42.24
35.42
26.85
17.66
9.03
2.2
-1.84
-2.9
-1.77
0.03
0.79
-0.5
-3.9
-8.66
-13.67
-18.06
-21.38
-23.66
-25.15
-26.11
-26.65
-26.71
-26.07
-24.39
-21.36
-16.93
-11.27
-4.79
1.99
8.61
14.66
19.7
23.1
24.16
22.38
17.92
11.84
5.77
1.42
-0.13
1.33
5.22
10.63
16.64
22.58
27.82
31.68
33.46
32.84
30.15
26.41
22.95
20.83
20.25
20.53
20.55
19.47
17.42
15.31
14.38
15.45
18.5
22.83
27.54
31.81
35.13
36.94
36.4
32.53
24.79
13.8
1.62
-8.71
-14.45
-14.3
-9.22
-1.9
4.38
7.3
6.23
2.18
-2.96
-7.55
-10.64
-12.05
-11.87
-10.05
-6.33
-0.71
6.32
13.68
20.03
24.27
25.81
24.69
21.36
16.47
10.8
5.35
1.02
-1.55
-2.51
-2.75
-3.47
-5.59
-9.3
-14.1
-19.02
-23.28
-26.62
-29.21
-31.47
-33.84
-36.63
-40.12
-44.52
-49.7
-54.95
-59.28
-61.68
-61.82
-60.39
-58.91
-59.21
-62.82
-69.86
-79.08
-88.33
-95.35
-98.75
-98.1
-93.75
-86.46
-77.28
-66.44
-53.64
-38.17
-19.33
3.3
29.96
60.58
94.34
129.05
162.8
194.01
221.44
243.35
256.82
258.13
244.09
213.36
167.4
112.54
58.39
15.89
-5.73
-0.94
32.02
91.2
170.58
251.92
312.04
329.95
298.57
228.43
140.21
54.44
-15.17
-61.55
-89.51
-103.88
-108.47
-106.62
-102.63
-102.54
-112.67
-135.99
-169.85
-206.19
-233
-241.05
-227.83
-197.92
-160.05
-122.67
-90.99
-66.74
-49.79
-38.24
-29.97
-22.78
-14.67
-4.97
6.54
19.51
32.97
45.18
54.78
60.73
62.84
61.55
56.73
48.98
39.36
28.97
18.41
8.07
-1.84
-11.24
-20.03
-29.57
-40.61
-53.44
-68.02
-84.25
-101.94
-120.81
-140.47
-151.67
-150.88
-137.68
-114.2
-83.83
-50.18
-16.23
16.08
46.01
73.43
97.25
117.13
133.23
146.12
156.07
162.78
165.65
164.47
158.79
147.26
129.38
105.71
78.84
51.43
25.79
3.62
-13.54
-25.32
-32.9
-37.32
-39.41
-39.85
-39.36
-38.22
-39.38
-40.64
-40.38
-38.12
-33.45
-26.12
-16.35
-4.86
7.43
19.77
32.31
44.9
56.77
67.36
75.9
81.27
82.05
76.91
64.9
45.64
23.12
-0.67
-24.38
-47.7
-71.19
-96.06
-123.33
-153.13
-184.24
-214.95
-244.03
-270.56
-294.55
-316.76
-338.61
-361.75
-387.97
-418.51
-453.46
-490.89
-525.45
-549.35
-554.56
-536.02
-493.94
-434.1
-365.63
-297.82
-237.42
-187.08
-146.34
-113.57
-87.6
-68.11
-54.87
-46.97
-42.34
-38.77
-34.54
-29.21
-23.59
-19.31
-17.74
-19.25
-23.01
-27.21
-30
-29.97
-26.66
-20.54
-12.6
-3.89
5.03
14.09
23.67
34.07
45.27
56.72
67.48
76.61
83.38
87.64
89.81
90.7
91.21
92.12
93.8
96.26
99.28
102.51
105.66
108.59
111.27
113.68
115.84
117.65
119.01
119.85
120.12
119.79
118.83
117.2
114.83
111.52
107.01
101.09
94.1
86.37
78.07
69.15
59.48
49.06
37.94
26.18
13.76
1.3
-10.6
-21.38
-30.62
-37.97
-43.11
-45.87
-46.34
-44.94
-40.82
-33.21
-21.79
-6.8
11.08
31.16
52.7
74.92
96.9
121.82
152.7
190.88
235.34
283.4
332.2
379.53
424.23
465.86
512.46
569.77
637.09
706.54
766.93
809.46
830.57
831.7
815.67
797.72
788.24
788.9
793.89
796.23
793.53
788.26
784.15
781.08
793.04
828.79
888.65
965.03
1047.9
1130.2
1208.5
1280.6
1250.5
1066.2
732.78
314.76
-104.6
-466.75
-749.62
-956.28
-1088.2
-1172.1
-1211
-1204.6
-1159.1
-1089.8
-1015.4
-949.33
-898.86
-863.46
-842.36
-821.25
-790.86
-749.84
-703.29
-657.38
-615.05
-576.19
-541.17
-513.88
-488.36
-457.23
-413.67
-354.71
-283.29
-207.69
-138.93
-87.77
-61.01
-51.72
-46.15
-30.53
2.29
50.49
106.3
161.57
209.75
246.12
269.54
278.75
270.9
242.66
192.83
119.35
32.75
-48.45
-106.96
-135.38
-137.23
-121.77
-97.89
-71.27
-44.29
-16.4
12.54
41.6
68.78
92.85
113.12
130.58
145.9
159.23
171.14
181.18
188.32
190.9
188.41
181.55
171.89
160.82
149.14
137.19
123.52
110.22
97.42
85.33
74.52
65.84
59.83
56.67
56.32
58.21
61.59
65.05
67.64
68.93
68.89
67.47
64.6
60.14
53.92
45.8
35.36
22.57
7.83
-8.11
-24.38
-40.1
-54.4
-66.5
-75.75
-82.09
-85.7
-86.97
-86.46
-84.81
-82.65
-80.47
-78.55
-76.95
-75.66
-74.42
-72.76
-70.18
-66.19
-60.36
-52.46
-42.43
-30.53
-17.24
-3.16
11.02
24.58
36.75
46.8
54.18
58.54
59.83
58.37
54.87
50.21
45.34
41.17
38.4
37.47
38.59
41.77
46.95
54.02
62.68
72.44
82.5
91.71
98.77
102.49
101.89
96.53
86.63
72.82
55.89
36.42
14.48
-10.14
-37.61
-67.72
-99.46
-131.17
-160.98
-187.42
-210.01
-229.55
-247.66
-265.85
-284.48
-302.27
-316.57
-324.34
-323.83
-315.21
-301
-284.82
-270.06
-258.69
-251.13
-247.25
-247.11
-250.84
-257.23
-262.96
-263.22
-254.06
-234.92
-209.29
-182.82
-159.43
-138.22
-113.53
-78.93
-32.34
20.83
68.93
99.47
105.18
87.59
55.66
21.25
-6.61
-24.98
-36.83
-48.81
-67.17
-94.27
-126.89
-157.87
-179.56
-187.44
-182.02
-167.49
-149.08
-130.43
-113.02
-97.77
-87.15
-85.28
-95.57
-117.28
-143.38
-162.09
-161.03
-132.59
-77.06
-2.52
78.25
151.86
206.98
235.93
234.96
204.67
150.4
82.18
13.64
-40.34
-67.07
-59.27
-16.83
52.96
137.43
221.78
292.63
340.77
362.54
359.54
337.06
301.45
259.03
215.73
174.27
134.09
93.79
53.34
15.74
-13.2
-27.7
-24.42
-4.02
26.4
55.41
72.5
72.01
54.75
26.53
-7.45
-43.96
-80.1
-116.28
-153.72
-189.77
-218.11
-231.69
-226.26
-207.42
-183.15
-153.11
-118.82
-84.31
-51.74
-23.49
-3.51
3.53
-15.34
-65.24
-126.25
-182.6
-229.41
-264.21
-288.01
-304.17
-316.61
-344.08
-397.44
-453.61
-499.7
-539.27
-574.74
-608.03
-641.05
-675.98
-735.87
-834.86
-942.16
-1037.3
-1117.5
-1177.5
-1212.8
-1223.3
-1084.8
-750.94
-436.2
-219.18
-55.15
71.11
172.39
258.93
338.6
417.59
479.88
514.89
550.72
597.52
641.62
671.39
679.53
664.62
630.52
568.74
478.46
391.39
327.55
288.84
275.91
286.75
316.06
356.32
389.72
403.9
409.84
414.26
414.96
411.24
403.19
391.49
377.45
357.53
329.39
299.79
272.29
246.39
224.2
209.8
207.55
219.95
243.99
273.48
303.51
328.19
342.08
343.08
331.68
309.59
278.86
241.63
200.81
160.13
123.24
92.49
68.3
48.68
30.38
10.43
-12.41
-36.79
-59.31
-75.96
-83.48
-80.39
-67.28
-46.62
-21.95
2.62
23.51
38.42
47.03
51.29
54.71
61.01
72.3
87.75
103.63
115.37
120.26
119.34
116.76
116.84
120.78
125.33
125.01
115.6
97.54
75.85
57.21
45.86
40.95
37.33
28.72
11.52
-13.12
-40.07
-63.14
-78.27
-85.06
-86.37
-86.09
-87.12
-90.39
-95.72
-103.4
-115.14
-133.04
-157.52
-185.34
-209.61
-222.16
-216.77
-191.74
-150.19
-98.51
-43.98
7.33
51.27
85.33
108.43
120.99
125.16
124.5
122.98
123.77
128.29
135.89
144.6
152.09
156.13
155
147.54
133.06
111.1
82.05
47.75
12.36
-18.03
-37.3
-41.61
-30.6
-6.54
27.65
70.2
120.28
176.15
232.84
281.92
314.01
323.08
309.53
280.4
246.01
215.25
192.3
176.16
163.18
150.12
135.68
120.28
104.54
88.24
69.89
47.76
20.85
-10.39
-43.81
-76.47
-105.56
-129.39
-147.78
-161.79
-172.94
-182.38
-190.23
-195.71
-197.65
-195.26
-188.83
-179.83
-170.59
-163.44
-160.03
-160.82
-165.36
-172.69
-182.06
-193.29
-206.87
-223.78
-245.29
-273.01
-308.6
-352.97
-405.12
-460.95
-513.26
-553.14
-572.68
-567.7
-539.17
-492.46
-434.97
-373.74
-313.9
-258.83
-210.73
-171.14
-140.46
-117.17
-97.43
-75.78
-47.15
-9.37
35.51
81.55
120.88
146.39
153.77
142.63
116.47
81.74
46.66
19.31
5.83
9.22
29.09
62.5
104.91
151.15
195.56
232.05
254.34
256.94
236.76
194.45
134.32
62.52
-14.85
-92.91
-167.43
-233.21
-283.65
-312.01
-314.43
-292.78
-255.26
-213.73
-178.95
-156.38
-144.63
-137.36
-127.35
-110.61
-87.68
-62.56
-39.55
-20.66
-4.9
10.5
27.67
46.34
63.65
75.97
81.08
79.91
76.31
75.57
82.43
99.67
127.73
164.9
207.77
251.31
289.07
313.65
318.27
299.25
258.16
202.47
143.67
93.6
60.68
48.07
54.49
76.65
111.36
155.64
205.2
252.83
288.76
303.81
293.64
261.68
218.42
177.19
148.8
137.65
141.12
151.82
161.54
164.54
159.42
148.91
137.51
129.05
124.77
122.71
119.07
110.88
98.5
85.83
78.37
79.79
89.93
105.11
120.49
132.61
140.48
144.69
145.53
141.88
131.02
110.91
81.82
46.85
10.67
-22.43
-49.93
-71.47
-88.33
-104.16
-122.16
-143.82
-168.76
-195.99
-225.16
-256.63
-290.27
-324.03
-356.11
-381.89
-394.71
-388.39
-360.76
-314.8
-256.41
-192.07
-127.53
-72.77
-37.07
-26.17
-40.49
-75.88
-124.75
-177.02
-222.7
-254.76
-277.01
-296.62
-319.27
-346.51
-377.52
-410.69
-443.18
-471.03
-453.86
-370.88
-234.45
-84.36
41.63
126.72
173.26
193.32
199.68
201.16
195.77
179.61
152.91
121.83
94.35
74.63
64.83
63.43
66.82
66.62
56.85
37.11
12.49
-10.86
-29.18
-41.57
-49.5
-55.29
-63.6
-77.04
-96.08
-117.16
-135.89
-149.32
-156.24
-156.91
-152.08
-143.88
-133.75
-121.79
-106.71
-87.36
-63.5
-35.56
-4.28
29.76
65.64
102.52
139.55
175.76
209.67
239.4
263.39
280.89
292.26
298.78
302
303.01
302.24
299.51
294.57
287.83
280.56
274.75
272.97
277.88
292.11
317.86
355.84
403.87
456.2
504.13
538.37
552.25
543.93
517.1
479.1
437.67
398.09
362.17
329.17
297.69
267.18
238.16
211.52
187.47
165.14
143.04
120.07
96.21
72.59
51.08
33.27
19.97
11
5.46
2.49
1.67
3.22
7.93
16.55
29.02
44.18
59.79
73.03
81.23
82.38
75.58
60.99
39.51
12.38
-19.02
-53.17
-88.3
-122.14
-152.27
-176.3
-192.48
-200.15
-199.82
-193.11
-182.06
-168.67
-154.2
-139.21
-123.93
-108.78
-94.99
-84.37
-79.04
-80.5
-89.05
-103.25
-120.46
-137.65
-152.42
-164
-173.21
-182.25
-194.19
-212.3
-239.22
-275.86
-320.18
-366.87
-408.22
-436.56
-447.15
-440.07
-419.99
-393.91
-367.88
-344.79
-324.14
-303.78
-282.19
-259.61
-237.74
-217.82
-199.2
-178.9
-152.7
-116.58
-67.76
-5.37
68.99
150.98
233.63
308.05
365.44
399.82
410.37
401.75
382.16
359.79
339.55
321.85
303.92
282.58
256.74
228.14
200.04
175.3
154.73
137.19
120.6
103.44
85.49
67.91
52.18
39.07
28.24
18.26
7.31
-6.35
-23.62
-44.48
-68.1
-93.14
-118.29
-142.7
-166.07
-188.77
-211.47
-234.95
-259.81
-286.71
-316.87
-352.08
-393.81
-441.68
-492.28
-539.29
-575.31
-594.72
-596.1
-582.84
-561.26
-537.52
-514.88
-492.87
-468.47
-438.3
-400.66
-356
-306.36
-254.04
-201.08
-149.26
-100.6
-57.7
-23.42
-0.42
9.83
7.59
-4.97
-24.44
-46.62
-67.96
-86.29
-100.9
-112.04
-120.1
-125.14
-126.76
-124.38
-117.26
-105.25
-89.25
-71.06
-52.69
-35.76
-21.05
-8.6
2.21
13.21
26.08
41.37
58.47
76.23
93.62
110
124.89
138
151.71
167.9
186.36
204.83
220.69
232.45
240.12
244.54
246.93
253.9
270.59
297.45
330.08
362.54
390.58
412.34
427.51
436.36
448.05
469.85
502.31
539.07
572.26
597.46
614.69
626.75
637.31
660.92
708.81
781.79
869.97
959.83
1040.9
1107.6
1157.3
1116.7
945.68
657.63
314.27
-17.39
-298.34
-518.68
-684.36
-806.31
-892.44
-944.36
-960.85
-946.3
-912.65
-873.58
-838.25
-810.14
-788.71
-773.02
-753.46
-722.02
-678.08
-628.34
-581.36
-542.52
-512.89
-490.81
-473.72
-453.66
-423.95
-383.16
-335.2
-285.76
-239.12
-197.36
-161.08
-130.35
-102.47
-74.95
-47.6
-22.53
-2.32
11.54
18.99
20.88
18.45
13.97
9.56
6.4
4.59
3.85
3.95
4.94
6.93
9.92
13.89
18.73
24.35
30.62
37.54
45.19
53.81
63.66
74.98
87.99
102.8
119.49
137.9
157.58
177.7
197.1
214.29
227.5
235.01
235.33
227.64
211.93
189.06
160.74
129.09
96.58
65.41
37.66
14.96
-1.24
-9.61
-9.17
0.74
19.87
47.25
80.79
118.02
156.35
193.89
229.98
264.83
299.35
334.09
368.77
401.87
431.07
453.93
468.84
475.55
475.01
469.18
460.36
450.84
442.6
436.63
432.48
427.83
419.22
402.89
376.47
339.91
295.65
247.92
200.87
157.24
117.16
78.85
39.8
-1.15
-42.79
-81.68
-113.49
-135.03
-145.6
-147.2
-143.33
-136.96
-128.86
-117.29
-99.55
-74.28
-43
-10.07
18.96
39.89
51.68
56.04
55.77
52.56
46.07
34.55
16.62
-7.11
-33.78
-59.22
-79.88
-93.91
-101.53
-103.99
-102.53
-97.77
-89.8
-78.53
-63.9
-46.4
-27.08
-7.85
8.76
20.07
24.3
21.46
13.51
3.77
-4.33
-8.14
-6.68
-0.45
8.97
19.61
29.73
37.8
42.55
42.5
36.1
22.21
0.87
-26.33
-56.19
-84.43
-106.86
-120.24
-122.9
-114.84
-97.52
-73.52
-46.01
-18.37
6.51
26.54
40.73
48.92
51.44
48.93
42.23
32.57
21.33
9.61
-3.06
-18.75
-40.75
-71.8
-112.23
-159.06
-206.42
-247.55
-277.11
-292.76
-295.11
-286.82
-270.99
-250.33
-226.91
-202.37
-177.99
-154.32
-130.76
-105.39
-75.75
-40.18
1.18
45.8
89.55
128.07
158.06
178
188.01
189.24
183.19
171.68
156.6
140.01
123.57
108.16
93.44
78.15
60.89
41.28
20.64
1.58
-13.13
-21.89
-24.8
-23.46
-19.82
-15.35
-10.55
-5.33
0.28
5.76
10.09
12.17
11.43
8.2
3.46
-1.53
-5.72
-8.67
-10.61
-12.17
-13.98
-16.33
-19.02
-21.75
-24.34
-27.12
-30.79
-35.93
-42.59
-49.9
-56.09
-59.2
-57.81
-51.58
-41.52
-29.73
-18.29
-8.41
-0.06
7.76
16.17
25.43
34.46
41.32
44.2
42.57
36.91
28.05
16.92
4.59
-7.64
-18.39
-26.56
-32.02
-36.06
-41.19
-49.58
-61.48
-74.87
-86.32
-93.09
-94.62
-92.79
-90.99
-91.8
-95.55
-99.85
-101.48
-97.85
-88.07
-73.2
-55.38
-36.75
-18.47
-0.76
16.43
32.5
46.65
58.44
68.32
77.93
89.55
104.9
123.67
142.85
157.6
162.87
155.35
134.73
104.2
69.28
35.95
8.66
-10.69
-22.21
-27.15
-26.81
-22.24
-14.28
-4.22
6.21
15.53
23.33
30.71
39.56
51.15
64.62
76.94
83.98
82.91
73.37
57.45
38.36
18.65
-0.67
-19.94
-39.57
-58.84
-75.77
-88.05
-94.16
-93.59
-86.3
-71.6
-48.05
-14.72
27.2
73.21
116.1
148.03
163.46
160.62
141.31
109.58
69.98
26.88
-15.49
-52.36
-79.01
-92.38
-93.01
-84.97
-74.16
-65.93
-62.81
-64.26
-67.53
-69.28
-66.77
-58.18
-42.33
-18.74
11.58
45.79
79.17
106.42
123.39
128.11
120.8
102.76
75.19
38.74
-5.48
-54.41
-102.57
-142.83
-168.84
-177.34
-169.63
-150.77
-127.2
-104.15
-83.93
-66.44
-50.62
-36.1
-23.79
-15.45
-12.21
-13.79
-18.56
-24.37
-29.68
-34.06
-37.87
-41.55
-44.93
-47.24
-47.57
-45.43
-41.04
-35.33
-29.38
-24.05
-19.69
-16.23
-13.5
-11.54
-10.44
-10.24
-10.74
-11.37
-11.43
-10.37
-8.02
-4.74
-1.37
1.24
2.49
2.23
0.94
-0.58
-1.62
-1.89
-1.36
-0.19
1.42
3.24
4.99
6.54
7.92
9.39
11.09
12.51
12.46
9.5
2.66
-7.7
-19.8
-31.17
-39.33
-42.27
-38.18
-25.5
-3.18
28.08
64.99
101.86
132.24
151.62
159.34
158.33
152.97
146.39
139.1
129.22
114.57
94.45
70.38
45.34
22.6
4.47
-8.08
-15.46
-19.05
-20.87
-23.28
-28.4
-37.82
-51.97
-70.05
-89.97
-108.8
-123.57
-132.14
-133.9
-130.09
-123.48
-117.26
-113.76
-113.49
-115.05
-115.93
-113.81
-107.66
-98.19
-87.43
-77.82
-71.49
-69.68
-72.6
-79.18
-86.63
-90.75
-87.06
-72.71
-48.16
-17.94
10.93
31.74
41.26
41.1
36.58
33.53
35.1
40.58
46.34
48.59
45.73
39.13
32.05
27.51
26.83
29.12
32.28
34.29
34.45
33.61
33.5
35.46
39.5
44.24
47.29
46.57
41.26
32.31
21.68
11.27
2.3
-4.88
-10.09
-13.23
-14.31
-14.2
-14.81
-18.33
-25.96
-36.46
-46.46
-51.86
-50.2
-41.99
-30.47
-19.62
-11.57
-5.69
0.27
7.68
15.64
21.19
21.24
14.58
2.79
-10.4
-21.05
-26.35
-25.32
-18.04
-5.35
11.42
30.3
48.48
63.02
71.7
74.2
72.12
68.11
64.26
61.21
58.44
55.14
51.24
47.73
46.07
47.12
50.19
53.19
53.64
49.85
41.47
29.33
14.88
-0.33
-14.62
-26.01
-32.04
-30.69
-21.58
-6.73
9.79
23.47
31.25
32.63
29.24
23.47
16.96
10.27
3.55
-2.63
-6.99
-8.19
-5.79
-0.77
4.84
9
10.5
9.1
4.88
-2.16
-12.27
-25.46
-40.66
-55.68
-67.65
-74.11
-73.86
-67.28
-55.73
-40.81
-24.11
-7.07
8.48
20.39
26.68
26.3
19.73
8.74
-4.32
-17.4
-29.22
-39.11
-46.68
-51.53
-53.55
-53.26
-51.83
-50.55
-49.97
-49.43
-47.1
-40.68
-28.42
-9.99
13.38
39.24
64.42
85.47
99.34
104.05
99.23
86.45
68.98
51.03
36.49
28.03
26.26
29.51
33.97
34.73
27.47
10.03
-16.83
-49.43
-82.06
-108.45
-123.37
-123.85
-109.81
-83.81
-50.16
-14.08
19.44
46.24
63.48
69.94
66.09
54.1
37.59
20.61
6.59
-2.74
-7.99
-11.46
-15.6
-21.46
-28.05
-32.96
-33.77
-29.2
-19.45
-5.86
9.96
26.5
42.45
56.33
66.12
69.75
65.93
55.1
39.52
22.98
9.52
1.87
0.49
3.29
6.74
7.43
3.41
-5.27
-16.77
-28.48
-38
-43.56
-44.4
-40.52
-32.64
-22.16
-10.81
-0.38
7.67
12.3
13.11
10.35
5.19
-0.54
-4.78
-5.85
-3.57
0.45
3.47
3.23
-0.82
-7.03
-12.77
-16.18
-17.18
-17.4
-18.72
-21.83
-25.88
-29.31
-30.99
-30.99
-30.32
-29.99
-30.21
-30.39
-29.62
-27.46
-24.19
-20.6
-17.45
-15.15
-13.55
-12.1
-9.97
-6.42
-1.25
4.89
10.44
13.55
13.14
9.81
5.74
3.56
4.61
8.12
11.5
12.05
8.63
2.49
-3.66
-7.25
-7.14
-3.97
0.65
5.33
9.82
14.68
20.6
27.46
34.16
39.44
42.53
43.72
43.96
43.99
43.68
42.04
37.94
30.99
22.13
13.27
6.57
3.44
3.87
6.66
10.05
12.61
13.53
12.63
10.02
5.77
-0
-7.02
-14.36
-20.59
-24.1
-23.87
-19.89
-13.4
-6.27
-0.06
4.74
9
13.85
19.6
24.94
27.8
26.61
21.4
13.88
6.42
0.69
-3.33
-6.91
-11.6
-18.08
-25.76
-33.36
-39.79
-44.83
-49
-52.81
-55.97
-57.3
-55.31
-49.1
-38.92
-26.11
-12.62
-0.45
8.78
14.36
16.14
14.52
10.2
4.19
-2.3
-8.1
-12.38
-14.76
-15.2
-13.9
-10.86
-6.18
-0.37
5.35
9.13
9.2
4.69
-3.69
-14.04
-23.96
-31.36
-35.17
-35.21
-31.89
-25.79
-17.78
-9.09
-1.62
2.48
1.85
-3.37
-11.14
-18.41
-22.39
-21.76
-16.92
-9.54
-1.25
6.81
14.44
21.71
28.2
32.77
33.67
29.51
20.16
7.24
-6.36
-17.56
-24.2
-25.7
-22.85
-17.06
-9.6
-1.66
5.65
10.99
13.31
12.88
11.63
12.51
17.92
28.09
40.59
51.71
58.6
60.77
60.08
58.79
57.61
54.78
47.56
34.79
18.86
5.19
-0.87
2.56
12.52
22.9
28.25
26.85
21.23
15.38
11.35
7.38
-0.47
-14.78
-33.82
-51.89
-62.49
-62.57
-54.28
-43.27
-34.86
-30.77
-28.85
-25.72
-19.74
-12.47
-7.35
-6.96
-11.05
-16.59
-19.75
-18.18
-12.16
-4.14
2.95
7.17
8.34
7.4
5.61
3.74
1.82
-0.62
-4.05
-8.58
-13.82
-18.91
-22.75
-24.39
-23.38
-19.72
-13.92
-6.78
0.76
7.5
12.23
13.94
12.13
7.17
0.33
-6.48
-11.25
-12.51
-9.87
-3.99
3.68
11.53
18.21
22.93
25.69
26.94
27.34
27.36
26.96
25.78
23.46
20
15.89
11.9
8.77
6.89
6.29
6.82
8.23
10.15
12.05
13.09
12.43
9.46
4.16
-2.82
-10.36
-17.33
-23.01
-27.05
-29.32
-29.53
-27.4
-22.82
-16.26
-8.99
-2.65
1.31
2.31
0.88
-1.63
-3.7
-4.33
-3.32
-1.04
1.84
4.76
7.35
9.31
10.48
10.93
11.1
11.73
13.41
16.06
18.61
19.28
16.38
9.33
-0.83
-11.5
-19.54
-22.57
-19.71
-11.77
-0.62
11.67
23.44
33.71
41.98
47.86
50.95
50.9
47.78
42.33
35.87
30.14
26.56
25.72
27.09
29.36
31.16
31.6
30.67
28.79
26.36
23.36
19.43
14.36
8.64
3.51
0.15
-1.09
-1.41
-3.07
-8.2
-17.54
-29.97
-43.01
-54.09
-61.52
-64.8
-64.31
-60.65
-54.36
-46
-36.61
-27.76
-21.19
-18.2
-18.96
-22.55
-27.4
-32.02
-35.46
-37.44
-38.03
-37.47
-36.21
-34.9
-34.53
-36.18
-40.38
-46.59
-52.93
-56.61
-55.14
-47.49
-34.69
-19.65
-6.04
3.14
6.64
5.21
1.09
-3.1
-5.4
-4.94
-2.08
2.15
6.67
10.82
14.39
17.36
19.48
20.13
18.81
15.47
11.01
6.99
5.03
6.03
9.75
14.76
19.14
21.18
19.81
14.78
6.45
-4.35
-16.63
-29.16
-40.72
-50.16
-56.47
-58.96
-57.3
-51.66
-42.72
-31.66
-19.73
-8.11
2.31
10.87
17.07
20.89
23.06
25.04
28.78
35.81
46.37
58.9
70.63
78.62
81.15
78.07
70.37
59.3
45.7
30.12
13.34
-2.9
-16.28
-24.48
-26.39
-22.23
-13.46
-2.03
10.28
21.83
30.76
35
32.72
23.29
8.26
-8.79
-23.15
-30.67
-29.35
-19.97
-5.99
7.98
17.83
21.41
19.24
13.85
8.5
5.55
5.69
8.22
11.92
15.89
19.7
23.11
25.51
25.99
23.8
19.27
13.94
9.85
8.35
9.13
10.13
8.73
3.13
-6.67
-18.74
-30.18
-38.27
-41.35
-39.13
-32.38
-22.53
-11.08
0.63
11.44
20.29
26.2
28.55
27.45
23.69
18.63
13.51
8.96
4.8
0.45
-4.61
-10.31
-15.96
-20.71
-23.96
-25.6
-25.96
-25.62
-25.2
-25.27
-26.33
-28.62
-32.1
-36.28
-40.32
-43.18
-43.88
-41.46
-35.2
-24.69
-10.11
7.24
24.88
39.52
48.14
49.23
43.61
34.2
24.83
18.8
17.7
21.22
27.61
34.65
40.51
44.22
45.58
44.86
42.46
38.57
33.32
26.8
19.23
10.96
2.31
-6.62
-15.75
-24.89
-33.39
-39.99
-43.12
-41.63
-35.54
-26.41
-17.09
-10.65
-9.3
-13.52
-21.97
-32.13
-41.37
-47.7
-50.08
-48.33
-42.7
-33.77
-22.58
-10.87
-1.06
4.14
2.81
-5.25
-18.12
-32.35
-44.1
-50.66
-51.17
-46.57
-38.53
-28.48
-16.91
-3.89
10.23
24.21
35.96
43.54
46.37
45.88
44.78
45.93
50.81
58.91
68.46
77.56
85.2
90.96
94.35
94.21
88.82
76.82
58.38
35.82
12.89
-6.53
-20.14
-27.69
-30.59
-30.75
-29.8
-28.6
-27.36
-26.19
-25.03
-23.86
-22.44
-20.15
-16.04
-9.1
1.32
15.05
30.31
44.02
52.44
52.34
42.2
23.17
-0.94
-24.75
-42.9
-51.79
-50.47
-40.69
-26.24
-12.04
-2.98
-2.65
-12.28
-29.89
-50.58
-67.74
-75.55
-71.44
-57.13
-38.01
-20.72
-10.41
-8.94
-14.82
-24.45
-33.81
-39.67
-40.08
-34.35
-23.07
-8.36
6.48
17.7
22.49
20.17
12.56
3.18
-4.15
-6.81
-4.24
2.3
10.16
16.22
17.48
11.8
-1.61
-21.61
-44.87
-66.54
-81.4
-85.56
-77.84
-60.31
-37.47
-14.89
2.55
11.65
11.25
2.21
-12.91
-30.12
-44.52
-51.4
-47.61
-32.73
-9.53
16.68
39.81
54.84
59.17
53.17
39.45
22.05
5.52
-5.75
-8.37
-0.61
16.89
41.02
66.85
88.76
101.93
103.42
92.93
72.77
47.23
21.42
-0.04
-13.82
-18.36
-13.84
-1.84
14.99
33.45
50.34
62.92
69.46
69.52
63.89
53.97
41.21
26.47
10.46
-5.85
-20.51
-30.83
-34.26
-29.67
-18.41
-3.8
10.11
20.09
24.7
24.33
20.2
13.39
4.44
-6.39
-18.25
-29.3
-37.03
-39.44
-36.08
-28.52
-19.95
-13.8
-12.45
-16.36
-24.12
-33.1
-40.34
-43.6
-41.84
-35.49
-25.86
-14.72
-3.58
6.41
14.52
20.22
23.07
23.01
20.55
16.89
13.51
11.7
11.92
13.76
16.22
18.37
19.78
20.53
20.84
20.55
19.11
16
11.14
5.05
-1.29
-6.86
-11.08
-13.81
-15.25
-15.58
-14.76
-12.51
-8.6
-3.16
3.11
9.05
13.5
15.68
15.43
13.18
9.83
6.44
3.89
2.57
2.08
1.29
-1.25
-6.82
-15.91
-27.76
-40.58
-51.94
-59.73
-62.73
-61.02
-55.65
-48.13
-39.73
-31.32
-23.46
-16.55
-10.93
-6.99
-4.93
-4.67
-5.74
-7.57
-9.57
-11.35
-12.68
-13.42
-13.38
-12.4
-10.43
-7.62
-4.21
-0.46
3.52
7.64
11.67
15.26
18.09
20.02
21.31
22.48
24.22
27.05
31.05
35.91
40.96
45.42
48.35
48.97
46.62
41.19
33.25
24.01
15.31
9.08
6.74
8.38
12.35
15.48
14.15
5.71
-9.78
-29.03
-46.32
-55.92
-54.58
-43.22
-26.49
-10.57
-0.49
1.64
-3.14
-12.13
-22.38
-31.56
-38.06
-40.53
-37.8
-29.3
-15.75
0.64
16.38
27.93
32.85
30.36
21.52
8.96
-3.69
-12.88
-16.05
-12.73
-4.78
4.18
10.28
10.89
5.55
-4.1
-15.15
-24.64
-30.37
-31.21
-27.09
-18.77
-7.64
4.48
15.71
24.61
30.42
33.2
33.63
32.53
30.85
29.4
29.05
30.53
34.06
39.05
44.03
47.08
46.43
41.28
32.08
20.34
8.11
-2.69
-10.65
-15.04
-15.84
-13.59
-9.16
-3.72
1.64
6.19
9.65
12.21
14.28
16.02
17.26
17.51
16.24
13.41
9.72
6.3
4.41
4.66
6.79
9.81
12.51
14.04
14.13
13.1
11.18
8.47
4.87
0.47
-4.21
-8.32
-11.13
-12.58
-13.26
-14.13
-15.74
-17.82
-19.38
-19.2
-16.68
-12.19
-7.05
-2.75
-0.49
-0.58
-2.57
-5.58
-8.66
-11.17
-12.79
-13.55
-13.54
-12.99
-12.24
-11.77
-12.29
-14.49
-18.76
-24.79
-31.36
-36.44
-37.84
-33.89
-24.23
-10.01
6.53
22.81
36.81
47.41
54.43
58.25
59.39
58.3
55.26
50.81
45.62
40.49
36.02
32.39
29.28
26.11
22.45
18.16
13.47
8.67
4.02
-0.32
-4.19
-7.33
-9.45
-10.38
-10.17
-9.01
-7.2
-4.95
-2.47
-0.01
1.91
2.54
1.22
-2.45
-8.18
-15.07
-21.92
-27.64
-31.69
-34.09
-35.29
-35.72
-35.75
-35.48
-34.85
-34.04
-33.55
-34.03
-35.91
-38.97
-42.2
-44.14
-43.32
-39.03
-31.68
-22.76
-14.26
-7.98
-4.92
-4.84
-6.56
-8.3
-8.41
-5.86
-0.35
7.74
17.39
27.21
35.65
41.19
42.99
41.02
36.33
30.58
25.15
20.5
16.14
11.14
4.72
-3.03
-11.33
-19.03
-24.98
-28.46
-29.17
-27.26
-23.36
-18.79
-15.19
-14.08
-16.15
-20.85
-26.58
-31.32
-33.56
-32.83
-29.75
-25.43
-20.97
-17.1
-13.97
-11.55
-9.66
-8.25
-7.29
-6.88
-6.94
-7.38
-8.03
-8.73
-9.55
-10.52
-11.77
-13.33
-14.96
-16.13
-16.12
-14.37
-10.68
-5.37
0.87
7.14
12.68
16.88
19.44
20.4
19.94
18.39
16.23
13.99
12.33
11.86
13.13
16.2
20.73
25.85
30.58
33.91
35.21
34.38
31.85
28.59
25.7
24.05
23.75
24.02
23.47
20.74
15.35
8.1
0.85
-4.48
-6.8
-6.4
-4.5
-2.52
-1.21
-0.54
-0.24
-0.29
-1.14
-3.44
-7.27
-11.94
-16.09
-18.35
-18.01
-15.34
-11.24
-6.68
-2.29
1.93
6.04
9.81
12.44
12.82
10.07
4.21
-3.55
-11.21
-16.6
-18.44
-16.77
-13
-9.31
-7.85
-9.8
-15.05
-22.23
-29.24
-34.12
-35.7
-33.67
-28.49
-20.89
-11.61
-1.39
8.87
18.18
25.28
29.14
29.31
26.14
20.78
14.71
9.24
5.03
2.17
0.29
-1.04
-1.97
-2.52
-2.64
-2.54
-2.67
-3.53
-5.31
-7.71
-9.96
-11.32
-11.33
-10.07
-7.86
-4.98
-1.64
2.09
5.96
9.52
12.2
13.51
13.44
12.16
10.02
7.28
4.19
1.09
-1.71
-3.96
-5.76
-7.46
-9.32
-11.16
-12.33
-12.13
-10.36
-7.87
-6.26
-7.13
-11.17
-17.72
-25
-30.92
-33.77
-32.67
-27.58
-19
-7.93
4.38
16.43
26.86
34.57
39.06
40.52
39.54
37.07
34.07
31.31
29.28
28.02
27.33
26.79
26.07
25.01
23.67
22.16
20.53
18.92
17.33
15.79
14.3
12.91
11.57
10.24
8.83
7.37
5.97
4.94
4.6
5.11
6.29
7.61
8.41
8.14
6.59
3.92
0.55
-3.08
-6.62
-9.89
-12.73
-15.01
-16.64
-17.58
-17.97
-17.97
-17.83
-17.77
-18.01
-18.62
-19.5
-20.49
-21.4
-22.27
-23.35
-24.95
-27.27
-30.08
-32.82
-34.82
-35.53
-34.62
-32.08
-27.94
-22.37
-15.73
-8.71
-2.37
2.37
5.06
6.12
6.6
7.68
9.93
13.02
16.02
17.92
18.25
17.27
15.82
14.89
15.07
16.4
18.32
20.18
21.49
22.08
22.03
21.35
19.9
17.47
14.07
10.07
6.31
3.78
3.13
4.3
6.41
8.24
8.7
7.47
5.06
2.28
-0.1
-1.7
-2.22
-1.38
1.15
5.23
9.91
13.4
13.65
9.31
0.59
-10.62
-21.56
-29.75
-33.84
-33.74
-30.1
-23.74
-15.3
-5.37
5.28
15.59
24.26
30.23
32.92
32.37
29.19
24.21
18.35
12.3
6.64
1.98
-1.01
-1.8
-0.21
3.25
7.35
10.38
10.87
8.2
2.97
-3.22
-8.58
-11.96
-13.17
-12.72
-11.32
-9.34
-6.81
-3.64
0.07
3.77
6.7
8.06
7.26
4.2
-0.59
-6.02
-10.66
-13.31
-13.39
-11.22
-7.94
-5
-3.64
-4.55
-7.77
-12.73
-18.55
-24.23
-28.6
-30.59
-29.46
-25.01
-17.6
-8.22
1.88
11.38
19.03
23.97
25.84
25.08
22.73
20.03
17.79
16.11
14.53
12.55
10.25
8.41
7.98
9.49
12.58
16.14
18.79
19.51
17.92
14.2
8.97
2.98
-2.97
-8.22
-12.36
-15.32
-17.32
-18.64
-19.13
-18.4
-15.94
-11.59
-5.86
0.19
5.22
8.26
8.91
7.51
4.81
1.78
-0.53
-1.24
0.05
3.32
7.89
12.38
15.16
14.91
11.15
4.76
-2.25
-7.38
-8.6
-5.35
1.06
8
12.55
12.85
8.83
2.03
-5.27
-11.26
-15.23
-17.63
-19.21
-20.36
-20.93
-20.46
-18.86
-16.6
-14.47
-13.09
-12.4
-11.89
-11.16
-10.38
-10.2
-11.38
-13.9
-16.72
-18.32
-17.61
-14.69
-10.82
-7.59
-5.93
-5.67
-5.83
-5.3
-3.6
-1.06
1.61
3.92
5.88
8.01
10.75
14.15
17.57
20.03
20.76
19.63
17.1
13.92
10.41
6.42
1.6
-4.11
-9.95
-14.56
-16.61
-15.75
-12.99
-10.22
-9.36
-11.39
-15.94
-21.73
-27.06
-30.5
-31.24
-28.98
-23.88
-16.54
-7.98
0.63
8.21
14
17.6
18.95
18.24
15.9
12.55
8.7
4.83
1.2
-1.92
-4.15
-4.93
-3.75
-0.6
3.75
7.86
10.32
10.4
8.52
5.92
3.95
3.43
4.3
6
7.78
9.24
10.31
11.18
12.14
13.26
14.41
15.05
14.71
13.14
10.63
7.93
5.87
5.04
5.23
5.77
5.65
4.4
2.19
-0.13
-1.48
-1.41
-0.2
1.03
1.09
-0.86
-4.79
-9.85
-14.79
-18.42
-20.11
-19.69
-17.49
-13.73
-8.55
-2.03
5.46
13.01
19.38
23.34
24.4
22.9
19.98
16.86
14.23
11.94
9.18
5.26
0.05
-5.52
-10.03
-12.18
-11.52
-8.66
-4.78
-1.32
0.69
0.65
-1.53
-5.56
-10.73
-16.15
-20.95
-24.49
-26.66
-27.6
-27.54
-26.42
-23.88
-19.54
-13.5
-6.46
0.45
6.03
9.63
11.29
11.81
12.3
13.8
16.79
21.02
25.55
28.99
30.02
27.75
22.04
13.48
3.4
-6.36
-13.78
-17.02
-14.95
-7.43
4.32
18.08
31.13
41.13
46.88
48.36
46.53
42.65
37.91
33.03
28.3
23.63
18.88
13.98
8.94
3.85
-1.24
-6.29
-11.34
-16.19
-20.42
-23.35
-24.33
-23.15
-20.2
-16.43
-12.88
-10.24
-8.6
-7.62
-6.91
-6.44
-6.52
-7.48
-9.33
-11.65
-13.84
-15.48
-16.69
-17.96
-19.76
-22.04
-24.22
-25.54
-25.67
-25.07
-24.71
-25.53
-27.75
-30.51
-32.16
-30.84
-25.33
-15.43
-2.24
12.25
25.54
35.16
39.26
37.2
29.97
20.19
11.53
7.23
9.01
16.37
26.97
37.78
46.36
51.64
53.61
52.92
50.13
45.64
39.9
33.7
28
23.54
20.53
18.45
16.61
14.4
11.58
8.21
4.36
0.03
-4.91
-10.29
-15.66
-20.29
-23.58
-25.33
-25.9
-26.04
-26.32
-26.98
-27.65
-27.91
-27.43
-26.31
-25
-23.96
-23.2
-22.1
-19.91
-16.3
-11.75
-7.33
-4.03
-2.3
-1.92
-2.56
-4.28
-7.6
-12.9
-19.87
-27.26
-33.45
-37.26
-38.32
-37.19
-34.7
-31.53
-28.14
-25.24
-24.07
-26.2
-32.59
-42.47
-52.94
-59.78
-59
-48.76
-30.44
-8.01
13.62
30.77
42.16
48.75
52.35
54.25
54.51
52.35
47.3
39.88
31.43
23.24
15.76
8.52
0.9
-7.01
-13.94
-18.07
-18.11
-14.14
-7.7
-1.2
3.2
4.35
2.37
-1.42
-5.08
-6.81
-5.56
-1.37
4.74
11.4
17.46
22.56
27.08
31.62
36.39
40.88
44.07
44.79
42.21
36.14
27.14
16.68
6.84
-0.04
-2.08
1.35
9.26
19.15
27.77
32.33
31.44
25.5
16.37
6.61
-1.48
-6.32
-7.29
-4.58
0.92
7.92
14.92
20.7
24.41
25.75
24.81
21.92
17.53
11.98
5.66
-1.08
-7.74
-13.74
-18.49
-21.4
-22.35
-21.59
-19.78
-17.86
-16.65
-16.72
-18.13
-20.72
-24.08
-27.93
-31.86
-35.34
-37.55
-37.52
-34.54
-28.46
-20
-10.55
-1.87
4.37
7.1
6.09
2.13
-3.23
-8.25
-11.76
-13.6
-14.69
-16.24
-18.91
-22.39
-25.3
-26.2
-24.42
-20.53
-16.02
-12.45
-10.67
-10.37
-10.64
-10.47
-9.21
-6.46
-1.89
4.95
14.34
25.67
37.35
46.86
51.99
51.73
46.97
40.14
33.99
30.3
29.15
29.28
29.03
27.41
24.45
20.8
17.12
13.42
9.13
3.52
-3.55
-11.27
-17.95
-21.85
-22.05
-18.88
-13.85
-8.97
-5.97
-5.59
-7.48
-10.44
-12.9
-13.61
-11.98
-8.4
-4.07
-0.49
0.94
-0.48
-4.64
-10.66
-17.37
-23.77
-29.47
-34.63
-39.55
-44.37
-48.69
-51.73
-52.53
-50.34
-45.13
-37.74
-29.86
-23.55
-20.46
-21.28
-25.24
-30.57
-35.02
-36.68
-34.48
-28.45
-19.49
-8.96
1.68
11.17
18.48
22.95
24.41
23.41
20.99
18.35
16.34
15.16
14.4
13.59
12.53
11.43
10.66
10.32
9.94
8.83
6.56
3.54
0.86
-0.44
-0.25
0.19
-1
-5.34
-12.9
-22.1
-30.41
-35.65
-36.93
-34.72
-30.12
-23.81
-15.55
-4.57
9.58
26.19
43.11
57.45
66.67
69.54
66.57
59.76
51.65
44.1
37.74
31.89
25.33
17.45
8.83
1.18
-3.47
-3.77
-0.09
5.9
11.75
15.55
16.75
16.19
15.34
15.31
16.35
17.85
19.15
19.73
19.49
18.43
16.32
12.62
6.84
-0.83
-9.11
-15.96
-19.41
-18.3
-12.91
-4.83
3.69
10.53
14.36
14.63
11.55
5.85
-1.51
-9.31
-16.52
-22.07
-25.05
-24.86
-21.42
-15.3
-7.77
-0.77
3.68
4.13
0.64
-5.16
-10.7
-13.63
-12.8
-8.99
-4.37
-1.4
-1.55
-4.62
-9
-12.63
-14.06
-12.95
-9.91
-5.87
-1.38
3.34
8.22
12.96
17.02
19.85
21.2
21.35
20.8
19.75
17.94
14.7
9.67
3.28
-3.03
-7.51
-8.82
-6.72
-2.16
3.29
8.09
11.06
11.62
9.69
5.49
-0.44
-7.18
-13.58
-18.51
-21.22
-21.62
-20.08
-17.24
-13.83
-10.42
-7.44
-5.33
-4.36
-4.64
-6.21
-9.03
-13.12
-18.38
-24.26
-29.49
-32.6
-32.17
-27.75
-20.01
-10.6
-1.57
5.27
8.67
8.21
4.15
-2.53
-10.11
-16.59
-20.13
-19.55
-14.83
-7.02
2.25
11.29
18.74
23.75
25.86
25.09
21.94
17.32
12.39
8.2
5.41
4.11
4.11
5.11
7.08
9.95
13.38
16.61
18.69
18.92
17.33
14.72
12.02
9.63
7.2
3.84
-1.14
-7.37
-13.41
-17.32
-17.75
-14.72
-9.84
-5.53
-3.75
-5.23
-9.19
-13.97
-17.92
-20.11
-20.36
-18.98
-16.38
-12.99
-9.42
-6.59
-5.44
-6.49
-9.37
-12.88
-15.54
-16.48
-15.91
-14.95
-14.81
-15.92
-17.8
-19.26
-19.28
-17.36
-13.58
-8.29
-1.74
5.86
14.25
22.67
30.16
35.7
38.67
39.04
37.33
34.27
30.45
26.21
21.5
16.32
10.87
5.68
1.49
-1.03
-1.53
-0.11
2.87
6.71
10.62
13.84
15.69
15.93
14.72
12.68
10.51
8.78
7.6
6.8
6.25
6.03
6.52
8.02
10.46
13.25
15.6
16.72
16.22
14.07
10.68
6.94
3.87
2.28
2.15
2.46
1.5
-2.21
-9.15
-18.25
-27.22
-33.62
-35.89
-34.08
-29.48
-23.8
-18.27
-13.22
-8.28
-2.87
3.18
9.46
15.18
19.5
21.99
22.72
22.08
20.31
17.38
12.99
7.25
0.87
-5
-9.17
-10.91
-10.27
-8.04
-5.33
-3.34
-2.94
-4.64
-8.36
-13.18
-17.81
-20.87
-21.79
-20.92
-19.2
-17.44
-15.64
-13.07
-8.94
-3.31
2.77
7.69
10.22
10.2
8.5
6.55
5.34
5.25
5.9
6.68
7.07
6.61
4.87
1.45
-3.73
-10.16
-16.51
-21.07
-22.23
-19.26
-12.64
-3.73
5.81
14.78
22.64
29.33
34.69
38.13
38.91
36.55
31.37
24.43
17.13
10.58
5.29
1.34
-1.23
-2.07
-0.83
2.56
7.55
12.95
17.38
19.75
19.6
17.13
13.09
8.31
3.69
-0.04
-2.29
-2.77
-1.64
0.46
2.58
3.7
3.14
0.79
-2.87
-7.04
-10.74
-13.25
-14.3
-14.16
-13.54
-13.35
-14.27
-16.6
-20.11
-24.19
-28.04
-30.81
-31.92
-31.01
-28.2
-23.97
-19.24
-15.18
-12.92
-13.11
-15.5
-19.05
-22.16
-23.38
-22.06
-18.58
-14.17
-10.32
-7.98
-7.11
-6.72
-5.62
-2.99
0.97
5.11
8.06
8.96
7.71
4.91
1.39
-2.23
-5.7
-8.91
-11.57
-13.11
-12.96
-11.11
-8.24
-5.56
-4.3
-5.1
-7.71
-11.18
-14.21
-15.83
-15.7
-14.17
-11.72
-8.77
-5.45
-1.72
2.29
6.09
9.02
10.59
10.79
10.01
8.91
8.03
7.69
7.89
8.58
9.69
11.23
13.17
15.46
17.92
20.33
22.32
23.27
22.59
19.74
14.66
7.89
0.61
-5.54
-8.91
-8.1
-2.38
8.21
22.57
38.55
53.27
63.78
67.85
64.75
55.61
42.99
30.01
19.23
11.89
7.94
6.42
6.15
6.2
6.06
5.31
3.56
0.27
-4.92
-11.65
-18.72
-24.25
-26.44
-24.35
-18.51
-10.62
-3.07
2
3.45
1.1
-4.46
-12.41
-22.04
-32.73
-43.55
-53.22
-60.37
-63.92
-63.74
-60.61
-55.92
-51.18
-47.19
-43.84
-40.12
-34.35
-24.96
-11.13
6.7
26.81
46.46
62.93
74.41
80.14
80.24
75.12
65.19
51.22
35
19.61
8.92
5.91
11.2
22.23
34.16
41.83
42.24
35.45
23.88
10.66
-2.03
-13.34
-22.95
-30.23
-33.53
-30.95
-21.58
-6.42
11.54
28.59
41.79
50.24
54.81
57.16
58.36
58.1
54.88
47.09
34.07
16.61
-3.28
-23.24
-41.15
-55.61
-65.65
-70.64
-70.07
-64.04
-53.57
-40.81
-28.54
-19.54
-15.67
-17.43
-23.86
-32.64
-40.53
-44.18
-40.69
-28.77
-9.33
14.52
37.88
55.16
61.39
53.4
30.68
-4.03
-45.35
-86.46
-120.78
-143.6
-152.82
-148.71
-132.8
-106.91
-72.66
-32.16
11.24
52.71
86.64
108.15
114.76
107.1
88.58
64.27
39.27
17.59
1.69
-7.54
-10.1
-6.62
1.9
13.84
27.01
38.89
47.15
50.57
49.44
45.63
41.87
40.67
43.55
50.62
60.99
73.31
86.37
99.13
110.05
116.45
114.53
100.4
72.39
32.94
-11.2
-50.89
-78.2
-89.44
-85.75
-71.5
-51.43
-28.66
-4.88
17.58
34.13
38.24
24.47
-7.75
-52.41
-98.23
-132.83
-147.33
-139.04
-111.1
-70.45
-25.47
15.66
45.66
58.84
52.14
26.32
-13.71
-59.58
-101.73
-131.8
-144.49
-138.28
-115.17
-80.06
-39.99
-2.53
26.39
44.18
52.51
56.16
60.61
69.44
83.22
100.22
117.9
134.01
146.37
152.05
147.27
128.58
95.41
51.98
7.35
-27.24
-42.56
-34.86
-7.47
30.48
66.99
90.81
94.33
75.42
37.84
-9.89
-56.93
-92.95
-110.87
-108.25
-87.35
-54.17
-17.03
15.05
34.12
35.19
17.79
-13.51
-50.18
-82.14
-100.84
-101.72
-85.25
-56.25
-22.05
9.43
31.52
40.01
33.87
15.51
-9.91
-35.83
-56.06
-66.43
-65.84
-56.09
-40.81
-24
-9
1.98
7.67
7.53
1.7
-8.71
-21.31
-32.7
-39.49
-39.53
-32.96
-22.23
-10.91
-2.27
1.95
1.67
-2.21
-8.7
-17.02
-26.25
-34.98
-41.33
-43.43
-40.32
-32.43
-21.47
-9.85
0.24
7.4
11.24
12.15
10.96
8.68
6.45
5.33
6.08
8.9
13.18
17.36
19.53
17.95
11.97
2.35
-8.77
-18.55
-24.35
-24.49
-18.76
-8.25
4.78
17.66
27.84
33.42
33.59
28.72
20.16
9.8
-0.42
-8.92
-14.58
-16.94
-16.14
-12.83
-8.02
-2.77
2.21
6.67
10.61
14.06
16.81
18.4
18.56
17.35
15.44
13.61
12.47
12.01
11.64
10.58
8.33
4.98
1.01
-2.82
-6.02
-8.37
-9.98
-11.17
-12.35
-13.87
-15.82
-18.06
-20.11
-21.49
-21.77
-20.77
-18.59
-15.52
-12.06
-8.77
-6.34
-5.34
-6.05
-8.27
-11.34
-14.29
-16.12
-16.19
-14.33
-10.91
-6.71
-2.77
-0.07
0.69
-0.23
-1.4
-0.53
4.63
14.89
29
43.81
55.72
62.32
63.38
60.42
55.41
49.38
42.09
32.78
21.41
9.37
-1.04
-7.67
-9.93
-8.86
-6.29
-3.59
-0.89
2.63
7.72
14.08
20.24
24.13
24.36
21.11
16.02
11.4
9.15
9.79
12.5
15.74
18.05
18.68
17.83
16.11
14.15
12.27
10.48
8.63
6.75
4.91
3.24
1.68
-0.12
-2.46
-5.55
-9.24
-13.1
-16.37
-18.32
-18.36
-16.36
-12.89
-9.05
-6.27
-5.6
-7.23
-10.31
-13.43
-15.16
-14.59
-11.73
-7.37
-2.79
1.01
3.78
6.07
8.81
12.82
18.24
24.25
29.4
32.09
31.43
27.29
20.38
11.89
3.15
-4.52
-9.97
-12.1
-10.39
-5.23
1.82
8.39
11.94
10.78
4.76
-4.71
-15.11
-23.97
-29.68
-31.98
-31.47
-28.91
-24.74
-18.98
-11.72
-3.65
3.77
8.62
9.43
5.99
-0.42
-7.67
-13.9
-18.08
-20.25
-20.97
-20.57
-19.02
-16.31
-13.03
-10.46
-10.2
-13.28
-19.39
-27.09
-34.29
-39.08
-40.21
-37.1
-29.65
-18.08
-3.44
11.98
24.86
31.85
30.83
22.02
8.04
-7.29
-20.42
-29.19
-33.07
-32.56
-28.33
-21.12
-11.63
-0.96
9.21
17.11
21.53
22.53
21.28
19.65
19.35
21.3
25.41
30.65
35.77
39.67
41.55
40.99
37.85
32.16
23.88
13.15
0.66
-12.13
-23.38
-31.31
-34.64
-33.13
-27.94
-21.06
-14.62
-10.1
-7.91
-7.69
-8.44
-9.03
-8.75
-7.5
-5.5
-2.95
-0.02
3.13
6
7.72
7.18
3.34
-3.87
-13.03
-21.72
-27.56
-29.04
-25.92
-19.12
-10.18
-0.5
9.14
18.27
26.37
32.76
36.92
38.76
38.78
37.75
36.41
34.98
33.16
30.43
26.55
21.8
16.73
11.92
7.69
4.05
0.8
-2.12
-4.56
-6.15
-6.72
-6.76
-7.11
-8.68
-11.74
-15.75
-19.38
-21.21
-20.41
-17.02
-11.82
-5.84
0.16
5.77
10.62
14.18
15.59
14.23
10.05
3.8
-3.25
-9.77
-14.94
-18.42
-20.11
-19.54
-16.04
-9.07
1.19
13.49
25.72
35.8
42.55
45.93
46.71
45.61
42.75
37.77
30.39
21.19
11.73
3.91
-0.97
-2.94
-3.26
-3.48
-4.65
-6.81
-9.41
-12.05
-14.88
-18.54
-23.33
-28.62
-32.88
-34.32
-31.99
-26.18
-18.34
-10.38
-4
-0.18
0.82
-0.71
-4.01
-7.87
-10.74
-11.22
-8.64
-3.55
2.35
6.75
7.85
5.12
-0.5
-7.04
-12.32
-14.76
-13.77
-9.7
-3.43
4.16
12.42
20.91
28.92
35.4
38.87
37.92
31.98
21.84
9.53
-2.2
-10.9
-15.34
-15.64
-12.99
-8.99
-4.95
-1.67
0.35
0.75
-0.82
-4.46
-9.73
-15.46
-19.97
-21.63
-19.66
-14.47
-7.57
-0.92
3.85
6.01
5.61
3.26
-0.28
-4.49
-8.96
-13.33
-17.26
-20.3
-21.8
-21.03
-17.38
-10.86
-2.49
5.55
10.45
10.08
4.01
-5.99
-16.72
-24.68
-27.53
-24.66
-17.06
-6.49
5.28
16.69
26.5
33.49
36.68
35.67
30.91
23.77
16.14
9.77
5.67
4
4.11
5.05
5.79
5.52
3.85
0.88
-2.78
-6.29
-8.74
-9.55
-8.73
-6.88
-4.95
-3.69
-3.52
-4.17
-4.98
-5.19
-4.38
-2.47
0.28
3.57
7.17
10.85
14.51
17.89
20.7
22.37
22.29
19.96
15.17
8.18
-0.28
-8.95
-16.35
-20.97
-21.77
-18.47
-11.78
-3.11
5.81
13.48
19.07
22.41
23.63
22.82
19.74
14.11
5.99
-3.67
-13.15
-20.48
-24.29
-24.3
-21.37
-17.07
-12.85
-9.7
-8.09
-8.11
-9.78
-13.01
-17.28
-21.69
-25.02
-26.2
-24.78
-21.07
-16.05
-11.02
-7.17
-5.22
-5.34
-7.08
-9.35
-10.61
-9.32
-4.68
2.82
11.36
18.48
22
20.91
15.58
7.47
-1.43
-9.24
-14.44
-15.94
-13.27
-6.81
2.08
11.3
18.62
22.58
22.91
20.39
16.29
11.63
7.05
2.85
-0.6
-2.79
-3.14
-1.56
1.4
4.66
6.99
7.79
7.41
6.82
6.91
7.87
9.1
9.51
8.08
4.51
-0.5
-5.67
-9.65
-11.5
-10.69
-7.04
-0.72
7.58
16.2
22.77
24.92
21.58
13.88
4.92
-1.38
-2.16
3.14
12.53
22.61
30.02
32.83
31.08
26.07
19.46
12.73
7.07
3.53
3.14
6.75
14.66
26.18
39.48
51.9
60.55
63.02
58.09
45.96
28.17
7.16
-14.32
-33.56
-48.34
-57.2
-59.62
-55.97
-47.52
-36.17
-24.3
-14.28
-7.94
-6.42
-9.76
-17.01
-26.4
-35.76
-42.81
-45.5
-42.37
-32.86
-17.91
0
17
28.7
31.45
23.72
6.65
-16.23
-40.06
-60.21
-73.41
-78.28
-75.15
-65.19
-49.95
-31.1
-10.83
8.35
23.46
31.93
32.28
24.91
12.29
-1.88
-13.72
-20.49
-21.27
-16.96
-9.45
-0.69
7.89
15.45
21.25
24.54
24.66
21.66
16.52
11.15
7.56
6.88
8.87
12.31
15.92
18.96
21.5
23.77
25.41
25.33
22.24
15.84
7.28
-1.08
-6.94
-9.18
-8.44
-6.64
-5.73
-6.87
-9.84
-13.46
-16.2
-17.08
-15.91
-13.33
-10.5
-8.5
-8.01
-9
-10.7
-11.79
-11.07
-8.09
-3.53
1.11
4.34
5.03
3.13
-1.04
-6.85
-13.78
-21.22
-28.09
-32.72
-33.32
-28.98
-20.13
-8.81
2.29
10.98
16.37
18.95
19.68
19.33
18.03
15.75
12.64
9.34
6.81
5.71
5.89
6.39
6.06
4.14
0.92
-2.34
-4.04
-2.97
0.93
6.55
11.96
15.34
15.67
13.07
8.68
4.09
0.91
0.07
1.63
4.74
7.91
9.56
8.93
6.53
4.07
3.56
5.94
10.39
14.56
15.79
12.68
5.98
-1.95
-8.42
-11.83
-12.18
-10.5
-7.63
-3.59
2.3
10.76
21.51
32.95
42.76
48.84
50.17
47.22
41.45
34.52
27.51
20.53
13.2
5.37
-2.31
-8.46
-11.68
-11.39
-8.4
-4.41
-1.35
-0.38
-1.6
-4.38
-7.88
-11.59
-15.18
-18.55
-21.44
-23.6
-24.85
-25.06
-24.27
-22.46
-19.64
-15.96
-11.88
-7.97
-4.91
-3.07
-2.58
-3.47
-6.01
-10.53
-16.9
-24.15
-30.29
-33.21
-31.51
-25.14
-15.47
-4.72
4.97
12.09
16.04
17.12
16.25
14.63
13.29
12.59
12.29
11.9
11.06
10
9.3
9.51
10.5
11.41
11.3
9.89
7.73
5.92
5.19
5.35
5.42
4.45
2.29
-0.31
-2.04
-2.03
-0.35
2.13
4.46
6.15
7.24
7.84
7.7
6.28
3.15
-1.29
-5.76
-8.59
-8.75
-6.5
-3.38
-1.34
-1.74
-4.64
-8.85
-12.77
-15.19
-15.56
-13.99
-10.72
-5.79
0.72
8.23
15.71
21.84
25.55
26.62
25.72
23.96
22.26
20.73
19.01
16.84
14.62
13.41
14.4
17.85
22.43
25.63
25.08
19.96
11.6
2.66
-4.56
-9.35
-12.87
-16.83
-22.06
-27.61
-31.32
-31.27
-27.03
-20.04
-12.66
-7.07
-4.12
-3.42
-4.01
-5.02
-6.05
-6.6
-5.99
-3.66
0.19
4.37
6.88
5.85
0.56
-8.08
-17.97
-26.93
-33.52
-37.38
-38.91
-38.67
-36.99
-33.77
-28.94
-22.68
-15.44
-7.51
1.07
10.32
19.97
29.1
36.1
39.24
37.66
32.03
24.57
18.37
15.56
16.6
20.01
23.33
24.35
22.28
17.68
11.76
5.59
-0.41
-6.27
-12.05
-17.44
-21.88
-24.84
-26.18
-26.33
-25.88
-25.3
-24.78
-24.23
-23.38
-21.93
-19.69
-16.63
-12.93
-9.14
-5.94
-3.9
-3.15
-3.33
-3.64
-3.53
-2.92
-2.42
-2.93
-4.93
-8.01
-11.02
-12.7
-12.31
-10.12
-7.07
-4.32
-2.47
-1.64
-1.81
-3.13
-5.9
-9.85
-13.83
-15.8
-13.76
-6.91
3.69
15.4
25.39
31.75
34.27
33.99
32.37
30.51
28.91
27.67
26.69
25.85
24.86
23.27
20.61
16.83
12.34
7.97
4.65
2.84
2.52
3.03
3.53
3.23
1.72
-0.82
-3.71
-5.96
-6.69
-5.59
-3.26
-0.88
0.31
-0.14
-1.61
-2.92
-3.07
-2.1
-1.01
-1.13
-2.95
-5.76
-7.92
-8.11
-6.39
-4.37
-4.35
-7.8
-14.37
-21.99
-27.88
-30
-27.76
-21.9
-13.83
-4.75
4.27
12.34
18.59
22.39
23.78
23.59
23.05
23.09
23.73
24.01
22.73
19.16
13.49
6.59
-0.49
-6.95
-12.17
-15.74
-17.34
-16.94
-14.95
-12.29
-10.08
-9.03
-9.07
-9.54
-9.67
-9.15
-8.19
-7.16
-6.13
-4.54
-1.7
2.8
8.23
12.94
15.03
13.37
8.37
1.8
-3.78
-6.45
-5.63
-2.33
1.48
3.84
3.52
0.44
-4.58
-10.22
-15.17
-18.34
-19.12
-17.2
-12.85
-6.8
0.06
6.86
12.95
17.8
20.89
21.59
19.51
14.72
7.9
0.4
-6.3
-11
-13.25
-13.26
-11.74
-9.47
-7.13
-5.31
-4.48
-5.09
-7.23
-10.6
-14.41
-17.58
-19.17
-18.58
-15.88
-11.62
-6.74
-2.02
2.12
5.6
8.49
10.67
11.8
11.41
9.35
5.95
2.01
-1.61
-4.37
-6.19
-7.27
-7.6
-6.73
-3.95
1.1
7.87
14.63
18.99
19.05
14.11
5.14
-5.64
-15.57
-22.38
-24.78
-22.57
-16.44
-7.68
2.09
11.16
17.97
21.49
21.57
19.04
15.35
11.92
9.52
8.04
6.91
5.55
3.87
2.35
1.55
1.68
2.44
3.22
3.41
2.86
1.72
0.25
-1.33
-2.99
-4.67
-6.13
-7.06
-7.05
-5.88
-3.65
-0.74
2.27
4.61
5.58
4.68
1.85
-2.41
-7.02
-10.73
-12.54
-12.05
-9.63
-6.07
-2.36
0.52
1.69
0.49
-3.21
-8.63
-14.08
-17.6
-17.71
-14.16
-8.1
-1.22
5.13
10.62
15.72
20.81
25.47
28.47
28.43
24.93
19.04
12.68
7.66
4.62
3.07
1.93
0.62
-0.7
-1.36
-0.93
0.14
0.75
-0.35
-3.68
-8.75
-14.25
-18.67
-20.82
-20.39
-17.85
-14.13
-10.22
-6.83
-4.26
-2.6
-1.87
-2.17
-3.49
-5.44
-7.07
-7.28
-5.25
-1.06
4.15
8.54
10.46
9.16
5.07
-0.44
-5.78
-9.64
-11.39
-10.92
-8.55
-4.73
0.16
5.68
11.37
16.54
20.54
22.76
22.87
20.97
17.37
12.5
6.79
0.76
-4.91
-9.39
-11.89
-12.01
-9.97
-6.51
-2.66
0.75
3.27
4.92
5.73
5.65
4.54
2.3
-0.92
-4.61
-8.06
-10.43
-11.09
-9.79
-6.84
-3.05
0.56
3.18
4.46
4.49
3.52
1.75
-0.76
-3.77
-6.59
-8.01
-6.78
-2.48
3.89
10.01
13.18
11.59
5.25
-4.06
-13.61
-20.71
-23.6
-21.63
-15.08
-4.89
7.33
19.37
28.84
33.85
33.88
30.1
24.77
20.09
17.24
16.19
16.22
16.86
18.22
20.71
24.16
27.4
28.57
26.01
19.35
9.87
-0
-7.91
-12.62
-14.55
-15.21
-16.31
-18.92
-22.85
-26.99
-29.78
-29.99
-27.1
-21.41
-13.81
-5.38
2.63
9.06
12.9
13.41
10.48
4.73
-2.45
-9.41
-14.57
-17.09
-16.98
-15.25
-13.51
-13.39
-15.97
-21.35
-28.56
-35.65
-40.18
-39.8
-33.08
-20.18
-3.07
14.91
30.21
40.31
44.59
44.22
41.26
37.44
33.25
28.29
22.16
15.21
8.7
4
1.4
-0.03
-1.97
-5.7
-11.18
-17.13
-21.67
-23.5
-22.47
-19.49
-15.88
-12.77
-10.51
-8.66
-6.37
-2.77
2.51
9.14
15.99
21.71
25.23
26.3
25.59
24.14
22.84
22.02
21.46
20.63
19.11
16.65
13.05
8.34
2.51
-4.22
-11.28
-17.7
-22.12
-23.25
-20.28
-13.4
-3.83
6.4
15.17
20.96
23.34
22.92
20.78
17.82
14.31
10.18
5.45
0.71
-3.11
-5.42
-6.32
-6.71
-7.63
-9.58
-12.29
-14.95
-16.92
-18.15
-19.26
-20.84
-22.89
-24.72
-25.3
-24.1
-21.39
-18.13
-15.34
-13.59
-12.77
-12.49
-12.5
-12.76
-13.18
-13.36
-12.42
-9.37
-3.91
3.11
9.64
13.28
12.46
7.09
-1.08
-9.39
-15.32
-17.44
-15.85
-11.51
-5.47
1.82
10.28
19.64
28.92
36.45
40.52
40.32
36.46
30.57
24.62
19.83
16.49
14.19
12.38
10.79
9.57
8.8
8.27
7.46
5.81
3.15
-0.17
-3.44
-6.05
-7.86
-9.29
-11.03
-13.54
-16.47
-18.87
-19.61
-18.01
-14.32
-9.73
-5.88
-4.09
-4.88
-7.68
-11.3
-14.43
-16.19
-16.33
-15.12
-13.14
-11.02
-9.44
-9.13
-10.81
-14.86
-20.92
-27.65
-32.97
-34.75
-31.63
-23.66
-12.34
0.13
11.64
20.8
27
30.21
30.6
28.47
24.38
19.15
13.73
8.92
5.17
2.44
0.5
-0.97
-2.25
-3.62
-5.42
-7.99
-11.5
-15.62
-19.56
-22.22
-22.64
-20.39
-15.64
-9.18
-1.99
5.07
11.57
17.31
22.04
25.26
26.47
25.51
22.99
20.08
17.88
16.66
15.49
12.95
8.09
1.39
-5.2
-9.12
-8.52
-3.53
3.83
10.54
14.15
13.68
9.72
3.85
-2.23
-7.06
-9.53
-8.95
-5.08
1.64
10.02
18.16
23.97
25.79
23.02
16.23
6.92
-3.19
-12.67
-20.71
-27.06
-31.72
-34.7
-35.86
-35.06
-32.35
-28.33
-24.04
-20.65
-18.98
-18.89
-19.43
-19.17
-17.12
-13.3
-8.7
-4.77
-2.6
-2.34
-3.13
-3.66
-2.91
-0.78
1.86
3.68
3.56
1.2
-2.79
-7.28
-11.14
-13.52
-13.9
-11.81
-7.1
-0.12
8.04
15.59
20.63
21.83
19.12
13.62
7.28
1.99
-0.98
-1.17
1.38
6.33
13.11
20.9
28.51
34.67
38.29
38.93
36.77
32.62
27.5
22.27
17.51
13.37
9.86
6.86
4.34
2.37
1.13
0.82
1.49
2.86
4.21
4.67
3.48
0.3
-4.44
-9.74
-14.31
-17.06
-17.22
-14.65
-9.67
-3.08
4.05
10.42
14.76
16.25
14.94
11.92
8.67
6.46
5.63
5.39
4.36
1.32
-4.11
-11.36
-19.21
-26.39
-31.76
-34.59
-34.54
-31.59
-26.06
-18.54
-9.87
-1.09
6.8
13.09
17.42
19.82
20.72
20.58
19.71
18.16
15.86
12.93
10.06
8.26
8.41
10.66
14.13
17.22
18.45
16.98
12.9
7
0.26
-6.51
-12.77
-18.1
-21.89
-23.68
-23.21
-20.56
-16.25
-11.09
-5.75
-0.51
4.37
8.44
10.95
11.2
8.97
4.88
0.61
-1.33
1.01
7.67
16.35
23.26
24.76
18.95
6.71
-8.8
-23.76
-35.23
-41.78
-42.95
-38.66
-29.03
-14.72
2.54
19.77
33.18
39.76
38.54
30.97
20
8.73
-0.36
-6.03
-8.19
-7.61
-5.34
-2.51
-0.11
1.33
1.93
2.18
2.31
1.97
0.31
-3.3
-8.75
-14.64
-18.82
-19.63
-16.89
-12.29
-8.38
-7.19
-9.2
-13.09
-16.68
-18.41
-18.23
-17.37
-17.29
-18.77
-21.39
-23.78
-24.63
-23.45
-20.76
-17.56
-14.33
-10.85
-6.6
-1.46
3.6
6.53
5.26
-0.96
-10.74
-20.89
-27.77
-28.93
-24.17
-15.51
-5.95
2.21
8.22
12.66
16.2
18.8
19.41
16.78
10.52
1.75
-7.18
-13.8
-16.77
-16.33
-14.02
-11.67
-10.33
-9.97
-9.94
-9.77
-9.73
-10.5
-12.65
-15.98
-19.33
-21.11
-20.2
-16.7
-12.01
-7.99
-5.92
-5.79
-6.41
-5.98
-3.35
1.29
6.61
11.17
14.32
16.69
19.71
24.6
31.28
38.01
42.38
43.02
40.42
36.45
33.25
31.87
31.51
30.38
27.01
21.63
16.13
12.6
12.19
14.66
18.82
22.92
25.38
25.41
22.94
18.09
11.31
3.83
-2.36
-5.15
-3.24
3.42
13.18
23.37
31.27
35.41
36.1
34.56
31.84
28.28
23.37
16.17
6.35
-4.88
-15.22
-22.23
-24.95
-24.21
-21.69
-19.05
-17.19
-16.1
-15.11
-13.87
-12.61
-11.66
-10.84
-9.41
-6.67
-2.56
1.77
4.39
3.18
-2.66
-12.02
-22.28
-30.46
-34.39
-33.38
-28.3
-20.83
-12.7
-4.98
1.84
7.5
11.89
14.98
16.78
17.4
16.97
15.6
13.27
9.96
5.81
1.37
-2.58
-5.27
-6.28
-5.57
-3.48
-0.69
2.05
3.92
4.19
2.2
-2.2
-8.62
-15.96
-22.77
-27.56
-29.29
-27.75
-23.56
-18.13
-13.04
-9.71
-8.93
-10.7
-14.07
-17.45
-19.09
-17.65
-12.81
-5.45
2.58
9.13
12.53
12.1
8.19
1.87
-5.42
-12
-16.26
-16.74
-12.58
-3.91
7.85
20.4
31.23
38.58
41.87
41.61
38.77
34.21
28.61
22.53
16.57
11.41
7.54
5.01
3.35
1.89
0.16
-1.87
-3.73
-4.88
-5.14
-4.96
-5.21
-6.77
-9.91
-14.04
-17.77
-19.57
-18.36
-14.09
-7.64
-0.34
6.71
12.83
17.64
20.8
21.7
19.86
15.42
9.42
3.67
0.14
0.04
3.39
8.9
14.49
18.06
18.29
14.95
8.88
1.72
-4.71
-8.71
-9.16
-5.67
1.48
11.45
22.96
34.58
44.69
51.68
54.21
51.4
43.2
30.7
15.87
1.04
-11.6
-20.61
-25.72
-27.59
-27.45
-26.46
-25.52
-25.01
-25.1
-25.85
-27.22
-29.11
-31.07
-32.39
-32.34
-30.49
-26.89
-22.17
-17.14
-12.38
-8.14
-4.28
-0.95
1.14
0.61
-3.95
-12.86
-24.71
-36.69
-45.58
-49.14
-46.95
-40.3
-31.2
-21.42
-12
-3.58
3.16
7.13
7.47
4.27
-0.93
-5.46
-6.72
-3.28
4.46
14.56
24.5
32.28
37.16
39.42
39.96
39.44
38.14
35.82
32.21
27.54
22.59
18.46
16.16
15.97
17.23
18.64
18.9
17.21
13.71
9.11
4.17
-0.67
-5.26
-9.39
-12.53
-13.76
-12.27
-7.87
-1.44
5.19
10.18
12.55
12.62
11.72
11.41
12.54
14.93
17.46
18.67
17.44
13.32
6.52
-2.23
-12.07
-22.09
-31.34
-38.73
-43.15
-43.59
-39.74
-32.16
-22.23
-11.79
-2.52
4.6
9.58
13.03
15.57
17.24
17.46
15.44
10.82
4.12
-3.36
-9.86
-13.93
-14.91
-13.03
-9.2
-4.63
-0.33
3.06
5.22
5.85
4.64
1.44
-3.4
-8.94
-13.76
-16.54
-16.56
-14.19
-10.64
-7.43
-5.7
-5.74
-7
-8.41
-8.98
-8.07
-5.62
-1.87
2.78
7.87
12.92
17.27
19.95
19.89
16.34
9.32
0.05
-9.44
-16.71
-19.91
-18.23
-12.1
-2.97
7.17
16.43
23.45
27.55
28.76
27.69
24.99
21.09
16.17
10.31
3.89
-2.23
-6.93
-9.29
-9.15
-7.18
-4.57
-2.52
-1.93
-3.19
-6.27
-10.81
-16.14
-21.27
-25.17
-27.01
-26.65
-24.5
-21.34
-17.82
-14.19
-10.48
-6.92
-4.18
-3.11
-4.39
-7.88
-12.69
-17.52
-21.19
-23.06
-22.94
-20.86
-16.87
-11.11
-3.89
3.9
11.03
16.09
18.19
17.28
14.24
10.49
7.45
6.12
6.98
10.04
14.92
20.78
26.37
30.17
31.01
28.57
23.69
18.06
13.51
11.17
10.98
12.02
13.06
13.15
12.01
9.71
6.66
3.41
0.67
-0.97
-1.18
-0.38
0.55
0.65
-0.59
-2.98
-5.97
-9.17
-12.64
-16.66
-21.11
-24.98
-26.73
-25.08
-19.93
-12.74
-5.89
-1.64
-0.98
-3.42
-7.46
-11.36
-14.07
-15.17
-14.85
-13.42
-11.07
-8.03
-4.76
-2.08
-1.02
-2.47
-6.6
-12.66
-18.91
-23.2
-23.77
-19.94
-12.54
-3.31
5.61
12.69
17.48
20.51
22.58
24.08
24.76
23.87
21
16.49
11.59
7.68
5.65
5.52
6.5
7.62
8.11
7.68
6.29
4.04
1
-2.59
-6.2
-9.16
-10.89
-11.24
-10.44
-8.97
-7.12
-4.93
-2.43
0.14
2.24
3.34
3.47
3.37
4.26
7.12
12.03
17.82
22.61
24.53
22.53
16.69
8.12
-1.47
-10.18
-16.34
-18.88
-17.46
-12.56
-5.33
2.8
10.48
16.74
21.05
23.24
23.37
21.73
18.77
15.05
11.15
7.53
4.38
1.71
-0.54
-2.45
-4.13
-5.81
-7.61
-9.52
-11.31
-12.65
-13.4
-13.77
-14.3
-15.42
-17.12
-18.86
-19.82
-19.49
-17.93
-15.63
-13.34
-11.73
-11.2
-11.83
-13.26
-14.69
-14.9
-12.69
-7.4
0.39
8.95
15.9
19.19
17.97
13.08
6.6
0.99
-1.78
-0.79
3.63
10.21
17.28
23.18
26.93
28.27
27.41
24.68
20.24
14.23
7
-0.46
-6.52
-9.58
-8.59
-3.62
4.39
13.92
23.32
31.23
36.66
39.02
38.02
34.12
28.15
21.19
14.13
7.55
1.64
-3.74
-8.79
-13.58
-17.95
-21.68
-24.57
-26.53
-27.77
-28.68
-29.73
-30.98
-31.98
-31.74
-29.45
-24.99
-19.23
-13.93
-11.04
-11.89
-16.49
-23.45
-30.64
-35.99
-38.28
-37.48
-34.61
-30.74
-26.3
-20.55
-11.81
1.48
19.56
40.56
60.86
76.26
83.89
83.09
75.59
64.65
53.49
44.22
37.34
32.25
27.89
23.53
19.02
14.49
9.8
4.23
-3.2
-13.15
-25.16
-37.39
-47.07
-51.52
-49.42
-41.36
-29.6
-17.1
-6.41
1.06
5.03
5.93
4.47
1.4
-2.23
-5.05
-5.51
-2.65
3.28
10.63
17
20.38
19.87
15.88
9.39
1.27
-7.94
-17.67
-26.52
-32.21
-32.29
-25.72
-13.63
0.57
12.82
20.04
21.52
18.76
14.3
10.12
6.78
3.89
0.91
-2
-4.23
-5.36
-5.95
-7.61
-12.3
-21.07
-33.23
-46.56
-57.96
-64.61
-65.15
-59.75
-49.99
-38.19
-26.77
-17.94
-13.36
-13.66
-18.35
-25.86
-33.84
-40.13
-43.41
-43.66
-41.95
-39.75
-38.18
-37.45
-37.06
-36.14
-34.25
-31.51
-28.42
-25.32
-21.88
-17.36
-11.01
-2.7
7.01
17.14
27.07
37.33
49.25
64.3
83.16
104.93
126.99
145.18
154.53
150.45
130.22
94.19
46.73
-4.22
-48.86
-78.17
-86.54
-73.2
-42.22
-1
41.74
77.91
101.39
108.71
99.4
76.06
43.96
10.02
-18.67
-36.5
-40.56
-31.23
-12.06
11.17
31.75
43.57
42.43
27.08
-0.54
-35.48
-70.8
-98.83
-112.75
-108.24
-84.76
-45.58
2.95
52.75
95.56
124.61
135.72
127.57
101.89
63.22
18.04
-26.59
-64.4
-90.88
-103.66
-102.5
-89.19
-67.3
-41.92
-19.17
-4.89
-2.69
-12.44
-29.89
-48.2
-60.37
-61.87
-51.97
-33.65
-12.02
7.68
21.83
28.9
29.45
25.69
20.49
16.55
15.75
18.99
25.96
34.95
43.11
47.08
44.03
32.74
14.22
-8.12
-29.37
-44.55
-50.19
-45.26
-31.11
-10.78
11.99
33.69
51.37
62.67
66.06
61.09
48.66
31.06
11.49
-6.72
-21.03
-30.12
-33.93
-33.27
-29.31
-23.18
-16.04
-8.9
-2.71
1.85
4.45
5.11
4.08
1.71
-1.51
-4.87
-7.59
-8.87
-8.48
-6.83
-4.96
-3.87
-4.09
-5.37
-6.84
-7.43
-6.2
-2.67
3.09
10.18
17.04
21.82
23.02
19.92
12.84
2.94
-8.01
-17.97
-24.99
-27.34
-24
-15.05
-2.03
12.32
24.74
32.53
34.6
31.63
25.49
18.3
11.78
7.02
4.39
3.73
4.04
3.84
1.56
-3.61
-11.11
-19.24
-25.98
-30.09
-31.75
-32.38
-33.38
-35.31
-37.38
-38.28
-37.19
-34.41
-31.17
-28.87
-28.09
-28.23
-27.87
-25.61
-20.79
-13.94
-6.59
-0.71
1.87
0.2
-5.42
-13.51
-21.83
-28
-30.3
-28.04
-21.45
-11.28
1.52
15.87
30.38
43.51
53.59
59.12
59.28
54.36
45.87
36.01
27.02
20.41
16.68
15.27
15.22
15.72
16.57
17.95
19.86
21.74
22.35
20.43
15.26
7.34
-1.68
-9.87
-15.74
-18.79
-19.32
-17.98
-15.36
-11.94
-8.27
-5.08
-3.07
-2.4
-2.49
-2.63
-2.74
-3.86
-7.61
-15.09
-25.59
-36.53
-44.42
-46.72
-43.04
-35.18
-26.16
-18.74
-14.74
-14.96
-19.38
-27.18
-36.47
-44.3
-47.41
-43.72
-33.34
-18.74
-3.49
9.47
18.95
25.54
30.35
33.7
34.84
32.81
27.71
21.05
15.35
12.51
12.72
14.29
14.89
12.9
8.6
3.84
0.91
1.21
4.35
8.42
11.09
10.81
7.49
2.52
-2.2
-5
-5.12
-2.89
0.81
5.03
9.35
13.62
17.6
20.56
21.47
19.71
15.62
10.92
7.75
7.39
9.4
11.86
12.52
10.23
5.68
0.97
-1.58
-0.68
3.52
9.7
16.11
21.11
23.6
23.21
20.26
16.1
12.53
11.32
13.28
17.76
22.96
26.59
27.02
23.55
16.59
7.28
-2.89
-12.47
-20.28
-25.6
-28.4
-29.15
-28.82
-28.44
-28.62
-29.39
-29.93
-28.96
-25.16
-17.92
-7.72
4.07
15.58
25.09
31.26
33.33
30.9
24.31
14.78
4.57
-3.59
-7.7
-7.48
-4.46
-0.93
1.44
2.58
3.8
6.57
11.31
17.11
22.5
26.59
29.77
33.13
37.48
42.67
47.74
51.83
54.83
57.49
60.66
64.3
67.28
67.6
63.71
55.2
43.33
30.12
17.09
4.24
-10
-27.44
-48.64
-71.8
-93.26
-109.15
-117.34
-118.41
-115.12
-110.65
-106.68
-102.85
-97.58
-89.83
-80.09
-70.28
-62.34
-57.07
-53.64
-50.47
-46.4
-41.26
-35.8
-30.82
-26.28
-21.22
-14.63
-6.45
1.89
7.73
8.2
1.62
-11.74
-29.56
-48.44
-64.87
-75.92
-79.64
-74.94
-61.41
-39.41
-10.62
21.61
52.33
76.31
89.89
92.63
87.33
78.49
70.18
64.29
60.36
56.88
52.91
48.8
45.73
44.59
45.21
46.33
46.46
44.83
41.73
37.76
33.21
27.82
21.29
13.89
6.86
1.77
-0.17
1.28
5.38
10.7
15.55
18.07
16.46
9.39
-3.27
-19.85
-36.91
-50.27
-56.65
-55.22
-47.91
-38.42
-30.26
-25.36
-23.68
-24.21
-26.18
-29.72
-35.2
-42.19
-48.63
-51.47
-48.23
-38.61
-24.81
-10.47
1.38
9.63
15.14
19.37
22.9
24.84
23.71
18.92
11.63
4.31
-0.6
-2.12
-1.13
0.45
0.95
-0.14
-2.08
-3.75
-4.62
-5.06
-6.17
-8.94
-13.55
-19.27
-24.88
-29.26
-32.04
-33.47
-33.94
-33.7
-32.59
-30.21
-26.51
-22.09
-17.93
-15.12
-14.04
-13.73
-12.03
-6.03
6.91
28.06
56.46
88.9
120.25
144.84
158.06
157.52
143.77
119.89
90.44
60.07
32.62
10.59
-4.63
-12.55
-13.56
-8.77
0
10.54
20.57
28.53
33.77
36.6
37.85
38.13
37.6
35.9
32.41
26.85
19.83
12.74
7.2
4.31
3.79
3.95
2.37
-2.88
-12.31
-24.69
-37.67
-48.89
-56.85
-61.07
-61.51
-58.04
-50.41
-38.84
-24.82
-11.16
-1.07
3.43
2.26
-2.71
-8.91
-14.28
-18.03
-20.27
-21.46
-21.7
-20.77
-18.39
-14.71
-10.25
-5.54
-0.9
3.7
8.11
11.75
13.82
13.62
11.22
7.33
3.12
-0.41
-2.77
-4.07
-4.7
-5.15
-5.9
-7.32
-9.37
-11.57
-12.94
-12.47
-9.64
-4.74
1.09
6.3
9.68
10.64
9.37
6.34
2.06
-3.12
-8.86
-14.48
-19.04
-21.49
-21.23
-18.34
-13.5
-7.88
-2.68
0.98
2.48
1.9
0.09
-1.55
-1.55
1.04
6.23
13.06
19.94
25.07
27.1
25.53
20.96
15.06
10.12
8.23
10.54
16.8
25.49
34.64
42.71
49.03
53.62
56.44
56.91
53.72
45.62
32.33
15.17
-3.18
-19.53
-31.29
-37.22
-37.67
-34.29
-29.37
-25.21
-23.39
-24.49
-28.02
-32.66
-36.9
-39.53
-40.09
-38.78
-36.21
-32.88
-29.12
-24.94
-20.28
-15.38
-10.6
-6.39
-2.99
-0.43
1.32
2.12
1.75
0.12
-2.39
-4.78
-5.95
-5.23
-3.16
-1.2
-0.92
-3.05
-6.86
-10.76
-13.08
-12.89
-10.15
-5.29
1.21
9.12
17.88
26.39
32.97
36.25
35.84
32.61
28.27
24.26
21.11
18.26
15.01
11.12
7.2
4.18
2.71
2.89
4.29
6.46
8.85
10.99
12.35
12.46
11.14
8.71
5.91
3.42
1.48
-0.11
-1.68
-3.07
-3.65
-2.61
0.28
4.45
8.68
11.98
14.28
16.2
18.34
20.35
20.72
17.37
9.25
-2.87
-16.31
-27.94
-35.91
-40.4
-43.22
-46.05
-49.16
-51.06
-49.76
-44.17
-35.04
-24.54
-14.82
-6.99
-1.03
3.47
6.39
7.02
4.89
0.8
-3.05
-3.97
-0.51
6.71
15.36
22.81
27.49
29.32
29.04
27.11
23.38
17.35
9.16
0.14
-7.57
-11.95
-12.21
-8.94
-3.74
1.91
7.07
11.42
14.81
16.89
17.09
15.03
11
6.04
1.5
-1.47
-2.5
-2.16
-1.58
-1.84
-3.43
-5.96
-8.44
-9.91
-9.86
-8.51
-6.47
-4.48
-2.86
-1.58
-0.44
0.67
1.58
2.17
2.47
2.87
3.63
4.63
5.33
4.86
2.89
-0.02
-2.56
-3.25
-1.3
2.94
8.14
12.77
15.63
16.38
15.25
12.51
8.17
2.21
-5.08
-12.66
-18.91
-22.39
-22.38
-19.37
-14.82
-10.42
-7.37
-5.99
-5.91
-6.43
-7.2
-8.32
-10.15
-12.96
-16.38
-19.64
-21.64
-21.43
-18.65
-13.74
-7.78
-2.3
1.19
1.73
-0.93
-6.09
-12.31
-17.78
-20.8
-20.26
-15.88
-8.41
0.7
9.73
17.14
21.99
24.16
24.27
23.4
22.7
22.66
22.95
22.57
20.65
17.2
13.27
10.53
9.98
11.32
12.99
13.16
10.86
6.55
1.62
-2.56
-5.38
-7.19
-8.64
-9.79
-10.08
-8.65
-5.3
-0.85
3.14
5.22
4.86
2.61
-0.35
-2.9
-4.39
-4.85
-4.68
-4.45
-4.71
-5.84
-8
-10.86
-13.61
-15.05
-14.44
-12.08
-9.36
-7.97
-8.81
-11.22
-13.01
-11.81
-6.56
1.52
9.3
13.59
12.71
7.43
0.28
-5.93
-9.51
-10.35
-9.31
-7.25
-4.21
0.23
6.44
13.92
21.2
26.44
28.44
27.3
24.28
21.04
18.58
17.02
15.81
14.32
12.43
10.65
9.79
10.38
12.36
14.9
16.96
17.57
16.19
12.69
7.42
1.23
-4.75
-9.21
-11.31
-10.98
-8.89
-6.29
-4.04
-2.51
-1.35
-0.12
1.18
1.92
1.24
-1.35
-5.64
-10.64
-15.24
-18.45
-19.91
-19.64
-17.82
-14.74
-10.84
-7.08
-4.73
-5.03
-8.41
-14.16
-20.58
-25.69
-27.93
-26.53
-21.62
-13.84
-4.25
5.97
15.52
23.01
27.31
27.85
24.95
19.72
13.79
8.64
5.09
3.02
1.61
-0.02
-2.41
-5.31
-8.03
-9.81
-10.27
-9.63
-8.55
-7.76
-7.76
-8.78
-10.81
-13.72
-16.99
-19.76
-20.84
-19.21
-14.42
-7.05
1.31
8.83
13.92
16.06
15.59
13.44
10.61
7.65
4.76
2.01
-0.36
-1.94
-2.49
-2.21
-1.75
-1.87
-2.8
-4.14
-4.82
-3.74
-0.57
3.85
7.62
8.65
5.7
-1
-9.94
-18.87
-25.81
-29.56
-29.83
-27.01
-21.84
-15.05
-7.47
0.1
6.88
12.17
15.55
17.05
16.92
15.65
13.78
11.94
10.75
10.71
11.91
13.64
14.8
14.14
11.06
5.8
-0.54
-6.67
-11.57
-14.79
-16.37
-16.38
-14.83
-11.73
-7.39
-2.61
1.47
3.88
4.37
3.55
2.55
2.35
3.34
5.01
6.43
6.7
5.44
3.11
0.67
-0.73
-0.47
1.38
4.06
6.35
7.16
5.8
2.3
-2.69
-8.03
-12.66
-15.78
-17.21
-17.22
-16.31
-15.02
-13.77
-12.9
-12.69
-13.29
-14.59
-15.94
-16.07
-13.5
-7.57
1.16
10.51
17.78
20.9
19.54
15.45
11.36
9.55
10.44
12.58
13.64
12.09
8.33
4.56
3.28
5.57
10.27
14.7
16.32
14.09
8.91
2.8
-2.32
-5.63
-7.4
-8.42
-9.22
-9.81
-10.03
-9.85
-9.36
-8.61
-7.39
-5.31
-2.13
1.76
5.26
7.14
6.63
4.09
0.74
-1.88
-2.74
-1.65
0.66
2.9
3.78
2.41
-1.33
-6.8
-12.72
-17.58
-20.02
-19.31
-15.46
-9.09
-1.1
7.72
16.72
25.4
33.12
38.81
41.28
39.77
34.41
26.39
17.75
10.57
6.38
5.78
8.29
12.56
16.78
19.35
19.15
16.04
10.72
4.29
-2.14
-7.77
-12.24
-15.46
-17.52
-18.61
-19.12
-19.53
-20.25
-21.41
-22.61
-22.98
-21.7
-18.32
-13.17
-7.43
-2.57
0.34
0.99
-0.22
-2.42
-4.82
-6.94
-8.86
-11.09
-14
-17.56
-21.1
-23.56
-23.83
-21.25
-15.92
-8.66
-0.82
6.32
11.94
15.91
18.67
20.65
22.03
22.56
21.9
20.02
17.4
14.86
13.14
12.72
13.49
14.83
16.08
16.86
17.12
17.11
16.99
16.53
15.25
12.61
8.44
3.19
-2.06
-6.04
-7.79
-7.1
-4.76
-2.06
-0.39
-0.55
-2.43
-5.01
-6.9
-7.01
-5.11
-2.25
-0.26
-0.72
-3.99
-9.09
-14.33
-18.21
-20.26
-20.95
-20.98
-20.37
-18.44
-14.29
-7.67
0.35
7.91
13.1
15.12
14.52
12.83
11.56
11.14
11.02
10.03
7.35
2.97
-2.11
-6.46
-8.92
-9.14
-7.87
-6.21
-5.06
-4.61
-4.42
-3.75
-2.43
-1.08
-0.59
-1.7
-4.23
-7.14
-9.02
-8.97
-7.07
-4.35
-2.19
-1.06
-0.46
0.98
4.31
9.29
14.37
17.34
16.62
12.07
4.97
-2.82
-9.7
-14.77
-17.7
-18.27
-16.11
-10.97
-3.27
5.76
14.36
21.06
25.25
27.15
27.26
25.79
22.57
17.55
11.37
5.33
0.85
-1.22
-1.11
0.19
1.71
2.91
3.87
4.76
5.27
4.68
2.33
-1.69
-6.41
-10.33
-12.4
-12.49
-11.53
-10.74
-10.77
-11.45
-12.26
-13.1
-14.46
-17.23
-21.7
-26.82
-30.46
-30.43
-26.03
-18.67
-11.33
-6.94
-6.87
-10.28
-14.9
-18.63
-20.36
-20.27
-18.67
-15.25
-9.22
-0.22
10.69
20.88
27.27
28.21
24.29
18.32
13.43
11.35
11.71
12.82
13.11
12.27
11.36
11.6
13.43
15.89
17.29
16.31
12.76
7.77
3.02
-0.23
-1.58
-1.38
-0.22
1.51
3.76
6.54
9.64
12.56
14.72
15.43
14.2
10.72
4.89
-2.97
-11.99
-20.81
-27.85
-31.93
-32.65
-30.61
-27.05
-23.1
-19.54
-16.76
-15.14
-15.36
-18.22
-23.9
-31.44
-38.65
-42.68
-41.25
-33.65
-21.09
-6.15
8.19
19.62
27.03
30.53
30.89
29.11
26.09
22.51
18.8
15.35
12.47
10.61
10.05
10.78
12.31
13.76
14.14
12.68
9.32
4.55
-0.76
-5.57
-8.98
-10.49
-9.95
-7.74
-4.48
-0.84
2.75
6.11
9.22
12.01
14.21
15.52
15.72
15.08
14.16
13.54
13.38
13.42
13.23
12.72
12.22
12.09
12.17
11.45
8.58
2.66
-5.97
-15.61
-23.85
-28.49
-28.53
-24.22
-16.63
-7.27
2.52
11.62
19.29
24.93
28.37
29.68
29.09
26.82
22.98
17.8
11.83
6.06
1.55
-0.82
-0.79
1.25
4.53
8.28
11.92
14.85
16.28
15.26
11.19
4.24
-4.59
-13.54
-20.76
-24.86
-25.37
-22.79
-18.08
-12.38
-6.72
-2.05
0.83
1.31
-0.73
-4.52
-8.58
-11.12
-10.96
-7.97
-3.34
1.02
3.24
2.45
-0.85
-5.34
-9.56
-12.63
-14.37
-14.96
-14.41
-12.41
-8.47
-2.35
5.36
13.5
20.6
25.42
27.33
26.39
23.16
18.5
13.28
8.36
4.53
2.45
2.47
4.58
8.4
13.07
17.25
19.54
18.93
15.19
9.03
1.85
-4.78
-9.84
-13.09
-14.91
-15.78
-16
-15.49
-14.11
-12.03
-9.72
-7.91
-7.03
-7.27
-8.64
-11.18
-14.96
-19.68
-24.44
-27.7
-27.92
-24.32
-17.72
-10.24
-4.45
-2.23
-3.9
-8.47
-14.15
-19.3
-22.8
-24.09
-22.74
-18.32
-10.75
-0.53
10.9
21.63
29.76
34.12
34.51
31.52
26.24
19.82
13.51
8.28
4.76
3.17
3.31
4.7
6.61
8.17
8.34
6.32
1.8
-4.64
-11.47
-16.86
-19.46
-18.97
-16.35
-13.07
-10.37
-8.61
-7.43
-6.27
-4.96
-3.84
-3.26
-2.97
-2.23
-0.13
3.51
7.61
10.17
9.16
3.84
-4.57
-13.27
-19.15
-20.33
-17
-11.16
-5.38
-1.61
-0.46
-1.55
-4.13
-7.72
-11.97
-16.31
-19.47
-19.71
-15.55
-6.71
5.51
18.5
29.49
36.5
38.93
37.37
33.27
28.22
23.47
19.66
16.73
14.4
12.35
10.6
9.35
8.63
8.28
7.89
7.14
6.09
5.23
5.13
5.95
7.13
7.62
6.55
3.73
-0.12
-3.81
-6.24
-7.03
-6.48
-5.24
-3.92
-2.97
-2.54
-2.62
-3.31
-4.56
-6.17
-7.78
-9.24
-10.63
-12.13
-13.82
-15.49
-16.82
-17.36
-16.89
-15.54
-13.95
-12.99
-13.13
-14.29
-15.69
-16.36
-15.69
-13.83
-11.61
-9.98
-9.3
-9.11
-8.51
-6.65
-3.2
1.55
7.02
12.88
19.25
26.13
32.81
37.58
38.73
35.4
28.32
19.61
11.62
5.98
2.87
1.47
0.68
0.04
-0.29
0.08
1.31
2.98
4.27
4.28
2.61
-0.52
-4.31
-7.66
-9.56
-9.37
-7.15
-3.51
0.51
3.81
5.63
5.79
4.64
2.82
0.96
-0.66
-2.16
-3.88
-6.25
-9.54
-13.81
-18.71
-23.56
-27.42
-29.31
-28.67
-25.52
-20.54
-14.7
-8.68
-2.65
3.75
10.98
19.04
27.14
33.84
37.67
38.03
35.44
31.14
26.34
21.5
16.44
10.82
4.9
-0.37
-3.8
-4.73
-3.57
-1.49
0.13
0.47
-0.56
-2.44
-4.61
-6.87
-9.39
-12.31
-15.17
-17.08
-17.04
-14.5
-9.91
-4.54
-0.12
1.93
1.19
-1.56
-4.87
-7.27
-8.13
-7.96
-7.82
-8.55
-10.08
-11.59
-12.41
-12.48
-12.6
-13.65
-15.65
-17.22
-16.32
-11.62
-3.52
5.85
13.72
18.29
19.62
19.18
18.68
18.66
18.32
16.41
12.46
7.28
2.62
0.15
0.43
2.51
4.6
5.07
3.3
-0.26
-4.62
-8.96
-12.92
-16.57
-20.02
-22.85
-24.29
-23.62
-20.61
-15.49
-9.1
-2.46
3.58
8.7
12.87
15.91
17.49
17.22
14.98
10.99
5.82
0.29
-4.8
-8.8
-11.36
-12.35
-11.94
-10.57
-9
-7.99
-8.2
-9.85
-12.69
-16.02
-18.79
-19.78
-17.97
-12.86
-4.71
5.23
15.02
22.78
27.3
28.49
27.12
24.31
21.11
18.07
15.52
13.7
12.95
13.55
15.37
17.79
19.91
20.94
20.51
18.78
16.11
12.92
9.5
6.06
2.83
0.12
-1.6
-2.04
-1.26
0.36
2.2
3.52
3.69
2.25
-0.85
-5.07
-9.54
-13.27
-15.69
-16.72
-16.81
-16.47
-15.99
-15.34
-14.38
-13.27
-12.35
-12.11
-12.72
-13.78
-14.5
-14.1
-12.37
-9.86
-7.69
-6.83
-7.58
-9.44
-11.32
-12.26
-11.65
-9.34
-5.4
0.13
7.13
15.1
22.75
28.31
30.06
27.27
20.53
11.73
3.11
-3.69
-8.02
-10.15
-10.44
-9.15
-6.22
-1.82
3.34
8.05
11.19
12.2
11.24
9.04
6.27
3.45
0.83
-1.29
-2.37
-1.88
0.31
3.72
7.32
10.1
11.58
11.81
11.04
9.33
6.58
2.99
-0.68
-3.09
-3.13
-0.76
2.63
4.79
3.87
-0.58
-7.34
-14.28
-19.31
-21.4
-20.7
-18.02
-14.21
-9.93
-5.73
-2.14
0.33
1.53
1.95
2.64
4.76
8.85
14.42
20
23.96
25.08
23.16
18.82
13.16
7.27
1.73
-3.26
-7.73
-11.56
-14.25
-15.11
-13.75
-10.31
-5.6
-0.95
2.4
3.9
3.81
3.04
2.63
3.02
3.86
4.27
3.43
1.09
-2.16
-5.27
-7.16
-7.22
-5.48
-2.54
0.64
3
3.85
3.13
1.45
-0.14
-0.79
-0.19
1.23
2.64
3.27
2.86
1.58
-0.29
-2.67
-5.64
-9.08
-12.28
-13.88
-12.38
-6.89
2.1
12.66
22.08
28.06
29.65
27.53
23.47
19.44
16.71
15.41
15.02
14.82
14.32
13.45
12.18
10.4
7.98
4.84
1.22
-2.4
-5.69
-8.7
-11.82
-15.63
-20.25
-25.07
-28.99
-30.94
-30.45
-27.9
-24.25
-20.46
-17.06
-14.02
-10.94
-7.58
-4.18
-1.54
-0.56
-1.69
-4.41
-7.38
-9.01
-8.27
-5.26
-1.04
2.71
4.51
3.58
0.17
-4.7
-9.47
-12.63
-13.15
-10.54
-5.16
1.99
9.63
16.69
22.64
27.52
31.6
34.93
37.14
37.57
35.62
31.21
25.09
18.56
12.94
9.05
6.88
5.81
5.07
4.32
3.71
3.58
4.08
4.63
4.1
1.31
-4.23
-11.94
-20.2
-27.05
-31.11
-32.01
-30.18
-26.46
-21.56
-15.98
-10.07
-4.29
0.67
4.07
5.37
4.51
2.09
-0.99
-3.88
-6.1
-7.59
-8.63
-9.68
-11.02
-12.78
-14.8
-16.74
-18.08
-18.34
-17.16
-14.54
-10.75
-6.09
-0.82
5.07
11.7
19
26.4
32.96
37.65
39.68
38.85
35.54
30.61
25.14
20.21
16.51
14.1
12.42
10.55
7.64
3.23
-2.63
-9.54
-17.09
-24.98
-32.91
-40.3
-46.32
-49.98
-50.89
-49.51
-46.8
-43.77
-40.8
-37.73
-34.3
-30.46
-26.38
-22.39
-18.63
-15.23
-12.63
-11.73
-13.38
-17.6
-23.12
-27.46
-28.21
-24.41
-17.24
-9.33
-3.26
-0.17
0.53
0.22
0.05
0.08
-0.18
-0.82
-0.73
2.08
8.98
19.23
29.99
37.57
39.47
35.88
29.54
23.99
21.65
22.46
24.31
24.67
22.31
17.92
13.59
11.38
12.05
14.75
17.74
19.5
19.54
18.25
16.41
14.64
13.02
10.96
7.85
3.65
-0.89
-4.4
-5.52
-3.62
0.98
6.8
11.76
14
12.8
8.85
3.92
0.07
-1.16
0.41
3.6
6.41
6.96
4.15
-2.06
-10.93
-21.18
-31.41
-40.09
-45.69
-46.66
-42.12
-32.28
-18.62
-3.58
10.25
20.77
27.04
29.38
29.07
27.71
26.46
25.56
24.52
22.49
18.97
14.25
9.46
6.19
5.78
8.91
15.12
23.09
31.01
37.31
40.95
41.41
38.59
32.69
24.24
13.97
2.96
-7.5
-16.02
-21.31
-22.68
-20.27
-15.2
-9.17
-3.81
0.02
2.45
4.28
6.49
9.61
13.49
17.32
20.11
20.85
18.91
14.04
6.38
-3.37
-14
-23.9
-31.63
-36.35
-38.04
-37.3
-35.03
-31.99
-28.67
-25.49
-22.79
-20.75
-19.23
-17.82
-16.07
-13.93
-11.82
