-32.93
-35.38
-36.07
-35.6
-34.95
-34.96
-35.81
-37.14
-38.34
-38.97
-39.05
-38.9
-38.82
-38.73
-38.38
-37.35
-35.3
-32.16
-27.98
-22.81
-16.7
-9.79
-2.42
4.84
11.26
16.07
18.71
18.93
16.96
13.45
9.38
5.89
3.87
3.78
5.53
8.58
12.16
15.5
18.04
19.52
20.01
19.87
19.48
19.14
18.93
18.84
18.86
19.08
19.73
20.86
22.17
23.08
23.06
21.91
20.05
18.42
17.81
18.45
19.78
20.75
20.39
18.32
14.84
10.77
6.99
3.97
1.66
-0.21
-2
-3.77
-5.3
-6.27
-6.56
-6.44
-6.66
-8.06
-11.17
-15.84
-21.1
-25.49
-27.6
-26.78
-23.22
-17.95
-12.27
-7.33
-3.92
-2.25
-2.2
-3.37
-5.28
-7.43
-9.31
-10.52
-10.92
-10.57
-9.62
-8.24
-6.67
-5.1
-3.75
-2.84
-2.37
-2.24
-2.43
-3.27
-5.49
-9.84
-16.49
-24.5
-31.92
-36.34
-36.08
-31.19
-23.48
-16.04
-11.8
-12.19
-16.81
-23.73
-30.57
-35.38
-37.09
-35.24
-29.64
-20.25
-7.52
7.07
20.79
30.36
33.1
28.3
17.54
4.12
-8.36
-17.34
-21.84
-22.12
-18.87
-12.66
-3.76
7.33
19.53
31.3
41.01
47.55
50.75
51.24
50.16
48.79
48.02
48.12
48.75
49.16
48.57
46.52
43.19
39.26
35.64
33.23
32.49
33.46
35.77
38.61
40.86
41.2
38.32
31.47
20.8
7.6
-6.3
-19.19
-30.2
-39.42
-47.53
-55.03
-61.71
-66.79
-69.31
-68.81
-65.58
-60.42
-54.14
-47.31
-40.13
-32.84
-25.99
-20.43
-16.92
-15.57
-15.76
-16.23
-15.8
-13.79
-10.22
-5.66
-0.85
3.74
7.97
12.03
16.25
20.87
25.76
30.5
34.4
36.84
37.45
36.21
33.52
29.99
26.41
23.49
21.78
21.6
22.97
25.69
29.27
33.06
36.39
38.71
39.76
39.74
39.15
38.62
38.65
39.31
40.12
40.36
39.35
36.98
33.83
30.96
29.38
29.47
30.78
32.2
32.33
30.06
24.98
17.48
8.69
-0.01
-7.45
-13.06
-16.75
-18.72
-19.09
-17.75
-14.56
-9.78
-4.22
0.83
4.07
4.74
2.86
-0.95
-5.81
-11.01
-16.03
-20.42
-23.69
-25.43
-25.65
-24.92
-24.23
-24.5
-26.04
-28.31
-30.23
-30.85
-29.92
-27.99
-26.05
-24.91
-24.87
-25.6
-26.57
-27.55
-28.79
-30.78
-33.87
-37.85
-41.88
-44.79
-45.73
-44.49
-41.56
-37.89
-34.32
-31.25
-28.64
-26.1
-23.27
-19.89
-15.91
-11.4
-6.52
-1.59
3.03
6.9
9.77
11.74
13.28
15.17
18.09
22.22
27.1
31.66
34.76
35.67
34.42
31.86
29.1
26.99
25.75
25.07
24.43
23.6
22.65
21.75
20.78
19.17
16.17
11.39
5.21
-1.18
-6.35
-9.29
-9.99
-9.3
-8.52
-8.75
-10.45
-13.4
-17.04
-20.68
-23.9
-26.52
-28.64
-30.43
-31.94
-33.07
-33.62
-33.38
-32.36
-30.75
-28.86
-26.91
-24.91
-22.59
-19.52
-15.3
-9.86
-3.56
2.84
8.4
12.35
14.46
15.15
15.15
15.2
15.65
16.37
17.06
17.48
17.81
18.42
19.66
21.44
23.25
24.3
24.1
22.63
20.38
18.07
16.22
14.98
14.15
13.46
12.8
12.28
11.93
11.57
10.62
8.4
4.54
-0.68
-6.15
-10.43
-12.44
-11.95
-9.77
-7.17
-5.3
-4.7
-5.31
-6.87
-9.17
-12.23
-15.85
-19.43
-22.07
-22.95
-21.77
-18.87
-14.89
-10.25
-4.88
1.56
9.1
17.17
24.65
30.47
34.06
35.68
36.01
35.77
35.38
35
34.8
35.14
36.44
38.83
41.9
44.82
46.74
47.23
46.43
44.89
43.05
40.95
38.25
34.57
29.88
24.69
19.81
15.78
12.56
9.3
5.01
-0.78
-7.55
-13.93
-18.43
-20.29
-20.07
-19.42
-20.17
-23.53
-29.42
-36.65
-43.52
-48.72
-51.73
-52.79
-52.51
-51.26
-49.14
-46.06
-42.15
-37.86
-33.79
-30.38
-27.56
-24.8
-21.5
-17.34
-12.61
-7.98
-4.11
-1.4
0.22
1.06
1.38
1.22
0.52
-0.73
-2.27
-3.59
-4.16
-3.72
-2.4
-0.62
1.2
2.88
4.59
6.63
9.07
11.48
12.99
12.64
9.86
4.94
-0.98
-6.39
-10.15
-11.98
-12.46
-12.6
-13.26
-14.69
-16.52
-18.01
-18.58
-18.01
-16.58
-14.88
-13.44
-12.55
-12.16
-11.97
-11.6
-10.82
-9.57
-7.91
-5.87
-3.19
0.49
5.34
11.05
16.67
20.93
22.89
22.41
20.29
17.77
15.99
15.37
15.6
16
15.98
15.38
14.45
13.54
12.82
12.23
11.66
11.04
10.49
10.19
10.26
10.48
10.4
9.43
7.25
4.17
1.09
-0.84
-0.83
1.1
3.99
6.39
7.12
5.78
2.88
-0.43
-2.94
-3.91
-3.3
-1.58
0.52
2.19
2.84
2.06
-0.14
-3.38
-6.99
-10.19
-12.27
-12.8
-11.77
-9.54
-6.72
-4
-1.78
0.02
1.77
3.88
6.49
9.23
11.51
12.85
13.2
12.95
12.68
12.69
12.91
13
12.65
11.86
10.8
9.7
8.67
7.76
7.1
7.04
7.98
10.05
12.89
15.64
17.42
17.77
16.9
15.52
14.39
13.77
13.43
12.87
11.89
10.82
10.41
11.26
13.45
16.38
19.22
21.38
22.69
23.26
23.08
21.79
18.9
14.26
8.46
2.85
-1.16
-2.81
-2.43
-1.28
-0.75
-1.65
-3.86
-6.75
-9.68
-12.47
-15.28
-18.19
-20.84
-22.5
-22.44
-20.51
-17.35
-14.08
-11.75
-10.67
-10.46
-10.45
-10.23
-9.83
-9.55
-9.69
-10.19
-10.76
-11.09
-11.12
-11.1
-11.34
-12.01
-12.95
-13.91
-14.64
-15.07
-15.38
-15.69
-16.05
-16.42
-16.82
-17.49
-18.76
-20.73
-23.18
-25.51
-27.05
-27.49
-27.07
-26.59
-26.73
-27.75
-29.2
-30.3
-30.4
-29.37
-27.64
-25.86
-24.49
-23.37
-21.96
-19.51
-15.49
-9.78
-2.7
4.93
12.13
17.98
21.9
23.83
24.15
23.52
22.48
21.33
20.09
18.63
16.92
15.17
13.72
12.85
12.54
12.38
11.83
10.48
8.37
5.91
3.71
2.18
1.18
0.19
-1.51
-4.22
-7.64
-10.93
-13.17
-13.95
-13.5
-12.52
-11.7
-11.32
-11.21
-11.04
-10.77
-10.77
-11.66
-13.85
-17.1
-20.49
-22.85
-23.48
-22.53
-20.91
-19.72
-19.44
-19.63
-19.17
-16.94
-12.54
-6.47
0.21
6.4
11.48
15.36
18.16
20.02
20.91
20.76
19.53
17.37
14.51
11.26
8.1
5.7
4.91
6.31
9.86
14.6
18.91
21.22
20.8
18.12
14.59
11.76
10.67
11.21
12.41
13.04
12.29
10.06
7.12
4.6
3.48
4.13
6.27
9.35
12.84
16.57
20.47
24.3
27.01
27.06
23.36
16.44
8.69
3.18
1.86
4.14
6.94
6.67
1.6
-6.69
-14.29
-17.4
-14.8
-8.49
-2.22
0.98
0.59
-1.33
-1.95
0.25
4.63
9.11
11.63
11.47
9.44
7.3
6.58
7.92
10.77
14.07
16.78
18.32
18.67
18.36
18.16
18.71
20.32
22.91
25.91
28.58
30.21
30.5
29.59
28.02
26.4
25.09
23.92
22.24
19.34
15.04
9.98
5.35
2.31
1.26
1.6
2.03
1.3
-1.08
-4.6
-8.04
-10.21
-10.9
-11.03
-12.21
-15.74
-21.72
-29
-35.77
-40.61
-43.19
-44.21
-44.73
-45.29
-45.53
-44.49
-41.5
-36.71
-31.32
-26.79
-24.03
-22.87
-22.36
-21.5
-19.86
-17.76
-15.8
-14.3
-12.98
-11.11
-8.09
-3.85
0.9
5.05
7.51
7.89
6.73
5.29
4.93
6.24
8.6
10.38
9.77
5.72
-1.25
-9.26
-15.94
-19.42
-19.33
-16.52
-12.46
-8.31
-4.72
-1.89
-0
0.65
-0.05
-1.88
-4.11
-5.93
-6.89
-7.16
-7.33
-7.99
-9.34
-11.12
-12.9
-14.3
-15.14
-15.35
-14.81
-13.32
-10.85
-7.54
-3.67
0.41
4.42
7.97
10.59
11.81
11.37
9.49
6.85
4.38
2.79
2.41
3.04
4.33
5.95
7.65
9.23
10.37
10.71
10.1
8.81
7.49
6.7
6.63
6.96
7.14
6.87
6.29
5.97
6.41
7.71
9.52
11.18
12.18
12.33
11.78
10.78
9.59
8.35
7.11
5.84
4.35
2.28
-0.69
-4.59
-9.01
-13.25
-16.64
-18.89
-20.05
-20.37
-20.14
-19.68
-19.62
-20.88
-24.23
-29.58
-35.62
-40.06
-40.75
-36.71
-28.72
-18.88
-9.41
-1.63
4.34
8.98
12.59
14.97
15.78
15.03
13.47
12.34
12.66
14.64
17.68
20.98
23.99
26.62
29.04
31.24
32.94
33.64
33.19
32.04
31.1
31.19
32.51
34.36
35.41
34.36
30.78
25.46
20.19
16.78
16.08
17.47
19.19
19.28
16.65
11.51
5.2
-0.74
-5.31
-8.33
-10.26
-11.62
-12.63
-13.18
-13.24
-13.18
-13.66
-15.45
-18.88
-23.61
-28.53
-32.09
-32.79
-29.91
-23.84
-15.97
-8.18
-1.92
2.42
5.53
8.45
11.81
15.2
17.65
18.25
16.93
14.61
12.63
11.93
12.48
13.37
13.7
13.09
12.02
11.4
12
13.83
16.17
17.99
18.41
17.23
14.96
12.49
10.54
9.39
8.66
7.52
5.27
1.74
-2.6
-7.04
-11
-14.37
-17.37
-20.19
-22.5
-23.5
-22.31
-18.74
-13.74
-9.18
-7.09
-8.72
-13.91
-21.22
-28.53
-33.94
-36.44
-36.19
-34.2
-31.89
-30.46
-30.48
-31.58
-32.68
-32.55
-30.3
-25.96
-20.43
-15.16
-11.35
-9.42
-8.84
-8.57
-7.74
-5.92
-3.33
-0.38
2.55
5.5
8.84
12.84
17.37
21.85
25.45
27.51
27.8
26.53
24.16
21.1
17.51
13.57
9.51
5.86
3.11
1.47
0.6
-0.28
-1.82
-4.14
-6.55
-8.1
-8.09
-6.66
-4.69
-3.22
-2.94
-3.77
-5.15
-6.56
-7.99
-9.79
-12.13
-14.47
-15.73
-15.06
-12.7
-10.26
-9.8
-12.43
-17.13
-20.96
-20.77
-15.18
-5.81
3.48
8.85
8.85
5.27
1.73
1.23
4.03
7.84
9.54
7.66
3.5
0.3
1.03
6.27
13.84
20.27
23.01
21.84
18.74
16.38
16.28
18.04
19.87
20.01
17.86
14.29
11.04
9.64
10.63
13.5
17.06
20.01
21.48
21.27
19.73
17.67
15.9
14.92
14.65
14.56
14
12.57
10.36
7.79
5.29
2.94
0.4
-2.75
-6.56
-10.51
-13.83
-15.88
-16.69
-16.96
-17.74
-19.61
-22.31
-24.78
-25.72
-24.47
-21.47
-18.2
-16.48
-17.63
-21.89
-28.48
-36.15
-43.66
-50.06
-54.58
-56.34
-54.27
-47.54
-36.17
-21.37
-5.46
8.93
19.97
27.19
31.52
34.45
37.16
39.96
42.54
44.67
46.87
50.3
55.99
63.83
72.14
78.35
80.38
77.81
72.2
66.13
61.72
59.7
59.43
59.68
59.45
58.09
54.91
48.75
38.23
22.71
3.41
-16.33
-32.09
-40.18
-39.36
-31.38
-20.09
-9.6
-2.49
0.82
1.6
1.43
1.17
0.5
-1.49
-5.38
-10.68
-16
-19.9
-21.89
-22.62
-23.45
-25.49
-28.86
-32.73
-36.1
-38.56
-40.56
-42.93
-46.02
-49.17
-51.04
-50.34
-46.83
-41.73
-37.1
-34.68
-34.85
-36.46
-37.6
-36.72
-33.59
-29.53
-26.66
-26.65
-29.78
-34.78
-39.49
-41.98
-41.48
-38.47
-34.27
-30.18
-26.99
-24.92
-23.73
-23.09
-22.51
-21.42
-19.1
-15
-8.96
-1.47
6.54
14.09
20.68
26.35
31.52
36.43
40.8
43.91
44.93
43.52
40.12
35.83
31.91
29.33
28.4
28.74
29.66
30.5
30.88
30.73
30.12
28.98
26.96
23.62
18.75
12.67
6.21
0.49
-3.57
-5.59
-5.89
-5.37
-5.04
-5.71
-7.69
-10.81
-14.49
-18.11
-21.22
-23.64
-25.45
-26.74
-27.55
-27.87
-27.73
-27.19
-26.36
-25.34
-24.07
-22.43
-20.37
-18.04
-15.76
-13.85
-12.52
-11.81
-11.54
-11.37
-10.92
-9.81
-7.68
-4.32
0.24
5.69
11.41
16.73
21.11
24.32
26.54
28.16
29.74
31.64
33.99
36.65
39.31
41.54
42.94
43.25
42.31
40.23
37.33
34.11
30.97
28
24.98
21.55
17.59
13.55
10.43
9.27
10.51
13.48
16.67
18.34
17.39
13.93
9.06
4.23
0.49
-1.82
-2.83
-2.8
-1.67
0.62
3.69
6.37
6.89
3.65
-3.91
-14.82
-27.03
-38.24
-46.86
-52.28
-54.6
-54.02
-50.49
-43.92
-34.62
-23.65
-12.7
-3.61
2.3
4.61
3.94
1.63
-0.62
-1.25
0.67
5.27
11.79
19.07
26.14
32.57
38.55
44.53
50.54
56.03
59.98
61.7
61.37
59.96
58.71
58.12
57.66
56.07
52.37
46.73
40.51
35.27
31.53
28.1
22.69
13.39
0.04
-15.43
-29.8
-40.32
-45.88
-47.2
-45.94
-43.6
-40.93
-38.05
-34.87
-31.55
-28.49
-26.09
-24.49
-23.64
-23.61
-24.56
-26.65
-29.81
-33.76
-38.03
-42.07
-45.33
-47.26
-47.36
-45.31
-41.24
-36.06
-31.08
-27.54
-25.98
-25.97
-26.43
-26.14
-24.26
-20.55
-15.25
-8.77
-1.58
5.77
12.51
17.85
21.29
22.94
23.47
23.88
25.04
27.17
29.83
32.13
33.16
32.38
29.88
26.44
23.3
21.74
22.55
25.51
29.65
33.66
36.6
38.36
39.51
40.77
42.45
44.2
45.23
44.87
42.94
39.78
35.94
31.87
27.67
23.26
18.55
13.58
8.6
3.94
-0.09
-3.39
-6.23
-9.25
-13.28
-18.87
-25.81
-33.02
-38.94
-42.13
-42.01
-39.06
-34.63
-30.18
-26.73
-24.53
-23.25
-22.56
-22.33
-22.75
-24.04
-26.18
-28.91
-31.75
-34.42
-37.01
-39.9
-43.39
-47.33
-50.92
-53.03
-52.79
-50.07
-45.46
-39.84
-33.75
-27.1
-19.36
-10.03
0.72
11.85
21.89
29.67
35.09
39.15
43.39
48.78
55.11
61.04
64.85
65.43
62.81
58.14
52.95
48.44
45.08
42.67
40.65
38.3
34.89
29.6
21.75
11.24
-1.03
-13.07
-22.68
-28.31
-29.87
-28.77
-27.22
-27.25
-29.84
-34.75
-40.77
-46.43
-50.54
-52.42
-51.92
-49.26
-44.94
-39.71
-34.61
-30.85
-29.45
-30.87
-34.82
-40.28
-45.95
-50.65
-53.61
-54.66
-54.02
-52.11
-49.49
-46.9
-45.12
-44.66
-45.44
-46.54
-46.34
-43.15
-35.87
-24.57
-10.44
4.59
18.49
29.69
37.52
42.24
44.73
46.05
46.97
47.92
49.17
50.99
53.83
57.97
63.04
68
71.38
72.06
69.96
66.06
61.84
58.37
55.79
53.52
50.98
48.3
46.26
45.61
46.33
47.33
47.05
44.29
38.91
31.69
23.79
16.15
9.3
3.62
-0.51
-2.72
-3.03
-2.14
-1.29
-1.83
-4.71
-9.97
-16.93
-24.49
-31.55
-37.01
-40.06
-40.49
-39.02
-37.24
-37.15
-40.05
-45.43
-50.89
-53.31
-50.84
-43.98
-35.24
-27.65
-22.82
-20.2
-17.71
-13.79
-8.78
-4.84
-4.42
-8.25
-14.58
-19.87
-20.93
-16.95
-10.21
-4.77
-3.92
-8.06
-14.59
-19.47
-19.55
-14.5
-6.82
-0.02
3.83
5.23
6.43
9.46
14.31
18.76
19.9
16.53
10.41
5.4
4.84
9.12
15.37
18.99
16.59
7.92
-3.93
-14.4
-20.05
-20.31
-17.43
-14.87
-15.05
-17.81
-20.71
-20.74
-16.63
-10.03
-4.64
-4.04
-9.27
-17.72
-24.43
-25.09
-18.71
-8.39
0.53
3.87
1.25
-3.8
-6.4
-3.73
3.03
9.62
11.78
8.18
1.57
-2.92
-1.26
6.71
17.01
24.07
24.26
17.96
9.14
2.53
0.53
1.98
3.42
1.9
-2.95
-8.87
-12.68
-12.66
-9.62
-6.25
-5.11
-7.02
-10.85
-14.61
-16.88
-17.59
-17.65
-18.03
-18.85
-19.5
-19.33
-18.34
-17.4
-17.79
-20.24
-24.18
-27.69
-28.38
-24.66
-16.84
-6.84
2.83
10.33
15.19
18.19
20.55
22.78
24.23
23.68
20.4
14.82
8.32
2.45
-2.01
-5.32
-8.29
-11.23
-13.33
-13.15
-9.56
-2.5
6.84
16.51
24.82
30.92
34.96
37.54
39.03
39.25
37.81
34.86
31.24
28.26
27.05
27.99
30.4
32.97
34.65
35.34
35.88
37.45
40.92
46.18
52.11
57.14
60.09
60.57
58.88
55.63
51.3
46.26
40.84
35.47
30.63
26.61
23.25
20
16.31
11.94
7.24
2.81
-0.84
-3.76
-6.41
-9.37
-13.05
-17.49
-22.61
-28.42
-34.93
-41.96
-48.83
-54.48
-57.68
-57.68
-54.6
-49.5
-43.8
-38.68
-34.6
-31.43
-28.85
-26.72
-25.23
-24.59
-24.77
-25.37
-25.84
-25.84
-25.44
-25.02
-24.86
-24.85
-24.34
-22.47
-18.6
-12.78
-5.74
1.4
7.63
12.35
15.47
17.22
17.96
17.85
17.11
16.05
15.31
15.73
17.92
21.8
26.38
29.95
30.81
28.2
22.63
15.64
8.99
3.82
0.27
-2.41
-5.18
-8.64
-12.72
-16.94
-20.71
-23.82
-26.49
-29.21
-32.48
-36.36
-40.4
-43.82
-45.78
-45.83
-44.12
-41.4
-38.43
-35.65
-32.96
-30.02
-26.66
-23.11
-19.67
-16.53
-13.41
-9.83
-5.57
-1.03
2.88
5.39
6.44
6.46
6.07
5.56
4.85
3.84
2.99
3.28
5.67
10.2
15.63
20.2
22.71
23.33
23.51
24.95
28.44
33.09
36.96
38.15
36.05
31.58
26.49
22.37
19.87
18.5
17.11
14.84
11.57
7.92
4.59
1.9
-0.54
-3.42
-7.15
-11.4
-15.15
-17.36
-17.77
-17.25
-17.24
-18.83
-22.07
-26
-29.21
-30.82
-30.88
-30.17
-29.5
-29.14
-28.84
-28.3
-27.54
-26.87
-26.67
-26.91
-26.9
-25.66
-22.59
-17.69
-11.39
-4.21
3.52
11.57
19.47
26.34
31.18
33.21
32.56
30.25
27.83
26.55
26.97
28.87
31.62
34.57
37.34
39.84
41.92
43.18
43.01
40.95
37.03
31.92
26.79
22.93
21.13
21.2
22.06
22.07
19.85
14.99
8.23
1.1
-4.68
-8.03
-8.69
-7.08
-3.81
0.43
4.87
8.46
10.14
9.08
5.42
0.51
-3.35
-3.94
-0.26
6.81
14.79
20.68
22.33
19.29
12.84
5.15
-1.73
-6.62
-9.18
-9.54
-7.86
-4.34
0.52
5.77
10.12
12.41
12.22
10.1
7.16
4.52
2.72
1.67
0.86
-0.28
-2.05
-4.41
-7.07
-9.69
-11.89
-13.33
-13.83
-13.37
-12.15
-10.51
-8.78
-7.22
-5.96
-5.2
-5.07
-5.59
-6.49
-7.11
-6.67
-4.72
-1.43
2.46
5.92
8.23
9.08
8.5
6.53
2.96
-2.5
-9.75
-17.96
-25.63
-31.12
-33.51
-32.99
-30.7
-28.03
-25.87
-24.47
-23.62
-23.15
-23.18
-23.81
-24.76
-25.13
-23.8
-20.01
-14.05
-7.1
-0.67
4.22
7.61
10.32
13.22
16.49
19.49
21.17
20.65
17.88
13.56
8.87
4.8
1.75
-0.62
-3
-5.85
-9.01
-11.54
-12.28
-10.48
-6.47
-1.63
2.18
3.63
2.7
0.69
-0.58
0.06
2.41
5.09
6.56
6.17
4.51
2.82
1.98
1.87
1.47
-0.37
-3.88
-8.15
-11.57
-12.83
-11.86
-9.82
-8.56
-9.54
-13.02
-18
-22.62
-25.16
-24.74
-21.77
-17.61
-13.94
-12.05
-12.41
-14.55
-17.45
-19.95
-21.09
-20.3
-17.26
-11.96
-4.71
3.77
12.27
19.3
23.53
24.39
22.34
18.68
14.91
12.08
10.46
9.7
9.31
9.26
10.07
12.43
16.58
22.06
27.63
31.88
33.9
33.64
31.97
30.11
29.11
29.36
30.52
31.67
31.92
30.87
28.83
26.69
25.41
25.39
26.13
26.5
25.36
22.32
18.09
14.08
11.56
10.8
10.81
9.88
6.57
0.65
-6.67
-13.55
-18.66
-21.83
-24.21
-27.45
-32.59
-39.28
-45.96
-50.68
-52.1
-50.24
-46.23
-41.6
-37.45
-33.88
-30.2
-25.66
-19.98
-13.76
-8.22
-4.67
-3.78
-5.24
-7.91
-10.37
-11.59
-11.18
-9.26
-6.24
-2.61
1.06
4.13
5.86
5.74
3.84
0.95
-1.71
-3.15
-3.17
-2.54
-2.56
-4.24
-7.67
-11.92
-15.59
-17.6
-17.78
-16.83
-16.02
-16.53
-19.12
-23.75
-29.49
-34.59
-36.81
-34.32
-26.44
-14.15
0.29
14.45
26.48
35.56
41.63
44.84
45.23
42.89
38.28
32.32
26.31
21.41
18.24
16.77
16.38
16.3
15.89
14.84
13.41
12.45
13.13
16.32
21.97
28.86
34.85
37.81
36.53
31.21
23.18
14.34
6.42
0.59
-2.87
-4.46
-5.16
-6.07
-7.86
-10.31
-12.58
-13.6
-12.91
-11.01
-9.03
-8.06
-8.44
-9.45
-9.81
-8.54
-5.63
-2.24
-0.03
-0.17
-2.56
-5.91
-8.41
-8.72
-6.6
-2.69
2.11
7.35
12.98
19.03
25.05
29.99
32.52
31.73
27.83
22.19
16.72
13.08
12.11
13.71
17.17
21.41
25.35
28.14
29.17
28.4
26.43
24.43
23.63
24.66
27.01
28.99
28.44
23.67
14.64
3.12
-7.95
-15.89
-19.57
-19.77
-18.55
-17.81
-18.23
-18.94
-18.35
-15.41
-10.44
-5.16
-1.62
-1
-2.88
-5.45
-6.56
-5.09
-1.43
2.64
5.14
5.11
3.1
0.96
0.48
2.28
4.88
5.32
0.76
-9.69
-24.04
-38.13
-47.42
-49.23
-43.85
-34.16
-23.79
-15.2
-8.91
-4.1
0.14
3.81
6.16
6.82
6.59
7.42
11.03
17.45
24.77
30.25
32.22
30.87
27.84
24.55
20.59
13.89
2.44
-13.68
-31.61
-47.17
-57.44
-62.52
-65.2
-68.76
-74.39
-80.22
-82.51
-78.34
-67.66
-53.48
-40.15
-31.28
-28.18
-29.74
-33.6
-37.4
-39.68
-39.71
-37.19
-32.22
-25.45
-18.12
-11.68
-7.15
-4.45
-2.33
0.74
5.47
11.11
15.62
16.86
14.03
8.38
2.56
-0.66
0.18
4.59
10.61
16.07
19.63
21.25
21.78
22.4
23.77
25.78
27.66
28.49
27.71
25.5
22.71
20.48
19.62
20.19
21.32
21.69
20.22
16.72
12.12
8
5.86
6.39
9.2
13.12
16.69
18.73
18.74
16.91
14
10.92
8.52
7.35
7.52
8.88
11.09
13.74
16.4
18.57
19.9
20.16
19.42
17.96
16.04
13.64
10.36
5.68
-0.56
-7.7
-14.45
-19.36
-21.69
-21.8
-20.89
-20.18
-20.25
-20.72
-20.7
-19.47
-16.85
-13.19
-9.15
-5.38
-2.42
-0.77
-0.88
-2.97
-6.75
-11.28
-15.02
-16.46
-14.78
-10.29
-4.38
1.23
5.49
8.57
11.63
15.89
21.59
27.62
32.19
34.02
33.25
31.54
30.96
32.7
36.34
40.19
42.4
42.16
39.89
36.69
33.29
29.65
25.18
19.65
13.73
8.94
6.79
7.87
11.4
15.37
17.39
15.68
9.92
1.31
-7.89
-15.35
-19.66
-20.76
-19.73
-18.1
-16.95
-16.4
-15.87
-14.66
-12.53
-9.86
-7.24
-4.96
-2.91
-0.94
0.68
1.02
-0.98
-5.48
-11.2
-15.62
-16.3
-12.42
-5.65
0.42
2.23
-1.83
-10.48
-20.43
-28.23
-31.98
-32.02
-30.08
-27.93
-26.28
-24.84
-23.09
-21.17
-19.87
-19.97
-21.26
-22.45
-22.19
-20.34
-18.49
-18.98
-23.19
-30.23
-37.08
-40.48
-39.06
-34.49
-30.73
-31.56
-38.16
-48.44
-58.26
-63.85
-63.91
-59.87
-54.76
-51.36
-50.86
-52.84
-56.1
-59.3
-61.35
-61.3
-58.05
-50.48
-37.94
-20.77
-0.35
21.34
42.29
60.97
76.38
88.04
95.9
100.27
101.9
101.7
100.32
97.87
93.87
87.68
79.33
69.77
60.59
53.26
48.36
45.42
43.26
40.85
37.92
34.86
32.2
29.91
27.28
23.36
17.57
10.29
2.65
-3.97
-8.69
-11.5
-12.95
-13.85
-14.82
-16.26
-18.41
-21.4
-25.24
-29.47
-33.25
-35.55
-35.68
-33.7
-30.39
-26.8
-23.66
-21.07
-18.71
-16.32
-14.26
-13.41
-14.54
-17.48
-20.92
-22.81
-21.61
-17.11
-10.6
-4.02
1.19
4.92
8.12
11.82
16.24
20.41
22.88
22.63
19.76
15.48
11.04
7.38
4.65
2.74
1.58
1.53
2.96
5.87
9.56
12.81
14.45
13.73
10.72
6.11
1.06
-3.13
-5.38
-5.05
-2.16
2.68
8.41
14.03
18.83
22.6
25.52
27.79
29.6
30.91
31.65
31.75
31.26
30.42
29.36
28.38
27.55
26.98
26.53
26.06
25.46
24.85
24.63
25.06
26.21
27.5
27.95
26.37
22.08
15.35
7.63
1.04
-2.49
-2.04
1.82
7.37
12.54
15.88
17.1
16.75
15.77
14.68
13.37
11.14
7.42
2.15
-4.12
-10.53
-16.34
-21.16
-24.83
-27.11
-27.78
-26.9
-25.17
-23.75
-23.71
-25.55
-28.69
-31.83
-33.57
-33.24
-31.15
-28.23
-25.49
-23.4
-21.97
-20.92
-20.08
-19.35
-18.56
-17.41
-15.61
-13.11
-10.33
-7.98
-6.72
-6.87
-8.51
-11.55
-15.7
-20.42
-24.88
-28.02
-29.14
-28.19
-26.1
-24.31
-23.89
-25.04
-26.91
-28.33
-28.38
-26.88
-24.33
-21.39
-18.49
-15.53
-12.21
-8.31
-3.81
1.06
6.03
10.87
15.49
19.79
23.57
26.46
28.03
28.17
27.14
25.64
24.46
23.91
23.64
22.73
20.41
16.61
12.18
8.39
6.2
5.58
5.67
5.28
3.82
1.59
-0.44
-1.25
-0.44
1.7
4.2
5.9
5.84
3.66
-0.31
-5.12
-9.48
-12.35
-13.32
-12.96
-12.42
-12.75
-14.26
-16.42
-18.36
-19.5
-19.9
-20.08
-20.47
-21.19
-22.06
-22.85
-23.5
-23.96
-24.03
-23.37
-21.64
-18.85
-15.47
-12.23
-9.69
-7.85
-6.04
-3.4
0.6
5.7
10.99
15.36
18.13
19.26
19.3
18.84
18.16
17.21
15.85
14.26
13.02
12.89
14.23
16.58
18.72
19.31
17.67
14.41
11.17
9.7
10.8
13.83
17.1
19.02
18.92
17.43
15.83
15.02
14.98
14.76
13.45
10.97
8.5
7.8
10.04
14.88
20.47
24.56
25.89
24.97
23.61
23.61
25.43
27.82
28.56
25.89
19.58
11.16
2.99
-2.94
-5.73
-5.55
-3.02
1.48
7.74
15.46
23.76
31.33
36.83
39.53
39.6
37.81
35.02
31.72
27.95
23.48
18.34
12.86
7.64
3.08
-0.64
-3.61
-5.85
-7.22
-7.46
-6.37
-4.19
-1.62
0.09
-0.42
-4.3
-12.04
-23.05
-35.7
-47.73
-57.15
-62.88
-65.17
-65.11
-63.63
-60.85
-56.03
-48.41
-38.4
-27.83
-19.23
-14.42
-13.53
-14.96
-16.71
-18.01
-20.14
-25.47
-35.43
-49.09
-63.35
-74.88
-81.84
-84.63
-84.66
-82.56
-77.19
-66.35
-48.92
-26.37
-2.66
17.48
30.82
37.15
38.67
38.29
37.75
37.02
35.06
31.32
26.33
21.59
18.58
18.13
20.01
23.23
26.68
29.42
30.9
30.75
28.74
24.82
19.2
12.46
5.57
-0.39
-4.65
-6.98
-7.67
-7.06
-5.35
-2.7
0.61
3.9
6.36
7.47
7.37
6.75
6.39
6.64
7.25
7.59
7.15
5.95
4.53
3.7
4.06
5.87
9.07
13.25
17.66
21.13
22.39
20.58
15.78
9.13
2.43
-2.77
-5.6
-6.17
-5.17
-3.31
-1.03
1.55
4.37
7.25
9.85
11.84
13.15
14.01
14.91
16.24
18.09
20.2
21.98
22.77
22.28
20.72
18.78
17.32
16.97
17.88
19.68
21.64
22.91
22.87
21.3
18.24
14.02
9.04
3.7
-1.63
-6.58
-10.76
-13.68
-14.95
-14.57
-12.96
-11.11
-10.32
-11.66
-15.56
-21.5
-28.24
-34.34
-38.72
-40.9
-41.04
-39.55
-36.9
-33.39
-29.19
-24.54
-19.9
-15.78
-12.57
-10.35
-8.87
-7.67
-6.45
-5.03
-3.42
-1.66
0.33
2.58
4.98
7.5
10.15
13.02
16.1
19.13
21.54
22.84
22.99
22.49
22.2
22.71
23.78
24.44
23.72
21.39
18.3
15.91
15.36
16.68
18.79
20.31
20.53
19.68
18.52
17.5
16.21
13.75
9.47
3.76
-1.89
-5.66
-6.33
-4.02
-0.06
3.78
6.13
6.71
6.06
5.05
4.11
3.09
1.51
-1.01
-4.37
-7.94
-10.91
-12.71
-13.19
-12.58
-11.28
-9.58
-7.64
-5.63
-3.73
-2.32
-1.76
-2.34
-4.14
-6.97
-10.3
-13.4
-15.58
-16.45
-16.26
-15.64
-15.25
-15.25
-15.11
-13.97
-11.33
-7.39
-3.04
0.64
3.01
4.1
4.4
4.32
3.85
2.62
0.39
-2.43
-4.8
-5.48
-3.81
-0.26
3.91
7.09
8.14
6.84
3.8
0.33
-2.13
-2.42
-0.15
4.21
9.38
13.62
15.3
13.24
6.98
-3.06
-15.86
-30.05
-44.07
-56.35
-65.29
-69.87
-70.06
-67.12
-63.11
-59.77
-57.6
-55.6
-52.19
-46.29
-38.16
-29.11
-20.54
-12.96
-5.79
1.86
10.02
17.54
22.48
23.46
20.54
15.32
9.96
5.85
3.11
1.05
-1
-3
-4.15
-3.56
-0.94
2.92
6.69
8.98
9.19
7.76
5.92
5.07
6.11
9
12.86
16.43
18.62
18.97
17.67
15.36
12.79
10.56
8.89
7.71
6.86
6.18
5.59
5.19
5.14
5.52
6.23
6.97
7.26
6.73
5.31
3.36
1.72
1.4
3.35
7.83
14.31
21.4
27.48
31.22
32.05
30.21
26.46
21.64
16.35
10.95
5.67
0.83
-3.11
-5.66
-6.49
-5.76
-4.17
-2.84
-3.02
-5.58
-10.58
-17.14
-23.71
-28.82
-31.79
-32.86
-32.9
-32.52
-31.6
-29.3
-24.8
-18.05
-10.07
-2.64
2.72
5.47
6.25
6.53
7.69
10.39
14.34
18.49
21.81
23.73
24.46
24.89
26.15
29.07
33.68
39.37
45.09
49.99
53.76
56.69
59.43
62.53
65.91
68.88
70.28
69.1
65.03
58.84
51.98
46.05
41.9
39.22
36.67
32.73
26.55
18.48
9.95
2.56
-2.65
-5.78
-7.73
-9.72
-12.63
-16.67
-21.58
-26.73
-31.67
-36.08
-39.94
-43.27
-45.96
-47.72
-48.17
-47.13
-44.82
-41.86
-38.96
-36.46
-34.1
-31.15
-26.99
-21.72
-16.32
-12.19
-10.47
-11.22
-13.36
-15.28
-15.59
-13.83
-10.64
-7.25
-4.83
-3.87
-3.89
-3.86
-2.8
-0.33
2.96
5.84
7.01
5.98
3.28
0.26
-1.75
-2.17
-1.4
-0.61
-0.9
-2.73
-5.72
-8.92
-11.41
-12.72
-12.86
-12.13
-10.88
-9.36
-7.77
-6.31
-5.32
-5.16
-6.12
-8.23
-11.17
-14.44
-17.35
-19.31
-20.03
-19.41
-17.65
-15.07
-12.03
-8.86
-5.9
-3.4
-1.59
-0.65
-0.59
-1.24
-2.15
-2.68
-2.25
-0.49
2.55
6.22
9.45
11.22
11.1
9.53
7.65
6.61
6.87
8.01
9.12
9.47
9.17
8.91
9.36
10.55
11.69
11.71
9.94
6.6
2.71
-0.51
-2.37
-2.89
-2.57
-2.03
-1.73
-2.04
-3.28
-5.77
-9.57
-14.19
-18.63
-21.67
-22.54
-21.26
-18.69
-16
-14
-12.93
-12.41
-11.96
-11.37
-10.75
-10.28
-9.76
-8.65
-6.36
-2.72
1.83
6.35
9.99
12.5
14.26
15.87
17.6
19.29
20.43
20.62
19.85
18.53
17.19
16.17
15.63
15.58
16.17
17.6
19.84
22.45
24.64
25.61
25
23.13
20.83
19.08
18.53
19.21
20.55
21.64
21.77
20.7
19.03
17.72
17.69
19.26
21.95
24.71
26.49
26.88
26.31
25.8
26.25
27.92
30.29
32.48
33.73
33.54
31.65
27.8
21.75
13.46
3.61
-6.5
-15.27
-21.52
-24.96
-26.19
-26.3
-26.23
-26.41
-26.62
-26.3
-25.06
-22.94
-20.52
-18.74
-18.56
-20.49
-24.29
-29
-33.24
-35.8
-35.97
-33.87
-30.15
-25.63
-20.9
-16.23
-11.76
-7.82
-4.95
-3.66
-4.1
-5.82
-7.87
-9.25
-9.47
-8.68
-7.42
-6.22
-5.24
-4.48
-4.01
-4.23
-5.73
-8.87
-13.23
-17.56
-20.32
-20.46
-18.03
-14.14
-10.36
-8.01
-7.65
-9.09
-11.8
-15.18
-18.69
-21.72
-23.72
-24.22
-23.1
-20.73
-17.73
-14.74
-12.18
-10.1
-8.4
-6.97
-5.68
-4.29
-2.4
0.46
4.58
9.78
15.48
20.8
24.87
27.06
27.16
25.38
22.33
18.86
15.87
14.02
13.42
13.69
14.08
13.92
13.01
11.69
10.47
9.72
9.29
8.57
6.96
4.28
1.05
-1.9
-3.88
-4.89
-5.62
-7.11
-9.99
-14.06
-18.42
-21.99
-24.12
-24.84
-24.72
-24.34
-23.96
-23.48
-22.72
-21.79
-21
-20.61
-20.51
-20.04
-18.53
-15.65
-11.77
-7.76
-4.54
-2.37
-0.72
1.56
5.49
11.25
17.98
24.01
27.65
27.99
25.42
21.25
17.08
14.06
12.64
12.56
13.29
14.38
15.65
17.19
19.14
21.41
23.64
25.29
25.84
24.96
22.71
19.64
16.41
13.57
11.2
9.01
6.46
3.24
-0.47
-3.97
-6.43
-7.47
-7.35
-6.8
-6.54
-6.75
-7.03
-6.68
-5.23
-2.85
-0.41
1.13
1.3
0.54
0
0.9
3.69
7.46
10.25
9.97
5.72
-1.57
-9.37
-14.73
-15.67
-12.13
-5.88
0.73
6.11
10.24
14.33
19.74
26.81
34.38
40.48
43.35
42.48
38.81
34.16
30.2
27.64
26.06
24.41
21.9
18.53
15.12
12.75
11.93
12.35
13.01
12.91
11.76
10.22
9.3
9.66
10.98
12.11
11.77
9.38
5.37
0.97
-2.65
-4.94
-6.12
-6.89
-7.86
-9.45
-11.73
-14.46
-17.04
-18.56
-17.97
-14.59
-8.75
-1.89
3.97
7.12
7.03
4.4
0.62
-3.15
-6.5
-9.73
-13.24
-16.92
-20.18
-22.26
-22.71
-21.57
-19.11
-15.6
-11.31
-6.64
-2.2
1.37
3.73
5.1
6.17
7.61
9.62
11.83
13.55
14.27
13.91
12.97
11.98
11.21
10.46
9.18
6.89
3.43
-0.78
-5.13
-9.25
-13.15
-17.28
-22.12
-27.67
-33.22
-37.65
-39.98
-40.01
-38.41
-36.26
-34.43
-33.03
-31.43
-28.8
-24.8
-20.02
-15.55
-12.54
-11.55
-12.6
-15.32
-19.45
-24.98
-31.99
-40.01
-47.68
-52.88
-53.6
-49.04
-40.06
-28.87
-17.98
-8.96
-1.91
4.1
10.05
16.1
21.41
24.68
24.93
22.12
17.26
12.05
8.07
6.27
6.83
9.16
12.19
14.81
16.32
16.71
16.67
17.05
18.21
19.65
20.11
18.45
14.42
8.91
3.43
-0.78
-3.51
-5.54
-8.02
-11.47
-15.4
-18.65
-20.17
-19.76
-18.14
-16.43
-15.35
-14.73
-13.69
-11.34
-7.51
-3.1
0.31
1.35
-0.33
-3.79
-7.38
-9.82
-10.96
-11.64
-12.99
-15.46
-18.29
-19.9
-19
-15.62
-11.22
-7.62
-5.78
-4.92
-3.16
1.11
7.76
14.82
19.53
20.07
16.59
10.96
5.62
2.28
1.37
2.36
4.77
8.56
13.85
20.05
25.49
28.11
26.74
22.07
16.46
12.74
12.51
15.3
18.99
21.28
20.95
18.31
14.72
11.66
9.88
9.22
9.02
8.64
7.79
6.66
5.75
5.64
6.51
7.99
9.17
9.12
7.63
5.63
4.96
7.19
12.32
18.25
21.61
19.59
11.67
0.19
-10.8
-17.6
-18.74
-15.33
-10.06
-5.37
-2.17
0.17
2.9
6.63
10.82
14.3
16.23
16.72
16.51
16.41
16.48
15.94
13.45
8.14
0.25
-8.8
-16.94
-22.47
-24.81
-24.62
-23.28
-21.86
-20.4
-17.86
-12.96
-5.14
4.83
15.06
23.38
28.51
30.47
30.29
29.2
27.86
26.23
23.82
20.24
15.39
9.63
3.45
-2.71
-8.49
-13.59
-17.62
-20.26
-21.14
-20.13
-17.41
-13.7
-10.19
-8.01
-7.81
-9.26
-11.2
-12.16
-11.2
-8.33
-4.52
-1.07
0.88
0.67
-1.9
-6.62
-12.82
-19.49
-25.42
-29.69
-32.08
-33.09
-33.39
-33.09
-31.22
-26.03
-15.77
0.16
20.59
42.71
62.93
77.67
84.24
80.96
67.16
43.31
11.24
-25.53
-62
-92.34
-111.09
-114.61
-102.25
-76.76
-43.48
-8.96
20.8
41.42
50.7
48.3
35.43
14.77
-9.63
-32.59
-48.8
-54.25
-47.99
-32.99
-15.3
-1.65
3.43
-0.73
-11.23
-23.88
-35.53
-45.12
-52.81
-58.36
-59.9
-54.62
-40.86
-19.99
3.34
23.15
35.1
38.49
36.07
31.87
28.65
26.72
24.77
21.62
17.56
14.55
14.86
19.75
28.52
39.01
48.54
55.24
58.62
59.45
59.18
59.15
60.17
62.19
64.35
65.24
63.52
58.4
50.06
39.67
28.96
19.71
13.18
9.83
9.43
11.49
15.68
22.1
30.98
42.27
55.09
67.61
77.54
83.04
83.65
80.27
74.61
68.08
60.96
52.58
42.14
29.79
17.01
6.06
-1.33
-5.02
-6.46
-7.78
-10.28
-13.86
-17.21
-18.97
-18.67
-16.99
-15.12
-13.9
-13.42
-13.29
-13.48
-14.68
-18.1
-24.4
-32.49
-38.98
-39.19
-29.26
-8.04
22.02
55.86
87.73
113.18
129.9
137.33
135.53
124.59
105.06
78.82
49.35
20.77
-3.81
-23.62
-40.12
-55.46
-70.78
-85.38
-97.43
-105.52
-109.83
-111.91
-113.39
-114.72
-114.89
-112.15
-105.29
-94.63
-81.86
-69.12
-58.22
-50.04
-44.54
-41.32
-39.99
-40.42
-42.29
-44.56
-45.29
-41.99
-32.86
-17.93
0.36
17.67
29.55
33.19
28.45
17.4
2.85
-12.98
-28.95
-44.34
-57.6
-65.92
-65.96
-55.35
-34.35
-6.13
24.05
50.6
69.14
77.51
75.52
64.26
45.57
21.67
-4.62
-29.98
-50.65
-63.39
-66.3
-59.57
-45.47
-27.66
-10.22
3.31
10.69
11.35
6.27
-2.43
-12.21
-20.75
-26.43
-28.73
-28.12
-25.69
-22.68
-20.19
-19
-19.38
-20.97
-22.64
-22.7
-19.5
-12.38
-2.25
8.52
16.9
20.5
18.39
11.32
1.16
-10.09
-20.91
-30.58
-38.61
-44.38
-46.81
-44.75
-37.63
-26.03
-11.77
2.66
14.92
23.68
29.09
32.28
34.6
36.81
38.53
38.68
36.17
30.8
23.54
16.08
10.11
6.54
5.5
6.63
9.4
13.43
18.29
23.35
27.85
31.05
32.59
32.31
30.28
26.31
19.94
10.57
-2.17
-17.97
-35.68
-53.42
-68.95
-80.05
-84.84
-82.11
-71.52
-53.87
-31.09
-6
18.27
39
54.5
64.28
68.87
69.29
66.79
62.5
57.41
52.41
48.24
45.43
43.96
43.21
42.11
39.42
34.21
26
14.88
1.24
-14.34
-31.31
-49.03
-66.7
-83.06
-96.35
-104.46
-105.38
-98.06
-83.01
-62.49
-39.96
-19.05
-2.64
7.93
12.67
12.6
8.97
3.02
-4.31
-12.32
-20.51
-28.6
-36.32
-43.47
-49.8
-55.02
-58.72
-60.31
-58.98
-53.8
-44.14
-30.02
-12.5
6.57
25.16
41.72
55.45
66.02
72.99
75.43
72.27
63.15
49.21
33.12
18.02
6.13
-2.29
-8.74
-15.4
-23.46
-32.41
-40.06
-43.78
-41.49
-32.37
-16.73
4.36
29.51
57.04
84.8
110.11
129.95
141.54
143.13
134.42
116.73
92.56
65.07
37.31
11.73
-10.09
-27.36
-39.96
-48.17
-52.46
-53.33
-51.17
-46.25
-38.83
-29.12
-17.59
-4.88
7.9
19.37
27.89
31.97
30.56
23.6
12.17
-1.69
-15.47
-26.9
-34.52
-38.07
-38.3
-36.45
-33.54
-29.83
-24.76
-17.27
-6.61
6.96
21.94
36.16
47.55
55.07
58.97
60.25
59.83
57.8
53.59
46.8
37.98
28.98
22.13
19.15
20.2
23.71
27.39
29.31
28.88
26.82
24.47
22.81
21.74
20.23
16.82
10.57
1.62
-8.84
-19.03
-27.3
-32.49
-34.16
-32.46
-27.85
-21.02
-13.02
-5.21
0.83
3.7
2.61
-2.12
-9.25
-16.94
-23.36
-27.42
-28.93
-28.48
-27.16
-25.93
-25.39
-25.65
-26.41
-27.24
-27.87
-28.31
-28.75
-29.42
-30.35
-31.32
-31.9
-31.63
-30.23
-27.76
-24.6
-21.34
-18.65
-16.94
-16.3
-16.42
-16.85
-17.21
-17.4
-17.57
-17.94
-18.47
-18.78
-18.31
-16.61
-13.68
-10.1
-6.76
-4.49
-3.66
-4.06
-4.99
-5.57
-4.9
-2.31
2.31
8.57
15.55
22.05
26.86
29.36
29.6
28.44
27.19
26.95
28.03
29.68
30.53
29.32
25.71
20.45
14.82
9.87
5.87
2.38
-1.22
-5.13
-9.02
-12.3
-14.7
-16.61
-18.7
-21.41
-24.49
-27.16
-28.66
-28.77
-27.97
-27.17
-27.18
-28.32
-30.4
-32.87
-35.05
-36.34
-36.38
-35.1
-32.66
-29.41
-25.65
-21.58
-17.25
-12.64
-7.82
-2.9
1.95
6.63
11.22
15.83
20.53
25.25
29.85
34.07
37.72
40.66
42.76
43.82
43.6
41.87
38.65
34.41
29.91
26.06
23.4
21.84
20.77
19.4
17.15
14.01
10.41
6.97
4.06
1.76
-0.14
-1.62
-2.48
-2.32
-0.96
1.32
3.78
5.49
5.74
4.27
1.41
-2.15
-5.53
-7.9
-8.63
-7.57
-5.14
-2.36
-0.78
-1.79
-6.13
-13.3
-21.61
-28.92
-33.38
-34.25
-32.04
-28.02
-23.53
-19.3
-15.41
-11.35
-6.67
-1.11
5.11
11.46
17.32
22.14
25.65
27.85
29.11
29.98
31.06
32.67
34.84
37.3
39.73
41.9
43.77
45.43
46.85
47.97
48.61
48.65
48.16
47.29
46.18
44.8
42.9
40.1
36.17
31.07
25.1
18.65
12.11
5.76
-0.11
-5.09
-8.71
-10.56
-10.77
-10.21
-10.38
-12.88
-18.73
-27.83
-38.83
-49.56
-57.74
-61.81
-61.42
-57.43
-51.43
-44.91
-38.86
-33.45
-28.24
-22.75
-16.8
-10.74
-5.31
-1.23
1.2
2.05
1.95
1.66
1.8
2.56
3.65
4.45
4.22
2.56
-0.35
-3.68
-6.34
-7.45
-6.81
-5.03
-3.2
-2.4
-3.08
-4.93
-7.01
-8.36
-8.48
-7.41
-5.74
-4.19
-3.25
-3.15
-4.02
-5.88
-8.75
-12.46
-16.5
-20.27
-23.1
-24.6
-24.74
-23.84
-22.4
-20.79
-19.18
-17.5
-15.52
-12.87
-9.14
-4.07
2.27
9.03
14.54
16.68
13.73
5.11
-8.15
-23.69
-38.56
-49.97
-56.09
-56.37
-51.38
-42.35
-30.81
-18.11
-5.41
6.35
16.37
23.9
28.53
30.34
30.01
28.6
27.24
26.64
26.86
27.41
27.65
27.3
26.62
26.08
25.84
25.46
23.93
20.23
14
5.93
-2.4
-9.19
-13.28
-14.64
-14.27
-13.6
-13.54
-14.04
-14.3
-13.54
-11.94
-10.74
-11.64
-15.73
-22.62
-30.61
-37.47
-41.53
-42.31
-40.42
-36.89
-32.42
-27.06
-20.52
-12.69
-3.99
4.74
12.61
19.15
24.48
29.04
33.29
37.29
40.67
42.76
43.08
41.58
38.88
36.08
34.34
34.36
36.03
38.48
40.37
40.48
38.17
33.57
27.44
20.87
14.92
10.44
7.92
7.45
8.62
10.57
12.18
12.32
10.44
6.76
2.17
-2.21
-5.51
-7.51
-8.39
-8.43
-7.65
-5.93
-3.33
-0.36
2.02
2.97
2.3
0.78
-0.27
0.3
2.63
5.69
7.75
7.35
4.15
-0.83
-5.66
-8.53
-8.41
-5.46
-0.71
4.6
9.56
13.78
17.29
20.29
22.78
24.61
25.59
25.74
25.37
24.82
24.3
23.63
22.46
20.48
17.84
15.06
12.86
11.87
12.18
13.38
14.71
15.43
14.98
13.1
9.67
4.61
-2.02
-9.92
-18.38
-26.22
-32.15
-35.27
-35.29
-32.92
-29.45
-26.28
-24.43
-24.15
-25.11
-26.75
-28.49
-29.87
-30.46
-29.79
-27.49
-23.8
-19.64
-16.66
-16.59
-20.38
-27.58
-36.48
-44.64
-49.73
-50.32
-46.15
-38.1
-27.78
-17.17
-7.93
-1.12
3.15
5.44
6.55
6.98
6.69
5.27
2.38
-1.75
-6.25
-9.83
-11.31
-10.21
-6.96
-2.69
1.36
4.34
6.09
7.11
8.09
9.32
10.52
10.97
10.15
8.08
5.55
3.78
3.65
5.18
7.51
9.34
9.65
8.16
5.43
2.38
-0.07
-1.56
-2.23
-2.65
-3.46
-4.92
-6.87
-8.88
-10.62
-12.17
-13.91
-16.28
-19.25
-22.32
-24.68
-25.78
-25.53
-24.38
-22.82
-21.1
-19.09
-16.6
-13.68
-10.76
-8.32
-6.4
-4.4
-1.42
2.92
7.99
12.22
13.83
11.92
6.93
0.64
-4.81
-7.89
-8.41
-7.47
-6.69
-7.37
-9.96
-14.01
-18.54
-22.72
-26.03
-28.25
-29.21
-28.73
-26.75
-23.55
-19.74
-15.97
-12.53
-9
-4.52
1.58
9.21
17.43
24.92
30.7
34.5
36.58
36.99
35.19
30.34
22.24
12.16
2.79
-3.03
-3.87
-0.63
3.98
6.93
6.56
3.2
-1.44
-5.41
-7.67
-8.2
-7.5
-5.93
-3.53
-0.35
3.19
6.17
7.73
7.63
6.5
5.57
5.88
7.71
10.55
13.43
15.54
16.74
17.43
18.28
19.65
21.45
23.17
24.35
25.03
25.79
27.55
30.99
36.11
41.91
46.63
48.5
46.6
41.34
34.27
27.45
22.59
20.4
20.57
22.11
23.98
25.59
26.82
27.88
29.01
30.14
30.95
30.99
29.8
27.04
22.46
16.13
8.39
-0.19
-8.97
-17.55
-25.69
-33.3
-40.12
-45.7
-49.46
-50.82
-49.53
-45.62
-39.47
-31.64
-22.92
-14.31
-7.01
-2.19
-0.63
-2.41
-6.66
-11.79
-16
-17.84
-16.67
-12.67
-6.51
1.08
9.53
18.42
27.26
35.46
42.47
48.08
52.39
55.62
57.59
57.36
53.44
44.47
30.16
11.87
-7.75
-25.72
-39.92
-49.7
-55.73
-59.14
-60.91
-61.55
-61.32
-60.45
-59.26
-57.73
-55.41
-51.26
-44.27
-34.12
-21.69
-8.92
1.8
8.51
10.48
8.25
3.48
-1.78
-5.59
-6.58
-4.07
1.92
10.93
22.25
34.86
47.29
57.7
64.18
65.58
62.17
55.62
48.46
42.76
39.12
36.54
33.35
28.26
21.36
13.78
6.98
1.77
-1.92
-4.63
-6.76
-8.18
-8.6
-8.03
-7.14
-7.09
-8.97
-13.2
-19.05
-24.92
-28.96
-29.91
-27.56
-22.84
-17.57
-13.64
-12.34
-13.97
-17.96
-23.45
-29.83
-36.85
-44.39
-51.8
-57.66
-60.22
-58.21
-51.62
-41.81
-30.88
-20.66
-11.8
-3.65
5.15
15.52
27.2
38.65
47.71
52.63
52.67
48.25
40.52
30.91
20.78
11.28
3.34
-2.45
-5.89
-7.28
-7.34
-6.89
-6.4
-5.8
-4.45
-1.76
2.36
7.21
11.6
14.37
15
13.83
11.67
9.27
6.75
3.68
-0.48
-5.86
-11.73
-16.77
-19.73
-20.07
-18.25
-15.49
-13.16
-12.28
-13.16
-15.57
-18.91
-22.52
-25.74
-28.08
-29.16
-28.89
-27.36
-24.82
-21.34
-16.76
-10.77
-3.17
5.86
15.53
24.76
32.55
38.3
41.81
43.06
42.08
39.01
34.39
29.25
24.86
22.16
21.33
21.68
22.1
21.7
20.24
18.04
15.59
13.09
10.48
7.48
3.96
-0.13
-4.72
-9.84
-15.64
-22.12
-29.01
-35.77
-41.72
-46.11
-48.41
-48.34
-46.06
-42.06
-37.18
-32.27
-27.85
-23.95
-20.23
-16.45
-12.65
-9.19
-6.26
-3.68
-0.89
2.62
6.83
11.18
14.8
16.99
17.6
17.07
16.14
15.37
15.13
15.54
16.56
18.2
20.53
23.61
27.46
32.01
36.94
41.64
45.13
46.48
45.06
40.98
35
28.33
22.22
17.45
14.15
11.83
9.69
6.89
3.09
-1.38
-5.58
-8.18
-8.08
-4.78
1.21
8.57
15.53
20.48
22.49
21.43
17.86
12.66
6.85
1.38
-2.76
-4.6
-3.4
0.83
7.1
13.58
18.25
19.94
18.84
16.42
14.55
14.34
15.51
16.61
16.02
13.09
8.55
4.02
1.03
0.14
0.54
0.65
-0.92
-4.71
-10.19
-16.32
-22.17
-27.37
-31.96
-35.94
-38.82
-39.69
-37.87
-33.51
-27.75
-22.44
-19.36
-19.38
-22.21
-26.71
-31.46
-35.53
-38.66
-41.07
-43.08
-44.67
-45.55
-45.43
-44.27
-42.5
-40.74
-39.5
-38.83
-38.35
-37.37
-35.33
-32.06
-27.75
-22.8
-17.71
-13.08
-9.71
-8.49
-10.06
-14.37
-20.48
-26.63
-30.84
-31.47
-27.89
-20.67
-11.38
-2.02
5.5
9.89
10.89
9.1
6.05
3.62
3.61
7.19
14.59
25.19
37.72
50.8
63.03
73.17
80.03
82.38
79.07
69.47
54.16
35.42
17.24
4.42
1.2
9.94
30.32
59.46
92.79
125.26
152.4
170.85
178.51
174.34
158.1
129.95
90.3
39.78
-20.05
-85.96
-152.27
-211.12
-253.86
-273.45
-266.53
-234.52
-183.07
-120.45
-55.58
3.63
50.95
82.09
94.88
89.54
68.88
37.98
3.21
-29.11
-53.84
-67.66
-69.04
-58.13
-36.43
-6.84
26.52
58.62
84.33
99.33
101.21
90.07
68.55
41.05
12.58
-12.19
-29.63
-37.69
-36.04
-26.14
-10.9
5.81
19.89
27.84
27.29
17.35
-1.32
-26.6
-55.19
-82.82
-104.93
-117.36
-117.44
-104.62
-80.7
-49.44
-15.72
15.34
39.02
51.54
50.51
35.44
8.03
-27.57
-65.24
-97.86
-118.88
-123.75
-110.85
-81.66
-39.99
9.07
60.25
108.5
149.01
177.25
189.48
183.7
160.94
125.76
85.65
49.31
24.27
15.15
22.66
44.04
74.07
106.27
133.9
150.76
152.09
135.64
102.64
57.99
9.28
-35.21
-68.58
-86.8
-89.14
-77.54
-55.73
-28.56
-1.52
19.59
29.54
24.92
5.41
-25.68
-62.05
-96.22
-121.44
-133.1
-129.39
-111.25
-82.01
-47.05
-13.08
13.16
26.32
24.08
7.86
-17.51
-45.25
-68.67
-82.67
-84.79
-75.03
-55.67
-30.44
-3.98
18.8
33.68
38.1
31.8
16.93
-2.59
-22.22
-37.77
-46.26
-46.19
-37.44
-20.96
1.31
26.63
51.63
72.69
86.59
90.99
84.93
69.2
46.04
18.81
-8.56
-32.01
-47.93
-53.78
-48.63
-33.49
-11.04
14.88
40.05
60.78
74.35
79.3
75.38
63.46
45.39
23.66
0.99
-19.97
-36.84
-47.55
-50.46
-44.34
-28.89
-5.3
23.38
52.45
76.52
90.93
93.04
82.95
63.28
38.32
12.99
-8.18
-21.62
-25.4
-19.54
-6.09
11.25
28.14
40.52
45.64
42.65
32.6
18.06
2.26
-11.64
-21.37
-26
-26.08
-23.14
-18.9
-14.61
-10.63
-6.68
-2.48
1.81
5.52
7.72
7.79
5.64
1.61
-3.71
-9.7
-15.63
-20.55
-23.31
-23.01
-19.59
-14.2
-9.12
-6.95
-9.79
-18.45
-32.25
-49.23
-66.67
-81.69
-91.71
-94.71
-89.43
-75.5
-53.67
-25.89
4.89
34.98
60.47
77.79
84.33
79.12
63.31
40.11
14.12
-9.84
-27.95
-38.28
-40.68
-36.27
-26.52
-12.89
3.1
19.42
33.5
42.72
45.46
42.02
34.5
25.89
18.41
12.47
6.81
-0.24
-9.37
-19.69
-29.19
-36.21
-40.26
-42.11
-42.77
-42.46
-40.42
-35.69
-28.16
-19.21
-11.37
-6.96
-7.01
-10.82
-16.43
-21.76
-25.55
-27.64
-28.5
-28.71
-28.32
-26.87
-23.71
-18.37
-11.1
-2.9
4.83
10.73
14.04
14.95
14.51
13.98
14.37
15.97
18.58
21.67
24.83
27.77
30.29
32.16
32.96
32.28
29.83
25.71
20.4
14.51
8.63
3.18
-1.54
-5.36
-8
-9.33
-9.45
-8.91
-8.55
-9.2
-11.4
-15.05
-19.53
-23.76
-26.71
-27.77
-26.96
-24.94
-22.68
-21.13
-20.79
-21.63
-23.12
-24.57
-25.4
-25.19
-23.86
-21.5
-18.27
-14.29
-9.83
-5.38
-1.73
0.33
0.4
-1.38
-4.14
-6.7
-7.96
-7.44
-5.34
-2.38
0.67
3.31
5.46
7.24
8.75
9.95
10.8
11.51
12.61
14.78
18.65
24.29
31.08
37.73
42.7
44.75
43.46
39.43
33.94
28.47
24.13
21.25
19.31
17.24
14.02
9.07
2.62
-4.43
-10.83
-15.5
-17.9
-18.25
-17.31
-16.07
-15.18
-14.73
-14.34
-13.52
-12.22
-10.91
-10.39
-11.29
-13.58
-16.56
-19.26
-21.02
-21.79
-22.21
-23.15
-25.17
-28.18
-31.38
-33.51
-33.39
-30.4
-24.75
-17.36
-9.5
-2.39
3.13
6.75
8.69
9.65
10.49
12.03
14.61
18.08
21.91
25.38
27.93
29.22
29.25
28.25
26.68
25.08
23.92
23.54
24.06
25.39
27.21
29.13
30.8
32.02
32.72
32.81
32.18
30.74
28.52
25.71
22.56
19.26
15.91
12.57
9.31
6.29
3.73
1.92
1.2
1.91
4.12
7.42
10.93
13.58
14.63
13.95
11.99
9.53
6.98
4.29
1.02
-3
-7.14
-10.06
-10.46
-7.8
-2.91
2.52
6.86
9.56
11.38
13.69
17.34
21.94
25.94
27.52
25.66
20.76
14.41
8.41
4
1.48
0.37
0.15
0.56
1.68
3.53
5.87
8
9.2
9.02
7.58
5.51
3.61
2.63
2.82
3.95
5.37
6.29
5.97
3.86
-0.11
-5.65
-11.99
-18.22
-23.5
-27.42
-30.11
-32.09
-33.92
-35.81
-37.75
-39.55
-41.08
-42.27
-43
-42.92
-41.6
-38.64
-33.9
-27.67
-20.34
-12.2
-3.46
5.51
13.89
20.43
23.85
23.5
19.93
14.75
9.96
7.05
6.29
6.91
7.73
7.94
7.6
7.53
8.76
11.81
16.31
21.11
24.73
25.96
24.32
20.32
15.12
10.1
6.13
3.33
1.15
-1.31
-4.67
-9.09
-14.22
-19.53
-24.66
-29.56
-34.33
-39.04
-43.51
-47.35
-50.07
-51.35
-51.25
-50.17
-48.61
-46.91
-45.08
-42.74
-39.38
-34.72
-29.07
-23.26
-18.41
-15.23
-13.68
-12.8
-11.22
-7.87
-2.51
4.18
11.07
17.16
22.04
25.81
28.64
30.43
30.78
29.32
26.18
22.24
18.74
16.72
16.3
16.57
16.13
13.81
9.34
3.6
-1.91
-5.88
-7.79
-8.09
-7.83
-7.94
-8.8
-10.08
-11.13
-11.4
-10.83
-9.92
-9.27
-9.26
-9.75
-10.27
-10.47
-10.39
-10.67
-12.07
-14.98
-18.94
-22.83
-25.36
-25.72
-23.98
-21.01
-18.1
-16.2
-15.46
-15.29
-14.78
-13.23
-10.53
-6.96
-2.89
1.53
6.42
11.85
17.5
22.6
26.25
27.99
28.03
27.16
26.26
25.78
25.58
25.18
24.27
22.87
21.3
19.73
18.05
16.08
13.85
11.88
11
11.95
14.75
18.54
21.85
23.19
21.91
18.28
13.37
8.57
5.1
3.52
3.7
4.88
6.01
6.18
4.93
2.39
-0.83
-3.98
-6.68
-8.85
-10.63
-11.99
-12.57
-11.88
-9.65
-6.28
-2.96
-1.2
-1.96
-5.17
-9.71
-13.85
-16.26
-16.3
-14.11
-10.12
-4.75
1.82
9.17
16.57
23.03
27.57
29.91
30.55
30.67
31.44
33.34
35.87
37.84
38.2
36.57
33.57
30.45
28.34
27.81
28.61
30.07
31.55
32.86
34.22
35.91
37.84
39.3
39.21
36.65
31.41
24.26
16.7
10.44
6.64
5.35
5.55
5.6
4.13
0.76
-3.79
-8.15
-11.13
-12.37
-12.48
-12.58
-13.76
-16.53
-20.77
-25.86
-31
-35.3
-38.02
-38.72
-37.38
-34.5
-30.86
-27.27
-24.03
-20.9
-17.25
-12.55
-6.81
-0.66
4.82
8.55
9.92
8.85
5.81
1.62
-2.84
-6.83
-9.89
-11.76
-12.46
-12.14
-11.03
-9.33
-7.19
-4.65
-1.69
1.52
4.44
6.22
5.95
3.09
-2.14
-8.7
-15.04
-19.82
-22.45
-23.34
-23.62
-24.46
-26.37
-29.01
-31.3
-32.09
-30.7
-27.26
-22.61
-17.98
-14.57
-13.25
-14.25
-17.01
-20.49
-23.42
-24.77
-24.13
-21.79
-18.38
-14.38
-9.92
-4.88
0.77
6.67
12.12
16.26
18.47
18.53
16.49
12.55
7.17
1.11
-4.58
-8.79
-10.92
-11.18
-10.55
-10.04
-10.15
-10.49
-10.11
-8.23
-4.93
-1.23
1.61
2.88
2.93
2.88
3.79
5.71
7.45
7.33
4.22
-1.58
-8.46
-14.26
-17.52
-18.13
-17.16
-16.05
-15.6
-15.73
-15.78
-15.29
-14.5
-14.12
-14.77
-16.37
-18.03
-18.48
-16.95
-13.6
-9.53
-6.03
-4
-3.36
-3.17
-2.38
-0.34
2.74
6.2
9.43
12.33
15.32
18.93
23.31
27.88
31.65
33.61
33.24
30.67
26.6
21.99
17.85
14.91
13.52
13.57
14.54
15.71
16.42
16.29
15.3
13.58
11.25
8.32
4.98
1.7
-0.68
-1.31
-0.01
2.49
4.73
5.22
3.26
-0.74
-5.5
-9.69
-12.55
-14.22
-15.4
-16.71
-18.25
-19.53
-19.85
-18.71
-16.2
-12.93
-9.8
-7.55
-6.52
-6.67
-7.76
-9.49
-11.58
-13.73
-15.49
-16.33
-15.7
-13.38
-9.57
-4.91
-0.12
4.19
7.87
11.16
14.44
17.81
20.94
23.09
23.45
21.59
17.85
13.4
9.92
8.93
10.97
15.22
19.88
23.02
23.85
23.13
22.79
24.63
29.12
34.93
39.75
41.68
40.42
37.48
35.1
34.83
36.5
38.36
38.33
35.21
29.42
22.49
16.21
11.71
9.18
8.27
8.54
9.75
11.73
14.03
15.72
15.64
12.86
7.26
-0.23
-7.89
-13.86
-16.87
-16.6
-13.82
-9.87
-6.13
-3.42
-1.68
-0.28
1.52
3.95
6.52
8.21
8.04
5.75
1.97
-2
-4.86
-5.92
-5.36
-4.02
-2.77
-2.06
-1.83
-1.78
-1.77
-2
-2.76
-4.09
-5.55
-6.34
-5.73
-3.51
-0.13
3.61
6.89
9.22
10.36
10.18
8.54
5.39
1.06
-3.71
-7.82
-10.34
-10.96
-10.19
-9.13
-9.02
-10.7
-14.29
-19.25
-24.65
-29.5
-32.99
-34.69
-34.46
-32.41
-28.9
-24.36
-19.39
-14.6
-10.57
-7.69
-5.99
-5.25
-5.13
-5.38
-6.02
-7.31
-9.5
-12.58
-16.09
-19.3
-21.51
-22.39
-22.08
-21.01
-19.56
-17.89
-15.88
-13.5
-10.97
-8.75
-7.34
-6.84
-6.92
-6.99
-6.65
-5.98
-5.57
-6.1
-7.89
-10.67
-13.77
-16.46
-18.25
-19.05
-19.01
-18.46
-17.79
-17.49
-18.07
-19.89
-22.8
-26.16
-29.02
-30.54
-30.52
-29.44
-28.07
-27.02
-26.29
-25.35
-23.62
-20.89
-17.54
-14.13
-10.97
-7.65
-3.41
2.46
9.91
17.96
24.97
29.44
30.62
28.87
25.38
21.62
18.81
17.56
17.87
19.34
21.35
23.27
24.67
25.35
25.37
25.02
24.62
24.3
24.09
23.82
23.38
22.75
21.93
20.86
19.31
17.01
13.85
10.14
6.51
3.74
2.28
2
2.15
1.77
0.11
-2.99
-7
-11.04
-14.22
-16.01
-16.44
-15.95
-15.06
-14.15
-13.31
-12.43
-11.4
-10.2
-8.97
-7.87
-7.05
-6.49
-6.06
-5.47
-4.37
-2.37
0.95
5.83
12.23
19.62
26.87
32.64
35.7
35.59
32.69
28.15
23.41
19.72
17.82
17.89
19.66
22.59
26.09
29.57
32.45
34.24
34.64
33.62
31.42
28.51
25.39
22.5
20.14
18.43
17.33
16.6
15.87
14.8
13.26
11.21
8.85
6.36
3.86
1.45
-0.71
-2.32
-2.96
-2.34
-0.48
2.13
4.56
5.82
5.25
2.76
-1.12
-5.59
-9.86
-13.36
-15.66
-16.46
-15.51
-12.75
-8.39
-3.05
2.52
7.62
11.91
15.32
17.89
19.6
20.19
19.26
16.42
11.68
5.55
-0.95
-6.54
-10
-10.68
-8.82
-5.45
-1.96
0.56
1.83
2.41
3.22
4.76
6.69
7.83
6.9
3.43
-1.92
-7.5
-11.57
-13.2
-12.75
-11.62
-11.39
-12.93
-15.93
-19.21
-21.35
-21.52
-19.99
-18.08
-17.33
-18.63
-21.75
-25.55
-28.55
-29.76
-29.1
-27.4
-25.82
-25.15
-25.51
-26.21
-26.28
-24.94
-21.96
-17.71
-12.7
-7.4
-2.1
2.92
7.28
10.44
11.87
11.32
9.11
6.13
3.54
2.36
2.94
4.85
7.12
8.73
9.02
8.01
6.28
4.63
3.65
3.42
3.57
3.5
2.77
1.36
-0.33
-1.85
-3
-3.92
-4.93
-6.29
-7.89
-9.49
-10.79
-11.73
-12.5
-13.42
-14.73
-16.41
-18.13
-19.46
-20.12
-20.2
-20.09
-20.35
-21.49
-23.73
-26.92
-30.5
-33.69
-35.66
-35.75
-33.65
-29.42
-23.46
-16.39
-8.95
-1.95
3.9
8.05
10.14
10.07
8.1
4.95
1.65
-0.75
-1.46
-0.29
2.27
5.34
8
9.64
10.17
9.95
9.57
9.47
9.87
10.68
11.72
12.73
13.59
14.24
14.63
14.65
14.11
12.86
10.84
8.15
5.07
1.96
-0.69
-2.39
-2.74
-1.73
0.22
2.19
3.12
2.23
-0.79
-5.45
-10.73
-15.41
-18.44
-19.39
-18.46
-16.36
-13.83
-11.33
-8.77
-5.66
-1.53
3.71
9.65
15.53
20.6
24.37
26.59
27.08
25.73
22.69
18.71
15.04
13.08
13.66
16.52
20.29
23.24
24.03
22.43
19.32
16.02
13.81
13.22
14.03
15.54
16.97
17.66
17.36
16.11
14.22
12.19
10.57
9.97
10.92
13.83
18.71
25.01
31.37
36.01
37.28
34.32
27.62
19
10.95
5.68
4.23
6.12
9.65
12.87
14.46
14.37
13.6
13.36
14.3
16.11
17.67
17.78
15.87
12.19
7.68
3.38
-0.08
-2.68
-4.77
-6.74
-8.74
-10.75
-12.75
-14.76
-16.92
-19.24
-21.43
-23.02
-23.56
-22.98
-21.71
-20.72
-21.15
-23.79
-28.76
-35.26
-41.88
-46.94
-49.12
-47.81
-43.43
-37.12
-30.52
-25.14
-22.03
-21.6
-23.54
-26.93
-30.45
-32.8
-33.11
-31.21
-27.75
-23.91
-20.9
-19.33
-18.97
-18.78
-17.53
-14.38
-9.43
-3.55
2.11
6.79
10.45
13.53
16.53
19.49
21.97
23.42
23.69
23.47
23.99
26.42
31.08
37.28
43.55
48.37
50.68
50.09
46.74
41.05
33.78
25.99
19.1
14.41
12.64
13.53
15.91
18.1
18.41
15.58
8.92
-1.64
-15.53
-31.4
-47.16
-60.36
-68.92
-71.81
-69.29
-62.58
-53.24
-42.52
-31.39
-20.66
-11.15
-3.6
1.79
5.49
8.38
11.15
13.73
15.3
14.74
11.57
6.38
0.81
-3.36
-5.23
-5.2
-4.69
-5.28
-7.99
-12.78
-18.79
-24.83
-29.87
-33.19
-34.33
-33.06
-29.4
-23.65
-16.61
-9.47
-3.54
0.06
0.84
-0.91
-4.16
-7.31
-8.83
-7.6
-3.44
2.83
9.65
15.34
18.55
18.48
14.85
7.72
-2.52
-14.97
-28.04
-39.41
-46.69
-48.08
-42.93
-32.06
-17.27
-0.76
15.44
29.72
40.79
47.68
49.88
47.64
42.05
34.87
28.1
23.35
21.5
22.77
26.93
33.63
42.49
52.93
63.93
74.15
82.14
86.81
87.8
85.42
80.39
73.48
65.39
56.83
48.6
41.44
35.81
31.56
27.82
23.44
17.67
10.64
3.47
-2.11
-4.68
-3.81
-0.38
3.76
6.71
7.38
6.03
3.98
2.86
3.65
6.26
9.6
12.31
13.34
12.34
9.43
4.92
-0.7
-6.62
-11.57
-14.03
-12.96
-8.52
-2.51
2.17
2.53
-3.46
-16.14
-33.97
-54.17
-73.33
-88.13
-95.97
-95.36
-86.05
-69
-46.06
-19.72
7.23
31.94
51.71
64.42
69.02
65.74
56.05
42.01
25.68
8.67
-7.99
-23.4
-36.45
-45.86
-50.49
-50.08
-45.67
-39.54
-34.36
-31.99
-32.66
-34.91
-36.4
-35.23
-30.94
-24.63
-18.22
-13.34
-10.55
-9.38
-8.93
-8.48
-7.8
-6.79
-5.17
-2.39
1.96
7.6
13.42
17.83
19.62
18.71
16.09
13.25
11.27
10.34
9.89
9.22
8.09
6.73
5.6
4.78
3.93
2.38
-0.26
-3.8
-7.51
-10.46
-12.19
-12.83
-13.02
-13.41
-14.42
-16.12
-18.28
-20.63
-22.92
-24.91
-26.32
-26.87
-26.37
-24.78
-22.35
-19.57
-16.91
-14.63
-12.77
-11.12
-9.56
-8.09
-6.94
-6.39
-6.58
-7.44
-8.67
-9.89
-10.67
-10.64
-9.46
-6.88
-2.86
2.28
7.71
12.3
14.97
15.07
12.7
8.71
4.33
0.79
-1.06
-0.97
0.86
3.91
7.6
11.3
14.41
16.38
16.72
15.35
12.6
9.32
6.59
5.25
5.54
6.95
8.48
9.07
8.11
5.64
2.24
-1.32
-4.34
-6.51
-7.88
-8.74
-9.45
-10.35
-11.7
-13.67
-16.38
-19.88
-24.11
-28.82
-33.53
-37.7
-40.83
-42.67
-43.2
-42.74
-41.76
-40.65
-39.58
-38.47
-36.99
-34.81
-31.89
-28.53
-25.23
-22.39
-19.98
-17.42
-13.78
-8.33
-0.99
7.43
15.57
21.93
25.62
26.59
25.48
23.28
20.95
19.24
18.65
19.48
21.87
25.72
30.54
35.49
39.61
42.11
42.63
41.36
39.02
36.44
34.31
33.03
32.51
32.36
32.07
31.22
29.63
27.42
24.92
22.54
20.59
19.14
18.08
17.12
15.88
14.04
11.49
8.34
5
2.11
0.39
0.36
2.11
4.97
7.6
8.26
5.52
-1.09
-10.74
-21.5
-30.85
-36.67
-37.89
-34.73
-28.5
-21.03
-13.95
-8.29
-4.29
-1.44
1.07
4.07
8.04
12.97
18.38
23.62
28.19
31.9
34.86
37.22
38.96
40
40.25
39.81
38.98
38.12
37.5
37.1
36.8
36.48
36.07
35.51
34.73
33.57
31.88
29.61
26.98
24.36
22.08
20.11
18.04
15.44
12.07
8.26
4.73
2.38
1.7
2.49
3.75
3.96
1.64
-4.04
-12.89
-23.73
-34.73
-43.98
-50.17
-52.72
-51.87
-48.4
-43.36
-37.74
-32.35
-27.71
-23.97
-20.86
-17.89
-14.71
-11.37
-8.4
-6.51
-6.16
-7.16
-8.79
-10.22
-10.84
-10.61
-9.93
-9.3
-9.01
-9.08
-9.34
-9.65
-9.95
-10.24
-10.53
-10.82
-11.11
-11.35
-11.44
-11.21
-10.57
-9.61
-8.75
-8.54
-9.49
-11.76
-15.02
-18.54
-21.43
-22.89
-22.58
-20.67
-17.87
-15.25
-13.81
-14.19
-16.2
-18.89
-20.92
-21.21
-19.54
-16.58
-13.51
-11.29
-10.09
-9.18
-7.39
-3.78
1.84
8.77
15.78
21.64
25.52
27.1
26.48
24.03
20.3
15.93
11.59
7.84
5.07
3.34
2.4
1.75
0.74
-1.13
-4.01
-7.62
-11.25
-14.1
-15.53
-15.4
-14.02
-12.02
-10.09
-8.63
-7.88
-7.85
-8.53
-9.83
-11.56
-13.36
-14.85
-15.71
-15.84
-15.38
-14.67
-14.19
-14.39
-15.58
-17.78
-20.56
-23.04
-24.16
-23.15
-19.89
-15.04
-9.63
-4.67
-0.66
2.43
5
7.49
10.18
13.09
16.1
18.93
21.15
22.28
21.86
19.76
16.36
12.48
9.02
6.63
5.4
4.88
4.5
3.86
2.92
1.84
0.91
0.37
0.29
0.5
0.67
0.37
-0.75
-2.81
-5.52
-8.27
-10.33
-11.22
-10.88
-9.65
-8.02
-6.41
-5.07
-4.21
-4.04
-4.66
-5.88
-7.04
-7.24
-5.83
-2.93
0.5
3.15
3.96
2.68
-0.04
-3.08
-5.47
-6.77
-6.98
-6.39
-5.26
-3.71
-1.9
0.04
2.05
4.35
7.41
11.63
17.02
22.89
27.98
30.93
30.75
27.34
21.32
13.91
6.49
0.46
-2.8
-2.09
3.39
13.42
26.38
39.5
49.5
53.75
51.38
43.48
32.67
21.87
13.36
8.07
5.69
5.21
5.42
5.23
3.8
0.7
-3.9
-9.14
-13.5
-15.31
-13.31
-7.29
1.66
11.41
19.35
23.32
22.3
16.76
8.55
0.22
-5.7
-7.57
-5.14
0.48
7.42
13.75
18.27
20.71
21.63
21.86
22.05
22.37
22.55
22.23
21.24
19.79
18.29
17.11
16.48
16.36
16.66
17.24
17.88
18.38
18.58
18.34
17.7
16.72
15.33
13.3
10.42
6.72
2.63
-1.09
-3.87
-5.69
-7.2
-9.32
-12.62
-16.8
-20.73
-22.93
-22.4
-19.2
-14.57
-10.45
-8.73
-10.43
-15.3
-21.91
-28.32
-32.91
-34.93
-34.71
-33.27
-31.64
-30.28
-28.91
-26.85
-23.48
-18.72
-13.06
-7.3
-2.12
2.05
5.09
6.97
7.57
6.59
3.88
-0.3
-5.07
-9.18
-11.54
-11.71
-10.09
-7.7
-5.59
-4.37
-4.15
-4.74
-5.92
-7.66
-9.96
-12.69
-15.64
-18.55
-21.27
-23.79
-26.04
-27.85
-29.03
-29.64
-30.04
-30.78
-32.09
-33.62
-34.51
-33.91
-31.48
-27.63
-23.23
-19.08
-15.49
-12.35
-9.55
-7.33
-6.29
-6.95
-9.17
-11.97
-13.77
-13.08
-9.09
-2.06
6.87
16.12
24.16
29.98
33.14
33.79
32.36
29.56
26.11
22.69
19.73
17.38
15.47
13.79
12.26
10.97
10.16
9.9
9.97
9.85
9.11
7.56
5.43
3.26
1.47
0.23
-0.51
-1
-1.36
-1.67
-1.99
-2.39
-2.98
-3.78
-4.62
-5.15
-5.15
-4.65
-4.15
-4.21
-5.09
-6.47
-7.58
-7.64
-6.4
-4.38
-2.63
-2.12
-3.19
-5.29
-7.33
-8.22
-7.32
-4.59
-0.38
4.82
10.56
16.35
21.68
26.03
29.09
30.89
31.81
32.42
33.25
34.44
35.62
36.13
35.28
32.75
28.81
24.45
20.94
19.22
19.39
20.5
21.11
20.05
17.17
13.39
10.12
8.35
8.16
8.78
9.27
9.27
9.24
10.05
12.27
15.61
19.04
21.32
21.55
19.57
15.86
11.25
6.59
2.66
-0.01
-1.06
-0.44
1.59
4.47
7.53
10.3
12.63
14.73
16.79
18.78
20.25
20.56
19.29
16.52
12.88
9.17
6.07
3.73
1.81
-0.26
-2.73
-5.33
-7.29
-7.85
-6.75
-4.53
-2.43
-1.63
-2.85
-5.97
-10.1
-14.12
-17.13
-18.82
-19.52
-19.98
-20.99
-22.93
-25.52
-27.94
-29.11
-28.26
-25.49
-22.02
-19.77
-20.51
-25
-32.39
-40.52
-46.89
-49.78
-48.96
-45.46
-40.94
-36.67
-33.17
-30.21
-27.29
-24.1
-20.58
-16.93
-13.23
-9.3
-4.87
0.06
5
8.95
10.92
10.57
8.6
6.6
6.26
8.46
12.86
18.08
22.35
24.42
23.94
21.28
17.01
11.46
4.73
-2.91
-10.62
-17.08
-20.93
-21.52
-19.23
-15.44
-12.02
-10.42
-11.25
-14.08
-17.92
-21.76
-25.2
-28.51
-32.14
-36.2
-40.07
-42.65
-42.86
-40.39
-35.82
-30.44
-25.53
-21.78
-19.15
-17.07
-14.85
-12.09
-8.7
-4.77
-0.45
4.04
8.43
12.31
15.29
17.06
17.54
16.79
15
12.43
9.59
7.12
5.76
6.07
8.22
11.86
16.28
20.64
24.27
26.76
28.04
28.18
27.25
25.2
21.76
16.61
9.67
1.32
-7.31
-14.67
-19.32
-20.53
-18.71
-15.14
-11.32
-8.28
-6.15
-4.37
-2.28
0.43
3.62
6.78
9.49
11.37
12.25
12
10.67
8.69
6.62
5
3.95
3.2
2.28
1.1
0.18
0.55
3.26
8.7
16.28
24.48
31.52
36.1
37.72
36.82
34.3
31.14
28.06
25.54
23.85
23.16
23.41
24.27
25.01
24.72
22.62
18.49
12.97
7.43
3.59
3.05
6.67
14.4
25.14
37.05
47.95
55.79
59.28
58.09
53.03
45.57
37.31
29.45
22.55
16.71
11.83
7.77
4.34
1.11
-2.63
-7.53
-13.79
-20.7
-26.67
-29.91
-29.31
-25.09
-18.78
-12.54
-8.06
-5.87
-5.25
-4.91
-3.83
-1.84
0.35
1.7
1.64
0.43
-0.84
-1.02
0.6
3.8
7.62
10.93
12.87
13.07
11.53
8.19
2.89
-4.47
-13.45
-22.86
-31.1
-36.95
-40.15
-41.7
-43.16
-45.76
-49.81
-54.86
-60.21
-65.49
-70.68
-75.65
-79.54
-80.74
-77.65
-69.52
-57.12
-42.5
-27.96
-15.23
-4.9
3.15
9.13
12.95
14.41
13.69
11.68
9.72
9.05
10.18
12.74
15.76
18.31
19.87
20.5
20.46
19.82
18.47
16.1
12.49
7.83
2.66
-2.37
-6.71
-10.04
-12.18
-12.83
-11.4
-7.08
0.82
12.38
26.57
41.36
54.17
62.7
65.61
62.92
55.87
46.37
36.42
27.49
20.33
14.92
10.83
7.62
5.24
4.11
4.7
7.09
10.57
13.81
15.34
14.35
11.07
6.67
2.52
-0.55
-2.78
-5.08
-8.29
-12.51
-16.85
-19.87
-20.18
-17.04
-10.51
-1.36
8.97
18.44
24.64
25.3
18.99
5.8
-12.43
-32.52
-50.83
-64.45
-71.97
-73.55
-70.55
-64.75
-57.82
-51.1
-45.55
-41.84
-40.23
-40.5
-41.83
-42.87
-42.13
-38.56
-31.98
-23.36
-14.47
-7.12
-2.4
-0.34
-0.14
-0.73
-1.33
-1.75
-2.04
-2.07
-1.28
1.09
5.51
11.6
17.98
22.69
23.93
20.89
14.11
5.33
-3.15
-9.28
-11.88
-10.84
-6.99
-1.65
4
9.29
14.22
19.1
24.11
28.97
32.91
35.26
35.91
35.54
35.36
36.47
39.25
43.25
47.51
51.13
53.62
54.84
54.85
53.57
50.91
46.89
41.89
36.51
31.33
26.51
21.81
16.9
11.89
7.46
4.63
4.03
5.45
7.72
9.44
9.64
8.37
6.61
5.63
6.34
8.57
11.27
12.87
12.17
8.78
3.33
-2.99
-8.91
-13.6
-16.83
-18.78
-19.83
-20.27
-20.19
-19.39
-17.53
-14.18
-9.16
-2.64
4.6
11.46
16.69
19.45
19.59
17.53
13.99
9.66
4.94
-0.03
-5.08
-9.86
-13.72
-16.06
-16.64
-15.83
-14.65
-14.42
-16.19
-20.29
-26.07
-32.06
-36.79
-39.5
-40.67
-41.71
-44.26
-49.42
-57.31
-67.37
-78.72
-90.16
-99.81
-104.71
-101.45
-87.64
-63.65
-33.35
-2.89
22.02
38.43
47.08
50.88
52.42
52.24
49
41.4
30.06
18.08
9.65
7.71
12.25
20.31
27.75
31.47
30.67
26.73
21.91
17.91
15.1
12.79
10.03
6.45
2.65
-0.16
-0.89
0.67
3.78
7.26
10.07
11.89
12.77
12.73
11.37
8.11
2.86
-3.59
-9.56
-13.4
-14.32
-13.05
-11.3
-11.01
-13.23
-17.73
-23.33
-28.46
-31.89
-32.81
-30.89
-26.33
-19.91
-12.89
-6.57
-1.84
1.19
2.92
3.82
3.87
2.6
-0.34
-4.73
-9.49
-13.34
-15.49
-16.06
-15.75
-15.03
-13.68
-10.81
-5.85
0.8
7.58
12.57
14.37
12.8
8.71
3.48
-1.57
-5.57
-8.03
-8.68
-7.56
-5.1
-2.2
0.06
0.86
0.16
-1.38
-2.68
-2.88
-1.76
0.33
2.72
4.83
6.28
7
7.06
6.69
6.21
6.11
6.92
8.88
11.7
14.6
16.61
17.01
15.87
13.95
12.32
11.86
12.82
14.85
17.23
19.25
20.25
19.79
17.57
13.55
8.17
2.33
-2.7
-5.71
-6.12
-4.22
-1.18
1.51
2.59
1.76
-0.37
-2.45
-3.16
-1.79
1.54
6.04
10.63
14.38
16.79
17.55
16.53
13.66
9.22
4
-0.75
-3.67
-3.96
-1.61
2.47
7.03
11.08
14.36
17.15
20
23.13
26.32
29.01
30.71
31.22
30.73
29.63
28.28
26.94
25.72
24.7
23.85
23.05
22.17
20.95
19.32
17.39
15.4
13.55
11.67
9.2
5.5
0.27
-6.2
-13.19
-19.83
-25.49
-29.89
-32.88
-34.22
-33.67
-31.16
-27.19
-22.66
-18.6
-15.6
-13.6
-12.06
-10.42
-8.58
-7.14
-6.98
-8.73
-12.26
-16.61
-20.4
-22.52
-22.53
-20.87
-18.65
-17.01
-16.55
-17.05
-17.62
-17.21
-15.29
-12.19
-9.04
-6.89
-6.15
-6.27
-6.19
-5.16
-3.38
-1.93
-2.04
-4.16
-7.58
-10.87
-12.78
-12.94
-11.88
-10.54
-9.47
-8.77
-8.21
-7.82
-7.92
-8.87
-10.57
-12.35
-13.49
-13.84
-14.18
-15.75
-19.4
-24.7
-30
-33.08
-32.3
-27.35
-19.3
-10.02
-1.26
5.91
11.28
14.99
17.14
17.44
15.5
11.31
5.67
0.26
-3.1
-3.18
-0.05
4.76
9.07
10.99
9.98
6.9
3.45
1.01
-0.04
-0.35
-1.02
-2.73
-5.24
-7.55
-8.82
-8.87
-8.27
-7.81
-7.77
-7.72
-6.97
-5.45
-4.05
-4.25
-6.98
-11.76
-16.77
-19.79
-19.62
-16.67
-12.72
-9.66
-8.24
-7.79
-6.89
-4.46
-0.55
3.89
7.89
11.13
14.1
17.53
21.65
26.01
29.89
33.05
35.81
38.79
42.07
44.84
45.63
43.34
38.03
31.16
24.78
20.48
18.56
18.13
17.89
17.02
15.55
14.04
13.01
12.46
11.93
10.88
9.09
6.88
4.87
3.64
3.43
3.98
4.81
5.4
5.4
4.63
3.14
1.02
-1.55
-4.24
-6.65
-8.35
-9.13
-8.96
-8.15
-7.14
-6.24
-5.52
-4.84
-4.12
-3.51
-3.44
-4.23
-5.83
-7.62
-8.51
-7.5
-4.2
0.93
6.83
12.26
16.46
19.44
21.8
24.41
27.71
31.6
35.4
38.32
39.71
39.31
37.34
34.29
30.69
26.87
22.92
18.8
14.56
10.32
6.46
3.35
1.25
0.19
-0.04
0.33
1.04
1.87
2.52
2.62
1.75
-0.28
-3.13
-6.19
-8.87
-11.08
-13.37
-16.55
-21.07
-26.5
-31.63
-34.9
-35.41
-33.37
-30.08
-27.23
-25.94
-26.3
-27.46
-28.44
-28.62
-28.12
-27.51
-27.31
-27.59
-27.84
-27.39
-25.65
-22.39
-17.65
-11.63
-4.54
3.22
10.86
17.28
21.39
22.58
21.14
18.14
14.99
12.85
12.18
12.51
12.89
12.34
10.44
7.47
4.29
1.85
0.53
0.11
-0.23
-1.26
-3.17
-5.47
-7.41
-8.47
-8.76
-9.01
-10.01
-12.12
-14.94
-17.61
-19.42
-20.14
-20.15
-20.06
-20.29
-20.96
-21.99
-23.34
-25.28
-28.25
-32.45
-37.59
-42.82
-47
-49.23
-49.28
-47.71
-45.64
-44.2
-43.94
-44.69
-45.59
-45.41
-43.02
-37.9
-30.28
-21.1
-11.67
-3.12
3.9
9.61
14.89
20.64
27.12
33.63
38.8
41.36
40.95
38.4
35.3
33.02
31.9
31.2
29.77
26.9
22.91
18.91
16.04
14.8
14.88
15.52
16.24
16.97
17.88
19
20.03
20.59
20.52
20.14
20.01
20.6
21.76
22.75
22.62
20.75
17.31
13.23
9.86
8.39
9.17
11.47
13.7
14.09
11.56
6.2
-0.77
-7.75
-13.49
-17.57
-20.25
-21.95
-22.77
-22.59
-21.28
-19.01
-16.35
-13.88
-11.79
-9.67
-6.7
-2.24
3.63
10.01
15.4
18.3
17.99
14.8
10.11
5.66
2.88
2.37
3.8
6.41
9.47
12.62
15.69
18.37
20.16
20.75
20.78
21.75
25.29
31.79
39.75
46.21
48.65
46.87
43.36
41.56
43.23
47
49.12
46.24
38.16
28.57
22.96
24.8
33.06
42.72
47.78
44.87
35.02
22.54
11.9
5.08
0.97
-2.89
-7.97
-13.57
-17.59
-18.36
-15.96
-12.3
-9.64
-9.06
-9.79
-10.1
-8.83
-6.28
-3.9
-3.13
-4.33
-6.76
-9.17
-10.83
-11.98
-13.29
-15.03
-16.67
-17.36
-16.6
-14.72
-12.53
-10.86
-10.03
-9.84
-10.09
-10.91
-12.61
-14.99
-17.31
-18.74
-19.15
-19.44
-21.04
-24.76
-29.85
-34.11
-35.37
-33.1
-28.98
-25.8
-25.59
-28.12
-31.25
-32.53
-30.98
-27.8
-25.4
-25.5
-27.78
-30.29
-30.9
-28.87
-25.2
-21.91
-20.46
-20.69
-21.07
-19.84
-16.25
-10.91
-5.33
-0.86
1.99
3.66
5.02
6.69
8.81
11.23
13.9
17.06
21.06
26.21
32.4
38.97
44.85
48.86
49.91
47.4
41.31
32.4
22.17
12.3
4.05
-2.25
-7.22
-11.79
-16.34
-20.28
-22.47
-22.23
-20.21
-18.46
-19.28
-23.82
-31.24
-39.04
-44.64
-46.9
-46.73
-46.31
-47.46
-50.27
-53.25
-54.44
-52.95
-49.61
-46.36
-44.72
-44.65
-44.5
-42.16
-36.55
-28.27
-18.99
-10.21
-2.33
5.33
13.64
22.54
30.74
36.46
38.71
38.08
36.35
35.44
36.12
37.65
38.61
38.11
36.68
35.87
37.07
40.3
44.04
46.04
44.74
40.23
34.12
28.41
24.27
21.49
18.9
15.41
10.81
5.86
1.93
0.05
0.37
2.22
4.55
6.33
6.76
5.6
3.28
0.89
-0.38
0.29
2.86
6.25
8.87
9.6
8.54
6.76
5.6
5.48
5.41
3.36
-2.5
-12.27
-23.89
-33.93
-39.22
-38.52
-33
-25.4
-18.45
-13.46
-9.99
-6.6
-2.12
3.62
10.07
16.54
22.57
27.87
31.88
33.73
32.72
29.27
25.18
22.94
24.02
27.76
31.78
33.47
32.01
29.14
27.94
30.4
35.64
40.24
40.63
35.77
28
21.44
18.87
19.67
20.15
16.16
6.29
-6.9
-18.34
-23.73
-22.29
-17.13
-13.27
-14.34
-20.48
-28.55
-34.35
-35.39
-32.38
-28.51
-27.45
-31.05
-38.19
-45.58
-49.73
-49.02
-44.41
-38.6
-34.22
-32.3
-32.03
-31.62
-29.67
-25.79
-20.52
-14.54
-8.22
-1.74
4.53
9.67
12.59
12.72
10.53
7.21
3.88
0.86
-2.29
-6
-9.96
-12.99
-13.71
-11.39
-6.59
-0.74
4.63
8.63
11.01
11.96
11.78
10.99
10.21
10.2
11.56
14.31
17.67
20.45
21.79
21.74
21.07
20.58
20.41
19.81
17.79
13.94
9
4.52
1.89
1.28
1.49
0.6
-2.87
-9.17
-17.21
-25.22
-31.71
-36.18
-39.14
-41.42
-43.44
-44.78
-44.24
-40.53
-33.09
-22.64
-10.98
-0.2
8.09
13.2
15.39
15.56
14.57
12.68
9.72
5.67
1.24
-2.19
-3.11
-0.83
3.94
9.23
12.94
13.98
12.92
11.5
11.33
12.92
15.33
16.94
16.55
14.25
11.27
8.87
7.43
6.41
5.1
3.37
1.91
1.75
3.38
6.12
8.41
8.74
6.57
2.61
-1.86
-5.66
-8.29
-9.96
-11.14
-12.17
-12.86
-12.82
-11.86
-10.32
-8.92
-8.39
-9.05
-10.5
-11.91
-12.33
-11.37
-9.35
-7.03
-5.09
-3.7
-2.36
-0.22
3.31
8.1
13.33
17.98
21.47
23.93
25.94
27.84
29.32
29.42
27.38
23.33
18.54
14.79
13.34
14.12
15.81
16.75
16.11
14.43
13.17
13.61
15.88
18.79
20.51
19.71
16.38
11.74
7.55
5.13
4.84
6.08
7.83
9.19
9.76
9.63
9.22
8.96
9.16
10.02
11.67
14.12
17.15
20.01
21.43
20.08
15.28
7.63
-1.09
-8.7
-13.75
-16.15
-17.06
-17.88
-19.28
-20.74
-20.99
-19.12
-15.25
-10.61
-6.87
-5.19
-5.79
-8.08
-11.29
-15.02
-19.19
-23.79
-28.21
-31.4
-32.03
-29.46
-24.11
-17.39
-10.84
-5.39
-1.32
1.62
3.56
4.26
3.29
0.53
-3.41
-7.43
-10.57
-12.44
-13.34
-13.9
-14.52
-15.27
-16.04
-16.99
-18.72
-21.74
-25.89
-30.07
-32.74
-32.82
-30.19
-26.08
-22.1
-19.68
-19.13
-19.86
-20.84
-21.26
-20.89
-19.84
-18.52
-17.09
-15.42
-13.24
-10.28
-6.32
-1.18
5.25
12.86
21.06
28.85
34.87
37.93
37.52
34.09
28.97
23.8
19.99
18.22
18.33
19.46
20.58
20.92
20.26
18.87
17.22
15.71
14.34
12.76
10.57
7.56
3.94
0.23
-2.97
-5.26
-6.62
-7.45
-8.27
-9.43
-10.93
-12.46
-13.63
-14.22
-14.37
-14.43
-14.77
-15.51
-16.46
-17.4
-18.2
-19.01
-20.14
-21.75
-23.59
-25.09
-25.53
-24.58
-22.41
-19.55
-16.6
-13.77
-10.63
-6.35
-0.14
8.31
18.47
29.01
38.26
44.72
47.59
46.94
43.55
38.62
33.4
28.97
26.06
24.94
25.41
26.86
28.5
29.6
29.79
29.06
27.68
25.92
23.91
21.58
18.94
16.09
13.32
10.99
9.29
8.17
7.41
6.7
5.79
4.59
3.16
1.68
0.39
-0.51
-0.85
-0.62
0.1
1.06
1.93
2.24
1.48
-0.79
-4.91
-10.81
-17.92
-25.2
-31.29
-34.85
-35.09
-31.94
-26.09
-18.67
-10.8
-3.2
3.92
10.71
17.33
23.63
29.17
33.35
35.76
36.48
35.87
34.4
32.43
30.1
27.56
25.09
23.32
22.84
23.95
26.41
29.44
32.04
33.3
32.81
30.59
27.09
22.86
18.59
14.77
11.67
9.2
6.98
4.54
1.58
-1.79
-5.16
-7.9
-9.58
-10.06
-9.76
-9.55
-10.4
-13.16
-18.11
-24.78
-32.11
-38.76
-43.6
-46.09
-46.37
-45.06
-42.92
-40.46
-37.91
-35.29
-32.55
-29.73
-26.83
-23.83
-20.7
-17.57
-14.74
-12.72
-11.91
-12.45
-14.1
-16.27
-18.28
-19.53
-19.71
-18.78
-16.79
-13.91
-10.34
-6.47
-2.87
-0.2
1.02
0.72
-0.65
-2.33
-3.59
-4.07
-4.03
-4.08
-4.89
-6.82
-9.66
-12.88
-15.87
-18.3
-20.25
-22.05
-23.99
-26.01
-27.74
-28.71
-28.77
-28.2
-27.66
-27.68
-28.27
-28.95
-28.97
-27.79
-25.33
-21.84
-17.54
-12.39
-6.17
1.22
9.35
17.24
23.7
27.85
29.44
28.85
26.83
24.14
21.45
19.19
17.75
17.39
18.19
19.92
21.94
23.42
23.51
21.65
17.62
11.69
4.52
-2.93
-9.55
-14.27
-16.32
-15.4
-11.8
-6.41
-0.48
4.6
7.74
8.4
6.76
3.48
-0.6
-4.69
-8.29
-11.05
-12.7
-12.99
-11.71
-9.02
-5.55
-2.28
-0.02
1.01
1.29
1.61
2.32
3.01
2.61
0.18
-4.25
-9.31
-12.88
-13.12
-9.51
-3.07
4.29
10.92
16.13
20.18
23.61
26.51
28.41
28.73
27.36
24.97
22.71
21.66
22.26
24.13
26.32
27.82
27.98
26.62
24
20.57
16.85
13.4
10.75
9.24
8.91
9.44
10.31
10.99
11.14
10.68
9.71
8.39
6.77
4.76
2.31
-0.52
-3.55
-6.52
-9.24
-11.61
-13.51
-14.65
-14.53
-12.73
-9.23
-4.75
-0.54
2
1.98
-0.66
-5.08
-9.97
-13.98
-16.06
-15.64
-12.62
-7.31
-0.46
6.98
14.06
20.14
25.07
29.13
32.72
36.01
38.74
40.28
39.95
37.51
33.32
28.24
23.18
18.69
14.71
10.74
6.25
1.22
-3.82
-7.93
-10.32
-10.83
-10.01
-8.83
-8.15
-8.34
-9.18
-10.21
-11
-11.46
-11.84
-12.59
-14.14
-16.7
-20.12
-23.96
-27.65
-30.76
-33.08
-34.58
-35.29
-35.25
-34.43
-32.96
-31.19
-29.67
-28.92
-29.22
-30.5
-32.28
-33.97
-35.06
-35.41
-35.05
-34.08
-32.52
-30.3
-27.32
-23.51
-18.92
-13.71
-8.26
-2.94
1.85
5.68
8.04
8.55
7.22
4.56
1.78
0.29
0.94
3.54
7.04
10.23
12.39
13.89
15.71
18.54
21.99
24.7
25.49
24.51
23.45
23.8
25.39
25.84
21.85
11.43
-4.32
-21.06
-33.3
-37.51
-34.22
-27.26
-21.34
-19.35
-21.08
-23.71
-24.08
-21.18
-16.56
-12.88
-11.99
-13.9
-16.93
-18.85
-18.39
-15.99
-13.63
-13.27
-15.41
-18.78
-21.29
-21.16
-17.48
-10.55
-1.54
8.22
17.77
26.35
33.08
36.94
37.42
34.81
30.08
24.85
20.92
19.68
21.45
25.43
30.22
34.3
36.4
36.02
33.65
30.49
27.73
25.89
24.71
23.41
21.24
18.03
14.39
11.34
9.61
9.15
9.19
8.66
6.77
3.43
-0.69
-4.66
-7.83
-10.15
-11.95
-13.61
-15.2
-16.48
-17
-16.69
-16
-15.76
-16.66
-18.73
-21.22
-22.91
-22.73
-20.25
-15.87
-10.5
-5.06
-0.14
4.13
7.91
11.59
15.57
20.12
25.13
30.17
34.47
37.18
37.73
36.13
33.09
29.69
26.94
25.34
24.8
24.87
24.96
24.83
24.46
23.96
23.21
21.86
19.39
15.58
10.81
6.01
2.38
0.8
1.31
3.17
5.11
6.06
5.65
4.34
3.23
3.57
6.09
10.82
16.94
22.97
27.32
28.71
26.71
21.94
15.69
9.39
4.08
0.24
-2.19
-3.35
-3.31
-2.08
0.11
2.6
4.5
5.05
4.09
2.09
-0.02
-1.44
-2.17
-2.9
-4.52
-7.46
-11.52
-15.95
-19.8
-22.37
-23.61
-23.69
-22.61
-20.2
-16.43
-11.86
-7.64
-5.19
-5.59
-8.69
-13.05
-16.73
-18.46
-18.45
-18.13
-19.32
-22.94
-28.46
-34.11
-37.94
-38.98
-37.59
-34.94
-32.15
-29.76
-27.74
-25.83
-24.06
-22.97
-23.23
-24.99
-27.61
-30.06
-31.43
-31.22
-29.47
-26.54
-22.68
-17.74
-11.3
-3.21
5.97
15.09
22.69
27.5
28.94
27.29
23.4
18.17
12.33
6.32
0.55
-4.57
-8.48
-10.61
-10.63
-8.77
-5.84
-2.97
-1.23
-1.26
-2.94
-5.39
-7.42
-8.14
-7.25
-5.2
-2.86
-1.2
-0.71
-1.36
-2.79
-4.55
-6.3
-7.83
-9.11
-10.24
-11.29
-12.23
-12.89
-13.01
-12.39
-11.09
-9.5
-8.2
-7.58
-7.65
-8.14
-8.73
-9.23
-9.57
-9.52
-8.5
-5.67
-0.42
7.05
15.51
23.09
28.27
30.36
29.92
28.43
27.43
27.99
30.52
34.74
39.77
44.24
46.43
44.72
38.11
26.97
13.19
-0.4
-11.16
-17.68
-20.19
-20.03
-18.77
-17.34
-15.89
-14.12
-11.96
-9.74
-8.07
-7.32
-7.39
-7.81
-8.06
-7.98
-7.73
-7.79
-8.57
-10.08
-12.13
-14.4
-16.45
-17.86
-18.34
-17.89
-16.89
-15.98
-15.82
-16.86
-19.09
-21.98
-24.79
-26.85
-27.73
-27.28
-25.54
-22.49
-17.95
-11.75
-3.94
4.84
13.52
20.82
25.79
28.12
28.14
26.61
24.31
21.87
19.71
18.17
17.54
18.02
19.62
22
24.58
26.76
28.19
28.73
28.48
27.59
26.17
24.31
22.15
19.9
17.83
16.22
15.31
15.2
15.8
16.77
17.56
17.5
16.17
13.62
10.44
7.56
5.92
6.03
7.78
10.67
13.9
16.72
18.37
18.18
15.68
10.89
4.55
-1.92
-6.81
-8.84
-7.77
-4.46
-0.39
3.01
5.09
6.05
6.53
7.16
8.2
9.5
10.75
11.68
12.13
11.92
10.74
8.27
4.39
-0.61
-5.94
-10.61
-13.78
-15.08
-14.66
-12.99
-10.63
-8.03
-5.58
-3.72
-2.97
-3.75
-6.11
-9.47
-12.79
-14.93
-15.21
-13.71
-11.21
-8.8
-7.34
-7.19
-8.13
-9.77
-11.81
-14.11
-16.75
-19.72
-22.97
-26.23
-29.12
-31.3
-32.62
-33.3
-33.85
-34.89
-36.74
-39.16
-41.39
-42.45
-41.78
-39.45
-36.02
-32.02
-27.56
-22.29
-15.86
-8.44
-0.99
5.29
9.67
12.31
14.15
16.17
18.77
21.58
23.8
24.95
25.27
25.54
26.61
28.9
32.15
35.63
38.49
39.93
39.36
36.36
30.76
22.85
13.43
3.72
-4.94
-11.59
-15.96
-18.58
-20.58
-23.27
-27.51
-33.37
-40.12
-46.43
-50.85
-52.27
-50.26
-45.17
-38.09
-30.48
-23.87
-19.35
-17.26
-16.97
-17.11
-16.01
-12.34
-5.58
3.78
14.43
24.79
33.49
39.74
43.53
45.56
46.89
48.58
51.29
54.98
58.95
62.2
63.74
63.03
60.05
55.25
49.26
42.66
35.97
29.76
24.73
21.68
21.22
23.38
27.52
32.41
36.7
39.2
39.25
36.59
31.06
22.5
10.66
-4.5
-22.48
-42.07
-61.48
-78.63
-91.63
-99.12
-100.31
-95.15
-84.17
-68.43
-49.57
-29.57
-10.63
5.23
16.54
22.72
24.17
22.22
18.63
15.07
12.66
11.77
12.05
12.68
12.58
10.79
6.67
0.23
-7.77
-15.93
-22.59
-26.31
-26.34
-22.79
-16.53
-8.84
-0.93
6.39
12.85
18.67
24.26
29.92
35.66
41.12
45.67
48.75
50.07
49.72
48.12
45.82
43.32
40.98
38.97
37.38
36.17
35.14
33.83
31.67
28.03
22.61
15.49
7.3
-0.97
-8.16
-13.17
-15.15
-13.73
-9.27
-2.83
3.83
8.74
10.4
8.39
3.48
-2.54
-7.82
-11.11
-12.29
-12.31
-12.54
-14.13
-17.54
-22.56
-28.53
-34.69
-40.4
-45.18
-48.58
-50.23
-49.93
-47.79
-44.27
-39.97
-35.42
-30.88
-26.22
-21.24
-15.84
-10.29
-5.21
-1.3
0.94
1.47
0.67
-0.77
-2.22
-3.4
-4.43
-5.65
-7.27
-9.21
-11.03
-12.22
-12.53
-12.19
-11.81
-12.01
-13.04
-14.7
-16.4
-17.58
-17.97
-17.7
-17.1
-16.49
-16.08
-15.92
-15.96
-16.24
-16.79
-17.61
-18.46
-18.97
-18.83
-18.02
-16.97
-16.35
-16.69
-18.01
-19.65
-20.67
-20.19
-18.05
-14.87
-11.71
-9.51
-8.52
-8.22
-7.59
-5.7
-2.13
2.9
8.73
14.54
19.67
23.65
26.29
27.47
27.14
25.46
22.84
20.05
17.88
16.9
17.06
17.72
17.96
17.03
14.77
11.57
8.06
4.63
1.24
-2.36
-6.3
-10.28
-13.59
-15.49
-15.55
-13.86
-10.98
-7.65
-4.51
-2.14
-0.82
-0.66
-1.54
-3.05
-4.51
-5.21
-4.67
-2.8
-0.09
2.76
5.06
6.41
6.69
5.95
4.27
1.71
-1.53
-5.01
-8.07
-9.98
-10.25
-8.85
-6.14
-2.59
1.46
5.82
10.2
14.09
16.75
17.57
16.46
13.89
10.77
7.98
6.09
5.24
5.37
6.43
8.47
11.48
15.22
19.18
22.77
25.57
27.43
28.46
28.88
28.87
28.67
28.58
28.95
30
31.6
33.09
33.56
32.2
28.87
24.37
20.16
17.88
18.46
21.69
26.19
30.03
31.54
29.86
25.13
18.18
10.17
2.24
-4.61
-9.52
-11.91
-11.62
-9.18
-5.65
-2.34
-0.19
0.6
0.49
0.15
-0.18
-0.82
-2.51
-5.74
-10.32
-15.4
-19.94
-23.29
-25.52
-27.23
-29.02
-31.01
-32.68
-33.21
-32.07
-29.51
-26.44
-24.1
-23.29
-23.97
-25.22
-25.68
-24.27
-20.73
-15.79
-10.68
-6.5
-3.74
-2.17
-1.24
-0.55
-0.16
-0.52
-2.13
-5.09
-9.05
-13.27
-17
-19.72
-21.32
-21.99
-22.04
-21.73
-21.14
-20.2
-18.72
-16.42
-13.08
-8.52
-2.71
4.25
11.89
19.39
25.62
29.45
30.1
27.43
22
14.9
7.34
0.36
-5.34
-9.36
-11.59
-12.1
-11.18
-9.35
-7.2
-5.33
-4.12
-3.64
-3.71
-4.03
-4.3
-4.41
-4.22
-3.66
-2.68
-1.38
-0.01
1.06
1.46
1.18
0.42
-0.41
-1.05
-1.47
-1.85
-2.45
-3.41
-4.74
-6.2
-7.5
-8.4
-8.69
-8.17
-6.96
-5.59
-5.07
-6.53
-10.78
-17.88
-26.91
-36.21
-43.82
-48.03
-47.89
-43.26
-34.86
-23.96
-12.12
-0.73
9.14
16.87
22.18
25.16
26.12
25.62
24.41
23.34
23.11
24.15
26.17
28.44
30.01
30.09
28.46
25.62
22.46
19.89
18.36
17.66
17.19
16.4
15.11
13.49
11.91
10.52
9.15
7.54
5.57
3.56
2.05
1.46
1.82
2.75
3.68
4.28
4.55
4.7
4.92
5.14
4.96
3.97
1.92
-1.07
-4.58
-7.94
-10.56
-12.06
-12.37
-11.7
-10.37
-8.7
-6.9
-4.98
-2.65
0.45
4.69
10.04
15.91
21.22
24.73
25.59
23.82
20.38
16.76
14.47
14.26
16.05
19.18
22.91
26.87
31.13
35.87
40.91
45.73
49.37
50.98
50.2
47.35
43.33
39.25
35.97
33.75
32.23
30.62
28.13
24.28
19.14
13.23
7.27
1.91
-2.52
-5.96
-8.56
-10.54
-12.3
-14.33
-17.23
-21.36
-26.62
-32.29
-37.34
-40.81
-42.39
-42.39
-41.62
-40.7
-39.84
-38.67
-36.67
-33.5
-29.25
-24.36
-19.32
-14.5
-10.11
-6.3
-3.31
-1.49
-1.16
-2.39
-4.96
-8.31
-11.62
-14.14
-15.29
-14.95
-13.54
-11.81
-10.53
-10.13
-10.58
-11.46
-12.35
-13.05
-13.66
-14.33
-15.07
-15.65
-15.82
-15.47
-14.85
-14.47
-14.8
-15.97
-17.71
-19.51
-20.86
-21.54
-21.56
-21.14
-20.5
-19.72
-18.82
-17.81
-16.72
-15.66
-14.8
-14.32
-14.35
-14.91
-15.8
-16.63
-16.85
-15.97
-13.69
-10.04
-5.29
0.14
5.89
11.61
17
21.73
25.4
27.55
27.86
26.32
23.46
20.18
17.4
15.79
15.42
15.89
16.68
17.43
18.17
19.04
20.01
20.62
20.05
17.46
12.57
5.9
-1.35
-7.81
-12.5
-15.08
-15.79
-15.14
-13.6
-11.63
-9.57
-7.8
-6.68
-6.43
-7.01
-8.1
-9.27
-10.12
-10.52
-10.59
-10.61
-10.67
-10.73
-10.65
-10.34
-10.05
-10.16
-11.05
-12.78
-15.07
-17.32
-18.92
-19.37
-18.31
-15.46
-10.64
-3.93
4.14
12.51
19.77
24.76
26.9
26.39
24.04
20.88
17.88
15.7
14.64
14.69
15.55
16.76
17.91
18.94
20.1
21.72
23.84
26
27.36
27.26
25.7
23.37
21.27
20.06
19.69
19.5
18.73
17.11
15.01
13.13
12.04
11.8
12.06
12.31
12.25
12.03
12.1
12.81
14.06
15.18
15.02
12.56
7.49
0.53
-6.8
-12.75
-16.17
-16.84
-15.38
-12.66
-9.29
-5.43
-0.93
4.18
9.56
14.6
18.69
21.51
23.04
23.46
22.87
21.33
18.8
15.34
11.32
7.38
4.23
2.46
2.25
3.38
5.35
7.49
9.27
10.27
10.24
8.98
6.32
2.18
-3.31
-9.69
-16.31
-22.47
-27.62
-31.51
-34.12
-35.63
-36.38
-36.65
-36.63
-36.42
-36.12
-35.87
-36.03
-36.92
-38.73
-41.14
-43.45
-44.7
-44.15
-41.57
-37.38
-32.6
-28.26
-25.06
-22.9
-20.95
-18.06
-13.37
-6.86
0.57
7.47
12.54
15.11
15.41
14.24
12.49
10.69
8.93
7.09
5.17
3.51
2.65
3.1
4.95
7.82
10.89
13.26
14.28
13.68
11.73
8.9
5.75
2.72
0.04
-2.2
-3.98
-5.28
-6.07
-6.44
-6.59
-6.87
-7.67
-9.2
-11.37
-13.77
-15.73
-16.61
-16.06
-14.28
-11.85
-9.51
-7.69
-6.47
-5.63
-4.96
-4.51
-4.54
-5.23
-6.29
-6.87
-5.85
-2.33
3.8
11.65
19.63
26.02
29.61
30.04
27.77
23.81
19.23
14.91
11.3
8.51
6.44
5
4.21
4.13
4.75
5.82
6.92
7.6
7.59
7
6.1
5.15
4.1
2.68
0.72
-1.54
-3.38
-3.92
-2.69
0.01
3.18
5.53
6.07
4.56
1.59
-1.79
-4.58
-6.24
-6.88
-7.02
-7.28
-8.06
-9.43
-11.2
-13.08
-14.79
-16.1
-16.89
-17.05
-16.58
-15.46
-13.57
-10.64
-6.26
-0.13
7.62
16.14
23.92
29.4
31.61
30.58
27.26
23.02
19.09
16.13
14.19
13.09
12.6
12.6
13.06
13.92
15.05
16.33
17.57
18.56
19.1
18.97
18.12
16.71
15.09
13.77
13.07
13.09
13.62
14.36
15
15.42
15.73
16.12
16.77
17.72
19.01
20.62
22.5
24.32
25.53
25.29
22.83
17.86
10.75
2.59
-5.2
-11.3
-14.9
-15.87
-14.66
-12.05
-8.68
-5.12
-1.65
1.52
4.3
6.67
8.62
10.05
10.72
10.3
8.39
4.8
-0.25
-6.02
-11.42
-15.34
-17.11
-16.63
-14.29
-10.7
-6.26
-1.2
4.36
10.12
15.48
19.64
21.95
22.24
20.96
18.95
17
15.49
14.23
12.8
10.97
9.09
8.07
8.77
11.4
14.94
17.47
17
12.57
4.89
-3.84
-10.9
-14.3
-13.49
-9.51
-4.17
0.96
5.1
8.44
11.5
14.66
17.78
20.35
21.94
22.45
22.09
21.21
20
18.42
16.41
14.02
11.59
9.53
8.09
7.38
7.39
8.12
9.51
11.2
12.18
10.88
5.83
-3.6
-16.66
-31.44
-45.79
-58.27
-68.64
-77.37
-84.91
-91.25
-96.04
-99.18
-101.23
-103.16
-105.6
-107.98
-108.56
-105.3
-97.18
-85.25
-72.24
-61.27
-54.18
-50.57
-48.29
-44.77
-38.49
-29.6
-19.56
-9.99
-1.55
6.22
14.4
23.59
33.23
41.72
47.24
48.81
46.8
42.71
38.44
35.38
33.99
33.79
33.74
32.96
31.01
28.06
24.64
21.3
18.4
16
13.94
12.02
10.09
8.09
6.01
3.83
1.52
-0.81
-2.97
-4.76
-6.06
-6.98
-7.83
-8.93
-10.43
-12.18
-13.77
-14.85
-15.28
-14.99
-13.99
-12.15
-9.13
-4.72
1.01
7.7
14.69
21.12
25.95
28
26.16
19.79
9.42
-2.92
-13.96
-20.3
-19.92
-13.13
-2.47
8.54
16.97
21.52
22.68
21.76
20.05
18.2
16.37
14.57
13.08
12.31
12.55
13.72
15.25
16.29
16.19
14.65
11.81
8.26
5.04
3.19
3.37
5.52
8.7
11.48
12.51
11.19
7.94
3.89
0.24
-2.38
-4.06
-5.45
-7.16
-9.42
-11.91
-14.15
-15.79
-16.95
-17.98
-19.18
-20.55
-21.82
-22.69
-23.14
-23.48
-24.19
-25.54
-27.33
-28.88
-29.38
-28.22
-25.18
-20.63
-15.21
-9.65
-4.41
0.45
5.31
10.68
17.01
24.17
31.38
37.48
41.35
42.54
41.42
38.96
36.15
33.62
31.44
29.41
27.5
26.04
25.64
26.79
29.48
33.15
36.84
39.63
40.92
40.65
39.13
36.91
34.56
32.54
31
29.81
28.55
26.73
24.04
20.39
16.09
11.51
7.05
3.05
-0.21
-2.38
-3.33
-3.28
-3.06
-4
-7.34
-13.57
-22.01
-31.02
-38.63
-43.48
-45.2
-44.36
-41.95
-38.77
-35.25
-31.61
-28.09
-24.98
-22.51
-20.67
-19.16
-17.67
-16.16
-14.84
-14.03
-13.88
-14.21
-14.67
-14.95
-14.91
-14.56
-13.9
-12.89
-11.43
-9.56
-7.57
-5.93
-4.96
-4.78
-5.23
-6.04
-7.12
-8.5
-10.29
-12.5
-15.03
-17.71
-20.51
-23.53
-26.84
-30.38
-33.77
-36.48
-37.97
-37.99
-36.78
-34.9
-33.04
-31.66
-30.81
-30.15
-29.19
-27.52
-25.04
-21.9
-18.54
-15.49
-13.2
-11.94
-11.61
-11.85
-12.08
-11.78
-10.65
-8.73
-6.39
-4.13
-2.38
-1.29
-0.67
-0.12
1.05
3.55
7.92
14.28
22.15
30.47
37.77
42.73
44.56
43.36
39.92
35.51
31.27
27.98
25.85
24.65
23.97
23.34
22.45
21.12
19.36
17.2
14.67
11.81
8.8
5.87
3.38
1.58
0.42
-0.35
-1.12
-2.16
-3.39
-4.44
-4.94
-4.78
-4.4
-4.56
-5.85
-8.22
-11.02
-13.2
-14.02
-13.29
-11.52
-9.44
-7.58
-6
-4.45
-2.69
-0.88
0.44
0.7
-0.25
-1.72
-2.37
-0.69
4.22
12.25
22.22
32.33
40.88
46.78
49.65
49.64
47.12
42.56
36.61
30.18
24.32
20
17.7
17.19
17.73
18.35
18.37
17.57
16.26
14.95
14.11
13.88
14.05
14.16
13.79
12.76
11.13
9.12
6.9
4.31
1.01
-3.26
-8.28
-13.29
-17.14
-18.85
-18.01
-15.07
-11.17
-7.78
-6.11
-6.73
-9.47
-13.4
-17.26
-19.96
-20.76
-19.54
-16.64
-12.63
-8.08
-3.34
1.38
6.02
10.6
15.2
19.88
24.56
28.94
32.49
34.64
35.04
33.76
31.3
28.41
25.72
23.59
22.08
21.04
20.27
19.71
19.44
19.59
20.28
21.45
22.87
24.12
24.56
23.65
21.08
17.02
12.08
7.09
2.82
-0.31
-2.29
-3.31
-3.6
-3.49
-3.48
-4.32
-6.87
-11.74
-18.82
-27.14
-35.05
-40.82
-43.4
-42.78
-39.92
-36.24
-33.03
-30.92
-29.79
-28.97
-27.53
-24.8
-20.63
-15.52
-10.48
-6.7
-5.1
-5.96
-8.7
-12.13
-14.96
-16.24
-15.81
-14.29
-12.55
-11.3
-10.78
-10.79
-11.01
-11.28
-11.61
-12.04
-12.47
-12.63
-12.31
-11.59
-10.91
-10.92
-12.09
-14.37
-17.17
-19.59
-20.85
-20.6
-19.02
-16.52
-13.53
-10.22
-6.62
-2.73
1.23
4.74
7.24
8.25
7.59
5.59
3.01
1.02
1.14
5
13.53
26.27
40.97
53.91
60.98
59.28
48.47
30.92
10.74
-7.87
-22.04
-30.78
-34.6
-34.65
-32.1
-27.85
-22.68
-17.42
-12.98
-10.09
-9.18
-10.15
-12.34
-14.81
-16.41
-16.24
-13.94
-9.76
-4.57
0.11
2.72
2.37
-0.87
-5.89
-10.86
-13.98
-14.18
-11.55
-7.17
-2.62
0.8
2.57
3.07
3.14
3.42
3.98
4.32
3.82
2.25
-0
-2.15
-3.31
-2.86
-0.58
3.34
8.38
13.72
18.44
21.72
23.07
22.51
20.43
17.48
14.31
11.5
9.53
8.78
9.4
11.13
13.19
14.43
13.85
11.15
6.99
2.77
0.05
-0.22
1.91
5.6
9.52
12.54
14.1
14.32
13.66
12.62
11.42
10.03
8.35
6.46
4.64
3.2
2.26
1.69
1.28
1.02
1.21
2.37
4.83
8.43
12.23
14.91
15.24
12.53
7.02
-0.35
-8.14
-14.85
-19.19
-20.43
-18.45
-13.77
-7.48
-0.84
5.05
9.7
13.28
16.43
19.78
23.51
27.11
29.59
30.02
28.08
24.22
19.49
14.9
11.04
7.84
4.91
1.98
-0.69
-2.51
-2.82
-1.43
1.27
4.46
7.26
9.06
9.61
8.92
6.99
3.77
-0.63
-5.91
-11.4
-16.3
-20.04
-22.47
-23.86
-24.63
-25.03
-25.02
-24.4
-23.11
-21.4
-19.78
-18.79
-18.7
-19.43
-20.68
-22.3
-24.31
-26.79
-29.66
-32.42
-34.27
-34.49
-32.88
-29.92
-26.58
-23.7
-21.53
-19.46
-16.45
-11.63
-4.85
3.14
11
17.41
21.58
23.38
23.3
21.98
19.96
17.53
14.75
11.75
8.83
6.52
5.33
5.55
7.02
9.05
10.81
11.63
11.38
10.51
9.69
9.39
9.62
9.91
9.72
8.81
7.28
5.58
4.14
3.15
2.58
2.26
2.14
2.22
2.57
3.14
3.77
4.19
4.16
3.44
1.88
-0.61
-3.94
-7.75
-11.54
-14.88
-17.63
-20.11
-22.85
-26.19
-30
-33.57
-35.97
-36.54
-35.34
-33.17
-31.19
-30.25
-30.46
-31.16
-31.22
-29.57
-25.69
-19.74
-12.37
-4.49
3.05
9.62
14.71
17.96
19.23
18.65
16.72
14.24
12.13
11.21
11.91
14.14
17.36
20.79
23.68
25.57
26.36
26.27
25.76
25.28
25.12
25.32
25.74
26.16
26.34
26.05
25.07
23.19
20.46
17.22
14.22
12.18
11.58
12.27
13.56
14.5
14.32
12.83
10.47
7.98
5.96
4.53
3.22
1.38
-1.38
-4.94
-8.61
-11.54
-13.15
-13.37
-12.62
-11.48
-10.3
-9.04
-7.49
-5.67
-4.08
-3.57
-4.89
-8.13
-12.47
-16.4
-18.35
-17.38
-13.53
-7.72
-1.39
4.2
8.38
11.26
13.46
15.9
19.24
23.7
28.9
34.02
38.18
40.73
41.51
40.87
39.36
37.48
35.54
33.57
31.59
29.8
28.47
27.79
27.53
27.02
25.41
22.1
17.09
10.99
4.68
-1.11
-5.99
-9.84
-12.63
-14.22
-14.47
-13.42
-11.58
-9.79
-8.96
-9.55
-11.41
-13.89
-16.31
-18.36
-20.22
-22.32
-24.93
-27.82
-30.32
-31.62
-31.32
-29.72
-27.73
-26.51
-26.96
-29.37
-33.42
-38.45
-43.63
-48.15
-51.24
-52.29
-51.04
-47.77
-43.3
-38.63
-34.54
-31.19
-28.14
-24.65
-20.25
-15.08
-9.89
-5.73
-3.46
-3.63
-6.36
-11.31
-17.68
-23.95
-28
-27.49
-20.94
-8.68
6.86
21.91
32.89
38
37.85
34.77
31.41
29.32
28.39
27.47
25.42
21.98
17.86
14.17
11.68
10.46
10.03
9.86
9.72
9.67
9.85
10.23
10.47
10.12
8.78
6.4
3.25
-0.16
-3.4
-6.29
-9.05
-12.1
-15.79
-20
-24.11
-27.23
-28.57
-27.89
-25.62
-22.65
-19.87
-17.81
-16.43
-15.32
-13.98
-12.13
-9.71
-6.49
-2.03
4.16
12.06
20.79
28.54
33.2
33.3
28.7
20.78
11.73
3.76
-1.77
-4.51
-4.89
-3.64
-1.36
1.52
4.72
7.88
10.63
12.65
13.68
13.68
12.79
11.44
10.29
9.87
10.32
11.34
12.22
12.21
10.91
8.48
5.55
2.85
0.99
0.17
0.34
1.28
2.73
4.45
6.18
7.57
8.18
7.63
5.73
2.58
-1.3
-5.17
-8.07
-9.27
-8.6
-6.59
-4.39
-3.27
-4.07
-6.93
-11.23
-15.98
-20.21
-23.16
-24.4
-23.62
-20.71
-15.89
-9.83
-3.61
1.69
5.46
7.94
10.1
13.06
17.3
22.3
26.74
29.22
28.99
26.28
22.18
18.06
15.01
13.56
13.81
15.56
18.67
22.96
28.14
33.68
38.8
42.74
44.97
45.35
44.17
41.97
39.37
36.82
34.55
32.61
30.85
29.13
27.24
24.95
22.05
18.55
14.78
11.46
9.37
9.01
10.19
11.99
12.96
11.67
7.29
-0.05
-9.4
-19.38
-28.75
-36.69
-42.76
-46.78
-48.61
-48.28
-45.98
-42.21
-37.64
-32.97
-28.73
-25.26
-22.78
-21.37
-21.08
-21.8
-23.22
-24.94
-26.55
-27.93
-29.13
-30.26
-31.16
-31.45
-30.65
-28.45
-24.86
-20.22
-15.06
-9.94
-5.44
-2.09
-0.28
-0.09
-1.29
-3.39
-5.94
-8.62
-11.18
-13.37
-14.79
-15.11
-14.35
-12.99
-11.96
-12.11
-13.65
-16.01
-18.06
-18.77
-17.71
-15.26
-12.26
-9.63
-8.01
-7.86
-9.49
-13.06
-18.23
-23.98
-28.79
-31.19
-30.49
-27.09
-22.16
-16.91
-11.83
-6.56
-0.35
7.07
15.18
22.71
28.37
31.34
31.61
29.79
26.67
22.89
18.88
14.99
11.55
8.89
7.31
6.88
7.43
8.49
9.36
9.28
7.71
4.61
0.6
-3.21
-5.75
-6.45
-5.57
-3.98
-2.73
-2.53
-3.46
-5.11
-6.91
-8.49
-9.86
-11.37
-13.19
-15.16
-16.79
-17.56
-17.36
-16.56
-15.77
-15.32
-14.95
-13.89
-11.43
-7.43
-2.72
1.31
3.34
2.77
-0.09
-4.11
-7.88
-10.11
-9.88
-6.69
-0.6
7.75
17.19
26.26
33.65
38.46
40.4
39.74
37.17
33.49
29.47
25.71
22.61
20.28
18.76
18.07
18.25
19.32
20.97
22.51
23.02
21.8
18.77
14.61
10.38
6.99
4.78
3.4
2.23
0.78
-1.01
-2.88
-4.48
-5.64
-6.34
-6.73
-6.84
-6.53
-5.67
-4.27
-2.55
-0.89
0.33
0.8
0.24
-1.65
-5.19
-10.38
-16.81
-23.47
-28.95
-32.01
-32.07
-29.5
-25.4
-20.97
-16.86
-12.89
-8.29
-2.31
5.27
13.94
22.78
30.86
37.57
42.65
45.99
47.42
46.69
43.83
39.3
34.21
29.98
27.73
27.81
29.65
32.17
34.35
35.78
36.72
37.73
39.06
40.4
40.98
40.04
37.38
33.37
28.79
24.36
20.56
17.55
15.25
13.45
11.75
9.72
7.09
4.01
1.07
-1.11
-2.48
-3.89
-6.72
-12.25
-20.81
-31.44
-42.38
-51.83
-58.75
-63.12
-65.47
-66.42
-66.24
-64.88
-62.21
-58.29
-53.32
-47.55
-41.14
-34.24
-27.17
-20.51
-14.97
-11.22
-9.49
-9.47
-10.36
-11.2
-11.17
-9.91
-7.56
-4.64
-1.78
0.53
2.22
3.55
4.97
6.85
9.2
11.68
13.74
14.89
14.95
13.99
12.34
10.31
8.22
6.3
4.84
4.08
4.18
5
6
6.39
5.48
2.99
-0.85
-5.44
-10.11
-14.4
-18.01
-20.83
-22.71
-23.71
-24.12
-24.5
-25.47
-27.36
-29.9
-32.27
-33.37
-32.36
-28.99
-23.56
-16.63
-8.73
-0.22
8.51
16.87
23.93
28.76
30.78
30.15
27.65
24.36
21.14
18.32
15.78
13.27
10.87
8.92
7.84
7.79
8.37
8.92
8.92
8.33
7.69
7.62
8.32
9.34
9.8
9.02
6.99
4.39
2.26
1.28
1.6
2.81
4.23
5.23
5.44
4.81
3.45
1.72
-0.01
-1.47
-2.54
-3.48
-4.66
-6.41
-8.67
-10.99
-12.73
-13.36
-12.68
-10.85
-8.4
-6.01
-4.28
-3.54
-3.7
-4.08
-3.72
-1.76
2.22
7.82
13.98
19.23
22.31
22.56
20.11
15.84
11
6.82
4.01
2.75
2.73
3.4
4.3
4.95
4.97
4.01
1.93
-0.91
-3.52
-4.68
-3.52
-0.13
4.42
8.65
11.62
13.35
14.62
16.32
18.58
20.53
20.96
19.23
15.83
12.21
9.94
9.72
11.05
12.61
13.16
12.33
10.78
9.68
9.97
11.7
14.04
15.78
15.97
14.44
11.65
8.36
5.18
2.43
0.13
-1.83
-3.6
-5.38
-7.45
-10.21
-13.88
-18.39
-23.29
-27.89
-31.61
-34.15
-35.45
-35.4
-33.74
-30.07
-24.22
-16.61
-8.17
-0
7.28
13.83
20.4
27.63
35.38
42.54
47.46
48.91
46.68
41.8
35.88
30.43
26.24
23.34
21.29
19.64
18.23
17.16
16.7
17.08
18.29
20.02
21.66
22.41
21.4
18.11
12.57
5.58
-1.59
-7.64
-11.75
-13.94
-14.9
-15.58
-16.65
-18.22
-20.01
-21.66
-23.09
-24.51
-26.2
-28.15
-29.92
-30.94
-30.93
-30.24
-29.73
-30.35
-32.51
-35.9
-39.59
-42.53
-44
-43.89
-42.48
-40.1
-36.92
-32.88
-27.89
-22.05
-15.65
-9.04
-2.57
3.53
8.97
13.29
15.86
16.08
13.69
9.05
3.12
-2.69
-7.05
-9.06
-8.48
-5.61
-1.19
3.98
9.15
13.7
17.17
19.25
19.78
18.78
16.44
13.12
9.27
5.36
1.8
-1.16
-3.44
-5.25
-6.96
-8.98
-11.63
-14.79
-18.03
-20.67
-22.3
-23.02
-23.47
-24.35
-25.92
-27.64
-28.38
-27
-23.13
-17.41
-11.32
-6.36
-3.38
-2.33
-2.55
-3.39
-4.77
-6.98
-10.22
-13.97
-17
-17.79
-15.33
-9.69
-2.09
5.65
11.82
15.46
16.46
15.29
12.59
8.85
4.43
-0.25
-4.63
-8
-9.79
-9.74
-8.04
-5.23
-2.07
0.78
2.93
4.36
5.39
6.4
7.68
9.21
10.75
11.86
12.24
11.82
10.84
9.8
9.18
9.28
10.08
11.34
12.82
14.44
16.23
18.03
19.39
19.48
17.58
13.57
8.25
3.14
-0.2
-0.87
0.8
3.47
5.44
5.47
3.21
-0.88
-5.98
-11.42
-16.7
-21.41
-24.86
-26.19
-24.67
-20.29
-13.94
-7.17
-1.49
2.36
4.71
6.64
9.18
12.67
16.51
19.69
21.5
21.97
21.77
21.68
22.13
22.93
23.74
24.49
25.74
28.32
32.76
38.75
45.08
50.18
52.9
53.06
51.35
48.79
46.07
43.25
40.01
36.18
32.05
28.18
25.01
22.49
20
16.96
13.27
9.49
6.59
5.18
5
4.94
3.41
-0.82
-8.05
-17.6
-28.02
-37.57
-44.71
-48.49
-48.81
-46.31
-42.21
-37.75
-33.85
-30.82
-28.39
-26.05
-23.31
-19.99
-16.24
-12.52
-9.42
-7.59
-7.54
-9.5
-13.28
-18.14
-22.97
-26.62
-28.32
-27.95
-25.92
-22.93
-19.64
-16.59
-14.16
-12.85
-13.16
-15.4
-19.32
-24.01
-28.11
-30.39
-30.37
-28.55
-26.18
-24.59
-24.38
-25.29
-26.22
-26
-23.96
-20.27
-15.73
-11.44
-8.21
-6.37
-5.87
-6.42
-7.83
-9.87
-12.21
-14.28
-15.31
-14.6
-11.74
-6.86
-0.46
6.75
14.06
20.85
26.61
30.9
33.29
33.55
31.67
28.21
24.17
20.83
19.21
19.63
21.51
23.56
24.36
23.02
19.59
14.86
9.89
5.44
1.65
-1.67
-4.62
-6.9
-8.03
-7.8
-6.64
-5.61
-5.84
-7.93
-11.32
-14.66
-16.25
-15.02
-11.04
-5.4
0.52
5.83
10.18
13.47
15.06
13.55
7.44
-3.7
-18.28
-32.83
-43.37
-47.22
-44.08
-35.87
-25.43
-14.9
-5.03
4.41
13.64
22.08
28.45
31.56
31.16
28.28
24.71
22.19
21.77
23.36
26.08
28.73
30.29
30.13
28.17
24.85
20.88
17.04
13.92
11.76
10.38
9.33
8.15
6.62
4.78
2.82
0.93
-0.92
-2.84
-4.97
-7.19
-9.11
-10.16
-9.93
-8.51
-6.66
-5.6
-6.5
-9.93
-15.45
-21.67
-26.79
-29.36
-28.85
-25.85
-21.55
-17.11
-12.98
-8.81
-3.82
2.55
10.21
18.42
26.15
32.55
37.29
40.51
42.54
43.62
43.86
43.29
42.05
40.56
39.34
38.78
38.97
39.69
40.52
41.16
41.42
41.31
40.85
40.04
38.73
36.8
34.16
30.8
26.78
22.16
17.04
11.55
5.92
0.46
-4.51
-8.63
-11.63
-13.43
-14.17
-14.39
-14.86
-16.43
-19.73
-24.87
-31.4
-38.44
-44.86
-49.63
-52.15
-52.31
-50.46
-47.16
-42.9
-37.94
-32.28
-25.81
-18.54
-10.79
-3.27
3.05
7.28
8.93
8.11
5.57
2.41
-0.34
-2.03
-2.58
-2.36
-1.84
-1.36
-0.98
-0.63
-0.24
0.11
0.25
0.07
-0.43
-1.14
-1.94
-2.77
-3.65
-4.64
-5.82
-7.37
-9.51
-12.42
-15.96
-19.61
-22.61
-24.37
-24.9
-24.88
-25.25
-26.7
-29.1
-31.62
-33.06
-32.63
-30.32
-26.89
-23.43
-20.8
-19.2
-18.22
-17
-14.71
-10.94
-5.85
-0.09
5.47
10.09
13.36
15.24
15.82
15.39
14.34
13.24
12.7
13.12
14.47
16.16
17.41
17.65
16.86
15.53
14.25
13.27
12.36
11.05
9.17
7.13
5.75
5.74
7.17
9.32
11.08
11.57
10.69
9.03
7.48
6.62
6.42
6.28
5.44
3.35
-0.07
-4.34
-8.79
-12.82
-16.1
-18.58
-20.31
-21.27
-21.37
-20.64
-19.43
-18.34
-17.93
-18.54
-20.01
-21.89
-23.61
-24.67
-24.7
-23.32
-20.06
-14.53
-6.79
2.27
10.99
17.47
20.5
20.15
17.69
14.9
13.2
13.08
14.22
15.96
17.84
19.73
21.72
23.76
25.55
26.66
26.79
25.95
24.52
22.94
21.5
20.18
18.81
17.21
15.37
13.42
11.45
9.54
7.67
5.93
4.49
3.49
2.94
2.59
2.2
1.65
1.01
0.56
0.42
0.41
0.04
-1.23
-3.62
-6.76
-9.78
-11.69
-11.76
-9.85
-6.44
-2.53
0.63
1.93
0.72
-2.94
-8.18
-13.54
-17.49
-18.87
-17.31
-13.2
-7.47
-1.22
4.61
9.52
13.47
16.76
19.93
23.44
27.45
31.71
35.65
38.54
39.79
39.15
36.79
33.29
29.48
26.21
24.09
23.2
23.22
23.58
23.78
23.7
23.49
23.31
23.1
22.43
20.74
17.75
13.7
9.37
5.57
2.7
0.6
-1.3
-3.62
-6.55
-9.88
-13.17
-16.06
-18.51
-20.63
-22.46
-23.81
-24.39
-24.06
-23.25
-22.96
-24.42
-28.48
-34.99
-42.74
-49.95
-55.06
-57.3
-57.01
-55.19
-52.83
-50.47
-47.97
-44.89
-40.82
-35.59
-29.4
-22.68
-16.08
-10.33
-6.26
-4.55
-5.42
-8.45
-12.54
-16.37
-18.81
-19.4
-18.27
-16.06
-13.38
-10.67
-8.04
-5.39
-2.63
0.21
2.98
5.53
7.79
9.8
11.52
12.7
12.88
11.72
9.27
6.23
3.82
3.26
5.21
9.39
14.71
19.7
23.18
24.58
24.04
22.01
19
15.22
10.83
6.04
1.38
-2.46
-4.81
-5.44
-4.66
-3.26
-2.21
-2.22
-3.48
-5.55
-7.61
-8.77
-8.36
-6.09
-2.03
3.55
10.02
16.52
21.93
25.12
25.29
22.26
16.61
9.56
2.55
-3.25
-7.34
-10.06
-12.37
-15.4
-19.94
-26.13
-33.42
-40.75
-46.9
-50.86
-52.1
-50.45
-45.93
-38.61
-28.6
-16.39
-3.07
9.74
20.32
27.63
31.71
33.62
34.73
35.86
36.87
36.86
34.88
30.72
25.13
19.5
15.03
12.17
10.63
9.74
8.92
8.02
7.18
6.68
6.75
7.37
8.39
9.41
9.97
9.65
8.25
5.75
2.33
-1.72
-6.13
-10.53
-14.47
-17.33
-18.58
-18.01
-16
-13.37
-10.99
-9.19
-7.63
-5.55
-2.37
1.78
6
9.1
10.34
9.86
8.56
7.46
7.2
7.74
8.64
9.63
10.89
12.98
16.27
20.51
24.88
28.35
30.26
30.64
30.06
29.23
28.54
27.91
27.06
25.86
24.49
23.34
22.74
22.67
22.69
22.18
20.62
17.88
14.32
10.6
7.43
5.26
4.12
3.62
3.34
3.14
3.33
4.47
6.8
9.91
12.51
12.89
9.75
2.88
-6.52
-16.33
-24.43
-29.67
-32.17
-33.06
-33.65
-34.59
-35.65
-35.93
-34.5
-31.02
-26.03
-20.61
-15.86
-12.42
-10.17
-8.63
-7.41
-6.72
-7.22
-9.52
-13.57
-18.24
-21.74
-22.48
-20.09
-15.63
-11.07
-8.12
-7.24
-7.55
-7.54
-6.28
-4.02
-1.94
-1.21
-2.16
-3.98
-5.31
-5.17
-3.49
-1.22
0.42
0.56
-0.78
-2.9
-4.98
-6.44
-7.31
-8
-9.05
-10.7
-12.72
-14.4
-14.93
-13.81
-11.29
-8.3
-6.04
-5.29
-5.97
-7.19
-7.85
-7.27
-5.61
-3.76
-2.75
-3.18
-4.85
-6.95
-8.24
-7.5
-3.89
2.94
12.69
24.11
35.16
43.34
46.46
43.56
35.2
23.35
10.62
-0.68
-9.19
-14.46
-16.62
-16.05
-13.25
-8.91
-3.97
0.58
4.01
6.17
7.36
7.97
8.09
7.34
5.32
2.19
-1.18
-3.64
-4.4
-3.52
-1.98
-0.98
-1.13
-2.11
-3.03
-3.08
-2.12
-0.73
0.18
-0.1
-1.77
-4.46
-7.56
-10.46
-12.73
-14.1
-14.44
-13.72
-12.09
-9.86
-7.42
-5.16
-3.5
-2.77
-3.19
-4.68
-6.78
-8.75
-9.83
-9.68
-8.58
-7.23
-6.39
-6.39
-6.93
-7.34
-6.99
-5.62
-3.26
-0.01
4.21
9.53
15.78
22.22
27.54
30.43
30.13
26.84
21.62
15.96
11.24
8.44
8.02
9.89
13.48
17.86
21.91
24.68
25.74
25.22
23.68
21.64
19.46
17.3
15.27
13.57
12.53
12.44
13.43
15.36
17.87
20.61
23.3
25.78
28.03
30.08
32.05
34.02
35.86
37.19
37.59
36.82
35.1
33.04
31.4
30.59
30.44
30.23
29.02
26.01
20.87
13.72
5.14
-4.08
-13
-20.73
-26.62
-30.43
-32.39
-33.08
-33.09
-32.74
-31.96
-30.45
-28.01
-24.71
-21.01
-17.57
-14.88
-13.15
-12.34
-12.41
-13.45
-15.65
-18.93
-22.63
-25.63
-26.74
-25.4
-21.97
-17.64
-13.78
-11.38
-10.66
-11.32
-12.94
-15.28
-18.26
-21.68
-25.03
-27.53
-28.5
-27.74
-25.79
-23.6
-22.14
-21.86
-22.47
-23.24
-23.35
-22.41
-20.62
-18.65
-17.28
-16.96
-17.59
-18.65
-19.52
-19.83
-19.61
-19.15
-18.78
-18.68
-18.82
-19.12
-19.54
-20.12
-20.87
-21.77
-22.63
-23.17
-23.02
-21.73
-18.77
-13.72
-6.57
2.03
10.82
18.26
23.24
25.46
25.48
24.26
22.6
20.79
18.75
16.46
14.29
12.8
12.46
13.16
14.24
14.97
15.03
14.77
14.8
15.48
16.45
16.82
15.78
13.21
9.81
6.75
4.92
4.4
4.6
4.75
4.47
3.95
3.76
4.31
5.5
6.68
7.07
6.14
3.88
0.72
-2.75
-6.09
-9.08
-11.78
-14.33
-16.83
-19.2
-21.18
-22.3
-22.16
-20.67
-18.16
-15.27
-12.66
-10.59
-8.9
-7.17
-5.12
-2.83
-0.68
1.03
2.45
4.26
7.25
11.8
17.44
23.09
27.56
30.21
31.11
30.92
30.35
29.73
29.1
28.3
27.34
26.44
25.93
26.07
26.76
27.61
28.12
27.97
27.14
25.93
24.76
23.92
23.49
23.16
22.41
20.75
18.02
14.58
11.19
8.67
7.57
7.9
9.2
10.74
11.83
12.01
11.16
9.49
7.52
5.95
5.5
6.57
9.06
12.15
14.55
14.94
12.55
7.6
1.08
-5.67
-11.59
-16.13
-19.18
-20.68
-20.37
-17.91
-13.18
-6.61
0.97
8.55
15.5
21.66
27.15
31.86
35.19
36.23
34.3
29.51
22.89
15.97
10
5.35
1.55
-2.27
-6.47
-10.65
-13.73
-14.77
-13.59
-10.98
-8.34
-6.89
-7.11
-8.69
-10.94
-13.17
-14.95
-16.09
-16.61
-16.75
-16.94
-17.75
-19.46
-21.67
-23.26
-23.03
-20.51
-16.51
-12.94
-11.82
-14.15
-19.35
-25.7
-31.32
-35.08
-37
-37.83
-38.43
-39.21
-40.06
-40.61
-40.45
-39.24
-36.73
-32.61
-26.71
-19.25
-10.95
-2.96
3.45
7.42
8.75
7.94
5.91
3.6
1.69
0.5
0.06
0.24
0.94
2.05
3.45
4.97
6.38
7.43
7.9
7.67
6.76
5.28
3.47
1.75
0.63
0.49
1.35
2.83
4.25
4.95
4.56
3.01
0.48
-2.83
-6.81
-11.32
-16.05
-20.33
-23.29
-24.35
-23.57
-21.85
-20.55
-20.72
-22.54
-25.22
-27.53
-28.5
-27.92
-26.31
-24.41
-22.46
-19.94
-15.89
-9.63
-1.43
7.55
15.61
21.4
24.46
25.23
24.68
23.62
22.4
20.96
19.15
17.12
15.37
14.54
14.96
16.38
17.92
18.56
17.56
14.97
11.43
7.91
5.07
3.06
1.49
0.04
-1.04
-1.11
0.33
2.98
5.48
6.16
3.96
-0.69
-5.95
-9.53
-9.94
-7.35
-3.24
0.37
1.96
1.13
-1.48
-4.71
-7.63
-9.77
-11.09
-11.83
-12.33
-12.87
-13.62
-14.49
-15.2
-15.54
-15.55
-15.49
-15.68
-16.15
-16.45
-15.78
-13.5
-9.45
-4.08
1.7
6.97
11.06
13.72
15.05
15.15
13.96
11.26
6.99
1.58
-3.99
-8.26
-9.78
-7.72
-2.3
5.18
12.81
18.64
21.5
21.33
19.18
16.63
15.11
15.3
16.95
19.04
20.39
20.28
18.95
17.52
17.4
19.56
23.84
29
33.41
35.79
35.92
34.52
32.75
31.33
30.4
29.56
28.58
27.73
27.65
28.75
30.58
31.61
29.94
24.19
14.46
2.29
-9.89
-19.8
-26.09
-28.6
-28.21
-26.38
-24.58
-23.77
-24.04
-24.57
-24
-21.06
-15.52
-8.39
-1.61
2.89
4.21
2.81
0.05
-2.75
-4.91
-6.52
-7.83
-8.7
-8.59
-6.9
-3.5
1.03
5.71
9.86
13.31
16.37
19.28
21.66
22.6
21.14
17.16
11.65
6.42
3.05
2.06
2.57
2.78
1.13
-2.74
-7.72
-11.96
-14.11
-14.09
-13.05
-12.39
-12.95
-14.44
-15.98
-16.87
-17.3
-18.1
-20.14
-23.52
-27.41
-30.52
-31.82
-31.06
-28.77
-25.72
-22.43
-18.89
-14.72
-9.37
-2.55
5.64
14.37
22.26
27.76
29.73
28.15
23.94
18.65
13.49
8.85
4.45
-0.06
-4.45
-7.75
-8.81
-7.1
-3.09
1.72
5.86
8.37
9.19
8.78
7.59
5.76
3.26
0.27
-2.74
-5.08
-6.2
-5.95
-4.53
-2.46
-0.19
1.97
4.02
6.09
8.25
10.37
11.96
12.43
11.21
8.1
3.45
-2.09
-7.85
-13.5
-19.18
-25.07
-31.04
-36.4
-40.22
-41.98
-41.95
-41.09
-40.37
-40.08
-39.76
-38.7
-36.55
-33.64
-30.65
-28.01
-25.46
-22.26
-17.82
-12.04
-5.45
1.32
7.8
13.87
19.45
24.31
27.9
29.7
29.62
28.16
26.27
24.94
24.81
26.06
28.39
31.1
33.29
34.09
33.03
30.39
27.17
24.62
23.62
24.09
25.08
25.43
24.42
22.17
19.5
17.31
15.96
15.16
14.22
12.65
10.47
8.13
6.13
4.66
3.46
2.1
0.31
-1.78
-3.64
-4.55
-4.01
-2.08
0.5
2.44
2.41
-0.32
-5.37
-11.33
-16.27
-18.68
-18.16
-15.42
-11.76
-8.28
-5.26
-2.26
1.4
6.02
11.42
16.98
21.99
25.74
27.63
27.25
24.56
20.04
14.73
9.85
6.19
3.81
2.15
0.65
-0.7
-1.32
-0.49
2.1
5.96
10.06
13.52
15.98
17.68
18.96
19.74
19.49
17.52
13.49
7.7
0.88
-6.13
-12.8
-18.76
-23.75
-27.24
-28.62
-27.43
-23.8
-18.53
-12.97
-8.52
-6.25
-6.73
-9.99
-15.41
-21.85
-27.72
-31.5
-32.42
-30.87
-28.37
-26.71
-26.75
-27.67
-27.35
-23.65
-15.83
-5.28
5.14
12.57
15.69
15.02
12.21
8.72
5.09
1.05
-3.65
-8.56
-12.56
-14.49
-13.97
-11.59
-8.44
-5.48
-3.07
-1.15
0.34
1.11
0.69
-1.15
-4.06
-7.09
-9.24
-10.02
-9.67
-8.92
-8.44
-8.35
-8.33
-7.92
-7.08
-6.31
-6.36
-7.6
-9.66
-11.5
-12.05
-10.84
-8.43
-6.04
-4.99
-6
-8.9
-12.92
-17.06
-20.51
-22.86
-23.93
-23.71
-22.15
-19.03
-14.13
-7.46
0.46
8.54
15.34
19.69
21.23
20.55
18.9
17.35
16.14
14.77
12.49
9.14
5.45
2.64
1.64
2.43
4.1
5.52
5.96
5.44
4.52
3.78
3.51
3.69
4.13
4.62
4.96
4.9
4.22
3
1.75
1.27
2.22
4.74
8.24
11.72
14.2
15.09
14.3
12.08
8.84
5.07
1.42
-1.43
-2.87
-2.7
-1.32
0.36
1.22
0.46
-2.17
-6.27
-10.98
-15.28
-18.17
-18.93
-17.31
-13.62
-8.65
-3.38
1.35
5.34
8.92
12.75
17.17
21.94
26.2
29.01
29.86
28.89
26.76
24.12
21.41
18.86
16.83
15.91
16.74
19.54
23.77
28.22
31.68
33.51
33.99
33.84
33.51
32.73
30.79
27.27
22.61
18.08
15
13.83
13.8
13.43
11.49
7.87
3.66
0.41
-0.89
-0.35
0.99
1.92
1.8
0.81
-0.69
-2.62
-5.6
-10.55
-17.93
-27.18
-36.58
-43.98
-47.8
-47.73
-44.88
-41.02
-37.63
-35.27
-33.57
-31.72
-29.1
-25.48
-20.89
-15.45
-9.25
-2.64
3.48
7.8
9.16
7.23
2.88
-2.2
-6.28
-8.4
-8.56
-7.39
-5.51
-3.18
-0.46
2.37
4.6
5.4
4.37
1.95
-0.8
-2.72
-3.3
-2.91
-2.37
-2.38
-3
-3.8
-4.23
-4.17
-3.99
-4.32
-5.62
-7.87
-10.76
-14.04
-17.63
-21.58
-25.66
-29.21
-31.22
-30.87
-28.08
-23.75
-19.34
-16.22
-14.91
-14.98
-15.38
-15.17
-14.04
-12.29
-10.53
-8.98
-7.34
-4.8
-0.54
5.67
13.29
21.05
27.48
31.4
32.29
30.4
26.57
21.9
17.42
13.84
11.38
9.87
8.88
8.04
7.19
6.44
6.01
5.94
6.12
6.14
5.63
4.41
2.57
0.46
-1.53
-3.09
-4.14
-4.75
-5.14
-5.4
-5.51
-5.3
-4.46
-2.79
-0.33
2.47
4.86
6.01
5.44
3.22
-0.09
-3.67
-6.92
-9.53
-11.43
-12.58
-12.96
-12.5
-11.34
-9.89
-8.82
-8.88
-10.53
-13.75
-17.97
-22.11
-25
-25.67
-23.65
-19.15
-13.02
-6.3
0.15
6.01
11.49
16.95
22.43
27.48
31.19
32.76
31.93
29.2
25.65
22.53
20.73
20.53
21.69
23.62
25.71
27.51
28.72
29.19
28.93
28.09
26.97
25.9
25.18
24.92
24.99
25.05
24.76
23.99
22.84
21.63
20.7
20.28
20.33
20.64
20.9
20.92
20.73
20.55
20.79
21.81
23.6
25.56
26.53
25.07
20.14
11.63
0.6
-10.99
-20.92
-27.5
-30.04
-28.83
-24.96
-19.74
-14.46
-9.91
-6.26
-2.92
1.19
7.16
15.41
25.2
34.68
41.52
43.94
41.38
34.91
26.84
19.99
16.92
19.04
25.7
33.65
37.32
30.44
8.69
-27.5
-72.1
-114.65
-144.02
-153.05
-141.38
-115.47
-85.33
-59.57
-41.92
-31.07
-23.49
-17.13
-13.42
-16.31
-29.35
-53
-83.93
-116.77
-146.88
-171.65
-190.11
-200.78
-200.38
-185.07
-154.01
-112.59
-72.74
-48.84
-50.99
-79.69
-124.85
-169.51
-197.51
-199.93
-177.78
-140
-97.71
-58.64
-24.82
6.06
37.21
68.46
95.94
114.63
122.03
120.22
114.91
111.96
114
120.17
126.78
130.45
130.56
129.52
131.15
138.46
152.7
174.09
203.83
242.9
290.42
341.94
389.43
423.85
438.73
432.83
404.04
355.57
293.2
223.26
150.97
80.18
14.09
-44.2
-91.8
-126.95
-149.1
-160.11
-163.43
-162.79
-160.92
-158.93
-156.47
-152.71
-147.14
-139.35
-129.83
-119.71
-110.24
-102.24
-95.72
-90.1
-84.62
-78.77
-72.14
-64.85
-57.44
-50.52
-44.52
-39.43
-34.97
-30.74
-26.5
-22.05
-17.42
-12.85
-8.57
-4.72
-1.28
1.86
4.86
7.78
10.69
13.6
16.42
19.08
21.51
23.65
25.38
26.57
27.12
26.94
26
24.36
22.1
19.14
15.59
11.5
6.88
1.89
-3.22
-8.07
-12.23
-15.34
-17.2
-17.8
-17.37
-16.29
-14.91
-13.43
-11.94
-10.35
-8.53
-6.5
-4.49
-2.96
-2.39
-3
-4.54
-6.43
-7.77
-7.72
-6.05
-3.35
-0.96
-0.39
-2.59
-7.47
-14.14
-20.77
-25.63
-28.05
-28.83
-30.11
-34.22
-42.39
-54.07
-67.38
-79.3
-87.29
-90.48
-90.26
-89.51
-91.36
-97.64
-108.72
-124.49
-143.61
-163.67
-180.78
-190.07
-187.46
-172.43
-149.59
-124.76
-108.82
-110.2
-129.74
-159.43
-186.03
-197.9
-190.42
-166.63
-134.6
-103.07
-76.47
-54.58
-34.93
-16.06
0.93
13.27
20.43
24.22
27.75
34.42
45.9
61.48
78.22
92.1
99.64
101.99
102.56
105.11
112.2
124.14
139.53
156.15
172.07
186.56
204.1
230.52
270.44
325.29
392.85
468.56
547.34
624.94
676.14
682.61
638.13
552.84
447.23
340.82
245.21
163.99
96.02
38.65
-6.8
-38.27
-54.86
-58.16
-51.81
-39.93
-26.32
-14.86
-10.13
-14.33
-28.51
-51.63
-80.28
-109.2
-132.74
-147.04
-151.61
-149.65
-143.72
-135.18
-124.17
-110.59
-94.97
-78.78
-63.94
-52
-43.24
-36.16
-28.27
-17.35
-2.52
15.38
34.41
52.44
68.08
81.08
91.98
102.06
112.5
123.64
134.78
144.33
150.2
149.95
146.19
140.05
132.68
125.07
117.86
111.17
104.85
98.58
92.23
86.02
79.75
73.59
67.78
62.45
57.6
53.09
48.8
44.67
40.86
37.09
33.3
29.53
25.81
22.16
18.64
15.28
12.17
9.49
7.05
4.8
2.72
0.82
-0.89
-2.39
-3.65
-4.62
-5.23
-5.59
-5.76
-5.77
-5.66
-5.47
-5.22
-4.94
-4.66
-4.41
-4.27
-4.29
-4.5
-4.88
-5.4
-6
-6.65
-7.35
-8.12
-8.97
-9.96
-11.07
-12.28
-13.55
-14.8
-16
-17.15
-18.29
-19.51
-20.87
-22.41
-24.1
-25.8
-27.4
-28.85
-30.22
-31.71
-33.6
-36.12
-39.36
-43.18
-47.26
-51.23
-54.86
-58.19
-61.56
-65.47
-70.4
-76.56
-83.76
-91.47
-99.04
-106.65
-114.74
-123.73
-133.22
-143.51
-154.87
-167.25
-180.01
-192.24
-203.92
-215.41
-227.18
-239.11
-252.02
-267.17
