-159.47
-154.81
-138.73
-111.5
-75.86
-36.26
2.61
37.05
65.14
86.58
102.06
112.5
118.55
120.61
119.06
114.57
108.1
100.77
93.59
87.17
81.63
76.76
72.15
67.48
62.56
57.32
51.68
45.51
38.64
30.93
22.46
13.49
4.39
-4.55
-13.25
-21.84
-30.56
-39.53
-48.62
-57.45
-65.58
-72.73
-78.94
-84.72
-90.88
-98.4
-108.04
-119.9
-132.98
-144.93
-152.4
-151.74
-140.29
-117.35
-84.66
-46.03
-6.16
30.64
61.51
85.3
102.29
113.38
119.51
121.33
119.37
114.28
107.06
98.99
91.35
85.04
80.35
76.93
74.04
70.89
66.9
61.84
55.74
48.76
41.1
32.92
24.32
15.39
6.11
-3.62
-13.95
-24.89
-36.25
-47.58
-58.29
-67.91
-76.28
-83.66
-90.68
-98.21
-107.15
-118.25
-131.69
-146.65
-161
-171.36
-173.83
-165.12
-143.83
-111.14
-70.66
-27.34
14
49.93
78.97
101.26
117.82
129.72
137.65
141.89
142.61
140.26
135.57
129.48
122.86
116.27
109.9
103.7
97.57
91.42
85.21
78.83
72.01
64.32
55.36
45
33.47
21.4
9.49
-1.65
-11.9
-21.56
-31.21
-41.35
-52.09
-63.08
-73.61
-82.99
-90.94
-97.78
-104.4
-112.03
-121.77
-134.04
-148.09
-161.79
-171.8
-174.29
-166.12
-145.92
-114.73
-75.88
-33.98
6.37
41.81
70.73
93.1
109.79
121.81
129.87
134.35
135.54
133.92
130.3
125.6
120.64
115.85
111.21
106.44
101.3
95.74
90.01
84.42
79.07
73.68
67.68
60.48
51.78
41.87
31.49
21.6
12.94
5.73
-0.4
-6.24
-12.64
-20.05
-28.38
-36.98
-44.94
-51.54
-56.62
-60.61
-64.5
-69.42
-76.26
-85.34
-96.08
-106.94
-115.54
-119.14
-115.29
-102.73
-81.88
-54.92
-25.27
3.46
28.38
47.92
61.86
70.82
75.64
77
75.38
71.24
65.26
58.39
51.7
46.1
41.98
39.28
37.55
36.24
34.87
33.14
30.94
28.2
24.94
21.18
16.96
12.31
7.22
1.6
-4.66
-11.5
-18.72
-25.92
-32.71
-38.87
-44.52
-50.14
-56.3
-63.56
-72.25
-82.35
-93.41
-104.5
-114.15
-120.37
-121
-114.23
-99.27
-76.89
-49.41
-20.19
7.29
30.36
47.7
59.33
66.12
69.18
69.33
67.09
62.82
57.02
50.4
43.83
38.07
33.49
30.05
27.35
24.88
22.21
19.14
15.6
11.64
7.3
2.59
-2.46
-7.81
-13.39
-19.19
-25.25
-31.66
-38.53
-45.84
-53.37
-60.8
-67.76
-74.03
-79.65
-85.02
-90.83
-97.89
-106.87
-117.92
-130.21
-141.71
-149.41
-149.99
-140.86
-121.12
-92.03
-56.63
-18.94
17.29
49.35
75.91
96.76
112.27
122.98
129.34
131.78
130.84
127.2
121.7
115.12
108.08
100.97
94.02
87.34
81.07
75.31
70.07
65.14
60.06
54.24
47.2
38.76
29.21
19.17
9.26
-0.05
-8.7
-16.98
-25.33
-34.07
-43.2
-52.38
-61.12
-69.02
-76.07
-82.68
-89.7
-98.1
-108.6
-121.27
-135.12
-147.96
-156.6
-157.64
-148.37
-127.84
-97.28
-59.92
-20.09
17.97
51.17
77.98
98.24
112.61
121.89
126.68
127.38
124.47
118.65
110.96
102.6
94.58
87.56
81.69
76.73
72.28
67.96
63.55
58.88
53.86
48.35
42.2
35.41
28.04
20.31
12.44
4.54
-3.45
-11.62
-20.06
-28.66
-37.12
-45.01
-52
-58.04
-63.44
-68.9
-75.3
-83.38
-93.36
-104.47
-114.84
-121.61
-121.69
-112.69
-93.88
-66.54
-33.73
0.56
32.54
59.41
79.74
93.25
100.4
101.94
98.76
91.87
82.49
72.05
61.97
53.37
46.87
42.41
39.36
36.79
33.84
29.99
25.22
19.9
14.52
9.41
4.55
-0.49
-6.28
-13.28
-21.61
-30.9
-40.41
-49.35
-57.14
-63.66
-69.28
-74.78
-81.05
-88.88
-98.76
-110.56
-123.38
-135.32
-143.64
-145.24
-137.57
-119.46
-91.72
-57.09
-19.51
16.97
49.11
75.08
94.43
107.59
115.42
118.75
118.27
114.68
108.75
101.46
93.78
86.61
80.5
75.54
71.44
67.61
63.46
58.52
52.55
45.56
37.7
29.25
20.43
11.45
2.37
-6.91
-16.58
-26.81
-37.65
-48.88
-60.03
-70.61
-80.21
-88.79
-96.71
-104.65
-113.45
-123.94
-136.67
-151.49
-167.27
-181.58
-190.98
-191.78
-181.18
-158.43
-125.28
-85.63
-44.36
-5.82
27.2
53.83
74.68
90.91
103.55
113.09
119.68
123.45
124.84
124.61
123.6
122.49
121.56
120.7
119.65
118.19
116.25
113.86
111.01
107.37
102.43
95.58
86.48
75.33
62.82
49.9
37.4
25.67
14.48
3.18
-8.83
-21.85
-35.64
-49.5
-62.61
-74.4
-84.84
-94.51
-104.47
-116.06
-130.28
-147.23
-165.61
-182.5
-193.82
-195.38
-184.27
-159.99
-124.87
-83.4
-40.83
-1.69
31.27
57.26
76.8
90.96
100.65
106.47
108.94
108.7
106.72
103.99
101.36
99.2
97.43
95.74
93.84
91.64
89.25
86.81
84.23
81.14
76.98
71.22
63.67
54.59
44.58
34.33
24.23
14.25
3.97
-7.14
-19.29
-32.22
-45.25
-57.5
-68.39
-77.84
-86.39
-95.06
-105.04
-117.43
-132.65
-150.03
-167.41
-181.22
-187.18
-181.56
-162.56
-131.17
-91.13
-47.76
-6.4
29.08
56.88
77.08
90.75
99.11
103.04
103.18
100.16
94.89
88.65
82.74
78.21
75.44
74.19
73.75
73.26
72.05
69.8
66.44
62.08
56.82
50.8
44.07
36.75
28.91
20.52
11.48
1.64
-9.06
-20.44
-32.1
-43.52
-54.3
-64.37
-74.03
-84.01
-95.23
-108.64
-124.88
-143.8
-163.9
-182.18
-194.53
-196.69
-185.79
-161.46
-126.25
-84.92
-42.97
-4.92
26.72
51.54
70.52
85.02
95.94
103.6
108.06
109.52
108.64
106.37
103.67
101.19
99.13
97.37
95.7
94.02
92.35
90.67
88.78
86.17
82.23
76.43
68.62
59.13
48.58
37.61
26.58
15.43
3.79
-8.71
-22.16
-36.24
-50.27
-63.48
-75.4
-86.08
-96.15
-106.82
-119.42
-134.87
-153.03
-172.15
-188.91
-199.01
-198.54
-185.26
-159.52
-124.23
-83.92
-43.35
-6.24
25.33
50.83
70.66
85.53
96.16
103.13
107.08
108.7
108.73
107.83
106.48
104.96
103.44
102.06
100.99
100.34
100.15
100.19
100.06
99.14
96.84
92.77
86.9
79.56
71.36
62.9
54.55
46.29
37.74
28.36
17.74
5.85
-6.91
-19.85
-32.23
-43.61
-54.09
-64.37
-75.64
-89.15
-105.63
-124.57
-143.9
-160.1
-169.14
-167.69
-154.38
-130.19
-98.17
-62.35
-26.56
6.4
34.99
58.61
77.2
90.85
99.74
104.28
105.17
103.4
100.05
96.2
92.67
89.92
88.08
86.93
86.1
85.2
83.9
81.97
79.22
75.53
70.79
64.98
58.13
50.33
41.65
32.15
21.9
11.01
-0.31
-11.74
-22.88
-33.35
-42.88
-51.38
-59.07
-66.53
-74.63
-84.33
-96.14
-109.56
-122.77
-132.68
-135.75
-129.14
-111.79
-84.96
-51.93
-16.96
15.92
43.94
65.92
81.91
92.58
98.68
100.73
99.27
95.02
89.13
83
77.94
74.75
73.45
73.41
73.6
73.12
71.45
68.62
64.99
61
56.87
52.42
47.2
40.54
31.96
21.28
8.85
-4.56
-17.93
-30.28
-41.05
-50.2
-58.27
-66.2
-75.12
-86.13
-99.91
-116.37
-134.21
-150.82
-162.6
-165.84
-157.97
-138.48
-109.29
-74.24
-37.83
-3.97
24.91
47.99
65.53
78.28
86.91
91.87
93.6
92.68
89.96
86.44
83.04
80.41
78.8
78.1
77.94
77.92
77.65
76.81
75.15
72.46
68.56
63.35
56.81
49.02
40.14
30.32
19.67
8.27
-3.69
-15.93
-28
-39.39
-49.72
-58.89
-67.19
-75.31
-84.25
-95.1
-108.67
-125.02
-142.87
-159.51
-171.14
-173.87
-165.03
-144.2
-113.52
-76.97
-39.19
-4.08
25.98
50.21
69.01
83.29
93.91
101.55
106.66
109.63
110.79
110.55
109.26
107.31
104.97
102.47
100
97.73
95.86
94.52
93.57
92.55
90.69
87.15
81.44
73.63
64.35
54.57
45.02
35.95
26.98
17.38
6.56
-5.63
-18.72
-31.83
-44.05
-54.85
-64.27
-73
-82.12
-92.95
-106.52
-123.09
-141.62
-159.48
-172.77
-177.26
-169.8
-149.58
-118.63
-81.25
-42.67
-7.46
21.62
43.79
59.75
70.73
77.84
81.82
83.16
82.42
80.26
77.5
74.8
72.55
70.85
69.54
68.47
67.57
66.91
66.5
66.2
65.57
63.97
60.76
55.55
48.32
39.44
29.55
19.26
8.97
-1.23
-11.55
-22.26
-33.46
-44.94
-56.16
-66.49
-75.46
-83.12
-90.08
-97.51
-106.78
-118.93
-134
-150.57
-165.67
-175.3
-175.62
-164.22
-141.16
-109.08
-72.4
-35.91
-3.38
23.22
43.64
58.68
69.29
76.14
79.48
79.52
76.8
72.29
67.29
63.04
60.34
59.29
59.37
59.72
59.55
58.46
56.49
53.99
51.31
48.55
45.43
41.49
36.16
29.09
20.27
10.02
-1.08
-12.39
-23.32
-33.56
-43.03
-51.97
-60.82
-70.22
-80.94
-93.67
-108.71
-125.41
-141.86
-154.91
-160.94
-156.93
-141.63
-116.15
-83.73
-48.69
-15.16
14.01
37.54
55.48
68.62
77.79
83.67
86.68
87.25
85.88
83.19
79.9
76.7
74.07
72.31
71.46
71.38
71.81
72.4
72.75
72.4
70.93
67.98
63.39
57.24
49.8
41.47
32.52
23.03
12.87
1.82
-10.21
-23.05
-36.26
-49.23
-61.53
-73.02
-84.05
-95.46
-108.38
-123.74
-141.7
-161.02
-178.83
-191.14
-193.9
-184.43
-162.49
-130.43
-92.47
-53.31
-16.8
14.82
40.88
61.74
78.1
90.63
99.82
106.1
109.98
112.01
112.66
112.26
110.97
108.81
105.84
102.29
98.54
95.09
92.26
90.06
87.99
85.18
80.72
74.08
65.35
55.28
44.88
35.01
25.92
17.16
7.89
-2.66
-14.71
-27.8
-40.98
-53.22
-63.92
-73.12
-81.56
-90.44
-101.17
-114.88
-131.95
-151.38
-170.57
-185.57
-192.06
-186.78
-168.78
-139.92
-104.32
-67
-32.32
-2.95
20.31
38
51.13
60.59
66.86
70.3
71.32
70.64
69.16
67.77
67.13
67.46
68.57
70
71.24
71.89
71.79
70.92
69.35
67.04
63.79
59.26
53.03
44.78
34.41
22.21
8.85
-4.79
-17.85
-29.77
-40.48
-50.38
-60.12
-70.42
-81.93
-95.16
-110.24
-126.73
-143.14
-156.9
-164.75
-163.58
-151.63
-129.29
-99.15
-65.19
-31.49
-1.05
24.74
45.86
62.88
76.3
86.18
92.3
94.62
93.57
90.1
85.43
80.68
76.53
73.21
70.55
68.22
65.87
63.29
60.33
56.88
52.88
48.23
42.87
36.74
29.78
21.89
12.99
3
-7.97
-19.66
-31.66
-43.5
-54.84
-65.61
-76.1
-86.92
-98.94
-113.03
-129.68
-148.51
-167.91
-184.96
-195.98
-197.54
-187.65
-166.51
-136.58
-101.77
-66.26
-33.3
-4.71
19.11
38.58
54.38
67.08
77
84.47
89.81
93.5
95.98
97.61
98.55
98.81
98.33
97.15
95.44
93.44
91.25
88.68
85.22
80.17
72.92
63.34
51.79
39.13
26.29
13.94
2.2
-9.33
-21.35
-34.45
-48.8
-64.04
-79.42
-94.18
-107.89
-120.7
-133.29
-146.77
-162.23
-180.31
-200.69
-221.69
-240.32
-252.75
-255.26
-245.44
-223
-189.9
-149.76
-106.61
-63.83
-23.42
13.86
47.94
78.83
106.18
129.39
147.93
161.68
171.01
176.69
179.51
180.07
178.68
175.58
171.06
165.68
160.14
155.08
150.78
147
143.03
137.92
130.94
121.88
111.14
99.62
88.29
77.83
68.33
59.33
50.04
39.82
28.4
16.04
3.34
-9
-20.51
-31.15
-41.32
-51.77
-63.45
-77.25
-93.56
-111.86
-130.42
-146.3
-156.03
-156.56
-146.29
-125.74
-97.39
-64.92
-32.12
-1.94
24.02
45.3
62.25
75.37
85.09
91.68
95.39
96.65
96.1
94.51
92.66
91.09
90.08
89.62
89.52
89.49
89.21
88.4
86.77
84.12
80.36
75.55
69.85
63.46
56.44
48.74
40.18
30.73
20.53
10
-0.31
-9.9
-18.55
-26.42
-33.97
-41.87
-50.87
-61.57
-74.17
-88.24
-102.38
-114.31
-121.19
-120.4
-110.39
-91.32
-65.1
-34.88
-4.17
24.09
48.06
67.12
81.47
91.69
98.37
102.05
103.21
102.46
100.52
98.12
95.83
94
92.69
91.81
91.28
90.99
90.81
90.54
89.83
88.26
85.49
81.4
76.09
69.87
63.09
55.98
48.6
40.82
32.48
23.41
13.55
2.91
-8.52
-20.79
-34.02
-48.44
-64.34
-82.05
-101.76
-123.19
-145.25
-165.83
-181.99
-190.62
-189.39
-177.56
-156.24
-128.16
-96.76
-65.29
-36.13
-10.56
11
28.67
42.73
53.42
61.04
65.94
68.64
69.76
69.87
69.45
68.73
67.75
66.52
65.08
63.58
62.2
60.99
59.75
58.01
55.21
50.92
45.02
37.8
29.78
21.54
13.44
5.49
-2.57
-11.11
-20.35
-30.2
-40.21
-49.74
-58.23
-65.49
-71.83
-78.06
-85.29
-94.53
-106.3
-120.16
-134.53
-146.8
-153.9
-153.21
-143.35
-124.77
-99.55
-70.75
-41.5
-14.21
9.79
30.1
46.81
60.15
70.28
77.4
81.82
84.1
84.91
84.87
84.4
83.65
82.58
81.14
79.4
77.59
76
74.83
74
73.12
71.58
68.8
64.4
58.35
50.99
42.88
34.63
26.67
19.09
11.7
4.09
-4.05
-12.81
-21.94
-30.98
-39.52
-47.37
-54.58
-61.46
-68.36
-75.56
-83.2
-91.15
-98.77
-104.83
-107.56
-105.11
-96.19
-80.82
-60.49
-37.89
-16.01
2.79
17.36
27.74
34.65
38.9
40.92
40.8
38.61
34.65
29.69
24.75
20.81
18.42
17.56
17.64
17.83
17.4
15.98
13.64
10.78
7.82
5.01
2.29
-0.64
-4.17
-8.58
-13.98
-20.21
-26.95
-33.8
-40.38
-46.45
-51.93
-57.01
-62.06
-67.68
-74.54
-83.12
-93.46
-104.82
-115.48
-123.02
-124.82
-118.92
-104.72
-83.33
-57.27
-29.69
-3.49
19.41
38.22
52.96
64.03
71.81
76.51
78.34
77.74
75.41
72.22
68.97
66.16
63.93
62.15
60.58
59.05
57.48
55.81
53.9
51.47
48.23
43.95
38.62
32.43
25.67
18.56
11.15
3.29
-5.29
-14.75
-24.99
-35.63
-46.08
-55.75
-64.32
-71.96
-79.32
-87.43
-97.32
-109.56
-123.77
-138.32
-150.47
-157.05
-155.3
-143.83
-123.11
-95.39
-63.96
-32.25
-3
22.12
42.49
58.18
69.59
77.24
81.69
83.56
83.5
82.14
79.97
77.33
74.43
71.41
68.42
65.62
63.14
61.03
59.17
57.27
54.9
51.59
47.03
41.14
34.15
26.52
18.78
11.28
4.08
-3.08
-10.56
-18.64
-27.35
-36.41
-45.35
-53.8
-61.66
-69.23
-77.14
-86.23
-97.26
-110.48
-125.26
-139.86
-151.61
-157.44
-154.87
-142.83
-122.12
-95.18
-65.34
-35.82
-8.95
14.07
33.06
48.3
60.2
69.07
75.15
78.71
80.2
80.22
79.38
78.24
77.1
76.05
75.05
74.08
73.25
72.77
72.76
73.14
73.42
72.87
70.76
66.67
60.7
53.44
45.69
38.13
31.01
24.08
16.8
8.64
-0.57
-10.51
-20.44
-29.56
-37.3
-43.57
-48.82
-53.91
-59.83
-67.48
-77.3
-88.99
-101.27
-111.89
-118.04
-117.16
-107.75
-90.03
-65.98
-38.74
-11.63
12.73
32.97
48.87
60.94
69.83
76.01
79.69
81.08
80.55
78.73
76.41
74.31
72.87
72.11
71.78
71.47
70.84
69.75
68.21
66.32
64.14
61.59
58.44
54.37
49.1
42.51
34.75
26.23
17.55
9.26
1.71
-5
-11.1
-16.95
-23.04
-29.81
-37.69
-46.96
-57.56
-68.92
-79.69
-87.91
-91.41
-88.49
-78.55
-62.36
-41.91
-19.79
1.53
20.32
35.72
47.64
56.39
62.3
65.66
66.63
65.47
62.63
58.77
54.64
50.97
48.21
46.5
45.62
45.12
44.49
43.28
41.22
38.25
34.45
29.97
24.91
19.26
12.85
5.51
-2.91
-12.35
-22.54
-33.11
-43.63
-53.78
-63.46
-72.75
-81.91
-91.42
-101.81
-113.61
-126.96
-141.32
-155.18
-166.15
-171.54
-169.11
-157.98
-138.99
-114.46
-87.49
-60.93
-36.71
-15.61
2.48
18.02
31.39
42.67
51.74
58.48
63.04
65.75
67.14
67.7
67.77
67.53
67.12
66.66
66.27
66.01
65.79
65.3
64.16
61.97
58.53
53.91
48.46
42.59
36.63
30.66
24.52
17.94
10.72
2.9
-5.26
-13.36
-21.09
-28.38
-35.52
-43.08
-51.76
-62.13
-74.31
-87.69
-100.79
-111.36
-116.89
-115.24
-105.38
-87.79
-64.37
-37.88
-11.12
13.74
35.44
53.56
68.19
79.55
87.92
93.59
96.93
98.45
98.7
98.11
96.99
95.49
93.71
91.76
89.82
88.05
86.52
85.13
83.6
81.6
78.76
74.79
69.54
63.02
55.35
46.79
37.6
27.9
17.69
6.85
-4.69
-16.76
-28.9
-40.46
-50.82
-59.69
-67.22
-74.01
-80.88
-88.59
-97.48
-107.23
-116.72
-124.09
-127.2
-124.15
-113.91
-96.79
-74.38
-49.19
-23.95
-0.91
18.54
33.95
45.48
53.58
58.66
61.06
61.09
59.22
56.14
52.7
49.69
47.6
46.5
46.02
45.58
44.65
42.96
40.62
37.91
35.13
32.31
29.22
25.45
20.65
14.68
7.71
0.19
-7.42
-14.71
-21.47
-27.69
-33.54
-39.34
-45.46
-52.4
-60.59
-70.13
-80.54
-90.52
-98.1
-101.06
-97.59
-87
-69.96
-48.4
-24.88
-1.96
18.49
35.48
48.78
58.6
65.31
69.22
70.62
69.88
67.53
64.24
60.71
57.49
54.86
52.86
51.27
49.81
48.24
46.4
44.22
41.67
38.68
35.15
30.98
26.09
20.45
14.1
7.16
-0.25
-7.92
-15.68
-23.34
-30.72
-37.75
-44.44
-50.96
-57.65
-65.01
-73.53
-83.51
-94.67
-105.96
-115.52
-121.03
-120.34
-112.18
-96.69
-75.43
-50.91
-25.9
-2.68
17.4
33.88
46.95
57.05
64.56
69.77
72.92
74.28
74.23
73.19
71.57
69.62
67.47
65.16
62.78
60.49
58.44
56.65
54.88
52.71
49.66
45.42
40.07
33.99
27.67
21.44
15.35
9.17
2.63
-4.43
-11.88
-19.47
-26.89
-34
-40.8
-47.44
-54.15
-61.23
-69.1
-78.13
-88.37
-99.16
-108.88
-115.22
-115.75
-108.84
-94.38
-73.85
-49.9
-25.43
-2.77
16.75
32.79
45.57
55.51
62.89
67.92
70.81
71.89
71.55
70.24
68.31
66.06
63.64
61.23
58.98
56.99
55.31
53.88
52.5
50.86
48.6
45.39
41.03
35.59
29.38
22.9
16.65
10.93
5.66
0.45
-5.17
-11.51
-18.51
-25.69
-32.5
-38.47
-43.54
-48.08
-52.81
-58.59
-66.1
-75.56
-86.44
-97.27
-105.86
-109.76
-106.97
-96.72
-79.81
-58.37
-35.3
-13.31
5.73
21.04
32.69
41.21
47.11
50.7
52.16
51.71
49.8
47.04
44.12
41.6
39.69
38.34
37.23
36.02
34.49
32.59
30.43
28.14
25.78
23.29
20.43
16.89
12.4
6.84
0.37
-6.64
-13.69
-20.35
-26.36
-31.77
-36.88
-42.14
-48.06
-55.07
-63.38
-72.77
-82.37
-90.64
-95.53
-95.09
-88.08
-74.53
-55.82
-34.28
-12.51
7.39
24.21
37.57
47.67
54.83
59.3
61.22
60.82
58.51
54.99
51.09
47.58
45
43.43
42.58
41.9
40.82
38.98
36.32
33.06
29.5
25.89
22.21
18.29
13.8
8.46
2.18
-4.9
-12.49
-20.21
-27.74
-34.87
-41.59
-48
-54.4
-61.19
-68.88
-77.85
-88.13
-99.07
-109.18
-116.33
-118.21
-113.12
-100.56
-81.53
-58.25
-33.48
-9.74
11.22
28.63
42.48
53.15
61.09
66.7
70.32
72.25
72.85
72.42
71.24
69.5
67.36
64.94
62.41
59.9
57.5
55.15
52.68
49.88
46.53
42.51
37.84
32.6
26.93
20.88
14.48
7.69
0.5
-7.05
-14.81
-22.49
-29.81
-36.55
-42.69
-48.47
-54.4
-61.17
-69.38
-79.24
-90.26
-101.05
-109.49
-113.23
-110.36
-100.09
-83
-60.97
-36.59
-12.44
9.47
28.07
43.12
54.91
63.85
70.28
74.39
76.31
76.25
74.67
72.14
69.28
66.52
64
61.65
59.35
57.1
55.07
53.47
52.3
51.3
49.87
47.34
43.28
37.67
31.02
24.09
17.6
11.91
6.85
1.9
-3.57
-9.97
-17.24
-24.92
-32.34
-38.95
-44.51
-49.26
-53.78
-58.86
-65.22
-73.31
-82.96
-93.19
-102.22
-107.77
-107.6
-100.32
-85.92
-65.87
-42.71
-19.3
2.02
19.83
33.75
44.08
51.38
56.17
58.79
59.47
58.52
56.34
53.49
50.51
47.84
45.73
44.18
43.03
42.02
40.88
39.42
37.51
35.14
32.29
28.99
25.21
20.87
15.88
10.17
3.78
-3.11
-10.19
-17.15
-23.71
-29.76
-35.34
-40.64
-46
-51.83
-58.58
-66.59
-75.84
-85.73
-94.85
-101.19
-102.58
-97.44
-85.35
-67.32
-45.55
-22.72
-1.27
17.22
32.09
43.51
51.95
57.89
61.63
63.34
63.2
61.55
58.89
55.83
52.92
50.52
48.69
47.28
45.93
44.32
42.18
39.45
36.18
32.49
28.47
24.13
19.35
13.97
7.84
0.96
-6.48
-14.13
-21.61
-28.59
-35.02
-41.01
-46.83
-52.8
-59.2
-66.31
-74.47
-83.87
-94.33
-105.02
-114.18
-119.49
-118.64
-110.23
-94.43
-72.97
-48.71
-24.54
-2.65
15.95
31.3
43.9
54.26
62.56
68.76
72.79
74.78
75.07
74.14
72.44
70.28
67.82
65.2
62.57
60.08
57.9
56.02
54.27
52.27
49.55
45.71
40.62
34.52
27.93
21.47
15.5
10.01
4.57
-1.36
-8.21
-15.97
-24.23
-32.38
-39.87
-46.54
-52.63
-58.73
-65.57
-73.76
-83.46
-94.2
-104.68
-112.94
-116.75
-114.21
-104.45
-87.97
-66.56
-42.79
-19.24
2.11
20.21
34.82
46.25
54.99
61.43
65.84
68.37
69.19
68.54
66.74
64.2
61.33
58.48
55.92
53.82
52.2
50.95
49.8
48.41
46.38
43.44
39.52
34.73
29.37
23.76
18.08
12.39
6.57
0.46
-6.02
-12.81
-19.69
-26.36
-32.58
-38.23
-43.45
-48.68
-54.49
-61.46
-69.84
-79.21
-88.39
-95.44
-98.19
-94.86
-84.68
-68.31
-47.62
-25.19
-3.56
15.38
30.74
42.42
50.87
56.61
60.01
61.31
60.67
58.41
55.07
51.39
48.03
45.45
43.72
42.53
41.4
39.87
37.74
35.05
32.08
29.04
25.94
22.58
18.52
13.42
7.09
-0.28
-8.21
-16.12
-23.5
-30.18
-36.26
-42.1
-48.13
-54.77
-62.33
-70.99
-80.69
-90.89
-100.41
-107.45
-109.93
-106.11
-95.25
-77.97
-56.18
-32.49
-9.43
11.14
28.37
42.19
53
61.21
67.03
70.55
71.85
71.27
69.34
66.74
64.07
61.65
59.53
57.49
55.35
53
50.51
48
45.48
42.76
39.51
35.43
30.4
24.6
18.34
11.94
5.49
-1.17
-8.26
-15.92
-23.99
-32.05
-39.56
-46.15
-51.83
-57.04
-62.55
-69.24
-77.7
-87.97
-99.22
-109.71
-117.09
-118.93
-113.48
-100.33
-80.62
-56.74
-31.54
-7.54
13.7
31.62
46.36
58.29
67.62
74.39
78.61
80.48
80.44
79.12
77.14
74.9
72.58
70.13
67.48
64.65
61.83
59.29
57.2
55.56
54.01
51.98
48.87
44.3
38.36
31.52
24.55
18.07
12.35
7.21
2.11
-3.54
-10.11
-17.57
-25.55
-33.45
-40.76
-47.14
-52.67
-57.73
-62.95
-69.09
-76.76
-86.2
-96.92
-107.6
-116.13
-120.08
-117.43
-107.21
-89.95
-67.53
-42.62
-17.91
4.57
23.7
39.22
51.3
60.27
66.38
69.86
71.03
70.37
68.49
66.04
63.49
61.13
58.98
56.97
55
53.06
51.21
49.52
47.93
46.2
43.92
40.74
36.46
31.21
25.33
19.29
13.41
7.73
2.08
-3.84
-10.19
-16.86
-23.51
-29.67
-35.05
-39.65
-43.81
-48.15
-53.33
-59.89
-68.01
-77.25
-86.47
-93.89
-97.37
-95.07
-86.02
-70.57
-50.36
-27.87
-5.72
14
30.12
42.31
50.82
56.15
58.77
59.13
57.67
54.89
51.41
47.79
44.56
41.99
40.14
38.87
37.93
37.13
36.3
35.34
34.07
32.25
29.6
25.95
21.35
16.07
10.5
4.92
-0.6
-6.26
-12.31
-18.95
-26.11
-33.46
-40.58
-47.09
-52.88
-58.13
-63.35
-69.23
-76.45
-85.35
-95.55
-105.76
-113.83
-117.31
-114.12
-103.36
-85.61
-62.85
-37.78
-13.11
9.13
27.81
42.64
53.85
61.88
67.22
70.31
71.63
71.63
70.74
69.28
67.45
65.33
62.94
60.32
57.64
55.15
53.09
51.57
50.4
49.12
47.13
43.97
39.47
33.82
27.55
21.18
15.12
9.43
3.9
-1.86
-8.18
-15.22
-22.83
-30.63
-38.12
-44.88
-50.71
-55.8
-60.74
-66.37
-73.52
-82.61
-93.29
-104.23
-113.23
-117.77
-115.73
-106.1
-89.35
-67.33
-42.69
-18.08
4.41
23.61
39.17
51.25
60.19
66.32
69.95
71.42
71.18
69.79
67.81
65.72
63.79
62.02
60.26
58.35
56.23
54.05
52.07
50.46
49.15
47.73
45.58
42.15
37.24
31.08
24.32
17.7
11.71
6.46
1.6
-3.41
-9.04
-15.46
-22.45
-29.58
-36.33
-42.41
-47.76
-52.66
-57.56
-63.02
-69.57
-77.49
-86.59
-95.97
-103.93
-108.29
-106.98
-98.7
-83.52
-62.96
-39.52
-15.95
5.51
23.61
38.03
49.1
57.27
62.88
66.09
67.03
66.01
63.62
60.64
57.85
55.84
54.8
54.64
55.01
55.56
55.99
56.11
55.72
54.59
52.41
48.84
43.71
37.06
29.18
20.51
11.52
2.57
-6.13
-14.47
-22.37
-29.68
-36.3
-42.21
-47.61
-52.96
-58.89
-65.98
-74.42
-83.77
-92.81
-99.66
-102.23
-98.79
-88.61
-72.26
-51.51
-28.89
-6.95
12.32
27.84
39.4
47.35
52.19
54.39
54.34
52.48
49.41
45.87
42.64
40.22
38.79
38.12
37.79
37.35
36.53
35.23
33.45
31.23
28.56
25.42
21.75
17.49
12.52
6.74
0.1
-7.34
-15.28
-23.32
-31.01
-38.06
-44.45
-50.45
-56.5
-63.16
-70.94
-80.21
-90.94
-102.5
-113.46
-121.69
-124.8
-120.89
-109.2
-90.5
-66.92
-41.32
-16.4
5.9
24.61
39.62
51.26
59.91
65.88
69.45
70.89
70.63
69.16
66.99
64.57
62.19
60
58.06
56.28
54.55
52.68
50.5
47.87
44.72
40.99
36.73
31.93
26.58
20.6
13.91
6.48
-1.57
-9.92
-18.17
-25.94
-33.04
-39.56
-45.85
-52.48
-60.05
-69
-79.39
-90.63
-101.4
-109.65
-113.08
-109.76
-98.81
-80.87
-57.98
-33.02
-8.81
12.59
30.23
44.11
54.75
62.7
68.3
71.7
73.02
72.52
70.66
68.01
65.11
62.34
59.86
57.64
55.58
53.53
51.38
49.05
46.46
43.56
40.26
36.51
32.23
27.34
21.73
15.29
8.03
0.12
-8.09
-16.13
-23.58
-30.2
-36.09
-41.6
-47.29
-53.76
-61.51
-70.74
-81.08
-91.49
-100.19
-105.04
-104.02
-95.98
-81.07
-60.84
-37.79
-14.65
6.34
23.87
37.55
47.64
54.61
58.88
60.7
60.33
58.18
54.9
51.32
48.17
45.9
44.48
43.51
42.45
40.87
38.61
35.87
32.99
30.22
27.52
24.53
20.63
15.3
8.35
0.13
-8.57
-16.8
-23.87
-29.61
-34.45
-39.22
-44.81
-51.89
-60.69
-70.88
-81.54
-91.2
-97.93
-99.77
-95.21
-83.7
-65.98
-43.94
-20.18
2.7
22.76
38.97
51.23
60.04
66.08
69.95
72.03
72.55
71.75
69.97
67.66
65.25
63.04
61.09
59.3
57.55
55.72
53.83
51.82
49.58
46.86
43.4
39.03
33.82
27.97
21.76
15.37
8.79
1.95
-5.21
-12.64
-20.18
-27.6
-34.73
-41.48
-47.9
-54.16
-60.63
-67.84
-76.33
-86.31
-97.33
-107.89
-115.71
-118.19
-113.38
-100.67
-81.14
-57.23
-31.9
-7.77
13.51
31.39
46.08
58.08
67.7
74.99
79.86
82.31
82.62
81.38
79.29
76.98
74.81
72.84
70.98
69.11
67.2
65.36
63.67
62.12
60.46
58.28
55.12
50.68
44.93
38.19
31.03
24.06
17.73
12.15
7.07
1.99
-3.66
-10.22
-17.68
-25.65
-33.47
-40.52
-46.41
-51.22
-55.46
-59.94
-65.54
-72.96
-82.4
-93.37
-104.5
-113.69
-118.55
-116.95
-107.82
-91.53
-69.88
-45.56
-21.36
0.58
19.15
34.22
46.19
55.57
62.67
67.61
70.44
71.37
70.83
69.37
67.54
65.69
63.93
62.21
60.38
58.37
56.21
54.05
52.02
50.17
48.41
46.45
43.92
40.47
35.92
30.35
24.16
17.89
12.06
6.91
2.34
-2.04
-6.71
-11.98
-17.87
-24.07
-30.11
-35.61
-40.39
-44.57
-48.51
-52.71
-57.69
-63.9
-71.58
-80.47
-89.66
-97.51
-101.87
-100.73
-92.86
-78.41
-58.95
-37.02
-15.32
4.01
19.92
32.25
41.46
48.08
52.48
54.84
55.29
54.13
51.87
49.14
46.53
44.41
42.9
41.91
41.27
40.79
40.29
39.62
38.56
36.9
34.44
31.11
26.98
22.24
17.11
11.78
6.3
0.64
-5.28
-11.49
-17.87
-24.21
-30.22
-35.71
-40.64
-45.29
-50.19
-56.01
-63.27
-71.97
-81.34
-89.78
-95.21
-95.61
-89.73
-77.55
-60.29
-40.06
-19.21
0.28
17.13
30.8
41.26
48.82
53.85
56.72
57.84
57.57
56.3
54.44
52.33
50.25
48.35
46.66
45.16
43.83
42.65
41.62
40.65
39.46
37.65
34.82
30.79
25.66
19.85
13.93
8.33
3.24
-1.54
-6.41
-11.8
-17.97
-24.82
-32
-39
-45.4
-51
-56.02
-60.95
-66.53
-73.46
-82.12
-92.17
-102.39
-110.75
-114.87
-112.78
-103.6
-87.88
-67.53
-45.08
-22.98
-2.94
14.28
28.66
40.49
50.06
57.47
62.72
65.91
67.29
67.31
66.48
65.23
63.77
62.17
60.36
58.35
56.25
54.24
52.51
51.09
49.75
48.06
45.55
41.84
36.84
30.8
24.22
17.73
11.84
6.74
2.24
-2.17
-7.12
-13.09
-20.15
-27.98
-35.91
-43.29
-49.66
-55.04
-59.84
-64.79
-70.68
-78.12
-87.28
-97.71
-108.2
-116.85
-121.47
-120.13
-111.76
-96.6
-76.18
-52.91
-29.38
-7.75
10.71
25.6
37.19
45.97
52.43
56.89
59.58
60.73
60.7
59.88
58.66
57.26
55.71
53.95
52.01
50.03
48.29
46.97
46.05
45.17
43.8
41.45
37.89
33.3
28.06
22.62
17.25
11.91
6.39
0.42
-6.14
-13.16
-20.31
-27.2
-33.43
-38.86
-43.6
-48.06
-52.87
-58.72
-66.1
-74.97
-84.5
-93.01
-98.33
-98.33
-91.7
-78.41
-59.79
-38.14
-16
4.52
22.13
36.35
47.21
54.96
59.84
62.13
62.2
60.63
58.1
55.27
52.66
50.52
48.87
47.63
46.64
45.84
45.13
44.41
43.44
41.91
39.47
35.86
31.07
25.32
19.07
12.78
6.79
1.15
-4.36
-10.15
-16.54
-23.65
-31.29
-39.02
-46.39
-53.11
-59.16
-64.93
-71.04
-78.2
-86.93
-97.22
-108.24
-118.27
-125
-126.05
-119.78
-105.89
-85.61
-61.33
-35.88
-11.71
9.58
27.4
41.8
53.18
61.89
68.2
72.34
74.64
75.53
75.52
74.99
74.17
73.02
71.42
69.27
66.67
63.94
61.43
59.4
57.75
56.03
53.58
49.84
44.57
38.01
30.8
23.71
17.28
11.59
6.27
0.68
-5.74
-13.22
-21.52
-30.02
-38.03
-45.06
-51.04
-56.34
-61.73
-68.07
-76.1
-86.05
-97.3
-108.3
-116.73
-120.08
-116.41
-104.99
-86.67
-63.57
-38.49
-14.08
7.8
26.25
41.23
53.13
62.42
69.42
74.32
77.23
78.39
78.15
76.98
75.36
73.59
71.77
69.86
67.78
65.56
63.41
61.54
60.08
58.82
57.26
54.75
50.75
45.13
38.24
30.83
23.71
17.44
12.09
7.24
2.23
-3.56
-10.36
-17.95
-25.77
-33.16
-39.69
-45.23
-50.07
-54.76
-60.01
-66.5
-74.69
-84.51
-95.12
-104.81
-111.24
-112.1
-105.82
-92.21
-72.64
-49.57
-25.85
-3.85
15.01
30.28
42.16
51.07
57.35
61.23
62.95
62.89
61.59
59.66
57.62
55.76
54.14
52.66
51.25
49.89
48.68
47.66
46.75
45.68
44.07
41.57
38.02
33.51
28.32
22.82
17.29
11.88
6.51
1.02
-4.75
-10.86
-17.16
-23.32
-29.01
-33.99
-38.31
-42.45
-47.12
-53.1
-60.8
-69.95
-79.38
-87.18
-91.09
-89.24
-80.74
-66.07
-46.94
-25.75
-4.96
13.62
29.01
41
49.83
55.85
59.36
60.62
59.96
57.88
54.98
51.88
49.04
46.71
44.94
43.65
42.72
42
41.32
40.44
39.08
36.93
33.84
29.79
24.94
19.57
13.93
8.19
2.41
-3.48
-9.56
-15.88
-22.41
-29.03
-35.55
-41.82
-47.76
-53.48
-59.27
-65.66
-73.17
-82.11
-92.12
-102.02
-109.81
-113.13
-110.03
-99.67
-82.7
-61.17
-37.78
-15.15
4.91
21.61
35.04
45.68
54.06
60.5
65.1
67.95
69.23
69.24
68.37
66.95
65.2
63.19
60.96
58.61
56.3
54.22
52.41
50.75
48.88
46.33
42.73
37.97
32.26
26.11
20.06
14.5
9.53
4.84
-0.06
-5.65
-12.18
-19.54
-27.29
-34.82
-41.65
-47.6
-52.93
-58.31
-64.58
-72.4
-81.87
-92.16
-101.53
-107.66
-108.32
-102.14
-89.14
-70.7
-49.14
-26.99
-6.23
11.96
27.22
39.68
49.62
57.25
62.66
66
67.49
67.59
66.8
65.61
64.32
63.04
61.67
60.05
58.11
55.94
53.72
51.64
49.72
47.78
45.45
42.3
38.05
32.7
26.58
20.22
14.22
8.95
4.43
0.31
-3.98
-8.96
-14.87
-21.51
-28.41
-34.96
-40.73
-45.58
-49.77
-53.83
-58.49
-64.43
-72.11
-81.41
-91.45
-100.5
-106.37
-106.91
-100.79
-87.98
-69.81
-48.57
-26.82
-6.66
10.67
24.74
35.71
43.93
49.7
53.24
54.78
54.65
53.32
51.38
49.33
47.58
46.32
45.57
45.19
44.96
44.61
43.85
42.49
40.38
37.56
34.14
30.25
26.01
21.43
16.45
11.02
5.15
-1.02
-7.32
-13.52
-19.45
-24.99
-30.14
-35.03
-39.93
-45.28
-51.6
-59.25
-68.12
-77.37
-85.4
-90.14
-89.71
-83.05
-70.32
-52.89
-32.9
-12.6
6.17
22.27
35.26
45.16
52.24
56.85
59.38
60.2
59.7
58.25
56.22
53.93
51.67
49.63
47.89
46.48
45.33
44.31
43.3
42.11
40.49
38.19
34.98
30.76
25.63
19.87
13.9
8.08
2.58
-2.69
-8.05
-13.86
-20.3
-27.26
-34.36
-41.11
-47.17
-52.49
-57.42
-62.68
-69.06
-77.21
-87.18
-98.2
-108.53
-115.8
-117.62
-112.38
-99.87
-81.4
-59.37
-36.49
-14.94
4.03
20.16
33.72
45.09
54.43
61.66
66.69
69.6
70.78
70.76
70.09
69.1
67.87
66.29
64.3
61.95
59.48
57.21
55.32
53.77
52.25
50.29
47.45
43.45
38.31
32.3
25.91
19.63
13.83
8.61
3.78
-1.11
-6.55
-12.82
-19.85
-27.24
-34.37
-40.76
-46.27
-51.17
-56.13
-61.92
-69.21
-78.26
-88.73
-99.57
-108.94
-114.63
-114.58
-107.51
-93.5
-74
-51.46
-28.54
-7.33
11.04
26.38
39.06
49.52
58
64.51
68.94
71.34
71.97
71.29
69.87
68.16
66.46
64.83
63.19
61.44
59.54
57.6
55.77
54.13
52.56
50.75
48.26
44.74
40.06
34.38
28.16
21.88
16.02
10.77
6.08
1.63
-2.98
-8.1
-13.87
-20.15
-26.58
-32.74
-38.34
-43.28
-47.78
-52.18
-56.97
-62.61
-69.5
-77.74
-86.87
-95.71
-102.4
-104.79
-101.12
-90.73
-74.38
-54.05
-32.33
-11.58
6.6
21.55
33.32
42.28
48.78
53.04
55.22
55.59
54.57
52.73
50.63
48.74
47.3
46.33
45.7
45.19
44.57
43.67
42.34
40.5
38.09
35.08
31.49
27.38
22.8
17.75
12.2
6.17
-0.28
-6.96
-13.63
-20.05
-26.05
-31.54
-36.61
-41.45
-46.44
-52.1
-58.91
-67.15
-76.5
-85.84
-93.32
-96.78
-94.42
-85.46
-70.52
-51.4
-30.52
-10.2
7.94
23.11
35.26
44.66
51.62
56.38
59.15
60.2
59.91
58.74
57.13
55.42
53.82
52.41
51.22
50.21
49.28
48.29
47.08
45.37
42.92
39.55
35.22
30.08
24.43
18.59
12.83
7.19
1.54
-4.38
-10.78
-17.7
-24.96
-32.24
-39.14
-45.43
-51.05
-56.26
-61.54
-67.61
-75.1
-84.27
-94.61
-104.64
-112.1
-114.6
-110.36
-98.98
-81.53
-60.27
-37.88
-16.62
2.16
18.1
31.47
42.76
52.28
60.12
66.17
70.38
72.85
73.88
73.84
73.07
71.78
70.04
67.9
65.43
62.87
60.51
58.56
57.06
55.74
54.11
51.57
47.65
42.22
35.59
28.42
21.48
15.38
10.26
5.78
1.28
-3.91
-10.1
-17.17
-24.58
-31.66
-37.95
-43.31
-48.05
-52.78
-58.24
-65.14
-73.89
-84.37
-95.64
-105.97
-113.1
-114.79
-109.59
-97.35
-79.37
-57.98
-35.78
-14.96
3.24
18.53
31.24
41.87
50.74
57.9
63.23
66.66
68.26
68.37
67.46
65.99
64.29
62.47
60.54
58.46
56.27
54.12
52.16
50.47
48.93
47.22
44.91
41.66
37.31
32.02
26.21
20.44
15.17
10.62
6.65
2.88
-1.23
-6.07
-11.76
-18.1
-24.59
-30.69
-35.99
-40.42
-44.26
-48.06
-52.5
-58.2
-65.53
-74.4
-84.05
-93.01
-99.29
-100.82
-96.16
-85.02
-68.51
-48.76
-28.28
-9.18
7.31
20.89
31.86
40.64
47.51
52.54
55.73
57.23
57.32
56.46
55.08
53.52
51.96
50.44
48.93
47.44
45.98
44.61
43.34
42.02
40.38
38.04
34.7
30.28
25.01
19.32
13.69
8.38
3.35
-1.73
-7.22
-13.32
-19.89
-26.52
-32.71
-38.12
-42.76
-46.99
-51.47
-56.92
-63.88
-72.44
-82.06
-91.48
-98.85
-102.14
-99.75
-90.98
-76.37
-57.55
-36.76
-16.17
2.6
18.78
32.27
43.31
52.19
59.08
64.01
67.05
68.36
68.28
67.23
65.6
63.71
61.78
59.91
58.14
56.5
54.96
53.52
52.12
50.67
48.99
46.83
43.9
40.02
35.15
29.47
23.34
17.2
11.41
6.19
1.51
-2.86
-7.24
-11.99
-17.36
-23.4
-29.9
-36.5
-42.76
-48.43
-53.51
-58.33
-63.43
-69.44
-76.84
-85.78
-95.83
-105.84
-114
-118.16
-116.41
-107.77
-92.54
-72.37
-49.72
-27.13
-6.5
11.19
25.83
37.83
47.7
55.81
62.33
67.27
70.64
72.51
73.06
72.55
71.31
69.65
67.87
66.13
64.53
63.09
61.77
60.46
59.03
57.28
55.02
52.08
48.39
44
39.05
33.72
28.2
22.64
17.17
11.83
6.67
1.66
-3.28
-8.29
-13.51
-19.05
-24.94
-31.09
-37.3
-43.32
-48.95
-54.14
-59.06
-64.11
-69.82
-76.75
-85.12
-94.58
-103.96
-111.42
-114.78
-112.24
-102.99
-87.54
-67.64
-45.68
-24.01
-4.37
12.43
26.29
37.57
46.7
53.97
59.54
63.42
65.71
66.6
66.44
65.66
64.6
63.47
62.29
60.99
59.51
57.9
56.25
54.69
53.16
51.48
49.33
46.39
42.47
37.53
31.8
25.61
19.41
13.56
8.32
3.66
-0.68
-5.12
-10.09
-15.77
-22.08
-28.61
-34.83
-40.33
-44.96
-48.95
-52.8
-57.14
-62.54
-69.35
-77.5
-86.38
-94.75
-100.91
-102.96
-99.44
-89.76
-74.51
-55.38
-34.62
-14.46
3.49
18.46
30.35
39.41
45.92
50.08
52
51.95
50.42
48.09
45.7
43.78
42.49
41.71
41.12
40.47
39.65
38.77
37.94
37.22
36.4
35.11
32.93
29.54
24.93
19.35
13.32
7.4
2
-2.75
-7.03
-11.29
-16.03
-21.57
-27.91
-34.73
-41.5
-47.7
-53.05
-57.64
-61.98
-66.83
-72.97
-80.94
-90.68
-101.39
-111.42
-118.61
-120.78
-116.39
-105.06
-87.72
-66.37
-43.48
-21.31
-1.43
15.41
29.16
40.16
48.83
55.51
60.4
63.67
65.48
66.07
65.8
65.06
64.19
63.4
62.7
61.93
60.93
59.61
58.04
56.4
54.78
53.07
50.95
47.99
43.9
38.67
32.64
26.37
20.39
14.97
10.02
5.16
-0.06
-6
-12.71
-19.98
-27.43
-34.62
-41.24
-47.18
-52.56
-57.74
-63.24
-69.68
-77.64
-87.36
-98.42
-109.6
-118.82
-123.65
-122.01
-112.85
-96.65
-75.22
-51.17
-27.12
-5.03
14.04
29.86
42.61
52.69
60.43
66.12
70.02
72.39
73.49
73.6
72.96
71.81
70.35
68.72
67.02
65.32
63.68
62.16
60.8
59.53
58.11
56.18
53.31
49.19
43.78
37.35
30.43
23.62
17.4
11.92
6.97
2.04
-3.42
-9.82
-17.16
-25.08
-33.04
-40.45
-47
-52.73
-57.96
-63.22
-69.14
-76.26
-84.93
-94.98
-105.55
-114.93
-120.8
-120.87
-113.64
-99.04
-78.53
-54.73
-30.52
-8.27
10.71
26.11
38.29
47.76
54.89
59.87
62.88
64.26
64.45
63.99
63.24
62.36
61.25
59.8
58.05
56.21
54.66
53.65
53.14
52.7
51.68
49.44
45.69
40.57
34.63
28.55
22.84
17.66
12.77
7.72
2.11
-4.21
-11.04
-17.94
-24.4
-30.04
-34.81
-38.98
-43.13
-47.98
-54.19
-62.07
-71.3
-80.78
-88.71
-92.9
-91.43
-83.26
-68.65
-49.12
-27.1
-5.19
14.48
30.64
42.96
51.73
57.52
60.91
62.3
62.06
60.56
58.25
55.62
53.11
51
49.37
48.16
47.25
46.49
45.78
44.94
43.7
41.69
38.63
34.41
29.2
23.43
17.56
11.88
6.39
0.82
-5.21
-11.93
-19.26
-26.82
-34.11
-40.74
-46.61
-51.97
-57.32
-63.25
-70.3
-78.77
-88.55
-98.91
-108.37
-114.82
-116.05
-110.42
-97.52
-78.48
-55.63
-31.79
-9.42
10
26.04
39.01
49.46
57.78
64.12
68.48
70.95
71.8
71.46
70.44
69.1
67.62
65.99
64.13
62.06
59.96
58.12
56.75
55.81
54.9
53.32
50.41
45.79
39.6
32.46
25.22
18.63
13
8.13
3.4
-1.85
-8.09
-15.33
-23.16
-30.95
-38.11
-44.3
-49.56
-54.34
-59.37
-65.47
-73.3
-83.04
-94.04
-104.79
-113.02
-116.31
-112.81
-101.9
-84.48
-62.67
-39.17
-16.47
3.78
20.92
35.06
46.61
55.96
63.29
68.62
72.02
73.69
73.97
73.32
72.12
70.64
68.97
67.14
65.14
63.04
60.98
59.11
57.48
55.97
54.24
51.86
48.42
43.72
37.88
31.3
24.58
18.29
12.77
8.04
3.74
-0.7
-5.82
-11.93
-18.94
-26.39
-33.58
-39.92
-45.15
-49.48
-53.5
-58
-63.67
-70.93
-79.74
-89.49
-98.95
-106.39
-109.82
-107.57
-98.77
-83.77
-64.13
-42.13
-20.19
-0.21
16.73
30.36
40.92
48.85
54.53
58.29
60.41
61.16
60.85
59.77
58.17
56.28
54.29
52.38
50.72
49.42
48.47
47.72
46.86
45.53
43.4
40.29
36.22
31.46
26.32
21.13
16.01
10.92
5.7
0.12
-5.87
-12.19
-18.56
-24.66
-30.22
-35.17
-39.73
-44.33
-49.56
-55.92
-63.61
-72.18
-80.42
-86.49
-88.34
-84.43
-74.25
-58.65
-39.59
-19.52
-0.69
15.46
28.43
38.39
45.82
51.14
54.57
56.25
56.34
55.22
53.38
51.33
49.43
47.82
46.45
45.24
44.16
43.24
42.52
41.87
40.94
39.24
36.31
32.01
26.56
20.54
14.54
8.98
3.9
-1
-6.16
-11.93
-18.34
-25.13
-31.8
-37.92
-43.31
-48.12
-52.84
-58.13
-64.68
-72.86
-82.55
-92.83
-102.03
-107.99
-108.63
-102.65
-89.99
-71.94
-50.71
-28.75
-8.05
10.21
25.65
38.4
48.7
56.81
62.93
67.28
70.14
71.76
72.34
71.96
70.73
68.75
66.29
63.66
61.16
59
57.22
55.64
53.95
51.77
48.7
44.47
39.04
32.59
25.56
18.49
11.79
5.64
-0.15
-5.97
-12.24
-19.17
-26.68
-34.39
-41.83
-48.66
-54.79
-60.53
-66.45
-73.27
-81.58
-91.45
-102.17
-112.18
-119.29
-121.28
-116.61
-105.04
-87.75
-66.93
-45.13
-24.4
-5.93
9.98
23.61
35.31
45.28
53.46
59.78
64.23
67
68.41
68.75
68.19
66.81
64.69
62.02
59.11
56.33
53.96
52.07
50.49
48.86
46.72
43.68
39.52
34.28
28.29
22.05
16.11
10.79
6.04
1.4
-3.73
-9.81
-16.89
-24.52
-31.96
-38.59
-44.15
-48.9
-53.49
-58.69
-65.16
-73.22
-82.72
-92.94
-102.47
-109.41
-111.72
-107.84
-97.26
-80.78
-60.41
-38.67
-17.89
0.44
15.78
28.38
38.74
47.25
54
58.86
61.69
62.57
61.87
60.2
58.19
56.37
54.97
53.97
53.15
52.33
51.31
49.98
48.23
45.89
42.82
38.94
34.31
29.15
23.7
18.11
12.38
6.42
0.12
-6.48
-13.19
-19.7
-25.76
-31.3
-36.52
-41.88
-48
-55.47
-64.53
-74.78
-84.97
-93.15
-97.15
-95.23
-86.72
-72.29
-53.74
-33.38
-13.36
4.87
20.65
33.95
45
54.03
61.08
66.18
69.37
70.85
70.94
70.02
68.4
66.28
63.81
61.1
58.35
55.82
53.74
52.21
51.07
49.89
48.12
45.2
40.87
35.21
28.64
21.79
15.27
9.48
4.47
-0.05
-4.59
-9.67
-15.59
-22.33
-29.51
-36.57
-43.05
-48.73
-53.82
-58.88
-64.67
-71.89
-80.89
-91.41
-102.36
-111.93
-117.94
-118.35
-111.99
-98.92
-80.49
-58.89
-36.51
-15.24
3.81
20.32
34.44
46.47
56.62
64.94
71.43
76.1
79.1
80.67
81.11
80.68
79.57
77.91
75.82
73.46
71.03
68.77
66.83
65.22
63.73
62.01
59.72
56.64
52.8
48.42
43.86
39.39
35.16
31.13
27.16
23.13
19.01
14.91
10.98
7.26
3.67
0.01
-3.91
-8.12
-12.45
-16.61
-20.32
-23.48
-26.2
-28.85
-31.83
-35.47
-39.86
-44.82
-49.97
-54.89
-59.3
-63.14
-66.64
-70.29
-74.73
-80.58
-88.13
-97.1
-106.41
-114.2
-118.25
-116.62
-108.34
-93.73
-74.43
-52.78
-31.11
-11.17
6.14
20.67
32.66
42.42
50.22
56.17
60.4
63.07
64.39
64.63
64.03
62.84
61.23
59.37
57.39
55.46
53.75
52.36
51.28
50.3
49.04
47.07
44.04
39.8
34.55
28.73
22.91
17.61
13.06
9.13
5.39
1.23
-3.77
-9.72
-16.31
-22.96
-29.04
-34.21
-38.47
-42.2
-46.02
-50.63
-56.56
-64.05
-72.85
-82.04
-90.08
-95.05
-95.18
-89.35
-77.61
-61.15
-41.99
-22.34
-4.01
11.94
25.23
36.12
44.98
52.1
57.56
61.27
63.22
63.54
62.58
60.85
58.82
56.9
55.24
53.91
52.81
51.85
50.9
49.77
48.27
46.23
43.55
40.23
36.38
32.13
27.53
22.65
17.52
12.23
6.94
1.83
-2.98
-7.54
-12.03
-16.73
-21.81
-27.33
-33.16
-39.05
-44.75
-50.13
-55.22
-60.16
-65.29
-70.98
-77.66
-85.67
-94.99
-105.05
-114.5
-121.39
-123.59
-119.49
-108.54
-91.63
-70.74
-48.4
-26.93
-7.79
8.47
22.08
33.6
43.54
52.18
59.49
65.31
69.48
71.95
72.89
72.57
71.4
69.75
67.95
66.21
64.63
63.24
61.95
60.64
59.16
57.3
54.9
51.85
48.16
43.98
39.54
35.06
30.67
26.37
22.04
17.53
12.74
7.69
2.54
-2.53
-7.39
-12.1
-16.87
-22.03
-27.82
-34.26
-41.11
-47.96
-54.39
-60.22
-65.64
-71.18
-77.58
-85.45
-94.98
-105.71
-116.35
-124.95
-129.34
-127.71
-119.2
-104.19
-84.29
-61.77
-39.02
-17.86
0.66
16.26
29.16
39.72
48.32
55.18
60.48
64.39
67.03
68.54
69
68.54
67.31
65.58
63.68
61.95
60.63
59.72
59.04
58.26
57.01
55.06
52.35
48.96
45.03
40.7
36.04
31.1
25.95
20.71
15.55
10.62
5.99
1.6
-2.72
-7.21
-12.08
-17.39
-23.07
-28.92
-34.71
-40.22
-45.37
-50.23
-55.06
-60.26
-66.32
-73.61
-82.15
-91.32
-99.8
-105.72
-107.09
-102.47
-91.39
-74.69
-54.24
-32.44
-11.54
6.87
22.08
34.12
43.39
50.34
55.26
58.29
59.57
59.39
58.22
56.62
55.06
53.8
52.82
51.94
50.97
49.9
48.85
48.04
47.57
47.26
46.65
45.11
42.16
37.64
31.93
25.73
19.79
14.6
10.11
5.82
1.06
-4.68
-11.44
-18.79
-26.01
-32.44
-37.75
-42.08
-46
-50.27
-55.71
-62.89
-71.94
-82.4
-93.03
-101.92
-106.84
-105.88
-98.07
-83.77
-64.62
-43.04
-21.51
-1.9
14.81
28.45
39.33
47.89
54.46
59.25
62.44
64.26
65
65.04
64.72
64.26
63.72
63.04
62.11
60.84
59.29
57.6
55.93
54.37
52.82
50.95
48.34
44.65
39.69
33.61
26.84
19.91
13.31
7.27
1.7
-3.75
-9.52
-16
-23.28
-31.18
-39.23
-46.94
-53.94
-60.15
-65.85
-71.55
-77.93
-85.6
-94.9
-105.67
-117.03
-127.29
-134.21
-135.51
-129.62
-116.28
-96.67
-73.11
-48.32
-24.61
-3.42
14.73
29.98
42.67
53.07
61.28
67.35
71.34
73.49
74.16
73.84
72.99
72.02
71.13
70.32
69.45
68.32
66.81
64.98
62.98
60.97
58.98
56.77
53.92
50
44.8
38.4
31.21
23.82
16.74
10.23
4.26
-1.44
-7.24
-13.42
-20.09
-27.21
-34.6
-42.04
-49.26
-56.08
-62.44
-68.47
-74.55
-81.3
-89.35
-99.13
-110.38
-121.95
-131.75
-137.21
-136.05
-127.02
-110.43
-88.1
-62.73
-37.15
-13.5
7.06
24.3
38.47
49.95
58.95
65.56
69.89
72.2
72.95
72.67
71.86
70.79
69.55
68.09
66.43
64.66
63.07
61.9
61.19
60.66
59.77
57.89
54.54
49.66
43.6
37.05
30.69
24.94
19.82
14.93
9.73
3.77
-3.03
-10.36
-17.68
-24.42
-30.29
-35.37
-40.08
-45.09
-51.1
-58.64
-67.78
-77.99
-87.95
-95.71
-99.08
-96.3
-86.61
-70.6
-50.13
-27.72
-5.89
13.5
29.47
41.84
50.88
57.06
60.74
62.28
62.03
60.5
58.26
55.84
53.69
51.99
50.75
49.83
49.08
48.41
47.76
47.06
46.11
44.62
42.22
38.68
34
28.46
22.51
16.61
10.97
5.56
0.05
-5.95
-12.74
-20.33
-28.41
-36.48
-43.98
-50.6
-56.44
-62.06
-68.41
-76.41
-86.58
-98.5
-110.64
-120.5
-125.34
-122.95
-112.48
-94.77
-72.03
-47.17
-22.88
-1.05
17.49
32.72
45.04
54.88
62.51
68.09
71.77
73.81
74.56
74.42
73.7
72.62
71.22
69.49
67.44
65.17
62.91
60.93
59.36
58.04
56.54
54.23
50.62
45.54
39.26
32.41
25.7
19.65
14.36
9.51
4.53
-1.14
-7.81
-15.41
-23.58
-31.74
-39.35
-46.05
-51.81
-56.9
-61.92
-67.63
-74.84
-84.03
-95.05
-106.78
-117.12
-123.43
-123.24
-115.12
-99.23
-77.35
-52.25
-26.89
-3.55
16.51
33.01
46.26
56.77
64.97
71.16
75.56
78.36
79.79
80.1
79.53
78.29
76.53
74.37
71.9
69.26
66.62
64.18
62.06
60.22
58.41
56.22
53.26
49.27
44.35
38.84
33.29
28.22
23.93
20.41
17.31
14.13
10.32
5.47
-0.59
-7.76
-15.67
-23.83
-31.73
-39.02
-45.54
-51.48
-57.31
-63.69
-71.32
-80.67
-91.67
-103.46
-114.28
-121.74
-123.39
-117.55
-103.88
-83.64
-59.36
-34.05
-10.4
9.89
26.2
38.73
48.07
54.83
59.4
62.05
63.08
62.83
61.75
60.25
58.58
56.83
54.98
53.02
51.11
49.51
48.51
48.13
48.07
47.74
46.39
43.53
39.08
33.43
27.24
21.18
15.65
10.7
6.03
1.23
-4.08
-9.99
-16.38
-22.88
-29.11
-34.77
-39.83
-44.53
-49.42
-55.17
-62.28
-70.8
-79.96
-88.14
-93.15
-92.86
-85.92
-72.33
-53.54
-31.97
-10.31
9.29
25.61
38.36
47.87
54.58
58.89
61
61.13
59.6
56.92
53.69
50.48
47.73
45.61
44.15
43.2
42.55
41.94
41.14
39.86
37.85
34.93
31.03
26.29
20.97
15.41
9.79
4.17
-1.64
-7.83
-14.52
-21.57
-28.64
-35.31
-41.32
-46.7
-51.87
-57.49
-64.27
-72.69
-82.69
-93.41
-103.2
-109.8
-110.95
-105.09
-91.91
-72.66
-49.71
-25.89
-3.62
15.58
31.22
43.48
52.81
59.64
64.23
66.88
67.94
67.9
67.21
66.14
64.73
62.88
60.54
57.82
55.08
52.74
51.05
49.92
48.86
47.18
44.26
39.81
34.05
27.51
20.88
14.6
8.77
3.11
-2.82
-9.4
-16.69
-24.43
-32.15
-39.39
-45.92
-51.83
-57.56
-63.74
-71.03
-79.91
-90.37
-101.68
-112.23
-119.79
-122.01
-117.18
-104.88
-86.22
-63.56
-39.72
-17.18
2.55
18.97
32.33
43.17
51.89
58.7
63.65
66.81
68.35
68.6
67.89
66.52
64.67
62.44
59.94
57.32
54.81
52.66
50.96
49.62
48.24
46.32
43.31
38.98
33.39
27.03
20.55
14.52
9.17
4.34
-0.49
-5.89
-12.21
-19.44
-27.17
-34.8
-41.79
-47.87
-53.11
-57.92
-62.95
-68.92
-76.46
-85.74
-96.24
-106.55
-114.55
-117.86
-114.6
-104.02
-86.86
-65.18
-41.71
-19.06
0.9
17.38
30.44
40.63
48.53
54.53
58.74
61.17
61.95
61.35
59.83
57.9
55.97
54.29
52.93
51.86
50.95
49.99
48.75
46.98
44.53
41.38
37.6
33.33
28.63
23.52
17.91
11.78
5.2
-1.65
-8.52
-15.18
-21.46
-27.35
-32.95
-38.48
-44.33
-50.99
-58.93
-68.31
-78.65
-88.61
-96.14
-98.96
-95.29
-84.55
-67.62
-46.64
-24.34
-3.25
14.97
29.63
40.87
49.21
55.16
59.03
61.02
61.33
60.27
58.28
55.8
53.21
50.73
48.42
46.3
44.38
42.66
41.11
39.6
37.89
35.66
32.68
28.84
24.21
18.99
13.39
7.6
1.66
-4.5
-11
-17.88
-25.07
-32.34
-39.37
-45.88
-51.81
-57.4
-63.27
-70.21
-78.94
-89.66
-101.63
-113.03
-121.27
-123.7
-118.45
-105.19
-85.31
-61.45
-36.62
-13.3
7.1
24.25
38.45
50.2
59.79
67.3
72.8
76.45
78.62
79.7
80.02
79.69
78.65
76.81
74.21
71.1
67.96
65.26
63.25
61.85
60.56
58.66
55.46
50.63
44.31
37.08
29.71
22.82
16.7
11.15
5.64
-0.4
-7.36
-15.22
-23.58
-31.85
-39.47
-46.14
-51.96
-57.34
-62.98
-69.68
-78.07
-88.3
-99.73
-110.79
-119.16
-122.34
-118.42
-106.81
-88.49
-65.72
-41.29
-17.71
3.38
21.3
36.11
48.16
57.76
65.09
70.28
73.51
75.11
75.45
74.92
73.79
72.19
70.18
67.82
65.26
62.74
60.5
58.71
57.32
56.02
54.29
51.61
47.62
42.29
36.01
29.4
23.1
17.52
12.63
8.02
3.06
-2.79
-9.67
-17.29
-25.02
-32.16
-38.23
-43.18
-47.41
-51.58
-56.49
-62.79
-70.76
-80.05
-89.57
-97.49
-101.63
-99.99
-91.47
-76.34
-56.21
-33.62
-11.28
8.69
25.15
37.91
47.4
54.2
58.8
61.43
62.28
61.6
59.77
57.31
54.73
52.42
50.54
49.07
47.85
46.7
45.5
44.11
42.43
40.29
37.52
34.02
29.78
24.87
19.43
13.52
7.19
0.46
-6.62
-13.82
-20.89
-27.52
-33.6
-39.19
-44.64
-50.42
-57.06
-64.99
-74.31
-84.56
-94.57
-102.51
-106.22
-103.88
-94.62
-78.91
-58.52
-35.95
-13.75
6.22
22.99
36.44
46.94
54.96
60.84
64.8
67.01
67.74
67.33
66.15
64.49
62.51
60.24
57.7
54.97
52.29
49.97
48.23
47.05
46.08
44.68
42.18
38.15
32.59
25.97
19.08
12.65
7.09
2.32
-2.21
-7.18
-13.15
-20.25
-28.13
-36.11
-43.5
-49.85
-55.16
-59.89
-64.84
-70.91
-78.81
-88.69
-99.82
-110.49
-118.26
-120.6
-115.71
-103.18
-84.27
-61.41
-37.49
-14.93
4.81
21.29
34.71
45.51
54.05
60.53
65.08
67.84
69.06
69.06
68.2
66.78
65.02
63.07
60.96
58.74
56.46
54.31
52.45
50.96
49.75
48.44
46.54
43.54
39.17
33.52
27.08
20.55
14.56
9.48
5.19
1.16
-3.26
-8.6
-14.99
-22.13
-29.45
-36.35
-42.46
-47.76
-52.51
-57.18
-62.32
-68.52
-76.2
-85.39
-95.48
-105.02
-111.89
-113.82
-109.14
-97.42
-79.7
-58.14
-35.35
-13.64
5.49
21.39
34.03
43.67
50.61
55.13
57.58
58.38
58.08
57.2
56.12
55.02
53.87
52.59
51.09
49.4
47.67
46.08
44.73
43.55
42.28
40.55
37.99
34.44
29.96
24.87
19.55
14.34
9.36
4.49
-0.49
-5.79
-11.44
-17.27
-22.98
-28.28
-33.11
-37.62
-42.2
-47.35
-53.52
-60.94
-69.3
-77.66
-84.43
-87.7
-85.69
-77.49
-63.36
-44.8
-24.12
-3.78
14.28
29.02
40.23
48.22
53.46
56.32
57.08
56.02
53.59
50.36
46.96
43.88
41.37
39.44
37.99
36.87
35.96
35.11
34.16
32.83
30.88
28.1
24.49
20.2
15.48
10.53
5.41
-0
-5.86
-12.24
-19.06
-26.09
-33.05
-39.67
-45.86
-51.7
-57.49
-63.67
-70.75
-79.12
-88.7
-98.77
-107.75
-113.5
-113.86
-107.37
-93.89
-74.7
-52.19
-29.05
-7.55
10.96
26.12
38.15
47.51
54.51
59.33
62.08
63.02
62.59
61.31
59.59
57.69
55.65
53.5
51.34
49.37
47.78
46.6
45.55
44.14
41.87
38.45
33.92
28.63
23
17.33
11.6
5.62
-0.89
-8.03
-15.66
-23.42
-30.91
-37.84
-44.14
-50.02
-55.89
-62.28
-69.76
-78.67
-88.91
-99.66
-109.25
-115.44
-115.99
-109.38
-95.44
-75.57
-52.26
-28.36
-6.26
12.65
28.06
40.31
49.97
57.43
62.83
66.22
67.68
67.52
66.2
64.21
61.95
59.63
57.37
55.24
53.33
51.75
50.47
49.29
47.81
45.58
42.25
37.73
32.29
26.34
20.34
14.52
8.83
3.03
-3.2
-10.02
-17.36
-24.94
-32.35
-39.26
-45.53
-51.35
-57.21
-63.82
-71.81
-81.37
-91.97
-102.2
-109.92
-112.81
-109.08
-98.1
-80.69
-58.91
-35.4
-12.69
7.47
24.22
37.45
47.41
54.32
58.39
59.87
59.24
57.24
54.75
52.56
51.03
50.11
49.39
48.38
46.78
44.62
42.15
39.7
37.48
35.37
33.04
29.98
25.73
20.07
13.09
5.26
-2.78
-10.37
-17.05
-22.7
-27.62
-32.39
-37.77
-44.45
-52.82
-62.68
-73.14
-82.58
-88.96
-90.3
-85.26
-73.65
-56.55
-35.96
-14.31
6.26
24.28
39.04
50.4
58.52
63.59
65.83
65.56
63.32
59.85
56.02
52.52
49.74
47.63
45.81
43.82
41.39
38.54
35.54
32.74
30.28
27.93
25.09
21.11
15.48
8.19
-0.33
-9.31
-17.96
-25.77
-32.64
-38.88
-45.1
-52.08
-60.51
-70.75
-82.49
-94.53
-104.77
-110.67
-109.96
-101.46
-85.54
-64.06
-39.75
-15.39
6.91
26.03
41.74
54.29
64.05
71.28
76.07
78.54
78.86
77.45
74.86
71.72
68.56
65.69
63.18
60.85
58.48
55.9
53.05
50.03
46.92
43.7
40.18
36.05
30.95
24.66
17.2
8.85
0.09
-8.56
-16.7
-24.12
-30.85
-37.16
-43.46
-50.28
-58.1
-67.28
-77.75
-88.86
-99.21
-106.81
-109.51
-105.61
-94.49
-76.92
-54.85
-30.94
-7.68
13.12
30.67
45.02
56.62
65.9
73.04
78.04
80.85
81.63
80.78
78.86
76.43
73.82
71.14
68.34
65.38
62.33
59.42
56.9
54.88
53.19
51.37
48.85
45.12
40
33.69
26.77
19.9
13.58
7.98
2.9
-2.11
-7.49
-13.54
-20.22
-27.23
-34.11
-40.46
-46.06
-51.02
-55.75
-60.83
-66.95
-74.59
-83.84
-94.08
-103.89
-111.25
-113.92
-110.19
-99.43
-82.41
-61.1
-38.06
-15.67
4.39
21.41
35.36
46.54
55.19
61.41
65.22
66.72
66.24
64.32
61.57
58.58
55.75
53.27
51.16
49.32
47.62
45.93
44.17
42.22
39.95
37.22
33.94
30.1
25.83
21.26
16.47
11.42
5.97
0.03
-6.34
-12.84
-19.06
-24.63
-29.45
-33.72
-37.93
-42.71
-48.58
-55.82
-64.2
-72.84
-80.25
-84.49
-83.78
-77
-64.24
-46.82
-26.93
-6.92
11.29
26.61
38.72
47.82
54.26
58.31
60.2
60.21
58.76
56.42
53.75
51.13
48.7
46.41
44.14
41.92
39.88
38.21
36.93
35.78
34.3
31.98
28.55
24.06
18.87
13.45
8.13
2.99
-2.14
-7.52
-13.38
-19.78
-26.55
-33.4
-39.95
-45.93
-51.26
-56.14
-61.08
-66.78
-73.87
-82.6
-92.5
-102.18
-109.57
-112.4
-108.93
-98.55
-82.07
-61.44
-39.14
-17.46
2.01
18.54
32.09
42.96
51.48
57.94
62.51
65.43
66.94
67.34
66.93
65.95
64.51
62.69
60.5
58
55.36
52.85
50.71
49.04
47.69
46.28
44.23
41.1
36.65
31.05
24.78
18.48
12.64
7.46
2.77
-1.91
-7.11
-13.14
-20.02
-27.41
-34.78
-41.64
-47.71
-53.03
-57.9
-62.9
-68.68
-75.84
-84.65
-94.77
-105.11
-113.83
-118.75
-117.94
-110.36
-96.28
-77.21
-55.41
-33.25
-12.57
5.58
20.93
33.65
44.04
52.33
58.59
62.89
65.31
66.11
65.64
64.3
62.46
60.39
58.27
56.19
54.21
52.42
50.87
49.55
48.34
47
45.23
42.75
39.34
34.99
29.87
24.3
18.69
13.43
8.69
4.4
0.2
-4.34
-9.55
-15.45
-21.74
-27.92
-33.53
-38.34
-42.48
-46.31
-50.35
-55.14
-61.14
-68.59
-77.31
-86.47
-94.52
-99.41
-99.16
-92.51
-79.46
-61.34
-40.36
-18.95
0.88
17.95
31.83
42.65
50.71
56.28
59.6
60.89
60.48
58.89
56.69
54.46
52.58
51.13
49.97
48.85
47.64
46.39
45.29
44.47
43.82
42.89
41.06
37.8
32.96
26.84
20.07
13.4
7.36
2.09
-2.72
-7.59
-13.04
-19.37
-26.49
-34.03
-41.4
-48.12
-53.93
-58.92
-63.54
-68.53
-74.68
-82.55
-92.17
-102.68
-112.37
-118.96
-120.19
-114.58
-101.9
-83.32
-61.01
-37.5
-14.99
5.06
22.01
35.84
46.87
55.47
61.97
66.59
69.51
70.94
71.12
70.4
69.14
67.63
66.05
64.39
62.62
60.72
58.78
56.94
55.31
53.85
52.3
50.24
47.3
43.22
38.04
32.01
25.56
19.12
13.04
7.38
2
-3.42
-9.26
-15.73
-22.83
-30.33
-37.87
-45.11
-51.84
-58.06
-63.92
-69.75
-76.01
-83.27
-91.97
-102.2
-113.29
-123.64
-130.96
-132.82
-127.44
-114.38
-94.71
-70.71
-45.15
-20.47
1.62
20.42
35.88
48.3
58.07
65.44
70.66
73.97
75.68
76.18
75.91
75.19
74.2
72.98
71.4
69.42
67.07
64.57
62.17
60.04
58.17
56.29
53.99
50.89
46.74
41.54
35.5
29
22.48
16.3
10.64
5.49
0.58
-4.45
-9.99
-16.25
-23.15
-30.36
-37.36
-43.74
-49.31
-54.25
-59.06
-64.39
-70.88
-78.93
-88.52
-99
-109
-116.55
-119.46
-115.93
-105.15
-87.71
-65.5
-41.12
-17.2
4.3
22.37
36.81
47.87
55.96
61.36
64.38
65.37
64.8
63.22
61.19
59.07
57.07
55.28
53.71
52.43
51.5
50.96
50.66
50.29
49.39
47.51
44.37
40.01
34.74
28.99
23.16
17.43
11.7
5.72
-0.74
-7.73
-15.07
-22.39
-29.3
-35.53
-41.09
-46.26
-51.64
-57.96
-65.84
-75.44
-86.09
-96.23
-103.56
-105.66
-100.78
-88.48
-69.84
-47.15
-23.18
-0.41
19.55
35.96
48.8
58.28
64.68
68.22
69.26
68.33
66.2
63.68
61.37
59.54
58.11
56.78
55.33
53.69
51.98
50.43
49.15
48.06
46.83
44.99
42.13
37.99
32.61
26.36
19.74
13.28
7.3
1.79
-3.58
-9.31
-15.8
-23.23
-31.37
-39.7
-47.61
-54.57
-60.43
-65.47
-70.38
-76.1
-83.54
-93.16
-104.65
-116.63
-126.84
-132.57
-131.41
-122.11
-104.98
-81.87
-55.64
-29.26
-5.06
15.71
32.81
46.62
57.66
66.26
72.54
76.53
78.44
78.64
77.68
76.1
74.27
72.36
70.39
68.37
66.32
64.38
62.67
61.24
59.94
58.43
56.26
53.04
48.58
42.96
36.58
29.99
23.71
18.02
12.83
7.76
2.3
-3.99
-11.25
-19.27
-27.58
-35.6
-42.83
-49.1
-54.56
-59.72
-65.32
-72.12
-80.7
-91.13
-102.74
-113.94
-122.48
-125.85
-122.13
-110.56
-91.97
-68.5
-42.99
-18.08
4.32
23.31
38.73
50.81
59.83
66.03
69.71
71.28
71.36
70.58
69.46
68.29
67.12
65.86
64.41
62.76
61.01
59.3
57.73
56.34
54.99
53.41
51.24
48.15
43.93
38.63
32.54
26.14
19.89
14.11
8.78
3.65
-1.7
-7.63
-14.28
-21.46
-28.76
-35.67
-41.8
-47.06
-51.7
-56.3
-61.59
-68.22
-76.55
-86.35
-96.68
-105.88
-111.86
-112.55
-106.52
-93.5
-74.52
-51.74
-27.79
-5.11
14.59
30.52
42.64
51.31
57.02
60.14
61.04
60.1
57.82
54.81
51.71
49.03
47.08
45.93
45.42
45.25
45.09
44.63
43.63
42
39.73
36.87
33.46
29.5
24.92
19.6
13.45
6.5
-1.04
-8.77
-16.24
-23.08
-29.18
-34.73
-40.16
-46.02
-52.85
-60.98
-70.42
-80.62
-90.37
-97.87
-101.03
-98.09
-88.21
-71.88
-50.82
-27.57
-4.68
15.84
32.85
46.08
55.75
62.34
66.3
68.02
67.87
66.24
63.62
60.5
57.38
54.62
52.4
50.7
49.34
48.09
46.71
45.09
43.11
40.64
37.51
33.58
28.75
23.13
16.96
10.47
3.86
-2.91
-9.97
-17.44
-25.27
-33.23
-40.98
-48.18
-54.78
-60.99
-67.33
-74.48
-83.07
-93.33
-104.76
-115.92
-124.55
-128.04
-124.27
-112.33
-93
-68.52
-41.96
-16.17
6.81
26.1
41.75
54.23
64.04
71.46
76.62
79.66
80.87
80.71
79.71
78.25
76.52
74.52
72.18
69.61
67.07
64.93
63.43
62.48
61.58
59.96
56.88
51.96
45.34
37.67
29.85
22.66
16.45
11.06
5.87
0.17
-6.58
-14.44
-23
-31.54
-39.41
-46.27
-52.26
-57.94
-64.07
-71.41
-80.44
-91.14
-102.75
-113.7
-121.72
-124.34
-119.66
-107.01
-87.38
-63.15
-37.33
-12.65
9.1
27.24
41.96
53.71
62.89
69.7
74.23
76.68
77.41
76.9
75.66
74.1
72.46
70.78
69.01
67.07
64.95
62.71
60.57
58.68
57.03
55.33
53.07
49.67
44.77
38.46
31.25
23.93
17.21
11.47
6.6
2.08
-2.78
-8.5
-15.23
-22.63
-30.09
-36.94
-42.8
-47.71
-52.1
-56.66
-62.12
-69.08
-77.75
-87.79
-98.15
-107.03
-112.15
-111.33
-103.25
-87.95
-66.94
-42.82
-18.46
3.78
22.45
37.12
48.05
55.81
60.94
63.9
65.05
64.72
63.24
60.95
58.22
55.4
52.8
50.66
49.07
48.05
47.43
46.97
46.38
45.34
43.56
40.84
37.1
32.41
27.01
21.19
15.26
9.39
3.61
-2.21
-8.19
-14.35
-20.54
-26.45
-31.81
-36.54
-40.87
-45.39
-50.84
-57.86
-66.57
-76.32
-85.55
-92.05
-93.52
-88.33
-76.16
-58.14
-36.56
-14.18
6.58
24.21
38.14
48.52
55.78
60.34
62.49
62.49
60.78
57.98
54.8
51.86
49.51
47.78
46.43
45.2
43.9
42.56
41.28
40.08
38.82
37.08
34.39
30.4
25.13
18.96
12.48
6.2
0.33
-5.29
-11.08
-17.42
-24.38
-31.7
-38.86
-45.37
-51.02
-56.03
-61.01
-66.78
-74.08
-83.27
-94.04
-105.21
-114.84
-120.56
-120.17
-112.39
-97.31
-76.46
-52.39
-27.89
-5.25
14.17
29.97
42.38
51.9
59
64.09
67.51
69.62
70.75
71.12
70.82
69.81
68.05
65.61
62.72
59.73
57.01
54.78
53.08
51.65
50.08
47.87
44.64
40.19
34.62
28.28
21.64
15.17
9.12
3.47
-2.09
-7.98
-14.59
-21.97
-29.84
-37.64
-44.76
-50.87
-56.05
-60.92
-66.4
-73.42
-82.52
-93.48
-105.1
-115.3
-121.54
-121.52
-113.91
-98.88
-78.05
-54.02
-29.58
-6.94
12.58
28.62
41.36
51.21
58.52
63.6
66.74
68.34
68.83
68.62
68
67.03
65.64
63.7
61.22
58.37
55.49
52.94
50.91
49.32
47.83
45.95
43.25
39.45
34.58
28.92
22.86
16.88
11.31
6.3
1.71
-2.83
-7.78
-13.48
-19.97
-26.94
-33.81
-40.04
-45.35
-49.88
-54.18
-59
-65.06
-72.82
-82.21
-92.44
-101.96
-108.64
-110.24
-105.14
-92.92
-74.65
-52.57
-29.49
-7.9
10.55
25.24
36.33
44.33
49.75
52.95
54.26
54.02
52.7
50.82
48.89
47.26
46.07
45.3
44.79
44.32
43.71
42.85
41.66
40.1
38.11
35.63
32.53
28.71
24.05
18.47
11.97
4.69
-3.07
-10.87
-18.25
-24.88
-30.66
-35.8
-40.79
-46.27
-52.87
-61.02
-70.67
-81.04
-90.56
-97.08
-98.44
-93.14
-80.96
-63.16
-42.04
-20.28
-0.14
17.07
30.96
41.79
49.99
55.87
59.6
61.37
61.45
60.34
58.52
56.44
54.29
52.15
50.03
47.95
46.02
44.34
42.87
41.39
39.54
36.91
33.27
28.63
23.26
17.54
11.75
6.01
0.17
-6
-12.69
-19.87
-27.25
-34.46
-41.13
-47.16
-52.71
-58.29
-64.55
-72.15
-81.47
-92.31
-103.62
-113.5
-119.53
-119.43
-111.83
-96.83
-76.07
-52.16
-27.93
-5.59
13.65
29.52
42.3
52.42
60.23
65.99
69.93
72.35
73.55
73.76
73.1
71.63
69.42
66.66
63.67
60.81
58.38
56.5
55.04
53.62
51.74
48.9
44.79
39.39
33.03
26.25
19.56
13.28
7.41
1.65
-4.4
-11.06
-18.4
-26.19
-33.98
-41.32
-47.88
-53.69
-59.11
-64.88
-71.83
-80.55
-90.97
-102.04
-111.71
-117.39
-116.73
-108.45
-92.86
-71.82
-48.04
-24.32
-2.68
15.84
31.09
43.31
52.84
59.89
64.62
67.3
68.36
68.31
67.62
66.59
65.28
63.65
61.67
59.44
57.21
55.27
53.84
52.87
52.03
50.73
48.39
44.66
39.61
33.71
27.66
22.06
17.16
12.78
8.39
3.44
-2.41
-9.09
-16.15
-23
-29.15
-34.41
-38.97
-43.31
-48.11
-54.05
-61.59
-70.68
-80.52
-89.52
-95.51
-96.32
-90.47
-77.76
-59.4
-37.71
-15.37
5.27
22.69
36.34
46.38
53.28
57.58
59.69
59.91
58.58
56.08
52.94
49.72
46.91
44.82
43.49
42.77
42.32
41.84
41.09
39.88
38.1
35.62
32.31
28.19
23.35
18.05
12.52
6.89
1.06
-5.16
-11.89
-19.09
-26.41
-33.42
-39.75
-45.3
-50.34
-55.42
-61.25
-68.48
-77.41
-87.72
-98.32
-107.28
-112.19
-110.89
-102.15
-86.27
-65.1
-41.44
-18.14
2.67
20.02
33.98
45.1
53.97
60.86
65.83
68.87
70.14
70.04
69.05
67.63
66.03
64.28
62.3
60.05
57.63
55.29
53.31
51.84
50.7
49.41
47.26
43.66
38.4
31.79
24.6
17.77
11.96
7.28
3.21
-1.11
-6.55
-13.45
-21.54
-30.05
-38.06
-44.94
-50.57
-55.4
-60.17
-65.7
-72.64
-81.34
-91.68
-102.89
-113.39
-120.96
-123.16
-118.1
-105.21
-85.55
-61.59
-36.43
-12.79
7.64
24.37
37.79
48.61
57.38
64.33
69.47
72.82
74.54
74.96
74.45
73.35
71.86
70.06
68.01
65.79
63.5
61.28
59.22
57.32
55.47
53.43
50.91
47.65
43.51
38.47
32.74
26.63
20.51
14.68
9.22
4.04
-1.15
-6.68
-12.8
-19.54
-26.72
-34
-40.98
-47.37
-53.07
-58.27
-63.34
-68.81
-75.28
-83.22
-92.73
-103.22
-113.27
-120.7
-123.11
-118.58
-106.44
-87.61
-64.37
-39.64
-16.12
4.42
21.32
34.75
45.22
53.18
58.85
62.4
64.06
64.32
63.79
63.01
62.23
61.36
60.16
58.38
56.11
53.7
51.69
50.45
49.93
49.67
48.91
46.99
43.54
38.65
32.8
26.64
20.74
15.43
10.69
6.21
1.5
-3.84
-9.96
-16.64
-23.34
-29.44
-34.53
-38.61
-42.17
-46
-50.99
-57.72
-66.25
-75.9
-85.25
-92.32
-94.99
-91.61
-81.49
-65.28
-44.82
-22.6
-1.14
17.68
32.85
44.17
51.96
56.71
58.92
59.07
57.66
55.23
52.36
49.51
46.98
44.86
43.1
41.59
40.25
39.09
38.14
37.39
36.66
35.62
33.82
30.91
26.72
21.45
15.53
9.5
3.72
-1.73
-7.08
-12.73
-18.98
-25.89
-33.19
-40.44
-47.19
-53.25
-58.74
-64.18
-70.28
-77.76
-86.96
-97.56
-108.28
-117.05
-121.41
-119.25
-109.55
-92.79
-70.81
-46.33
-22.03
0.05
18.82
34.03
45.92
54.82
61.09
65.01
66.98
67.5
67.13
66.36
65.43
64.37
63.02
61.26
59.1
56.76
54.61
52.88
51.6
50.42
48.77
46.03
41.84
36.22
29.62
22.7
16.09
10.08
4.57
-0.89
-6.84
-13.62
-21.21
-29.27
-37.26
-44.75
-51.52
-57.73
-63.8
-70.33
-77.98
-87.2
-97.97
-109.49
-120.08
-127.36
-128.87
-122.91
-109.18
-88.97
-64.79
-39.55
-15.7
5.21
22.7
36.94
48.35
57.29
63.98
68.57
71.28
72.48
72.56
71.93
70.88
69.51
67.87
65.96
63.88
61.8
59.93
58.37
56.96
55.3
52.81
49.02
43.78
37.37
30.39
23.58
17.41
11.95
6.81
1.33
-5.01
-12.42
-20.6
-28.92
-36.68
-43.4
-49.04
-54
-59.07
-65.12
-72.84
-82.4
-93.17
-103.61
-111.45
-114.27
-110.17
-98.53
-80.27
-57.65
-33.52
-10.57
9.41
25.66
38.31
47.88
54.9
59.7
62.43
63.26
62.49
60.62
58.26
55.94
54.02
52.55
51.37
50.2
48.82
47.13
45.19
43.11
40.97
38.73
36.14
32.86
28.53
22.93
16.17
8.61
0.84
-6.54
-13.17
-19.02
-24.48
-30.16
-36.69
-44.57
-53.97
-64.58
-75.51
-85.25
-91.89
-93.5
-88.7
-77.22
-60.01
-39.14
-17.12
3.71
21.73
36.22
47.22
55.13
60.45
63.55
64.73
64.24
62.48
59.88
56.96
54.15
51.75
49.89
48.53
47.55
46.72
45.81
44.54
42.65
39.92
36.28
31.83
26.78
21.34
15.61
9.56
3.04
-4.06
-11.73
-19.73
-27.71
-35.32
-42.37
-48.93
-55.28
-61.91
-69.35
-78.07
-88.18
-99.19
-109.83
-118.08
-121.69
-118.73
-108.37
-91.24
-69.26
-45.13
-21.44
-0.07
18.12
33.14
45.41
55.42
63.43
69.53
73.73
76.16
77.05
76.81
75.8
74.3
72.45
70.31
67.99
65.62
63.45
61.65
60.2
58.78
56.83
53.75
49.15
43.05
35.93
28.53
21.55
15.38
9.89
4.57
-1.25
-8.1
-16.04
-24.71
-33.4
-41.37
-48.16
-53.75
-58.66
-63.76
-70.03
-78.2
-88.35
-99.66
-110.35
-118
-120.18
-115.23
-102.83
-84.15
-61.5
-37.59
-14.77
5.42
22.39
36.26
47.43
56.33
63.22
68.24
71.47
73.08
73.34
72.6
71.28
69.7
68.02
66.25
64.32
62.22
60.06
58
56.18
54.51
52.67
50.22
46.72
42.01
36.26
29.97
23.73
18.04
13.07
8.66
4.41
-0.15
-5.39
-11.38
-17.92
-24.59
-30.94
-36.66
-41.71
-46.36
-51.14
-56.69
-63.55
-71.93
-81.46
-91.08
-99.03
-103.21
-101.76
-93.64
-79.14
-59.82
-38.14
-16.64
2.7
18.85
31.68
41.57
48.95
54.11
57.18
58.3
57.81
56.25
54.22
52.22
50.55
49.25
48.22
47.34
46.49
45.62
44.6
43.21
41.21
38.34
34.56
30
24.95
19.73
14.52
9.31
3.91
-1.9
-8.25
-15.06
-22.07
-28.96
-35.4
-41.29
-46.75
-52.18
-58.17
-65.31
-73.86
-83.39
-92.66
-99.71
-102.37
-98.98
-88.96
-73.11
-53.35
-32.09
-11.52
6.9
22.53
35.38
45.69
53.67
59.43
63.06
64.84
65.19
64.66
63.7
62.54
61.2
59.55
57.51
55.16
52.76
50.59
48.83
47.44
46.16
44.56
42.24
38.87
34.33
28.79
22.6
16.29
10.35
5.04
0.31
-4.24
-9.14
-14.8
-21.33
-28.48
-35.72
-42.52
-48.51
-53.72
-58.49
-63.46
-69.39
-76.91
-86.25
-97.01
-107.93
-117.05
-122.04
-120.92
-112.64
-97.53
-77.19
-54.02
-30.51
-8.63
10.52
26.62
39.87
50.68
59.35
66.13
71.17
74.64
76.7
77.54
77.37
76.41
74.9
73.05
71.08
69.15
67.39
65.86
64.53
63.31
61.96
60.22
57.79
54.47
50.22
45.15
39.54
33.68
27.88
22.29
16.98
11.86
6.76
1.45
-4.23
-10.36
-16.83
-23.38
-29.69
-35.47
-40.66
-45.44
-50.29
-55.81
-62.62
-71
-80.69
-90.72
-99.42
-104.79
-105
-98.98
-86.85
-69.94
-50.44
-30.72
-12.75
2.33
14.24
23.33
30.16
35.22
38.77
40.91
41.69
41.31
40.06
38.37
36.58
34.91
33.44
32.17
31.11
30.39
30.1
30.21
30.41
30.16
28.88
26.15
22.01
16.85
11.35
6.1
1.39
-2.9
-7.19
-11.92
-17.36
-23.42
-29.72
-35.74
-41.06
-45.53
-49.33
-52.92
-56.94
-62.02
-68.6
-76.61
-85.32
-93.21
-98.27
-98.41
-92.22
-79.44
-61.2
-39.69
-17.5
3.1
20.66
34.66
45.27
52.94
58.05
60.92
61.77
60.92
58.77
55.83
52.56
49.36
46.48
44.09
42.28
41.05
40.28
39.67
38.79
37.18
34.45
30.44
25.28
19.31
12.98
6.69
0.56
-5.56
-12.07
-19.36
-27.65
-36.74
-46.06
-54.9
-62.66
-69.26
-75.22
-81.63
-89.71
-100.22
-112.93
-126.29
-137.66
-144
-142.8
-132.93
-115.16
-92.06
-67.48
-45.62
-29.86
-21.88
-21.07
-24.72
-28.91
-29.74
-24.62
-12.98
3.89
23.53
43.37
61.46
76.73
88.81
97.67
103.44
106.37
106.89
105.63
103.27
100.43
97.38
94.13
90.49
86.26
81.48
76.46
71.71
67.7
64.65
62.3
60.03
57.03
52.7
46.85
39.8
32.18
24.6
17.34
10.27
3
-4.81
-13.23
-22.01
-30.67
-38.78
-46.17
-52.91
-59.37
-66.07
-73.61
-82.51
-92.94
-104.42
-115.54
-124.07
-127.49
-123.78
-112.13
-93.38
-69.75
-44.16
-19.34
2.82
21.44
36.53
48.53
57.91
65.05
70.14
73.37
74.98
75.31
74.69
73.41
71.66
69.54
67.17
64.72
62.46
60.6
59.2
57.99
56.48
54.04
50.15
44.65
37.81
30.27
22.77
15.88
9.79
4.19
-1.5
-7.85
-15.12
-23.12
-31.24
-38.82
-45.4
-51
-56.15
-61.7
-68.53
-77.2
-87.58
-98.73
-108.82
-115.51
-116.49
-110.22
-96.47
-76.53
-52.89
-28.46
-5.79
13.57
29.11
41.13
50.19
56.75
61.02
63.08
63.14
61.66
59.36
56.98
55.07
53.78
52.91
52.06
50.87
49.24
47.3
45.3
43.4
41.54
39.43
36.68
32.96
28.09
22.14
15.32
8.03
0.66
-6.4
-12.95
-18.98
-24.74
-30.66
-37.28
-45.12
-54.39
-64.79
-75.3
-84.2
-89.35
-88.81
-81.47
-67.5
-48.39
-26.5
-4.37
15.97
33.26
47.07
57.51
64.87
69.47
71.6
71.6
69.91
67.1
63.8
60.55
57.78
55.61
53.98
52.63
51.2
49.38
46.87
43.51
39.19
33.96
27.98
21.55
14.96
8.38
1.77
-5.06
-12.34
-20.15
-28.29
-36.36
-43.91
-50.68
-56.73
-62.43
-68.4
-75.29
-83.6
-93.49
-104.52
-115.43
-124.22
-128.47
-126.06
-115.92
-98.5
-75.7
-50.31
-25.12
-2.2
17.42
33.6
46.67
57.06
65.05
70.81
74.54
76.54
77.16
76.78
75.66
73.95
71.69
68.99
66.02
63.08
60.51
58.54
57.16
56.02
54.54
52.07
48.17
42.82
36.42
29.64
23.09
17.1
11.62
6.25
0.5
-5.98
-13.2
-20.89
-28.54
-35.68
-42.04
-47.67
-52.98
-58.66
-65.54
-74.27
-85.01
-97.05
-108.72
-117.61
-121.16
-117.46
-105.92
-87.53
-64.6
-39.99
-16.31
4.72
22.41
36.87
48.54
57.83
64.94
69.89
72.76
73.83
73.53
72.42
70.92
69.24
67.33
65.07
62.41
59.55
56.84
54.66
53.15
52.07
50.88
48.88
45.54
40.75
34.81
28.34
22.01
16.28
11.22
6.56
1.83
-3.41
-9.39
-16.03
-23.01
-29.89
-36.25
-41.84
-46.7
-51.12
-55.64
-60.92
-67.6
-75.93
-85.51
-95.07
-102.59
-105.75
-102.64
-92.45
-75.86
-54.82
-32
-9.98
9.4
25.23
37.41
46.3
52.39
56.11
57.84
57.98
56.95
55.2
53.13
51.08
49.21
47.6
46.2
44.9
43.58
42.18
40.63
38.94
37.03
34.78
32.02
28.53
24.17
18.91
12.85
6.21
-0.8
-7.93
-14.95
-21.68
-27.95
-33.66
-38.89
-43.92
-49.27
-55.59
-63.37
-72.62
-82.52
-91.45
-97.22
-97.74
-91.69
-79.01
-61.01
-39.96
-18.35
1.72
18.97
32.96
43.8
51.83
57.38
60.73
62.2
62.17
61.09
59.39
57.39
55.27
53.09
50.87
48.68
46.66
44.94
43.56
42.37
41.03
39.08
36.12
31.94
26.62
20.53
14.13
7.87
1.94
-3.72
-9.4
-15.46
-22.08
-29.18
-36.41
-43.32
-49.53
-54.98
-59.95
-65.03
-70.96
-78.37
-87.54
-98.04
-108.64
-117.32
-121.69
-119.67
-110.22
-93.78
-72.18
-48.1
-24.22
-2.57
15.86
30.91
42.99
52.61
60.16
65.85
69.8
72.12
72.99
72.69
71.6
70.07
68.36
66.62
64.82
62.93
60.94
58.98
57.16
55.51
53.85
51.77
48.79
44.55
39.05
32.62
25.88
19.45
13.73
8.74
4.13
-0.66
-6.13
-12.54
-19.73
-27.29
-34.62
-41.25
-46.97
-51.93
-56.57
-61.53
-67.46
-74.88
-83.99
-94.49
-105.32
-114.73
-120.45
-120.33
-113.02
-98.48
-78.12
-54.38
-30
-7.29
12.37
28.51
41.29
51.09
58.26
63.06
65.76
66.7
66.36
65.26
63.82
62.29
60.74
59.13
57.43
55.68
54.02
52.61
51.52
50.6
49.54
47.86
45.14
41.14
35.98
30.08
24.06
18.48
13.62
9.32
5.14
0.48
-5.06
-11.54
-18.56
-25.5
-31.78
-37.07
-41.46
-45.38
-49.53
-54.63
-61.25
-69.52
-78.96
-88.33
-95.75
-99.09
-96.56
-87.34
-71.92
-52.08
-30.25
-8.91
10.07
25.74
37.87
46.75
52.75
56.2
57.34
56.47
54.02
50.56
46.82
43.45
40.9
39.31
38.49
38.03
37.49
36.55
35.13
33.34
31.33
29.16
26.66
23.49
19.32
13.95
7.51
0.38
-6.91
-13.9
-20.36
-26.33
-32.04
-37.83
-44
-50.81
-58.49
-67.13
-76.48
-85.72
-93.37
-97.55
-96.41
-88.83
-74.92
-56.06
-34.56
-12.98
6.57
22.87
35.62
45.14
51.97
56.56
59.16
59.88
58.94
56.71
53.74
50.63
47.86
45.67
44.04
42.74
41.49
40.02
38.17
35.91
33.27
30.28
26.87
22.89
18.18
12.64
6.3
-0.66
-8.03
-15.6
-23.21
-30.75
-38.08
-45.09
-51.7
-58.09
-64.73
-72.25
-81.2
-91.58
-102.5
-112.16
-118.2
-118.38
-111.34
-97.08
-77.01
-53.53
-29.3
-6.57
13.25
29.63
42.67
52.77
60.4
65.89
69.54
71.59
72.33
72.04
71.04
69.53
67.68
65.58
63.33
61.09
59.05
57.37
56.02
54.73
53.02
50.35
46.36
41.01
34.66
27.89
21.27
15.09
9.26
3.36
-3.08
-10.35
-18.38
-26.73
-34.82
-42.21
-48.75
-54.74
-60.77
-67.6
-75.86
-85.74
-96.75
-107.54
-116.04
-119.88
-117.12
-106.87
-89.72
-67.59
-43.19
-19.16
2.54
20.97
36.02
48.03
57.38
64.31
68.94
71.42
72.07
71.38
69.91
68.15
66.37
64.61
62.79
60.79
58.68
56.62
54.9
53.64
52.67
51.5
49.48
46.03
40.97
34.61
27.67
20.98
15.17
10.34
6.1
1.71
-3.51
-9.84
-17.08
-24.57
-31.54
-37.47
-42.31
-46.57
-51.02
-56.5
-63.55
-72.29
-82.24
-92.34
-100.91
-105.93
-105.44
-98.19
-84.1
-64.51
-41.81
-18.79
2.21
19.82
33.71
44.26
52.07
57.52
60.76
61.81
60.87
58.44
55.28
52.22
49.88
48.49
47.87
47.62
47.29
46.55
45.28
43.53
41.39
38.88
35.97
32.5
28.3
23.25
17.3
10.57
3.32
-4.11
-11.37
-18.22
-24.58
-30.55
-36.35
-42.33
-48.84
-56.28
-64.83
-74.32
-83.94
-92.17
-97
-96.46
-89.31
-75.56
-56.57
-34.67
-12.45
7.97
25.32
39.18
49.72
57.26
62.15
64.75
65.47
64.82
63.37
61.57
59.68
57.78
55.82
53.79
51.74
49.78
48
46.4
44.82
42.93
40.35
36.78
32.12
26.54
20.46
14.35
8.54
3.02
-2.49
-8.43
-15.1
-22.49
-30.23
-37.77
-44.63
-50.62
-55.93
-61.1
-66.88
-74.02
-82.97
-93.62
-104.98
-115.2
-121.84
-122.53
-115.75
-101.45
-81.16
-57.45
-33.18
-10.63
8.96
25.38
38.97
50.22
59.4
66.56
71.67
74.81
76.25
76.41
75.71
74.47
72.85
70.89
68.64
66.15
63.63
61.27
59.24
57.56
56.02
54.22
51.64
47.84
42.62
36.2
29.12
22.07
15.59
9.84
4.6
-0.69
-6.51
-13.14
-20.44
-27.96
-35.18
-41.74
-47.58
-52.93
-58.26
-64.1
-71
-79.39
-89.34
-100.37
-111.13
-119.52
-123.12
-119.88
-108.96
-91.1
-68.44
-43.87
-20.06
1.15
18.97
33.45
44.98
53.93
60.54
64.96
67.45
68.45
68.5
68.09
67.49
66.75
65.68
64.09
61.92
59.35
56.78
54.59
52.99
51.79
50.47
48.35
44.85
39.82
33.61
26.94
20.6
15.12
10.52
6.41
2.11
-2.98
-9.13
-16.16
-23.54
-30.62
-36.88
-42.14
-46.56
-50.63
-55
-60.39
-67.27
-75.72
-85.12
-94
-100.3
-101.8
-96.86
-85
-67.25
-45.78
-23.3
-2.27
15.72
30.08
41.01
49.02
54.62
58.1
59.6
59.3
57.53
54.81
51.78
49.01
46.83
45.34
44.38
43.64
42.88
41.91
40.66
39.08
37.06
34.43
31.01
26.69
21.48
15.56
9.18
2.59
-4.03
-10.6
-17.09
-23.43
-29.52
-35.29
-40.74
-46.04
-51.57
-57.86
-65.41
-74.37
-84.24
-93.6
-100.34
-102.13
-97.24
-85.17
-66.99
-45.05
-22.16
-0.77
17.61
32.55
44.32
53.41
60.2
64.87
67.51
68.33
67.73
66.25
64.4
62.5
60.63
58.7
56.62
54.42
52.28
50.46
49.08
48.04
46.89
45.04
41.94
37.35
31.43
24.75
18
11.78
6.33
1.45
-3.4
-8.8
-15.15
-22.42
-30.16
-37.73
-44.57
-50.46
-55.61
-60.58
-66.13
-73.01
-81.71
-92.25
-103.83
-114.85
-122.97
-125.71
-121.2
-108.89
-89.81
-66.33
-41.36
-17.52
3.49
21.03
35.25
46.63
55.65
62.57
67.55
70.73
72.38
72.85
72.51
71.65
70.45
68.93
67.1
65
62.78
60.61
58.67
57.01
55.47
53.69
51.25
47.73
42.96
37.02
30.31
23.4
16.86
11.04
5.99
1.38
-3.37
-8.82
-15.28
-22.69
-30.58
-38.29
-45.22
-51.11
-56.1
-60.74
-65.78
-71.99
-79.86
-89.41
-100.01
-110.22
-118.03
-121.19
-117.87
-107.31
-90.14
-68.27
-44.33
-20.94
0.02
17.58
31.71
42.79
51.32
57.62
61.83
64.07
64.57
63.74
62.16
60.4
58.78
57.42
56.2
54.95
53.63
52.34
51.25
50.42
49.64
48.44
46.22
42.55
37.41
31.23
24.74
18.67
13.45
9.01
4.88
0.41
-4.85
-11.02
-17.75
-24.47
-30.62
-35.87
-40.25
-44.18
-48.33
-53.48
-60.23
-68.69
-78.2
-87.2
-93.51
-94.88
-89.75
-77.82
-60.21
-39.13
-17.19
3.34
20.97
35.12
45.8
53.29
57.91
59.97
59.89
58.25
55.76
53.09
50.73
48.8
47.18
45.62
43.96
42.24
40.65
39.39
38.43
37.49
36.05
33.63
29.96
25.14
19.57
13.77
8.16
2.82
-2.5
-8.19
-14.6
-21.79
-29.48
-37.17
-44.36
-50.78
-56.46
-61.8
-67.44
-74.07
-82.26
-92.07
-102.79
-112.8
-119.77
-121.29
-115.61
-102.42
-82.94
-59.63
-35.34
-12.47
7.51
24.17
37.66
48.34
56.47
62.17
65.59
67.05
67.08
66.26
65.12
63.91
62.63
61.1
59.21
57.02
54.81
52.94
51.66
50.85
50.04
48.54
45.75
41.4
35.68
29.17
22.56
16.39
10.81
5.57
0.11
-6.14
-13.5
-21.86
-30.73
-39.36
-47.11
-53.67
-59.23
-64.42
-70.12
-77.25
-86.33
-97.18
-108.69
-118.84
-125.08
-125.02
-117.28
-101.96
-80.7
-56.15
-31.11
-7.77
12.63
29.73
43.65
54.64
62.86
68.44
71.69
73.07
73.21
72.7
71.88
70.88
69.59
67.93
65.89
63.67
61.52
59.68
58.17
56.81
55.21
52.91
49.51
44.85
39.01
32.32
25.32
18.55
12.43
7.04
2.13
-2.83
-8.41
-15.01
-22.57
-30.65
-38.58
-45.72
-51.76
-56.79
-61.37
-66.29
-72.43
-80.41
-90.33
-101.46
-112.19
-120.21
-123.04
-118.84
-106.99
-88.42
-65.31
-40.46
-16.48
4.78
22.43
36.34
46.84
54.37
59.36
62.19
63.25
62.97
61.76
60.04
58.15
56.35
54.8
53.64
52.9
52.57
52.52
52.52
52.18
51.13
49.02
45.72
41.36
36.26
30.81
25.25
19.63
13.75
7.41
0.52
-6.78
-14.13
-21.13
-27.49
-33.16
-38.32
-43.36
-48.81
-55.23
-62.92
-71.75
-80.85
-88.57
-92.79
-91.46
-83.41
-68.77
-49.12
-26.94
-4.9
14.87
31.2
43.77
52.85
58.86
62.19
63.23
62.4
60.3
57.6
54.9
52.56
50.67
49.12
47.78
46.56
45.44
44.42
43.34
41.94
39.83
36.76
32.66
27.69
22.18
16.44
10.62
4.65
-1.66
-8.53
-15.99
-23.89
-31.87
-39.51
-46.48
-52.63
-58.18
-63.6
-69.68
-77.21
-86.71
-98
-109.88
-120.14
-126.04
-125.09
-115.96
-98.99
-76.19
-50.58
-25.22
-2.42
16.75
32.24
44.65
54.6
62.5
68.43
72.4
74.56
75.24
74.91
74
72.73
71.14
69.16
66.81
64.3
61.94
60.05
58.69
57.58
56.16
53.78
49.96
44.56
37.91
30.69
23.68
17.47
12.23
7.63
2.96
-2.5
-9.13
-16.86
-25.1
-33.07
-40.13
-46.04
-51.05
-55.8
-61.09
-67.69
-76.12
-86.41
-97.86
-108.84
-117.05
-119.97
-115.66
-103.47
-84.4
-60.81
-35.72
-11.82
9.14
26.52
40.59
51.93
61.08
68.29
73.63
77.09
78.78
78.98
78.07
76.47
74.53
72.48
70.44
68.45
66.55
64.78
63.13
61.55
59.92
58
55.54
52.36
48.32
43.46
37.93
31.96
25.84
19.82
14.11
8.83
3.96
-0.64
-5.23
-10.08
-15.41
-21.28
-27.55
-33.91
-40.01
-45.58
-50.56
-55.13
-59.7
-64.84
-71.14
-79.07
-88.64
-99.14
-108.96
-115.82
-117.29
-111.62
-98.47
-79.13
-56.13
-32.45
-10.6
7.95
22.85
34.5
43.5
50.34
55.22
58.24
59.62
59.73
59.08
58.1
57.04
55.9
54.55
52.94
51.22
49.68
48.58
47.99
47.58
46.79
45
41.87
37.5
32.31
26.86
21.54
16.42
11.27
5.73
-0.43
-7.18
-14.17
-20.96
-27.11
-32.44
-37.02
-41.24
-45.68
-51
-57.75
-66.08
-75.46
-84.55
-91.32
-93.58
-89.65
-79.03
-62.59
-42.38
-20.95
-0.64
16.98
31.26
42.26
50.4
56.18
59.94
61.9
62.25
61.24
59.19
56.54
53.71
51.05
48.72
46.79
45.22
43.94
42.84
41.75
40.38
38.37
35.39
31.3
26.22
20.48
14.45
8.41
2.37
-3.86
-10.49
-17.63
-25.13
-32.66
-39.78
-46.17
-51.73
-56.72
-61.74
-67.58
-75.06
-84.55
-95.61
-106.78
-115.7
-119.75
-116.85
-106.23
-88.8
-66.8
-43.1
-20.31
-0.11
16.84
30.7
41.97
51.15
58.51
64.18
68.23
70.77
71.97
72.03
71.09
69.32
66.85
63.94
60.93
58.19
56.02
54.48
53.37
52.22
50.5
47.73
43.66
38.35
32.13
25.5
18.97
12.91
7.34
2.01
-3.54
-9.77
-16.89
-24.73
-32.81
-40.52
-47.41
-53.42
-58.91
-64.63
-71.4
-79.86
-90.01
-101.04
-111.25
-118.34
-120.03
-114.78
-102.32
-83.85
-61.63
-38.31
-16.2
3.26
19.58
32.92
43.79
52.64
59.7
65.04
68.66
70.61
71.03
70.19
68.41
65.99
63.22
60.37
57.69
55.37
53.49
51.93
50.4
48.51
45.85
42.2
37.59
32.26
26.55
20.76
14.98
9.16
3.1
-3.36
-10.2
-17.22
-24.06
-30.38
-36.01
-41
-45.72
-50.74
-56.68
-63.99
-72.61
-81.77
-89.92
-95.01
-95.03
-88.73
-76.04
-58.27
-37.61
-16.53
2.97
19.75
33.45
44.25
52.42
58.14
61.51
62.62
61.77
59.46
56.37
53.14
50.24
47.92
46.19
44.86
43.7
42.45
40.9
38.93
36.48
33.52
30.07
26.12
21.64
16.56
10.86
4.5
-2.47
-9.93
-17.62
-25.24
-32.45
-39.04
-44.97
-50.53
-56.28
-62.9
-70.95
-80.49
-90.77
-100.22
-106.71
-108.08
-102.89
-90.9
-73.19
-51.84
-29.28
-7.67
11.6
27.92
41.29
51.97
60.2
66.13
69.86
71.58
71.64
70.57
68.93
67.11
65.25
63.25
60.94
58.3
55.5
52.93
50.89
49.41
48.09
46.26
43.22
38.58
32.45
25.41
18.27
11.69
5.96
0.88
-4.07
-9.47
-15.67
-22.63
-29.99
-37.24
-43.93
-49.92
-55.35
-60.67
-66.47
-73.38
-81.87
-91.99
-103.07
-113.57
-121.24
-123.69
-119.13
-107.04
-88.41
-65.49
-41.04
-17.53
3.45
21.3
36.17
48.45
58.48
66.39
72.19
75.92
77.78
78.12
77.35
75.88
74.02
71.92
69.62
67.15
64.57
61.98
59.53
57.3
55.28
53.25
50.89
47.87
43.94
39.11
33.51
27.47
21.3
15.26
9.55
4.23
-0.75
-5.52
-10.34
-15.47
-21.05
-27.05
-33.2
-39.17
-44.67
-49.64
-54.34
-59.23
-64.9
-71.86
-80.38
-90.26
-100.61
-109.8
-115.71
-116.22
-109.9
-96.57
-77.44
-54.77
-31.14
-8.79
10.89
27.35
40.62
50.99
58.7
63.99
67.09
68.34
68.18
67.09
65.49
63.65
61.69
59.64
57.51
55.36
53.29
51.48
50.04
48.94
47.97
46.73
44.78
41.74
37.49
32.16
26.17
20.03
14.26
9.13
4.59
0.3
-4.19
-9.26
-15.04
-21.33
-27.69
-33.61
-38.77
-43.11
-46.89
-50.64
-54.99
-60.51
-67.47
-75.64
-84.11
-91.28
-95.18
-93.94
-86.46
-72.81
-54.36
-33.33
-12.17
7.08
23.21
35.82
45.07
51.31
54.88
56.08
55.3
53.04
49.98
46.79
43.94
41.65
39.83
38.27
36.8
35.42
34.21
33.24
32.39
31.32
29.57
26.79
22.95
18.32
13.34
8.37
3.49
-1.52
-6.96
-13.03
-19.63
-26.38
-32.81
-38.6
-43.7
-48.41
-53.25
-58.8
-65.56
-73.71
-82.88
-92.05
-99.52
-103.26
-101.46
-93.14
-78.59
-59.33
-37.66
-15.98
3.8
20.55
33.95
44.16
51.63
56.78
60.03
61.72
62.17
61.7
60.62
59.19
57.57
55.86
54.04
52.05
49.94
47.83
45.9
44.25
42.75
41.03
38.61
35.1
30.42
24.88
19.01
13.33
8.1
3.23
-1.68
-7.1
-13.31
-20.33
-27.82
-35.31
-42.31
-48.54
-54.03
-59.16
-64.61
-71.14
-79.3
-89.08
-99.57
-108.97
-114.94
-115.21
-108.35
-94.35
-74.66
-51.76
-28.34
-6.58
12.3
27.95
40.62
50.69
58.46
64.1
67.78
69.75
70.37
70.02
69.02
67.58
65.78
63.66
61.31
58.87
56.58
54.66
53.2
52.11
50.99
49.32
46.57
42.46
37.1
30.92
24.53
18.46
12.99
8.03
3.27
-1.71
-7.25
-13.49
-20.32
-27.42
-34.34
-40.71
-46.33
-51.24
-55.83
-60.72
-66.64
-74.2
-83.5
-93.88
-103.81
-111.05
-113.28
-108.81
-97.17
-79.35
-57.53
-34.39
-12.36
6.94
22.82
35.35
44.92
51.98
56.81
59.61
60.56
60
58.33
56
53.43
50.9
48.61
46.68
45.17
44.04
43.13
42.15
40.76
38.67
35.75
32.08
27.87
23.28
18.4
13.21
7.67
1.82
-4.19
-10.16
-15.88
-21.25
-26.26
-31.03
-35.77
-40.82
-46.57
-53.39
-61.38
-70.08
-78.29
-84.22
-85.91
-81.85
-71.58
-55.84
-36.44
-15.68
4.26
21.79
36.1
47
54.67
59.41
61.58
61.58
59.88
57.08
53.74
50.43
47.53
45.22
43.53
42.31
41.34
40.38
39.2
37.59
35.41
32.55
29
24.8
20.06
14.93
9.53
3.92
-1.92
-8.05
-14.52
-21.29
-28.21
-35.07
-41.62
-47.73
-53.4
-58.88
-64.65
-71.31
-79.32
-88.67
-98.51
-107.12
-112.17
-111.43
-103.51
-88.43
-67.71
-43.89
-19.69
2.74
22.24
38.62
52.24
63.59
72.92
80.33
85.78
89.35
91.34
92.19
92.41
92.37
92.33
92.38
92.57
93
93.83
95.23
97.27
99.82
102.55
104.98
106.68
107.4
107.23
106.52
105.79
105.58
106.22
107.71
109.69
111.47
112.26
111.45
108.84
104.77
99.92
94.97
90.25
85.48
79.83
72.14
61.27
46.38
27.19
4.13
-21.55
-47.9
-72.5
-92.98
-107.62
-115.8
-118.19
-116.46
-112.71
-108.84
-106.14
-105.11
-105.7
-107.58
-110.44
-114.08
-118.42
-123.38
-128.7
-133.9
-138.29
-141.23
-142.24
-141.11
-137.9
-132.77
-125.95
-117.65
-108.11
-97.69
-86.89
-76.31
-66.5
-57.86
-50.59
-44.69
-40.06
-36.52
-33.86
-31.83
-30.17
-28.73
-27.52
-26.72
-26.67
-27.64
-29.69
-32.61
-35.95
-39.2
-42.06
-44.56
-47.04
-50.15
-54.63
-61.11
-69.86
-80.48
-91.67
-101.27
-106.58
-105.12
-95.49
-77.94
-54.38
-27.81
-1.33
22.72
43.13
59.72
72.82
82.83
89.94
94.26
96.06
95.83
94.3
92.13
89.75
87.26
84.56
81.52
78.24
74.99
72.15
69.97
68.37
66.91
64.9
61.67
56.88
50.63
43.42
35.97
28.84
22.32
16.32
10.48
4.4
-2.18
-9.28
-16.67
-23.95
-30.72
-36.72
-41.93
-46.65
-51.5
-57.23
-64.48
-73.38
-83.23
-92.37
-98.48
-99.19
-92.86
-79.17
-59.3
-35.64
-11.04
11.97
31.66
47.35
59.05
67.24
72.41
75.01
75.43
74.1
71.57
68.46
65.35
62.63
60.5
58.92
57.72
56.7
55.67
54.43
52.8
50.52
47.36
43.16
37.9
31.75
25.02
18.05
11.09
4.18
-2.8
-10.08
-17.76
-25.76
-33.74
-41.27
-48.08
-54.21
-60.12
-66.59
-74.45
-84.14
-95.38
-106.89
-116.54
-121.77
-120.32
-111.02
-94.19
-71.61
-45.98
-20.12
3.7
24.16
40.86
53.97
63.97
71.28
76.29
79.31
80.65
80.63
79.59
77.8
75.52
72.93
70.2
67.5
64.99
62.76
60.77
58.84
56.59
53.64
49.7
44.71
38.92
32.66
26.24
19.73
12.97
5.72
-2.16
-10.56
-19.11
-27.36
-35.05
-42.15
-49.01
-56.18
-64.28
-73.79
-84.76
-96.62
-107.98
-116.69
-120.31
-116.81
-105.27
-86.4
-62.36
-36.13
-10.66
11.92
30.6
45.38
56.8
65.46
71.72
75.73
77.58
77.47
75.84
73.29
70.44
67.72
65.3
63.06
60.73
58.09
55.04
51.69
48.23
44.83
41.47
37.91
33.77
28.62
22.22
14.61
6.22
-2.33
-10.42
-17.67
-24.07
-29.97
-35.95
-42.58
-50.34
-59.47
-69.84
-80.88
-91.37
-99.54
-103.33
-100.98
-91.59
-75.59
-54.74
-31.61
-8.92
11.25
27.74
40.38
49.57
55.87
59.75
61.43
61.16
59.29
56.43
53.25
50.32
47.88
45.77
43.6
41.03
38.04
34.9
32.04
29.74
27.86
25.85
22.94
18.47
12.21
4.51
-3.89
-12.12
-19.51
-25.87
-31.53
-37.2
-43.75
-51.87
-61.68
-72.53
-82.86
-90.49
-93.14
-89.14
-78.06
-60.91
-39.85
-17.55
3.6
21.98
36.94
48.53
57.12
63.06
66.56
67.77
66.91
64.4
60.92
57.22
53.91
51.33
49.39
47.72
45.84
43.43
40.43
37.03
33.53
30.06
26.46
22.35
17.23
10.77
2.96
-5.82
-14.93
-23.72
-31.71
-38.75
-45.03
-51.02
-57.38
-64.77
-73.74
-84.35
-95.89
-106.75
-114.58
-116.96
-112.13
-99.7
-80.83
-57.84
-33.52
-10.23
10.52
28.19
42.86
54.88
64.51
71.88
77.06
80.14
81.34
80.96
79.37
76.92
73.96
70.75
67.52
64.39
61.4
58.52
55.6
52.45
48.84
44.62
39.74
34.32
28.56
22.63
16.64
10.51
4.07
-2.78
-10.03
-17.47
-24.78
-31.69
-38.12
-44.24
-50.42
-57.25
-65.25
-74.7
-85.3
-95.9
-104.64
-109.17
-107.48
-98.53
-82.74
-61.89
-38.55
-15.34
5.86
24.05
39.12
51.32
61.02
68.42
73.64
76.83
78.22
78.23
77.29
75.82
74.13
72.32
70.42
68.32
65.96
63.33
60.5
57.61
54.79
52.03
49.18
45.94
42.02
37.22
31.6
25.42
19.12
13.09
7.58
2.59
-2.09
-6.84
-11.96
-17.67
-23.88
-30.31
-36.55
-42.24
-47.23
-51.64
-55.84
-60.3
-65.52
-71.91
-79.62
-88.37
-97.22
-104.59
-108.41
-106.82
-98.68
-84.16
-64.78
-42.92
-21.11
-1.36
15.25
28.49
38.69
46.3
51.73
55.22
57
57.3
56.45
54.83
52.81
50.68
48.64
46.79
45.15
43.8
42.78
42.14
41.77
41.36
40.41
38.36
34.86
29.95
24.11
18.03
12.31
7.2
2.49
-2.29
-7.59
-13.55
-19.9
-26.07
-31.58
-36.18
-40.07
-43.83
-48.19
-53.83
-61.11
-69.82
-79.04
-87.17
-92.19
-92.18
-86
-73.66
-56.46
-36.57
-16.39
2.16
17.98
30.81
40.94
48.76
54.56
58.45
60.5
60.88
59.97
58.3
56.36
54.55
52.98
51.59
50.21
48.7
47.05
45.35
43.72
42.16
40.48
38.35
35.39
31.34
26.24
20.4
14.33
8.53
3.32
-1.26
-5.49
-9.87
-14.86
-20.74
-27.43
-34.52
-41.39
-47.48
-52.5
-56.58
-60.3
-64.5
-70.05
-77.55
-86.98
-97.56
-107.67
-115.15
-117.77
-113.98
-103.38
-86.91
-66.61
-44.91
-23.96
-5.14
11.06
24.79
36.43
46.29
54.48
60.97
65.71
68.81
70.49
71.01
70.56
69.3
67.36
64.91
62.26
59.78
57.79
56.38
55.32
54.21
52.54
50.02
46.59
42.48
38.07
33.66
29.39
25.18
20.85
16.18
11.14
5.84
0.57
-4.42
-9.03
-13.37
-17.76
-22.54
-27.91
-33.79
-39.85
-45.7
-51.07
-55.94
-60.56
-65.37
-70.86
-77.44
-85.32
-94.25
-103.41
-111.3
-115.99
-115.57
-108.82
-95.68
-77.38
-56.09
-34.24
-13.88
3.8
18.38
30.1
39.38
46.67
52.27
56.38
59.14
60.67
61.16
60.83
59.91
58.62
57.06
55.31
53.41
51.45
49.56
47.88
46.49
45.28
43.97
42.14
39.38
35.46
30.44
24.73
18.91
13.57
9.04
5.27
1.83
-1.87
-6.33
-11.68
-17.65
-23.72
-29.33
-34.12
-38.06
-41.44
-44.69
-48.28
-52.64
-58.13
-64.93
-72.81
-80.94
-87.77
-91.34
-89.81
-82.13
-68.52
-50.51
-30.45
-10.75
6.77
21.23
32.57
41.16
47.38
51.42
53.36
53.37
51.89
49.6
47.24
45.31
43.95
42.99
42.04
40.88
39.44
37.89
36.4
35.01
33.51
31.55
28.79
25.06
20.45
15.26
9.91
4.76
-0.07
-4.75
-9.65
-15.18
-21.56
-28.63
-35.92
-42.76
-48.69
-53.63
-58.02
-62.64
-68.34
-75.69
-84.68
-94.54
-103.75
-110.31
-112.19
-107.89
-96.97
-80.24
-59.57
-37.36
-15.84
3.42
19.69
32.97
43.6
51.96
58.31
62.78
65.44
66.5
66.24
65.04
63.27
61.24
59.11
56.98
54.91
53.02
51.44
50.25
49.35
48.42
46.94
44.38
40.43
35.1
28.79
22.14
15.74
9.95
4.71
-0.38
-5.86
-12.12
-19.21
-26.81
-34.35
-41.32
-47.43
-52.83
-57.98
-63.61
-70.44
-78.93
-88.95
-99.58
-109.07
-115.11
-115.52
-108.89
-95.2
-75.88
-53.38
-30.48
-9.4
8.57
23.16
34.76
43.92
51.05
56.29
59.63
61.16
61.16
60.1
58.44
56.58
54.68
52.79
50.92
49.13
47.5
46.06
44.69
43.14
41.1
38.32
34.72
30.35
25.35
19.85
13.89
7.52
0.81
-6.01
-12.69
-18.93
-24.61
-29.81
-34.88
-40.33
-46.72
-54.42
-63.38
-72.95
-81.81
-88.19
-90.22
-86.53
-76.71
-61.51
-42.66
-22.42
-2.9
14.36
28.6
39.71
47.87
53.32
56.24
56.76
55.21
52.2
48.54
45.13
42.56
41
40.14
39.41
38.28
36.5
34.19
31.69
29.26
26.93
24.35
20.98
16.35
10.29
3.05
-4.76
-12.42
-19.39
-25.5
-30.98
-36.37
-42.3
-49.32
-57.77
-67.55
-77.99
-87.72
-94.83
-97.23
-93.31
-82.57
-65.88
-45.29
-23.37
-2.49
15.81
30.96
43.07
52.5
59.55
64.3
66.78
67.13
65.72
63.17
60.16
57.26
54.86
53.04
51.62
50.29
48.71
46.61
43.91
40.69
37.11
33.28
29.18
24.67
19.49
13.47
6.57
-1.04
-8.98
-16.86
-24.34
-31.3
-37.86
-44.31
-51.05
-58.52
-67.08
-76.87
-87.65
-98.55
-108.03
-114.01
-114.4
-107.81
-94.09
-74.52
-51.43
-27.49
-4.92
14.92
31.59
45.22
56.14
64.67
70.99
75.3
77.83
78.85
78.63
77.39
75.32
72.63
69.58
66.44
63.49
60.94
58.79
56.89
54.9
52.38
48.94
44.44
38.99
32.94
26.69
20.53
14.47
8.25
1.6
-5.68
-13.48
-21.49
-29.26
-36.41
-42.85
-48.79
-54.75
-61.39
-69.35
-78.86
-89.45
-99.78
-107.77
-111.12
-108.04
-97.87
-81.35
-60.44
-37.66
-15.37
4.76
21.91
35.94
47.07
55.57
61.7
65.68
67.79
68.35
67.72
66.22
64.15
61.77
59.31
56.94
54.82
52.97
51.31
49.62
47.66
45.21
42.12
38.4
34.14
29.46
24.51
19.34
13.97
8.41
2.63
-3.34
-9.42
-15.5
-21.4
-26.95
-32.08
-36.89
-41.68
-46.95
-53.29
-61.02
-69.91
-78.92
-86.24
-89.7
-87.45
-78.65
-63.78
-44.58
-23.47
-2.8
15.69
31.13
43.33
52.46
58.75
62.37
63.52
62.56
60.1
56.9
53.72
51.07
49.13
47.76
46.66
45.55
44.33
43.03
41.73
40.4
38.8
36.55
33.26
28.76
23.18
16.96
10.69
4.83
-0.47
-5.42
-10.49
-16.12
-22.51
-29.5
-36.6
-43.25
-49.06
-54.02
-58.47
-63.1
-68.7
-75.91
-84.93
-95.27
-105.55
-113.69
-117.3
-114.46
-104.31
-87.48
-65.86
-42.06
-18.62
2.6
20.63
35.34
46.99
56.03
62.83
67.67
70.84
72.57
73.16
72.88
71.97
70.66
69.1
67.35
65.44
63.35
61.1
58.76
56.45
54.23
52.03
49.6
46.55
42.52
37.35
31.18
24.46
17.77
11.63
6.25
1.47
-3.15
-8.15
-13.94
-20.62
-27.94
-35.41
-42.49
-48.76
-54.12
-58.76
-63.18
-68.1
-74.25
-82.12
-91.66
-101.93
-111.15
-116.97
-117.13
-110.23
-96.23
-76.56
-53.61
-30.01
-7.92
11.37
27.46
40.52
50.96
59.15
65.35
69.73
72.5
73.91
74.23
73.73
72.6
70.96
68.89
66.53
64.09
61.79
59.79
58.06
56.42
54.56
52.21
49.18
45.46
41.12
36.29
31.07
25.58
19.95
14.37
9.02
3.99
-0.74
-5.33
-9.97
-14.85
-20.02
-25.44
-30.98
-36.48
-41.76
-46.71
-51.26
-55.48
-59.56
-63.93
-69.11
-75.63
-83.69
-92.82
-101.72
-108.39
-110.56
-106.49
-95.51
-78.39
-57.11
-34.27
-12.32
6.99
22.77
34.92
43.82
49.99
53.93
56.08
56.84
56.57
55.59
54.16
52.47
50.66
48.81
46.98
45.24
43.7
42.46
41.5
40.69
39.68
38.04
35.38
31.54
26.71
21.34
15.94
10.87
6.16
1.52
-3.45
-9.09
-15.4
-22.11
-28.73
-34.82
-40.24
-45.16
-50.07
-55.59
-62.24
-70.19
-79.03
-87.63
-94.27
-96.96
-94.05
-84.78
-69.6
-50.14
-28.72
-7.68
11.15
26.82
39.11
48.29
54.73
58.8
60.76
60.94
59.75
57.72
55.33
52.95
50.73
48.64
46.62
44.69
42.95
41.53
40.42
39.4
38.01
35.78
32.36
27.78
22.35
16.59
10.92
5.45
0.01
-5.78
-12.23
-19.37
-26.92
-34.4
-41.36
-47.55
-53.05
-58.21
-63.59
-69.84
-77.48
-86.65
-96.81
-106.54
-113.69
-115.91
-111.39
-99.59
-81.53
-59.42
-36.01
-13.7
5.98
22.47
35.89
46.67
55.18
61.64
66.22
69.08
70.47
70.62
69.76
68.07
65.72
62.91
59.88
56.89
54.14
51.7
49.48
47.24
44.68
41.5
37.54
32.77
27.34
21.46
15.37
9.16
2.81
-3.82
-10.82
-18.16
-25.63
-32.86
-39.52
-45.49
-50.99
-56.6
-63.09
-71.1
-80.74
-91.26
-100.91
-107.37
-108.3
-102.25
-89.16
-70.44
-48.54
-26.16
-5.44
12.38
27.01
38.7
47.85
54.75
59.47
62.04
62.6
61.5
59.25
56.42
53.53
50.89
48.58
46.51
44.5
42.42
40.23
37.96
35.63
33.13
30.19
26.51
21.81
16.02
9.34
2.13
-5.08
-11.83
-17.84
-23.07
-27.77
-32.42
-37.59
-43.83
-51.49
-60.54
-70.36
-79.7
-86.79
-89.72
-86.99
-77.97
-63.23
-44.39
-23.7
-3.41
14.75
29.87
41.72
50.51
56.52
59.96
60.98
59.85
57.05
53.32
49.53
46.39
44.25
42.96
42.03
40.87
39.07
36.59
33.66
30.64
27.73
24.83
21.57
17.44
12.07
5.36
-2.44
-10.77
-19.02
-26.69
-33.57
-39.74
-45.6
-51.67
-58.5
-66.57
-76.06
-86.66
-97.35
-106.35
-111.42
-110.5
-102.35
-87.14
-66.49
-43
-19.47
1.94
20.09
34.89
46.76
56.25
63.63
68.92
72.04
73.07
72.4
70.59
68.23
65.77
63.38
61.05
58.67
56.17
53.54
50.8
47.94
44.85
41.41
37.51
33.06
28.02
22.36
16.06
9.11
1.56
-6.4
-14.52
-22.47
-29.99
-36.94
-43.35
-49.5
-55.87
-63.1
-71.72
-81.88
-93.02
-103.7
-111.78
-114.92
-111.3
-100.33
-82.83
-60.87
-37.04
-13.73
7.41
25.6
40.72
52.96
62.49
69.47
74.08
76.63
77.62
77.6
76.98
75.93
74.39
72.17
69.24
65.79
62.27
59.18
56.83
55.16
53.65
51.59
48.25
43.32
36.95
29.75
22.48
15.75
9.76
4.24
-1.36
-7.59
-14.66
-22.38
-30.22
-37.56
-44.01
-49.54
-54.52
-59.55
-65.33
-72.42
-81.06
-90.89
-100.75
-108.78
-112.67
-110.45
-101.06
-84.92
-63.83
-40.42
-17.35
3.44
21
35.25
46.53
55.22
61.5
65.43
67.11
66.85
65.18
62.77
60.2
57.91
56.02
54.45
52.95
51.25
49.15
46.6
43.63
40.32
36.73
32.82
28.54
23.82
18.68
13.16
7.39
1.45
-4.57
-10.61
-16.59
-22.38
-27.88
-33.06
-38.08
-43.26
-49.11
-56.12
-64.51
-73.9
-83.04
-89.98
-92.48
-88.8
-78.37
-62.04
-41.88
-20.4
0.16
18.37
33.65
45.99
55.54
62.41
66.67
68.48
68.22
66.48
63.9
61.02
58.2
55.6
53.22
51.03
49.04
47.26
45.72
44.31
42.79
40.71
37.64
33.31
27.77
21.44
14.89
8.62
2.78
-2.85
-8.73
-15.27
-22.59
-30.43
-38.24
-45.43
-51.68
-57.04
-61.96
-67.21
-73.61
-81.74
-91.58
-102.25
-111.95
-118.33
-119.08
-112.69
-99.01
-79.31
-55.9
-31.42
-8.12
12.56
30.06
44.42
55.96
64.99
71.73
76.3
78.88
79.75
79.29
77.93
75.97
73.58
70.82
67.74
64.49
61.38
58.77
56.88
55.6
54.45
52.71
49.7
45.04
38.83
31.61
24.16
17.21
11.18
6.03
1.32
-3.55
-9.16
-15.71
-23.03
-30.61
-37.84
-44.24
-49.67
-54.37
-58.93
-64.07
-70.5
-78.67
-88.5
-99.2
-109.14
-116.09
-117.81
-112.63
-100.16
-81.45
-58.7
-34.63
-11.65
8.65
25.66
39.46
50.48
59.07
65.42
69.58
71.66
71.94
70.87
68.99
66.72
64.33
61.91
59.42
56.86
54.31
51.96
49.95
48.33
46.91
45.26
42.87
39.33
34.55
28.78
22.6
16.63
11.28
6.6
2.25
-2.31
-7.55
-13.64
-20.41
-27.4
-34.07
-40.02
-45.09
-49.47
-53.57
-58.04
-63.53
-70.49
-78.85
-87.82
-95.76
-100.55
-100.13
-93.26
-79.97
-61.61
-40.46
-18.98
0.79
17.62
31.06
41.21
48.35
52.78
54.8
54.72
53.02
50.29
47.19
44.31
42.06
40.53
39.55
38.77
37.83
36.52
34.8
32.75
30.5
28.1
25.46
22.37
18.58
13.89
8.25
1.79
-5.13
-12.08
-18.63
-24.55
-29.85
-34.77
-39.73
-45.17
-51.54
-59.11
-67.9
-77.45
-86.65
-93.78
-96.84
-94.12
-84.8
-69.4
-49.63
-27.93
-6.73
12.19
27.88
40.24
49.55
56.23
60.56
62.77
63.06
61.79
59.41
56.45
53.33
50.39
47.8
45.63
43.9
42.58
41.53
40.52
39.18
37.12
34.08
30.01
25.13
19.77
14.23
8.67
3
-2.99
-9.46
-16.44
-23.77
-31.12
-38.15
-44.6
-50.46
-55.95
-61.55
-67.93
-75.71
-85.14
-95.67
-105.87
-113.55
-116.29
-112.32
-101.06
-83.42
-61.51
-37.9
-14.94
5.78
23.5
38.11
49.8
58.84
65.47
69.91
72.42
73.32
73.01
71.83
70.13
68.13
65.95
63.65
61.24
58.83
56.55
54.55
52.8
51.12
49.03
46
41.65
35.92
29.21
22.16
15.48
9.59
4.48
-0.29
-5.32
-11.14
-17.89
-25.34
-32.89
-39.94
-46.11
-51.41
-56.25
-61.28
-67.26
-74.79
-84.07
-94.61
-105.07
-113.36
-117.11
-114.32
-104.13
-87.13
-65.29
-41.27
-17.7
3.55
21.53
36.1
47.58
56.29
62.51
66.45
68.4
68.77
68.02
66.59
64.76
62.68
60.36
57.88
55.4
53.19
51.46
50.25
49.32
48.25
46.51
43.73
39.8
34.9
29.41
23.76
18.27
13.08
8.02
2.8
-2.91
-9.27
-16.14
-23.14
-29.73
-35.54
-40.45
-44.74
-48.99
-53.94
-60.19
-67.97
-76.86
-85.69
-92.64
-95.64
-92.93
-83.63
-68.16
-48.17
-26.09
-4.47
14.69
30.26
42.02
50.29
55.54
58.19
58.54
56.9
53.78
49.88
46
42.78
40.55
39.2
38.33
37.45
36.21
34.48
32.38
30.07
27.69
25.17
22.29
18.71
14.16
8.51
1.93
-5.16
-12.3
-19.04
-25.2
-30.86
-36.27
-41.77
-47.66
-54.24
-61.72
-70.17
-79.28
-88.14
-95.14
-98.25
-95.62
-86.28
-70.6
-50.35
-28.11
-6.47
12.65
28.38
40.71
50.11
57.03
61.74
64.31
64.84
63.6
61.11
58
54.87
52.11
49.86
48.04
46.5
45.03
43.47
41.68
39.53
36.88
33.67
29.83
25.39
20.39
14.89
8.91
2.45
-4.41
-11.56
-18.75
-25.76
-32.39
-38.62
-44.6
-50.62
-57.11
-64.47
-73.01
-82.68
-92.82
-102.04
-108.37
-109.67
-104.38
-92.09
-73.8
-51.69
-28.42
-6.35
13.01
29.09
42.01
52.17
59.86
65.28
68.58
70.05
70.11
69.23
67.77
65.93
63.73
61.2
58.45
55.7
53.21
51.1
49.24
47.31
44.88
41.58
37.3
32.2
26.58
20.8
15.05
9.31
3.42
-2.83
-9.5
-16.48
-23.49
-30.21
-36.41
-42.06
-47.39
-52.83
-58.99
-66.41
-75.31
-85.22
-94.83
-102.03
-104.46
-100.31
-88.96
-71.35
-49.71
-26.86
-5.36
13.15
28.07
39.6
48.26
54.52
58.63
60.71
60.96
59.75
57.6
55.09
52.67
50.56
48.75
47.08
45.35
43.45
41.34
39.09
36.76
34.35
31.75
28.83
25.41
21.33
16.55
11.09
5.08
-1.25
-7.61
-13.76
-19.53
-24.87
-29.88
-34.76
-39.81
-45.39
-51.86
-59.43
-67.86
-76.26
-83.03
-86.22
-84.02
-75.55
-61.2
-42.64
-22.27
-2.52
14.82
28.87
39.5
47.03
51.84
54.21
54.36
52.61
49.51
45.8
42.26
39.44
37.5
36.21
35.09
33.73
31.98
29.97
27.95
26.11
24.41
22.55
20.13
16.77
12.25
6.54
-0.16
-7.52
-15.05
-22.27
-28.75
-34.34
-39.23
-43.89
-48.99
-55.13
-62.68
-71.54
-81.01
-89.79
-96.1
-98.02
-94.03
-83.54
-67.18
-46.73
-24.63
-3.27
15.56
30.98
42.9
51.74
58.01
62.16
64.47
65.21
64.63
63.06
60.84
58.29
55.65
53.1
50.76
48.7
46.97
45.53
44.22
42.74
40.73
37.85
33.95
29.11
23.61
17.84
12.12
6.54
0.98
-4.83
-11.1
-17.92
-25.11
-32.29
-39.04
-45.07
-50.41
-55.44
-60.84
-67.37
-75.55
-85.22
-95.42
-104.32
-109.6
-109.13
-101.62
-87.13
-67.12
-44.01
-20.45
1.35
20.1
35.44
47.57
56.96
63.94
68.72
71.47
72.43
72.04
70.81
69.22
67.56
65.87
64.04
61.92
59.49
56.95
54.6
52.69
51.23
49.88
48.05
45.12
40.72
34.92
28.21
21.37
15.08
9.74
5.29
1.28
-2.9
-7.83
-13.78
-20.63
-27.94
-35.13
-41.63
-47.15
-51.7
-55.68
-59.75
-64.76
-71.46
-80.22
-90.61
-101.24
-109.83
-113.79
-110.97
-100.5
-83.1
-60.92
-36.8
-13.46
7.21
24.38
38.08
48.73
56.85
62.77
66.7
68.81
69.34
68.62
67.05
65.01
62.84
60.75
58.84
57.11
55.49
53.93
52.41
50.89
49.33
47.57
45.4
42.55
38.84
34.24
28.92
23.22
17.53
12.18
7.33
2.9
-1.38
-5.84
-10.73
-16.16
-21.98
-27.89
-33.51
-38.59
-43.04
-46.98
-50.75
-54.76
-59.5
-65.47
-72.93
-81.74
-91.03
-99.13
-103.89
-103.19
-95.75
-81.66
-62.43
-40.55
-18.68
1.07
17.61
30.68
40.6
47.76
52.48
54.96
55.45
54.37
52.27
49.71
47.14
44.79
42.74
41
39.59
38.52
37.77
37.21
36.55
35.44
33.56
30.76
27.11
22.88
18.39
13.87
9.35
4.75
-0.06
-5.21
-10.68
-16.36
-22.06
-27.55
-32.66
-37.31
-41.58
-45.83
-50.61
-56.54
-63.91
-72.27
-80.31
-85.99
-87.17
-82.3
-71.06
-54.51
-34.74
-14.23
4.85
21.1
33.93
43.41
49.88
53.81
55.56
55.48
53.94
51.38
48.33
45.3
42.7
40.7
39.22
38.02
36.8
35.34
33.58
31.52
29.17
26.48
23.33
19.66
15.43
10.74
5.69
0.36
-5.26
-11.24
-17.61
-24.29
-31.03
-37.53
-43.51
-48.88
-53.85
-58.93
-64.84
-72.21
-81.23
-91.32
-100.94
-107.87
-109.8
-105.05
-93.2
-75.28
-53.44
-30.26
-8
11.83
28.59
42.23
53.02
61.25
67.22
71.26
73.74
75.04
75.51
75.37
74.73
73.63
72.19
70.58
69.03
67.73
66.64
65.53
64
61.61
58.11
53.51
48.08
42.25
36.43
30.81
25.31
19.65
13.48
6.56
-1.05
-9.04
-16.94
-24.33
-31.03
-37.21
-43.36
-50.21
-58.41
-68.28
-79.42
-90.6
-99.79
-104.67
-103.27
-94.64
-79.21
-58.73
-35.7
-12.69
8.25
25.96
40.08
50.81
58.66
64.12
67.62
69.48
69.96
69.27
67.66
65.41
62.77
59.93
57.01
54.11
51.36
48.96
47.12
45.92
45.21
44.54
43.22
40.59
36.31
30.46
23.65
16.7
10.37
5.01
0.41
-4.04
-9.08
-15.18
-22.32
-30
-37.51
-44.23
-49.94
-54.86
-59.57
-64.84
-71.39
-79.67
-89.65
-100.59
-110.91
-118.33
-120.45
-115.42
-102.72
-83.39
-59.77
-34.76
-10.96
9.93
27.24
40.98
51.47
58.98
63.65
65.7
65.52
63.77
61.23
58.62
56.32
54.4
52.66
50.87
48.93
46.98
45.21
43.73
42.42
40.84
38.5
35.01
30.4
25
19.37
13.98
8.97
4.15
-0.93
-6.73
-13.46
-20.98
-28.81
-36.4
-43.26
-49.21
-54.47
-59.55
-65.15
-71.99
-80.46
-90.43
-100.96
-110.32
-116.29
-116.72
-110.26
-96.82
-77.71
-55.23
-32
-10.29
8.44
23.57
35.13
43.47
48.97
52.02
52.94
52.16
50.15
47.5
44.75
42.32
40.44
39.14
38.35
37.97
37.92
38.08
38.25
38.08
37.12
35.04
31.67
27.18
21.92
16.29
10.55
4.67
-1.52
-8.23
-15.47
-23.04
-30.56
-37.7
-44.31
-50.57
-56.92
-63.91
-72.09
-81.68
-92.39
-103.17
-112.23
-117.39
-116.57
-108.55
-93.42
-72.66
-48.7
-24.22
-1.41
18.42
34.85
48.04
58.35
66.1
71.51
74.84
76.41
76.65
75.99
74.71
72.89
70.53
67.62
64.34
61.03
58.1
55.79
54.07
52.57
50.75
48.09
44.26
39.3
33.43
27.1
20.69
14.44
8.38
2.33
-4.02
-10.95
-18.56
-26.73
-35.03
-42.97
-50.1
-56.29
-61.81
-67.35
-73.82
-82.02
-92.27
-103.99
-115.61
-124.74
-128.77
-125.66
-114.61
-96.35
-72.93
-47.01
-21.13
2.93
24.28
42.78
58.6
71.92
82.74
91
96.71
100.13
101.76
102.26
102.25
102.12
101.94
101.5
100.55
98.91
96.61
93.84
90.76
87.4
83.51
78.72
72.68
65.24
56.59
47.21
37.77
28.86
20.85
13.77
7.25
0.72
-6.41
-14.48
-23.47
-32.94
-42.28
-50.9
-58.51
-65.17
-71.35
-77.78
-85.29
-94.54
-105.66
-117.97
-129.78
-138.68
-142.05
-137.96
-125.77
-106.42
-82.16
-55.81
-30.01
-6.63
13.38
29.76
42.69
52.44
59.3
63.63
65.86
66.54
66.22
65.34
64.16
62.71
60.95
58.88
56.65
54.52
52.79
51.59
50.7
49.62
47.68
44.33
39.37
33.09
26.13
19.24
12.97
7.48
2.46
-2.59
-8.21
-14.67
-21.9
-29.59
-37.27
-44.55
-51.27
-57.54
-63.76
-70.55
-78.48
-87.82
-98.23
-108.5
-116.65
-120.32
-117.42
-106.87
-88.96
-65.41
-38.87
-12.16
12.4
33.38
50.26
63.14
72.42
78.51
81.78
82.66
81.64
79.37
76.47
73.49
70.76
68.4
66.37
64.56
62.91
61.36
59.83
58.13
55.97
52.99
48.93
43.68
37.37
30.31
22.84
15.21
7.48
-0.43
-8.64
-17.15
-25.8
-34.26
-42.15
-49.27
-55.68
-61.79
-68.36
-76.17
-85.82
-97.22
-109.41
-120.43
-127.74
-128.93
-122.46
-108.26
-87.76
-63.42
-38
-13.82
7.62
25.65
40.17
51.32
59.32
64.43
66.99
67.47
66.42
64.38
61.74
58.71
55.27
51.38
47.06
42.48
38
34.06
30.91
28.53
26.49
24.15
20.86
16.27
10.46
3.95
-2.58
-8.51
-13.52
-17.77
-21.75
-26.09
-31.29
-37.53
-44.62
-52.13
-59.57
-66.61
-73.22
-79.68
-86.54
-94.51
-104.29
-116.26
-130.12
-144.64
-157.61
-166.27
-168.06
-161.45
-146.55
-125.07
-99.73
-73.45
-48.56
-26.35
-7.24
8.96
22.58
33.92
43.19
50.59
56.39
60.93
64.59
67.66
70.32
72.55
74.27
75.37
75.87
75.93
75.86
75.93
76.23
76.58
76.56
75.6
73.28
69.45
64.3
58.33
52.12
46.19
40.8
35.89
31.14
26.15
20.56
14.28
7.46
0.45
-6.41
-12.91
-19.06
-25.11
-31.5
-38.79
-47.54
-58.19
-70.65
-84
-96.32
-104.98
-107.27
-101.29
-86.76
-65.18
-39.35
-12.52
12.59
34.37
52.31
66.66
77.84
86.13
91.63
94.4
94.7
93.12
90.48
87.52
84.74
82.26
79.89
77.44
74.94
72.62
70.85
69.82
69.28
68.59
66.87
63.43
58.06
51.16
43.55
36.1
29.39
23.51
18.16
12.8
6.97
0.46
-6.64
-13.98
-21.14
-27.73
-33.6
-38.8
-43.69
-48.8
-54.8
-62.22
-71.17
-81.05
-90.34
-96.85
-98.17
-92.44
-79.05
-58.93
-34.41
-8.55
15.72
36.3
52.2
63.49
70.77
74.78
76.14
75.27
72.6
68.66
64.15
59.85
56.46
54.35
53.51
53.53
53.77
53.56
52.47
50.35
47.35
43.75
39.8
35.59
31.02
25.89
20.03
13.34
5.91
-2.12
-10.54
-19.16
-27.76
-36.13
-44.11
-51.69
-59.11
-66.84
-75.53
-85.67
-97.21
-109.22
-119.89
-126.79
-127.59
-120.85
-106.5
-85.94
-61.59
-36.22
-12.23
8.73
25.9
39.14
48.7
55
58.51
59.71
59.12
57.26
54.63
51.65
48.68
45.93
43.52
41.5
39.92
38.77
38.02
37.49
36.81
35.49
33.08
29.33
24.35
18.57
12.55
6.73
1.17
-4.43
-10.59
-17.72
-25.92
-34.83
-43.82
-52.28
-59.85
-66.65
-73.2
-80.31
-88.87
-99.49
-112.18
-125.99
-138.95
-148.36
-151.44
-146.21
-132.14
-110.41
-83.45
-54.26
-25.56
0.73
23.61
42.77
58.34
70.58
79.77
86.21
90.22
92.15
92.33
91.1
88.8
85.74
82.25
78.65
75.22
72.2
69.69
67.6
65.59
63.11
59.59
54.6
48.08
40.36
32.08
23.91
16.26
9.14
2.09
-5.55
-14.34
-24.42
-35.41
-46.52
-56.93
-66.1
-74.01
-81.23
-88.72
-97.57
-108.53
-121.64
-135.88
-149.14
-158.61
-161.51
-155.85
-141.19
-118.78
-91.21
-61.61
-32.82
-6.84
15.36
33.6
48.19
59.57
68.2
74.46
78.7
81.24
82.41
82.53
81.86
80.67
79.19
77.65
76.25
75.14
74.37
73.8
73.13
71.97
69.9
66.72
62.47
57.42
51.95
46.33
40.61
34.59
28.01
20.71
12.81
4.67
-3.2
-10.38
-16.67
-22.23
-27.55
-33.37
-40.45
-49.29
-59.7
-70.52
-79.63
-84.32
-82.18
-71.93
-53.98
-30.41
-4.25
21.39
44.21
63.01
77.54
88.07
94.94
98.4
98.69
96.18
91.59
85.94
80.33
75.67
72.44
70.61
69.69
69.03
68.03
66.38
64.09
61.35
58.35
55.1
51.34
46.7
40.77
33.38
24.64
14.95
4.85
-5.14
-14.73
-23.97
-33.24
-43.2
-54.55
-67.87
-83.25
-100.13
-117.15
-132.19
-142.76
-146.6
-142.24
-129.55
-109.79
-85.35
-59.18
-34.04
-12
5.78
19.07
28.16
33.63
36.08
36.08
34.2
31.03
27.31
23.73
20.88
19.09
18.34
18.31
18.53
18.53
17.92
16.53
14.29
11.3
7.68
3.52
-1.19
-6.56
-12.76
-19.96
-28.14
-37.12
-46.55
-56.05
-65.35
-74.34
-83.11
-91.91
-101.09
-111.12
-122.38
-134.98
-148.28
-160.66
-169.64
-172.35
-166.52
-151.25
-127.43
-97.51
-64.72
-32.21
-2.34
23.6
45.2
62.69
76.51
87.12
94.84
99.89
102.37
102.48
100.58
97.31
93.46
89.8
86.78
84.5
82.63
80.7
78.19
74.8
70.47
65.26
59.34
52.83
45.77
38.09
29.71
20.6
10.8
0.48
-10.09
-20.61
-30.77
-40.38
-49.45
-58.25
-67.34
-77.47
-89.3
-102.95
-117.55
-131.02
-140.36
-142.47
-135.19
-118.05
-92.63
-61.96
-29.64
1.21
28.59
51.63
70.36
85.17
96.49
104.65
109.99
112.85
113.71
113.11
111.64
109.81
107.95
106.16
104.29
102.1
99.44
96.39
93.19
90.1
87.11
83.73
79.1
72.24
62.51
49.82
34.83
18.67
2.61
-12.35
-25.69
-37.42
-47.93
-57.83
-67.83
-78.7
-91.11
-105.42
-121.21
-136.96
-150.05
-157.27
-155.85
-144.42
-123.72
-96.34
-65.96
-36.15
-9.51
12.73
30.34
43.62
52.88
58.3
60.13
58.89
55.51
51.18
47.03
43.75
41.41
39.55
37.45
34.55
30.71
26.26
21.76
17.67
13.95
10.07
5.13
-1.69
-10.78
-21.91
-34.26
-46.77
-58.51
-68.98
-78.23
-86.8
-95.55
-105.4
-117.11
-130.85
-145.95
-160.64
-172.23
-177.63
-174.23
-160.75
-137.77
-107.63
-73.7
-39.45
-7.59
20.33
43.8
62.98
78.19
89.67
97.52
101.88
103.11
101.9
99.2
95.96
92.91
90.37
88.23
86.06
83.44
80.13
76.14
71.66
66.85
61.75
56.15
49.7
42.07
33.1
22.84
11.61
-0.09
-11.76
-22.94
-33.41
-43.21
-52.64
-62.26
-72.83
-85.08
-99.43
-115.59
-132.21
-146.81
-156.23
-157.44
-148.53
-129.44
-102.04
-69.65
-35.96
-4.09
24.07
47.86
67.45
83.35
95.99
105.61
112.33
116.3
117.78
117.14
114.84
111.37
107.26
102.99
98.99
95.49
92.51
89.77
86.8
83.09
78.23
72.08
64.71
56.38
47.41
38.06
28.47
18.67
8.6
-1.79
-12.48
-23.32
-34.05
-44.36
-54.05
-63.17
-72.2
-81.97
-93.42
-107.09
-122.54
-138.01
-150.55
-156.72
-153.69
-140.27
-117.36
-87.72
-55.03
-22.84
6.32
31.18
51.55
67.77
80.23
89.13
94.58
96.73
96.03
93.25
89.33
85.21
81.55
78.59
76.2
74.02
71.73
69.14
66.28
63.25
60.06
56.54
52.35
47.08
40.42
32.27
22.83
12.55
2.03
-8.17
-17.71
-26.57
-34.95
-43.25
-51.92
-61.4
-72.13
-84.31
-97.68
-111.12
-122.61
-129.47
-129.13
-120.01
-102.22
-77.6
-49.17
-20.15
6.83
30.17
49.25
63.96
74.37
80.54
82.64
81.19
77.13
71.72
66.24
61.6
58.06
55.34
52.84
50
46.71
43.21
39.94
37.19
34.75
31.92
27.74
21.4
12.66
1.95
-9.72
-21.18
-31.52
-40.41
-48.21
-55.77
-64.21
-74.52
-87.24
-102.14
-117.93
-132.33
-142.33
-144.93
-138.01
-121.11
-95.66
-64.68
-31.81
-0.38
27.33
50.31
68.46
82.15
91.73
97.46
99.64
98.83
95.94
92.11
88.4
85.45
83.29
81.45
79.25
76.18
72.11
67.28
62.2
57.34
52.95
48.97
45.01
40.52
34.88
27.6
18.47
7.64
-4.43
-17.12
-29.83
-42.17
-53.94
-65.24
-76.42
-88.1
-100.99
-115.51
-131.26
-146.6
-158.72
-164.2
-160.19
-145.5
-121.15
-90.17
-56.62
-24.38
3.86
26.94
45.02
58.97
69.75
78.01
84.03
87.82
89.45
89.17
87.57
85.36
83.17
81.34
79.85
78.42
76.79
74.8
72.4
69.49
65.82
61.05
54.91
47.46
39.16
30.65
22.42
14.52
6.55
-1.99
-11.34
-21.27
-31.22
-40.7
-49.63
-58.48
-68.05
-79.23
-92.55
-107.98
-124.69
-140.91
-154.1
-161.3
-159.89
-148.42
-127.22
-98.47
-65.59
-32.3
-1.68
24.45
45.48
61.66
73.53
81.65
86.45
88.36
87.92
85.81
82.8
79.57
76.57
73.93
71.55
69.19
66.67
63.92
61.02
58.04
54.98
51.74
48.04
43.62
38.18
31.55
23.67
14.68
4.9
-5.24
-15.26
-24.76
-33.6
-41.86
-49.93
-58.4
-67.97
-79.09
-91.62
-104.48
-115.59
-122.24
-121.87
-112.94
-95.57
-71.55
-43.85
-15.65
10.46
32.85
50.88
64.5
73.93
79.45
81.44
80.44
77.19
72.63
67.69
63.17
59.62
57.16
55.58
54.41
53.13
51.36
48.99
46.15
42.99
39.51
35.44
30.25
23.41
14.73
4.49
-6.58
-17.53
-27.56
-36.34
-44.08
-51.43
-59.3
-68.59
-79.95
-93.5
-108.52
-123.28
-135.12
-141.02
-138.43
-126.21
-105.12
-77.67
-47.31
-17.41
9.62
32.59
51.33
66.12
77.25
84.85
88.96
89.82
88.01
84.44
80.09
75.87
72.31
69.57
67.53
65.89
64.33
62.55
60.32
57.48
53.89
49.51
44.3
38.21
31.13
22.91
13.44
2.75
-8.83
-20.78
-32.48
-43.47
-53.58
-63.04
-72.4
-82.43
-93.9
-107.38
-122.85
-139.34
-154.72
-165.93
-169.79
-163.9
-147.57
-122.17
-90.71
-56.92
-24.17
5.22
30.25
50.91
67.69
81.12
91.52
99.02
103.7
105.75
105.57
103.74
100.92
97.69
94.47
91.48
88.77
86.3
83.94
81.44
78.49
74.76
70.01
64.2
57.54
50.37
42.93
35.31
27.32
18.7
9.27
-0.89
-11.46
-21.9
-31.74
-40.61
-48.49
-55.7
-62.98
-71.26
-81.28
-93.03
-105.3
-115.6
-120.65
-117.43
-104.22
-81.24
-50.63
-15.77
19.71
52.66
80.93
103.45
120.11
131.63
139.26
144.51
148.68
152.53
156.2
159.28
161.11
160.89
157.69
150.55
138.54
121.21
99.01
73.47
46.93
21.8
-0.35
-19.25
-35.92
-51.98
-68.75
-86.64
-104.95
-122.31
-137.24
-148.83
-157.01
-162.42
-166.14
-169.28
-172.81
-177.39
-183.41
-190.72
-198.44
