1626696192.00
64.000000
-0.00
-0.00
-0.00
-0.00
-0.00
-0.00
-0.00
-0.00
-0.00
-0.00
0.00
0.01
0.01
-0.00
-0.03
-0.05
-0.05
0.00
0.13
0.36
0.66
1.01
1.37
1.72
2.06
2.40
2.79
3.24
3.80
4.42
5.06
5.66
6.20
6.68
7.15
7.68
8.31
9.14
10.09
11.04
11.88
12.56
13.14
13.76
14.65
15.96
17.91
20.32
22.90
25.38
27.58
29.57
31.68
34.32
37.81
42.54
48.15
54.10
59.83
64.97
69.58
74.14
79.34
85.71
93.76
103.00
112.62
121.73
129.77
136.75
143.30
150.75
157.77
166.64
177.95
191.79
206.97
220.57
228.25
225.36
208.53
176.87
132.76
80.05
23.07
-34.94
-92.44
-149.16
-205.23
-260.37
-313.74
-363.87
-409.83
-450.91
-486.50
-515.74
-537.23
-549.22
-549.96
-538.37
-514.21
-478.67
-433.88
-382.45
-327.02
-269.84
-212.63
-156.66
-102.95
-52.37
-5.90
35.58
71.43
101.35
125.50
144.38
158.69
169.15
176.37
180.75
182.57
182.07
179.51
175.23
169.65
163.18
156.15
148.81
141.30
133.69
126.02
118.33
110.69
103.16
95.80
88.68
81.83
75.25
68.95
62.95
57.25
51.86
46.78
42.03
37.59
33.45
29.61
26.07
22.81
19.83
17.11
14.67
12.48
10.54
8.83
7.35
6.07
4.97
4.05
3.27
2.62
2.09
1.65
1.30
1.01
0.79
0.61
0.47
0.37
0.29
0.23
0.20
0.17
0.16
0.16
0.17
0.19
0.22
0.25
0.28
0.32
0.37
0.41
0.45
0.50
0.55
0.60
0.65
0.71
0.77
0.83
0.90
0.98
1.07
1.16
1.27
1.39
1.53
1.68
1.84
2.02
2.23
2.47
2.74
3.04
3.36
3.69
4.02
4.34
4.67
5.04
5.47
5.98
6.57
7.22
7.90
8.59
9.28
9.98
10.72
11.55
12.47
13.50
14.59
15.69
16.75
17.75
18.70
19.63
20.58
21.50
22.27
22.64
22.37
21.20
19.05
15.95
12.13
7.89
3.43
-1.09
-5.67
-10.43
-15.40
-20.47
-25.30
-29.45
-32.45
-34.08
-34.47
-34.12
-33.69
-33.77
-34.60
-36.01
-37.46
-38.38
-38.42
-37.61
-36.39
-35.38
-35.16
-36.17
-38.68
-42.62
-47.34
-51.42
-52.84
-49.62
-40.71
-26.76
-10.15
5.86
18.36
25.90
28.79
28.52
26.83
24.77
22.57
19.96
16.72
13.15
9.94
7.90
7.59
9.22
12.54
16.98
21.83
26.41
30.18
32.89
34.47
35.08
34.87
33.92
32.27
29.97
27.26
24.52
22.24
20.76
19.92
19.44
18.94
18.12
16.92
15.54
14.31
13.50
13.20
13.26
13.41
13.36
12.85
11.77
10.11
8.00
5.63
3.24
1.06
-0.78
-2.36
-3.92
-5.82
-8.33
-11.53
-15.23
-19.06
-22.59
-25.51
-27.78
-29.64
-31.53
-33.97
-37.40
-41.97
-47.47
-53.19
-58.02
-60.70
-60.14
-55.83
-47.99
-37.55
-25.79
-14.05
-3.30
5.92
13.52
19.66
24.57
28.44
31.38
33.42
34.60
35.00
34.79
34.16
33.37
32.53
31.72
30.94
30.20
29.55
29.08
28.79
28.60
28.23
27.34
25.65
23.08
19.79
16.11
12.46
9.10
6.08
3.22
0.23
-3.15
-6.98
-11.11
-15.25
-19.13
-22.59
-25.74
-28.87
-32.38
-36.62
-41.76
-47.68
-53.88
-59.56
-63.73
-65.40
-63.86
-58.85
-50.71
-40.30
-28.80
-17.40
-7.04
1.76
8.94
14.65
19.16
22.61
25.01
26.29
26.48
25.78
24.59
23.37
22.48
22.12
22.20
22.54
22.86
22.96
22.74
22.18
21.33
20.19
18.75
16.94
14.63
11.71
8.17
4.13
-0.17
-4.43
-8.41
-12.03
-15.42
-18.86
-22.66
-27.12
-32.40
-38.49
-45.15
-51.83
-57.68
-61.57
-62.44
-59.54
-52.74
-42.70
-30.65
-18.05
-6.23
3.95
12.14
18.42
23.05
26.30
28.39
29.47
29.68
29.24
28.43
27.56
26.94
26.73
26.96
27.50
28.07
28.40
28.24
27.44
25.96
23.91
21.46
18.84
16.22
13.59
10.83
7.69
3.99
-0.27
-4.91
-9.60
-13.99
-17.91
-21.42
-24.77
-28.39
-32.74
-38.17
-44.84
-52.47
-60.29
-66.99
-71.08
-71.18
-66.57
-57.49
-45.10
-31.11
-17.32
-5.05
5.06
13.07
19.46
24.79
29.43
33.47
36.77
39.12
40.44
40.87
40.73
40.40
40.18
40.20
40.40
40.65
40.84
40.87
40.66
40.07
38.93
37.05
34.37
30.97
27.13
23.12
19.17
15.33
11.50
7.55
3.35
-1.08
-5.62
-10.12
-14.43
-18.53
-22.60
-26.98
-32.09
-38.18
-45.12
-52.22
-58.32
-62.05
-62.22
-58.28
-50.47
-39.77
-27.56
-15.30
-4.09
5.47
13.23
19.39
24.27
28.08
30.93
32.82
33.72
33.72
33.10
32.25
31.57
31.33
31.56
32.12
32.79
33.34
33.62
33.52
32.94
31.79
30.01
27.66
24.79
21.53
17.99
14.19
10.19
6.02
1.79
-2.43
-6.60
-10.77
-15.11
-19.83
-25.17
-31.27
-38.07
-45.21
-51.92
-57.16
-59.79
-58.91
-54.19
-45.99
-35.29
-23.42
-11.67
-1.04
7.92
15.08
20.56
24.61
27.44
29.18
29.95
29.86
29.12
28.04
26.97
26.20
25.88
25.97
26.32
26.75
27.09
27.22
26.98
26.25
24.93
23.03
20.67
18.02
15.21
12.24
8.97
5.21
0.90
-3.84
-8.73
-13.41
-17.64
-21.40
-24.90
-28.53
-32.73
-37.86
-44.10
-51.28
-58.79
-65.63
-70.51
-72.15
-69.68
-62.93
-52.56
-39.91
-26.58
-13.98
-3.02
6.05
13.44
19.61
24.91
29.52
33.37
36.33
38.29
39.32
39.61
39.43
39.07
38.72
38.51
38.46
38.53
38.60
38.49
37.97
36.86
35.05
32.58
29.58
26.26
22.78
19.20
15.52
11.65
7.47
2.93
-1.92
-6.95
-11.90
-16.52
-20.69
-24.48
-28.29
-32.68
-38.18
-44.98
-52.68
-60.29
-66.36
-69.41
-68.34
-62.86
-53.54
-41.62
-28.67
-16.10
-4.83
4.75
12.69
19.26
24.68
29.06
32.39
34.69
36.06
36.76
37.06
37.15
37.17
37.13
37.06
37.01
37.06
37.29
37.65
37.98
38.02
37.44
35.99
33.54
30.19
26.19
21.94
17.80
13.97
10.42
6.85
2.89
-1.71
-6.94
-12.41
-17.62
-22.11
-25.75
-28.84
-31.98
-35.80
-40.75
-46.93
-53.98
-61.16
-67.42
-71.53
-72.37
-69.19
-61.89
-51.17
-38.41
-25.26
-13.19
-3.16
4.61
10.43
14.86
18.40
21.33
23.71
25.47
26.54
26.98
26.96
26.76
26.65
26.87
27.46
28.33
29.23
29.86
29.98
29.44
28.29
26.62
24.60
22.32
19.74
16.77
13.31
9.38
5.13
0.77
-3.51
-7.61
-11.57
-15.54
-19.62
-23.89
-28.41
-33.24
-38.53
-44.31
-50.39
-56.10
-60.40
-62.03
-60.01
-54.02
-44.58
-32.89
-20.48
-8.66
1.72
10.38
17.40
22.99
27.30
30.42
32.41
33.45
33.85
33.97
34.05
34.13
34.07
33.62
32.71
31.44
30.15
29.15
28.57
28.21
27.64
26.39
24.21
21.16
17.58
13.85
10.22
6.65
2.92
-1.21
-5.86
-10.90
-16.06
-20.98
-25.46
-29.47
-33.18
-36.91
-41.04
-45.95
-51.81
-58.43
-65.13
-70.70
-73.67
-72.77
-67.35
-57.72
-45.02
-30.91
-17.03
-4.56
5.90
14.35
21.04
26.35
30.62
34.08
36.88
39.13
40.86
42.06
42.73
42.89
42.63
42.10
41.49
40.97
40.63
40.45
40.29
39.94
39.19
37.92
36.06
33.69
30.90
27.81
24.46
20.88
17.06
12.96
8.63
4.14
-0.31
-4.56
-8.50
-12.18
-15.88
-20.07
-25.24
-31.67
-39.20
-47.07
-54.03
-58.60
-59.50
-56.10
-48.66
-38.28
-26.54
-15.03
-4.88
3.39
9.80
14.67
18.33
21.01
22.79
23.71
23.86
23.37
22.47
21.38
20.33
19.48
18.90
18.53
18.20
17.76
17.19
16.58
16.09
15.71
15.24
14.21
12.15
8.85
4.53
-0.22
-4.70
-8.41
-11.27
-13.62
-16.04
-19.11
-23.18
-28.34
-34.40
-40.80
-46.69
-50.98
-52.52
-50.46
-44.57
-35.42
-24.20
-12.43
-1.46
7.84
15.22
20.81
24.95
27.86
29.65
30.33
30.01
28.94
27.54
26.21
25.23
24.63
24.28
23.93
23.46
22.85
22.24
21.72
21.29
20.71
19.57
17.47
14.15
9.65
4.32
-1.31
-6.70
-11.46
-15.52
-19.12
-22.67
-26.71
-31.67
-37.80
-44.96
-52.59
-59.70
-65.04
-67.40
-65.93
-60.49
-51.67
-40.64
-28.77
-17.28
-6.99
1.72
8.78
14.34
18.57
21.67
23.80
25.13
25.81
25.99
25.81
25.34
24.67
23.81
22.81
21.77
20.76
19.85
19.02
18.09
16.80
14.85
12.09
8.53
4.36
-0.12
-4.61
-8.92
-13.04
-17.12
-21.48
-26.50
-32.45
-39.26
-46.30
-52.37
-56.04
-56.09
-51.95
-44.00
-33.39
-21.68
-10.28
-0.11
8.48
15.57
21.38
26.12
29.82
32.45
33.98
34.45
33.99
32.83
31.24
29.48
27.82
26.44
25.45
24.85
24.53
24.23
23.64
22.45
20.46
17.69
14.36
10.80
7.27
3.84
0.33
-3.62
-8.40
-14.20
-20.86
-27.81
-34.02
-38.25
-39.31
-36.38
-29.38
-19.07
-6.89
5.45
16.41
25.09
31.29
35.32
37.76
39.05
39.44
39.06
37.97
36.37
34.55
32.81
31.34
30.18
29.24
28.45
27.75
27.12
26.48
25.65
24.34
22.27
19.30
15.51
11.22
6.85
2.75
-0.90
-4.21
-7.46
-11.03
-15.25
-20.29
-26.03
-31.92
-37.04
-40.26
-40.48
-37.14
-30.36
-21.03
-10.52
-0.26
8.67
15.77
21.03
24.77
27.32
28.90
29.58
29.38
28.39
26.86
25.11
23.43
22.00
20.83
19.80
18.85
17.99
17.32
16.92
16.72
16.44
15.64
13.96
11.23
7.63
3.56
-0.48
-4.17
-7.41
-10.39
-13.44
-17.00
-21.34
-26.52
-32.17
-37.52
-41.43
-42.73
-40.57
-34.80
-26.03
-15.53
-4.83
4.73
12.29
17.64
21.03
22.91
23.74
23.80
23.24
22.16
20.68
18.99
17.36
16.01
15.08
14.55
14.35
14.33
14.34
14.21
13.75
12.77
11.10
8.69
5.62
2.12
-1.51
-5.01
-8.32
-11.59
-15.17
-19.43
-24.59
-30.45
-36.32
-41.03
-43.38
-42.44
-37.94
-30.42
-20.97
-10.92
-1.44
6.73
13.27
18.17
21.61
23.81
25.01
25.42
25.24
24.65
23.81
22.83
21.76
20.66
19.51
18.30
17.06
15.90
14.94
14.24
13.72
13.08
11.89
9.73
6.42
2.15
-2.58
-7.10
-10.94
-13.94
-16.36
-18.68
-21.47
-25.07
-29.54
-34.66
-39.93
-44.62
-47.83
-48.68
-46.49
-41.11
-32.99
-23.22
-13.10
-3.75
4.17
10.53
15.59
19.67
22.97
25.48
27.14
27.91
27.89
27.28
26.36
25.37
24.45
23.62
22.85
22.03
21.09
19.99
18.75
17.44
16.11
14.73
13.20
11.33
8.99
6.09
2.72
-0.93
-4.60
-8.01
-10.96
-13.44
-15.58
-17.67
-20.10
-23.24
-27.32
-32.28
-37.72
-42.87
-46.69
-48.20
-46.72
-42.13
-34.95
-26.13
-16.81
-7.96
-0.20
6.27
11.52
15.76
19.14
21.76
23.62
24.71
25.04
24.75
24.03
23.16
22.35
21.74
21.30
20.95
20.61
20.23
19.82
19.34
18.72
17.80
16.43
14.58
12.33
9.83
7.22
4.52
1.69
-1.30
-4.41
-7.53
-10.50
-13.25
-15.87
-18.55
-21.56
-25.13
-29.34
-34.06
-38.90
-43.16
-45.99
-46.57
-44.34
-39.27
-31.86
-23.07
-14.01
-5.67
1.30
6.68
10.61
13.39
15.37
16.78
17.77
18.35
18.52
18.35
17.94
17.47
17.06
16.76
16.50
16.18
15.75
15.22
14.71
14.28
13.87
13.26
12.15
10.27
7.54
4.10
0.32
-3.36
-6.52
-8.98
-10.76
-12.18
-13.72
-15.87
-18.96
-23.05
-27.77
-32.42
-36.07
-37.80
-36.96
-33.39
-27.45
-19.92
-11.78
-3.97
2.88
8.40
12.60
15.60
17.61
18.81
19.32
19.23
18.65
17.72
16.64
15.68
15.08
14.99
15.39
16.01
16.47
16.41
15.64
14.24
12.49
10.68
8.98
7.30
5.40
3.02
0.06
-3.35
-6.93
-10.32
-13.25
-15.65
-17.61
-19.41
-21.34
-23.75
-26.85
-30.73
-35.18
-39.75
-43.73
-46.26
-46.53
-44.04
-38.76
-31.20
-22.34
-13.34
-5.22
1.36
6.29
9.81
12.38
14.38
15.99
17.19
17.89
18.08
17.86
17.46
17.10
16.88
16.77
16.69
16.47
16.02
15.34
14.47
13.50
12.47
11.42
10.31
9.05
7.47
5.44
2.87
-0.16
-3.42
-6.65
-9.59
-12.17
-14.45
-16.67
-19.09
-21.95
-25.39
-29.31
-33.39
-37.02
-39.47
-40.02
-38.13
-33.72
-27.15
-19.23
-10.94
-3.22
3.31
8.45
12.32
15.18
17.33
18.89
19.88
20.27
20.10
19.51
18.71
17.92
17.31
16.94
16.81
16.86
17.05
17.31
17.54
17.63
17.44
16.87
15.86
14.36
12.38
9.96
7.17
4.17
1.13
-1.73
-4.26
-6.41
-8.29
-10.10
-12.11
-14.54
-17.49
-20.98
-24.81
-28.63
-31.87
-33.80
-33.72
-31.20
-26.28
-19.53
-11.94
-4.52
1.89
6.93
10.61
13.13
14.71
15.46
15.40
14.58
13.21
11.66
10.31
9.44
9.16
9.34
9.73
10.11
10.33
10.39
10.36
10.30
10.22
10.01
9.49
8.45
6.75
4.35
1.37
-1.90
-5.09
-7.92
-10.30
-12.35
-14.42
-16.88
-20.00
-23.79
-27.95
-31.91
-34.94
-36.32
-35.54
-32.45
-27.37
-20.92
-13.94
-7.20
-1.22
3.74
7.64
10.55
12.54
13.69
14.10
13.93
13.36
12.54
11.59
10.58
9.63
8.85
8.33
8.11
8.10
8.14
8.06
7.74
7.17
6.34
5.27
3.94
2.28
0.26
-2.08
-4.64
-7.26
-9.82
-12.24
-14.51
-16.68
-18.84
-21.10
-23.59
-26.42
-29.66
-33.29
-37.13
-40.70
-43.33
-44.19
-42.66
-38.50
-32.08
-24.20
-15.92
-8.14
-1.47
3.91
8.07
11.23
13.56
15.16
16.14
16.58
16.61
16.37
15.98
15.56
15.21
15.01
15.02
15.25
15.63
16.05
16.33
16.35
15.98
15.17
13.93
12.29
10.36
8.19
5.84
3.34
0.70
-2.05
-4.85
-7.61
-10.23
-12.67
-14.96
-17.22
-19.63
-22.40
-25.71
-29.61
-34.00
-38.48
-42.37
-44.85
-45.13
-42.75
-37.75
-30.67
-22.39
-13.86
-5.87
1.10
6.85
11.40
14.86
17.39
19.18
20.37
21.11
21.53
21.74
21.84
21.92
22.02
22.20
22.40
22.54
22.57
22.48
22.29
22.03
21.65
21.02
19.93
18.28
16.07
13.51
10.90
8.51
6.47
4.70
2.95
0.92
-1.53
-4.31
-7.13
-9.67
-11.70
-13.27
-14.73
-16.55
-19.19
-22.89
-27.60
-32.90
-38.08
-42.25
-44.49
-44.10
-40.76
-34.71
-26.71
-17.78
-8.99
-1.16
5.24
10.12
13.61
15.93
17.38
18.21
18.66
18.90
19.03
19.10
19.19
19.40
19.86
20.67
21.79
23.11
24.46
25.72
26.87
27.91
28.83
29.45
29.53
28.82
27.25
24.98
22.33
19.63
16.99
14.35
11.48
8.19
4.41
0.29
-3.93
-8.02
-11.87
-15.54
-19.24
-23.23
-27.62
-32.27
-36.66
-39.97
-41.26
-39.84
-35.51
-28.69
-20.31
-11.51
-3.31
3.67
9.20
13.40
16.47
18.60
19.88
20.40
20.30
19.81
19.22
18.76
18.56
18.59
18.73
18.87
18.97
19.04
19.10
19.08
18.81
18.09
16.74
14.77
12.30
9.62
6.99
4.54
2.20
-0.21
-2.97
-6.22
-9.91
-13.83
-17.61
-20.99
-23.86
-26.38
-28.91
-31.85
-35.52
-40.01
-45.10
-50.27
-54.74
-57.57
-57.90
-55.20
-49.46
-41.30
-31.73
-21.96
-12.98
-5.35
0.80
5.69
9.66
13.01
15.91
18.39
20.39
21.86
22.79
23.27
23.45
23.52
23.68
24.03
24.60
25.32
26.10
26.79
27.25
27.35
26.94
25.94
24.30
22.13
19.57
16.80
13.96
11.10
8.17
5.15
2.02
-1.14
-4.18
-7.02
-9.63
-12.20
-15.02
-18.49
-22.86
-28.14
-33.89
-39.21
-42.90
-43.80
-41.16
-34.92
-25.78
-14.90
-3.56
7.21
16.84
25.24
32.52
38.83
44.17
48.46
51.61
53.66
54.83
55.49
55.96
56.51
57.20
57.92
58.45
58.61
58.29
57.53
56.40
54.96
53.10
50.63
47.36
43.24
38.45
33.39
28.46
23.90
19.69
15.56
11.17
6.27
0.87
-4.86
-10.63
-16.19
-21.42
-26.34
-31.11
-36.00
-41.31
-47.28
-53.92
-60.91
-67.52
-72.75
-75.55
-75.14
-71.28
-64.33
-55.18
-44.97
-34.85
-25.68
-17.97
-11.90
-7.35
-4.07
-1.80
-0.37
0.32
0.34
-0.20
-1.09
-2.02
-2.68
-2.88
-2.61
-2.03
-1.42
-1.00
-0.91
-1.17
-1.77
-2.71
-4.00
-5.66
-7.67
-9.96
-12.40
-14.84
-17.17
-19.31
-21.29
-23.19
-25.16
-27.34
-29.83
-32.68
-35.89
-39.48
-43.53
-48.07
-52.96
-57.82
-61.87
-64.17
-63.76
-60.11
-53.27
-43.93
-33.17
-22.12
-11.65
-2.20
6.10
13.29
19.42
24.42
28.22
30.80
32.29
32.95
33.10
33.01
32.86
32.71
32.59
32.52
32.51
32.58
32.68
32.67
32.34
31.48
29.89
27.56
24.58
21.24
17.81
14.57
11.63
8.89
6.12
3.04
-0.53
-4.60
-9.02
-13.50
-17.82
-21.83
-25.60
-29.37
-33.50
-38.34
-44.05
-50.38
-56.63
-61.70
-64.34
-63.56
-58.97
-50.91
-40.41
-28.82
-17.49
-7.37
1.11
7.96
13.51
18.15
22.14
25.58
28.41
30.54
31.96
32.79
33.23
33.55
33.92
34.39
34.91
35.38
35.77
36.07
36.32
36.48
36.38
35.75
34.31
31.86
28.45
24.38
20.08
15.99
12.36
9.17
6.19
3.08
-0.47
-4.58
-9.19
-13.98
-18.60
-22.78
-26.46
-29.87
-33.48
-37.77
-43.13
-49.53
-56.48
-63.03
-67.96
-70.02
-68.30
-62.50
-52.99
-40.79
-27.28
-13.90
-1.76
8.52
16.80
23.32
28.43
32.55
35.97
38.88
41.35
43.37
44.88
45.80
46.15
46.01
45.56
45.01
44.55
44.30
44.29
44.45
44.67
44.80
44.63
43.95
42.53
40.26
37.19
33.54
29.68
26.01
22.77
20.05
17.67
15.32
12.67
9.48
5.65
1.31
-3.30
-7.84
-12.03
-15.74
-19.04
-22.25
-25.87
-30.34
-35.89
-42.36
-49.11
-55.09
-59.13
-60.27
-57.98
-52.32
-43.92
-33.73
-22.82
-12.13
-2.32
6.22
13.38
19.23
23.96
27.73
30.69
32.91
34.44
35.36
35.85
36.15
36.52
37.12
37.98
38.98
39.96
40.78
41.36
41.67
41.63
41.12
39.95
37.98
35.23
31.92
28.41
25.04
21.99
19.12
16.13
12.63
8.42
3.54
-1.69
-6.83
-11.46
-15.41
-18.80
-22.02
-25.56
-29.89
-35.26
-41.53
-48.14
-54.15
-58.42
-59.92
-58.00
-52.69
-44.63
-34.93
-24.84
-15.43
-7.32
-0.67
4.68
9.06
12.74
15.85
18.39
20.27
21.50
22.19
22.60
22.99
23.58
24.40
25.40
26.41
27.31
28.08
28.72
29.27
29.64
29.67
29.15
27.88
25.82
23.06
19.87
16.61
13.62
11.11
9.08
7.36
5.63
3.62
1.18
-1.65
-4.68
-7.69
-10.53
-13.15
-15.67
-18.31
-21.43
-25.41
-30.55
-36.92
-44.11
-51.20
-56.88
-59.77
-58.91
-54.11
-45.99
-35.80
-24.96
-14.69
-5.74
1.60
7.37
11.81
15.18
17.79
19.89
21.71
23.34
24.75
25.85
26.56
26.91
27.00
26.99
27.01
27.11
27.30
27.51
27.64
27.63
27.36
26.72
25.59
23.90
21.68
19.06
16.28
13.60
11.21
9.17
7.35
5.51
3.38
0.72
-2.54
-6.28
-10.25
-14.14
-17.68
-20.76
-23.52
-26.27
-29.48
-33.58
-38.87
-45.35
-52.60
-59.80
-65.76
-69.25
-69.29
-65.46
-58.13
-48.27
-37.27
-26.44
-16.72
-8.55
-1.94
3.41
7.81
11.53
14.68
17.28
19.31
20.73
21.57
21.95
22.07
22.15
22.38
22.80
23.32
23.84
24.20
24.34
24.20
23.79
23.04
21.87
20.18
17.91
15.14
12.06
8.97
6.14
3.71
1.55
-0.60
-3.08
-6.12
-9.73
-13.72
-17.79
-21.62
-25.07
-28.14
-31.02
-34.05
-37.61
-42.03
-47.34
-53.16
-58.62
-62.55
-63.74
-61.40
-55.36
-46.18
-35.03
-23.26
-12.16
-2.65
4.87
10.44
14.46
17.38
19.58
21.21
22.27
22.67
22.44
21.76
20.97
20.43
20.34
20.75
21.50
22.37
23.15
23.71
23.94
23.78
23.14
21.98
20.33
18.26
15.90
13.41
10.86
8.23
5.48
2.51
-0.69
-4.05
-7.46
-10.80
-14.04
-17.22
-20.54
-24.26
-28.61
-33.66
-39.21
-44.63
-48.95
-51.02
-49.90
-45.17
-37.15
-26.86
-15.71
-5.08
4.04
11.23
16.56
20.39
23.11
25.03
26.31
27.06
27.39
27.43
27.32
27.21
27.19
27.30
27.54
27.90
28.36
28.90
29.46
29.88
29.93
29.31
27.79
25.31
22.01
18.26
14.48
10.99
7.89
4.98
1.92
-1.57
-5.58
-9.90
-14.15
-17.98
-21.23
-24.11
-27.04
-30.61
-35.24
-41.08
-47.83
-54.76
-60.79
-64.70
-65.40
-62.26
-55.31
-45.30
-33.50
-21.41
-10.27
-0.81
6.84
12.98
18.02
22.31
25.94
28.83
30.86
31.98
32.34
32.17
31.76
31.33
31.00
30.80
30.69
30.63
30.59
30.55
30.46
30.20
29.57
28.31
26.23
23.28
19.64
15.71
11.89
8.52
5.64
2.98
0.18
-3.12
-7.04
-11.40
-15.91
-20.20
-24.08
-27.55
-30.79
-34.05
-37.65
-41.86
-46.85
-52.54
-58.43
-63.63
-66.94
-67.19
-63.73
-56.61
-46.67
-35.20
-23.53
-12.68
-3.15
4.98
11.86
17.65
22.44
26.30
29.33
31.66
33.48
34.90
35.97
36.67
36.95
36.84
36.50
36.14
36.00
36.20
36.72
37.26
37.42
36.75
34.92
31.84
27.68
22.90
18.01
13.48
9.59
6.31
3.39
0.49
-2.65
-6.08
-9.68
-13.23
-16.54
-19.52
-22.27
-25.01
-28.05
-31.74
-36.32
-41.85
-47.99
-53.99
-58.68
-60.81
-59.42
-54.14
-45.41
-34.36
-22.47
-11.15
-1.40
6.33
12.10
16.24
19.18
21.19
22.46
23.04
23.00
22.52
21.82
21.12
20.57
20.17
19.89
19.70
19.62
19.70
19.95
20.24
20.26
19.62
18.03
15.47
12.20
8.76
5.62
3.11
1.22
-0.35
-1.99
-4.07
-6.71
-9.81
-13.07
-16.16
-18.80
-20.90
-22.63
-24.37
-26.68
-30.11
-34.94
-40.98
-47.44
-53.04
-56.27
-55.82
-51.04
-42.08
-29.93
-16.12
-2.24
10.46
21.28
30.14
37.34
43.34
48.47
52.87
56.48
59.16
60.84
61.60
61.69
61.43
61.08
60.85
60.76
60.79
60.92
61.13
61.46
61.80
61.94
61.50
60.09
57.55
53.99
49.80
45.47
41.38
37.65
34.14
30.59
26.74
22.50
17.89
13.06
8.16
3.33
-1.33
-5.79
-10.03
-14.10
-18.14
-22.31
-26.86
-32.04
-38.00
-44.64
-51.47
-57.60
-61.82
-63.00
-60.42
-54.12
-44.92
-34.16
-23.27
-13.35
-4.93
1.96
7.59
12.29
16.26
19.56
22.18
24.14
25.52
26.44
27.03
27.38
27.55
27.58
27.51
27.44
27.45
27.57
27.73
27.75
27.41
26.51
24.99
22.95
20.61
18.19
15.86
13.68
11.63
9.65
7.75
5.94
4.27
2.68
1.09
-0.73
-2.99
-5.79
-9.13
-12.85
-16.69
-20.42
-23.93
-27.25
-30.57
-34.15
-38.22
-42.90
-48.08
-53.40
-58.18
-61.54
-62.54
-60.46
-55.01
-46.54
-35.91
-24.39
-13.24
-3.48
4.36
10.25
14.48
17.51
19.75
21.45
22.69
23.48
23.82
23.75
23.38
22.81
22.14
21.45
20.84
20.42
20.29
20.50
20.94
21.35
21.30
20.42
18.49
15.53
11.87
8.00
4.39
1.33
-1.15
-3.29
-5.44
-7.96
-11.00
-14.49
-18.15
-21.65
-24.72
-27.29
-29.57
-31.93
-34.80
-38.49
-43.06
-48.14
-53.01
-56.61
-57.89
-56.01
-50.67
-42.22
-31.60
-20.09
-8.92
1.00
9.26
15.82
20.87
24.64
27.27
28.87
29.58
29.63
29.35
29.07
29.01
29.23
29.63
30.04
30.35
30.53
30.68
30.86
31.02
31.01
30.56
29.41
27.41
24.59
21.13
17.33
13.54
10.03
6.97
4.36
2.01
-0.42
-3.24
-6.63
-10.54
-14.67
-18.66
-22.18
-25.16
-27.74
-30.33
-33.41
-37.44
-42.67
-48.97
-55.71
-61.85
-66.09
-67.20
-64.43
-57.75
-47.82
-35.91
-23.40
-11.57
-1.27
7.17
13.83
19.04
23.24
26.75
29.76
32.25
34.15
35.34
35.82
35.73
35.30
34.73
34.20
33.72
33.26
32.71
32.04
31.28
30.49
29.61
28.53
27.00
24.80
21.81
18.12
13.99
9.80
5.83
2.23
-1.02
-4.06
-7.15
-10.46
-14.16
-18.26
-22.66
-27.08
-31.20
-34.73
-37.60
-39.99
-42.34
-45.20
-48.96
-53.75
-59.19
-64.45
-68.40
-69.84
-67.92
-62.29
-53.30
-41.92
-29.45
-17.19
-6.16
3.07
10.42
16.09
20.45
23.80
26.41
28.41
29.89
30.90
31.49
31.73
31.66
31.38
31.02
30.72
30.59
30.69
30.97
31.28
31.44
31.25
30.58
29.31
27.39
24.87
21.88
18.69
15.60
12.86
10.46
8.15
5.54
2.26
-1.76
-6.21
-10.58
-14.36
-17.34
-19.70
-21.97
-24.75
-28.53
-33.50
-39.51
-46.05
-52.24
-57.00
-59.22
-57.99
-53.00
-44.66
-34.05
-22.58
-11.58
-1.95
5.98
12.28
17.25
21.13
24.05
26.06
27.23
27.69
27.68
27.47
27.32
27.37
27.61
27.94
28.23
28.38
28.41
28.39
28.43
28.54
28.58
28.27
27.30
25.44
22.68
19.24
15.49
11.82
8.44
5.35
2.29
-1.05
-4.89
-9.18
-13.67
-17.97
-21.77
-25.04
-28.01
-31.13
-34.89
-39.68
-45.56
-52.22
-58.94
-64.65
-68.12
-68.26
-64.52
-57.11
-46.98
-35.59
-24.35
-14.29
-5.77
1.32
7.29
12.42
16.81
20.38
23.08
24.94
26.09
26.72
27.05
27.22
27.36
27.50
27.65
27.76
27.83
27.88
27.99
28.18
28.36
28.23
27.42
25.63
22.82
19.32
15.65
12.32
9.56
7.27
5.05
2.48
-0.70
-4.48
-8.65
-12.92
-17.04
-20.86
-24.39
-27.74
-31.12
-34.85
-39.32
-44.83
-51.39
-58.55
-65.35
-70.46
-72.54
-70.69
-64.75
-55.39
-43.93
-31.94
-20.74
-11.13
-3.27
3.14
8.57
13.38
17.67
21.37
24.33
26.51
27.99
28.96
29.61
30.03
30.22
30.15
29.86
29.46
29.09
28.81
28.58
28.19
27.38
25.94
23.77
20.94
17.62
14.02
10.36
6.83
3.58
0.72
-1.75
-3.95
-6.08
-8.35
-10.91
-13.75
-16.75
-19.76
-22.67
-25.49
-28.37
-31.55
-35.33
-40.04
-45.83
-52.54
-59.53
-65.66
-69.50
-69.79
-65.91
-58.07
-47.29
-35.03
-22.68
-11.29
-1.35
7.02
13.91
19.48
23.89
27.30
29.84
31.64
32.80
33.48
33.84
34.13
34.52
35.16
36.04
37.10
38.21
39.31
40.30
41.04
41.31
40.84
39.42
37.05
33.94
30.47
27.00
23.71
20.55
17.29
13.68
9.60
5.13
0.51
-3.96
-8.05
-11.71
-15.13
-18.71
-22.99
-28.41
-35.05
-42.45
-49.60
-55.11
-57.62
-56.24
-50.79
-41.81
-30.40
-17.87
-5.54
5.54
14.65
21.50
26.24
29.38
31.60
33.48
35.32
37.05
38.45
39.31
39.66
39.75
39.90
40.24
40.71
41.06
41.06
40.65
39.96
39.22
38.53
37.77
36.59
34.58
31.49
27.41
22.75
18.12
14.05
10.81
8.24
5.90
3.25
-0.10
-4.18
-8.73
-13.32
-17.57
-21.38
-24.93
-28.61
-32.87
-38.09
-44.45
-51.86
-59.85
-67.51
-73.58
-76.68
-75.68
-70.18
-60.63
-48.34
-34.94
-22.01
-10.53
-0.88
7.15
13.97
19.98
25.41
30.32
34.65
38.30
41.18
43.24
44.49
45.04
45.08
44.85
44.64
44.70
45.08
45.76
46.47
46.90
46.74
45.78
44.03
41.66
38.94
36.14
33.45
30.90
28.38
25.69
22.69
19.31
15.61
11.81
8.12
4.73
1.62
-1.36
-4.49
-8.00
-11.99
-16.33
-20.80
-25.16
-29.29
-33.31
-37.52
-42.32
-48.05
-54.77
-62.07
-69.03
-74.30
-76.45
-74.44
-68.00
-57.75
-45.07
-31.63
-18.86
-7.68
1.61
9.17
15.36
20.55
24.96
28.75
31.98
34.69
36.86
38.45
39.48
39.98
40.05
39.89
39.67
39.58
39.76
40.26
40.97
41.68
42.03
41.69
40.48
38.43
35.85
33.14
30.60
28.31
26.12
23.78
21.11
18.08
14.89
11.76
8.86
6.17
3.54
0.77
-2.29
-5.63
-9.16
-12.70
-16.11
-19.33
-22.40
-25.48
-28.85
-32.84
-37.76
-43.67
-50.20
-56.47
-61.16
-62.92
-60.76
-54.49
-44.84
-33.21
-21.23
-10.25
-1.05
6.23
11.88
16.30
19.82
22.59
24.61
25.92
26.60
26.91
27.14
27.53
28.17
28.98
29.79
30.42
30.82
31.04
31.20
31.40
31.63
31.73
31.47
30.61
28.98
26.49
23.24
19.45
15.47
11.65
8.26
5.40
2.94
0.66
-1.67
-4.21
-7.02
-10.02
-13.10
-16.23
-19.40
-22.70
-26.20
-30.02
-34.25
-39.07
-44.61
-50.89
-57.61
-64.01
-68.94
-71.07
-69.35
-63.38
-53.71
-41.61
-28.75
-16.67
-6.35
1.94
8.48
13.80
18.37
22.43
25.94
28.75
30.71
31.81
32.15
31.93
31.40
30.77
30.29
30.14
30.52
31.47
32.89
34.48
35.83
36.52
36.33
35.22
33.40
31.13
28.67
26.16
23.61
20.97
18.23
15.47
12.81
10.35
8.09
5.89
3.56
0.90
-2.17
-5.58
-9.13
-12.62
-15.90
-18.97
-21.98
-25.17
-28.87
-33.39
-38.88
-45.25
-52.04
-58.39
-63.13
-65.08
-63.43
-58.01
-49.42
-38.85
-27.72
-17.24
-8.18
-0.76
5.23
10.21
14.56
18.57
22.31
25.67
28.48
30.54
31.83
32.44
32.62
32.65
32.74
32.97
33.37
33.90
34.56
35.26
35.88
36.20
35.96
35.00
33.29
31.00
28.41
25.79
23.29
20.86
18.38
15.69
12.68
9.43
6.02
2.62
-0.69
-3.89
-7.01
-10.10
-13.15
-16.10
-18.91
-21.59
-24.26
-27.18
-30.61
-34.80
-39.88
-45.72
-51.88
-57.58
-61.80
-63.49
-61.91
-56.83
-48.71
-38.53
-27.60
-17.14
-8.02
-0.67
4.91
8.95
11.81
13.80
15.14
16.02
16.56
16.87
17.07
17.22
17.38
17.54
17.68
17.82
17.96
18.21
18.61
19.18
19.73
19.98
19.55
18.13
15.70
12.47
8.90
5.43
2.33
-0.44
-3.15
-6.14
-9.66
-13.67
-17.93
-22.13
-25.97
-29.35
-32.40
-35.44
-38.91
-43.22
-48.55
-54.67
-60.85
-65.97
-68.78
-68.28
-64.06
-56.41
-46.26
-34.85
-23.45
-13.03
-4.17
2.98
8.56
12.87
16.23
18.89
20.99
22.59
23.73
24.52
25.08
25.53
25.99
26.47
26.99
27.54
28.10
28.65
29.07
29.19
28.79
27.65
25.67
22.86
19.39
15.53
11.60
7.88
4.52
1.45
-1.53
-4.78
-8.52
-12.78
-17.34
-21.82
-25.88
-29.42
-32.68
-36.13
-40.36
-45.78
-52.46
-60.04
-67.71
-74.36
-78.76
-79.90
-77.17
-70.66
-61.06
-49.55
-37.46
-25.90
-15.58
-6.76
0.68
7.00
12.48
17.29
21.48
25.04
27.95
30.27
32.09
33.55
34.73
35.67
36.37
36.85
37.13
37.33
37.49
37.60
37.53
37.10
36.16
34.63
32.52
29.90
26.85
23.46
19.87
16.24
12.72
9.42
6.28
3.16
-0.21
-4.02
-8.35
-13.07
-17.89
-22.49
-26.66
-30.38
-33.92
-37.77
-42.40
-48.16
-55.07
-62.68
-70.12
-76.15
-79.50
-79.14
-74.59
-66.13
-54.73
-41.77
-28.71
-16.73
-6.46
1.95
8.74
14.32
19.03
23.09
26.54
29.35
31.47
32.94
33.87
34.44
34.79
35.07
35.38
35.75
36.24
36.82
37.44
37.89
37.91
37.21
35.62
33.14
29.96
26.42
22.89
19.61
16.59
13.66
10.56
7.07
3.13
-1.14
-5.53
-9.80
-13.86
-17.78
-21.82
-26.32
-31.68
-38.16
-45.68
-53.74
-61.32
-67.04
-69.57
-68.00
-62.14
-52.70
-40.92
-28.28
-16.00
-4.84
4.90
13.29
20.49
26.62
31.70
35.74
38.77
40.88
42.29
43.19
43.77
44.17
44.47
44.75
45.09
45.60
46.30
47.15
47.92
48.36
48.24
47.48
46.14
44.38
42.33
40.04
37.50
34.65
31.53
28.24
24.88
21.54
18.21
14.78
11.08
7.00
2.45
-2.52
-7.81
-13.28
-18.73
-24.02
-29.06
-33.88
-38.68
-43.81
-49.64
-56.43
-64.07
-72.02
-79.17
-84.10
-85.44
-82.27
-74.52
-63.01
-49.27
-35.06
-21.90
-10.62
-1.35
6.35
13.11
19.39
25.32
30.76
35.43
39.15
41.94
44.00
45.59
46.87
47.90
48.67
49.18
49.50
49.84
50.36
51.08
51.83
52.25
51.92
50.55
48.13
44.90
41.30
37.79
34.64
31.84
29.17
26.30
23.06
19.45
15.70
12.11
8.87
5.93
3.06
0.00
-3.47
-7.39
-11.62
-15.97
-20.31
-24.58
-28.86
-33.28
-38.03
-43.36
-49.51
-56.51
-64.07
-71.42
-77.34
-80.45
-79.65
-74.45
-65.28
-53.25
-39.93
-26.79
-14.90
-4.73
3.73
10.82
16.94
22.41
27.36
31.72
35.36
38.11
39.96
41.03
41.56
41.80
41.94
42.12
42.37
42.75
43.31
44.01
44.72
45.18
45.08
44.16
42.36
39.83
36.87
33.78
30.77
27.87
25.03
22.10
19.03
15.85
12.66
9.58
6.65
3.77
0.73
-2.64
-6.41
-10.46
-14.56
-18.47
-22.11
-25.60
-29.19
-33.24
-38.00
-43.60
-49.81
-56.07
-61.43
-64.72
-64.88
-61.28
-53.99
-43.79
-31.98
-19.96
-8.90
0.49
8.02
13.86
18.39
21.93
24.72
26.83
28.25
29.04
29.30
29.27
29.18
29.21
29.42
29.79
30.26
30.83
31.49
32.20
32.80
33.05
32.71
31.71
30.11
28.09
25.85
23.49
20.96
18.21
15.25
12.17
9.15
6.30
3.62
0.96
-1.92
-5.17
-8.80
-12.67
-16.56
-20.26
-23.71
-27.00
-30.32
-33.94
-38.14
-43.12
-48.98
-55.55
-62.26
-68.15
-71.91
-72.34
-68.69
-60.98
-50.05
-37.32
-24.31
-12.25
-1.83
6.73
13.51
18.71
22.57
25.28
27.14
28.43
29.49
30.49
31.51
32.49
33.28
33.78
33.98
33.99
34.00
34.18
34.58
35.04
35.24
34.87
33.75
31.97
29.79
27.49
25.22
22.93
20.45
17.63
14.51
11.29
8.25
5.55
3.12
0.71
-1.99
-5.13
-8.70
-12.49
-16.27
-19.88
-23.31
-26.65
-30.03
-33.59
-37.47
-41.84
-46.87
-52.68
-59.14
-65.72
-71.48
-75.16
-75.60
-72.09
-64.69
-54.19
-41.96
-29.42
-17.75
-7.61
0.86
7.86
13.70
18.62
22.72
26.02
28.51
30.22
31.26
31.81
32.05
32.16
32.31
32.58
33.04
33.68
34.47
35.32
36.05
36.47
36.34
35.56
34.12
32.22
30.05
27.81
25.58
23.30
20.88
18.23
15.35
12.31
9.23
6.18
3.17
0.08
-3.21
-6.79
-10.64
-14.62
-18.52
-22.16
-25.52
-28.77
-32.25
-36.36
-41.35
-47.25
-53.66
-59.80
-64.58
-66.88
-65.86
-61.27
-53.50
-43.54
-32.65
-22.02
-12.52
-4.54
1.88
6.93
10.87
13.92
16.26
17.98
19.14
19.78
19.99
19.87
19.63
19.44
19.47
19.79
20.40
21.19
22.02
22.70
23.01
22.72
21.65
19.75
17.15
14.11
10.90
7.73
4.62
1.48
-1.85
-5.49
-9.41
-13.45
-17.41
-21.08
-24.36
-27.36
-30.33
-33.65
-37.71
-42.70
-48.44
-54.32
-59.33
-62.29
-62.18
-58.49
-51.35
-41.58
-30.40
-19.16
-8.91
-0.26
6.72
12.26
16.70
20.27
23.02
24.90
25.89
26.15
25.98
25.71
25.60
25.73
26.01
26.34
26.67
27.05
27.60
28.38
29.29
30.05
30.26
29.54
27.68
24.76
21.10
17.18
13.41
10.04
7.01
4.06
0.87
-2.81
-7.03
-11.63
-16.36
-20.91
-25.13
-28.96
-32.55
-36.19
-40.27
-45.17
-51.11
-57.97
-65.16
-71.63
-76.09
-77.28
-74.47
-67.60
-57.43
-45.25
-32.47
-20.32
-9.54
-0.41
7.15
13.39
18.59
22.92
26.53
29.49
31.88
33.79
35.34
36.61
37.67
38.53
39.17
39.57
39.78
39.92
40.13
40.48
40.87
41.04
40.65
39.31
36.86
33.37
29.17
24.76
20.60
16.94
13.73
10.71
7.53
3.94
-0.11
-4.48
-8.93
-13.27
-17.38
-21.28
-25.06
-28.94
-33.18
-38.12
-44.04
-50.97
-58.51
-65.78
-71.48
-74.28
-73.16
-67.85
-58.86
-47.40
-34.93
-22.79
-11.87
-2.52
5.29
11.80
17.29
21.92
25.78
28.88
31.30
33.15
34.62
35.86
36.97
37.92
38.62
39.02
39.11
39.04
38.95
38.92
38.85
38.47
37.49
35.75
33.28
30.31
27.12
23.95
20.86
17.74
14.44
10.83
6.86
2.63
-1.68
-5.88
-9.84
-13.54
-17.10
-20.76
-24.83
-29.58
-35.16
-41.46
-48.05
-54.10
-58.53
-60.23
-58.36
-52.70
-43.77
-32.72
-20.96
-9.84
-0.25
7.52
13.60
18.37
22.16
25.15
27.37
28.79
29.52
29.74
29.79
29.92
30.32
31.00
31.81
32.62
33.29
33.82
34.22
34.48
34.44
33.83
32.38
29.91
26.53
22.61
18.65
15.04
11.93
9.10
6.16
2.72
-1.38
-6.00
-10.80
-15.41
-19.58
-23.29
-26.69
-30.02
-33.64
-37.96
-43.34
-49.91
-57.36
-64.77
-70.74
-73.71
-72.52
-66.82
-57.24
-45.18
-32.32
-20.07
-9.29
-0.18
7.46
14.03
19.80
24.92
29.39
33.17
36.24
38.59
40.19
41.06
41.28
41.02
40.54
40.10
39.89
39.97
40.24
40.54
40.68
40.48
39.82
38.62
36.83
34.49
31.68
28.53
25.22
21.92
18.79
15.89
13.20
10.61
7.98
5.15
2.02
-1.43
-5.20
-9.25
-13.49
-17.82
-22.11
-26.18
-29.98
-33.59
-37.32
-41.61
-46.91
-53.37
-60.69
-67.99
-73.90
-76.98
-76.08
-70.76
-61.43
-49.31
-35.97
-22.93
-11.31
-1.59
6.23
12.51
17.70
22.21
26.30
30.06
33.42
36.22
38.29
39.55
40.01
39.88
39.43
38.90
38.49
38.24
38.14
38.15
38.18
38.13
37.88
37.24
36.06
34.19
31.66
28.57
25.13
21.61
18.24
15.18
12.50
10.13
7.91
5.61
2.97
-0.13
-3.69
-7.53
-11.41
-15.08
-18.42
-21.51
-24.60
-28.05
-32.21
-37.34
-43.46
-50.22
-56.91
-62.41
-65.48
-65.05
-60.65
-52.52
-41.66
-29.51
-17.51
-6.79
2.08
8.99
14.17
17.97
20.73
22.71
24.14
25.20
25.99
26.58
27.03
27.38
27.68
27.99
28.39
28.90
29.54
30.28
30.98
31.42
31.29
30.28
28.22
25.14
21.35
17.33
13.55
10.29
7.60
5.21
2.77
-0.07
-3.47
-7.38
-11.58
-15.79
-19.75
-23.31
-26.48
-29.48
-32.69
-36.56
-41.49
-47.53
-54.25
-60.66
-65.40
-67.12
-64.92
-58.67
-49.09
-37.51
-25.39
-13.98
-3.97
4.44
11.37
17.12
21.91
25.86
29.02
31.42
33.13
34.23
34.82
35.02
34.93
34.70
34.44
34.30
34.32
34.56
34.96
35.39
35.67
35.58
34.89
33.45
31.25
28.40
25.14
21.70
18.29
14.98
11.80
8.74
5.79
2.95
0.15
-2.78
-6.05
-9.81
-14.03
-18.46
-22.73
-26.50
-29.70
-32.58
-35.62
-39.40
-44.38
-50.64
-57.85
-65.11
-71.16
-74.60
-74.29
-69.69
-61.11
-49.64
-36.85
-24.28
-13.09
-3.83
3.50
9.25
13.91
17.91
21.58
25.04
28.29
31.21
33.62
35.39
36.48
37.01
37.19
37.26
37.44
37.85
38.49
39.23
39.81
39.90
39.22
37.63
35.25
32.41
29.56
27.10
25.12
23.45
21.69
19.44
16.52
13.01
9.25
5.61
2.33
-0.58
-3.33
-6.18
-9.36
-12.93
-16.81
-20.81
-24.72
-28.39
-31.85
-35.25
-38.95
-43.31
-48.61
-54.77
-61.28
-67.13
-71.07
-71.94
-69.07
-62.49
-52.93
-41.58
-29.73
-18.45
-8.45
-0.05
6.70
11.93
15.87
18.85
21.21
23.21
24.99
26.55
27.80
28.68
29.20
29.43
29.52
29.61
29.78
30.06
30.43
30.79
30.95
30.69
29.79
28.08
25.58
22.47
19.08
15.76
12.75
10.12
7.72
5.25
2.43
-0.88
-4.68
-8.73
-12.79
-16.63
-20.21
-23.63
-27.16
-31.11
-35.79
-41.39
-47.81
-54.59
-60.87
-65.43
-67.08
-64.96
-58.91
-49.53
-38.04
-25.88
-14.32
-4.19
4.23
11.04
16.49
20.83
24.20
26.70
28.43
29.52
30.17
30.58
30.97
31.43
32.01
32.67
33.33
33.88
34.26
34.43
34.39
34.15
33.68
32.90
31.68
29.90
27.45
24.36
20.77
16.93
13.11
9.54
6.34
3.45
0.68
-2.23
-5.48
-9.17
-13.23
-17.43
-21.51
-25.23
-28.56
-31.72
-35.10
-39.19
-44.40
-50.83
-58.20
-65.74
-72.33
-76.69
-77.72
-74.78
-67.93
-57.90
-45.93
-33.41
-21.57
-11.20
-2.58
4.42
10.23
15.34
20.13
24.79
29.25
33.29
36.60
38.94
40.28
40.82
40.95
41.06
41.47
42.21
43.09
43.82
44.12
43.86
43.05
41.77
40.08
37.90
35.17
31.83
28.00
23.94
19.99
16.45
13.42
10.81
8.38
5.81
2.87
-0.50
-4.25
-8.18
-12.07
-15.77
-19.25
-22.60
-26.00
-29.74
-34.10
-39.35
-45.61
-52.73
-60.16
-66.89
-71.64
-73.16
-70.64
-64.01
-54.07
-42.17
-29.84
-18.32
-8.31
0.04
6.96
12.75
17.67
21.80
25.14
27.66
29.45
30.62
31.36
31.82
32.13
32.39
32.66
33.03
33.61
34.44
35.48
36.54
37.24
37.17
36.02
33.71
30.46
26.68
22.79
19.11
15.75
12.58
9.35
5.85
1.99
-2.15
-6.37
-10.44
-14.19
-17.64
-20.97
-24.51
-28.62
-33.62
-39.55
-46.17
-52.78
-58.37
-61.75
-61.94
-58.46
-51.48
-41.85
-30.79
-19.57
-9.16
-0.11
7.45
13.58
18.46
22.21
24.93
26.73
27.77
28.27
28.45
28.50
28.60
28.82
29.21
29.76
30.46
31.28
32.11
32.85
33.30
33.24
32.49
30.93
28.54
25.48
21.99
18.42
15.10
12.22
9.79
7.57
5.16
2.14
-1.77
-6.55
-11.81
-16.98
-21.55
-25.31
-28.46
-31.60
-35.45
-40.56
-47.14
-54.88
-62.99
-70.31
-75.53
-77.48
-75.43
-69.37
-59.99
-48.54
-36.44
-24.86
-14.51
-5.55
2.13
8.78
14.57
19.61
23.94
27.60
30.60
32.97
34.72
35.90
36.62
37.07
37.48
38.01
38.70
39.48
40.13
40.44
40.26
39.53
38.29
36.65
34.74
32.62
30.35
27.90
25.25
22.40
19.36
16.19
12.93
9.63
6.29
2.88
-0.68
-4.49
-8.57
-12.87
-17.23
-21.42
-25.27
-28.78
-32.16
-35.78
-40.11
-45.50
-51.98
-59.11
-66.03
-71.48
-74.19
-73.19
-68.13
-59.43
-48.16
-35.79
-23.68
-12.87
-3.77
3.69
9.85
15.12
19.76
23.86
27.36
30.25
32.53
34.31
35.72
36.86
37.81
38.60
39.24
39.75
40.18
40.56
40.92
41.21
41.35
41.14
40.37
38.85
36.53
33.50
30.02
26.37
22.81
19.47
16.35
13.37
10.40
7.33
4.08
0.64
-2.93
-6.53
-10.02
-13.33
-16.49
-19.63
-22.98
-26.79
-31.28
-36.56
-42.58
-48.97
-55.04
-59.77
-62.07
-61.05
-56.34
-48.30
-37.92
-26.53
-15.39
-5.42
2.96
9.75
15.19
19.55
23.00
25.59
27.33
28.25
28.55
28.52
28.51
28.80
29.47
30.42
31.47
32.41
33.13
33.61
33.84
33.74
33.19
32.02
30.12
27.51
24.29
20.69
16.97
13.40
10.18
7.37
4.86
2.37
-0.39
-3.68
-7.56
-11.86
-16.30
-20.58
-24.55
-28.25
-31.91
-35.86
-40.50
-46.13
-52.84
-60.34
-67.82
-73.99
-77.41
-76.94
-72.16
-63.55
-52.34
-40.12
-28.27
-17.68
-8.66
-1.13
5.19
10.55
15.16
19.17
22.72
25.91
28.76
31.22
33.21
34.66
35.60
36.12
36.35
36.44
36.45
36.45
36.41
36.26
35.90
35.24
34.13
32.53
30.36
27.63
24.42
20.89
17.27
13.79
10.63
7.85
5.32
2.81
0.03
-3.20
-6.90
-10.97
-15.19
-19.33
-23.30
-27.07
-30.74
-34.48
-38.57
-43.35
-49.09
-55.86
-63.22
-70.19
-75.38
-77.36
-75.17
-68.68
-58.68
-46.59
-33.95
-22.04
-11.57
-2.72
4.66
10.89
16.28
21.07
25.42
29.38
32.87
35.73
37.79
39.00
39.52
39.67
39.81
40.23
41.04
42.17
43.36
44.36
44.91
44.81
43.99
42.46
40.38
37.99
35.57
33.26
31.09
28.91
26.50
23.71
20.54
17.14
13.77
10.60
7.64
4.76
1.71
-1.69
-5.45
-9.41
-13.35
-17.07
-20.52
-23.83
-27.23
-30.97
-35.28
-40.32
-46.15
-52.59
-59.04
-64.46
-67.47
-66.89
-62.07
-53.36
-41.98
-29.61
-17.81
-7.55
0.91
7.82
13.59
18.54
22.72
26.10
28.64
30.40
31.55
32.29
32.80
33.19
33.50
33.69
33.82
33.92
34.07
34.35
34.71
35.03
35.03
34.42
32.97
30.63
27.51
23.85
19.94
16.05
12.41
9.12
6.20
3.53
0.83
-2.21
-5.85
-10.08
-14.62
-18.99
-22.78
-25.81
-28.33
-30.88
-34.13
-38.53
-44.13
-50.43
-56.43
-60.91
-62.68
-60.90
-55.36
-46.54
-35.50
-23.59
-12.07
-1.87
6.55
13.18
18.26
22.09
24.97
27.13
28.72
29.86
30.65
31.17
31.50
31.74
32.00
32.34
32.80
33.36
33.93
34.43
34.74
34.80
34.53
33.81
32.52
30.52
27.76
24.37
20.60
16.84
13.40
10.45
7.90
5.45
2.74
-0.52
-4.44
-8.93
-13.70
-18.43
-22.82
-26.70
-30.08
-33.17
-36.28
-39.84
-44.24
-49.76
-56.37
-63.65
-70.70
-76.28
-79.05
-77.98
-72.70
-63.64
-51.91
-38.99
-26.24
-14.64
-4.67
3.64
10.50
16.20
21.02
25.15
28.74
31.82
34.38
36.35
37.71
38.51
38.90
39.15
39.50
40.06
40.83
41.66
42.33
42.62
42.39
41.57
40.13
38.10
35.54
32.54
29.24
25.76
22.20
18.64
15.11
11.64
8.28
5.08
2.06
-0.83
-3.74
-6.82
-10.18
-13.79
-17.52
-21.21
-24.75
-28.14
-31.53
-35.20
-39.43
-44.50
-50.51
-57.15
-63.70
-69.00
-71.70
-70.74
-65.69
-57.02
-45.91
-33.89
-22.34
-12.13
-3.57
3.49
9.36
14.34
18.62
22.33
25.49
28.10
30.14
31.64
32.63
33.26
33.63
33.87
34.05
34.22
34.41
34.62
34.83
34.93
34.68
33.81
32.13
29.61
26.45
22.92
19.29
15.73
12.22
8.68
5.03
1.27
-2.50
-6.13
-9.51
-12.66
-15.77
-19.18
-23.26
-28.23
-34.00
-40.02
-45.32
-48.73
-49.26
-46.37
-40.21
-31.55
-21.55
-11.44
-2.17
5.72
12.12
17.21
21.27
24.48
26.92
28.49
29.10
28.77
27.73
26.39
25.20
24.47
24.32
24.56
24.85
24.88
24.45
23.58
22.40
21.12
19.78
18.33
16.54
14.18
11.11
7.39
3.21
-1.08
-5.21
-9.02
-12.56
-16.02
-19.70
-23.90
-28.90
-34.82
-41.54
-48.56
-55.05
-59.92
-62.13
-60.96
-56.26
-48.49
-38.59
-27.71
-16.91
-6.98
1.65
8.89
14.86
19.84
24.09
27.86
31.19
33.97
36.03
37.21
37.54
37.21
36.56
35.93
35.55
35.44
35.45
35.36
34.94
34.01
32.48
30.36
27.69
24.59
21.23
17.72
14.11
10.39
6.47
2.32
-2.02
-6.45
-10.78
-14.91
-18.82
-22.60
-26.49
-30.81
-35.88
-41.83
-48.51
-55.34
-61.29
-65.08
-65.58
-62.17
-54.99
-44.94
-33.41
-21.79
-11.13
-1.91
5.88
12.54
18.39
23.67
28.47
32.76
36.53
39.68
42.07
43.58
44.14
43.85
42.95
41.79
40.67
39.74
38.99
38.30
37.47
36.35
34.84
32.86
30.43
27.57
24.43
21.21
18.03
14.91
11.72
8.21
4.21
-0.28
-5.06
-9.77
-14.11
-17.90
-21.24
-24.44
-27.93
-32.15
-37.35
-43.43
-49.82
-55.55
-59.39
-60.27
-57.61
-51.55
-42.91
-32.93
-22.83
-13.53
-5.42
1.47
7.38
12.53
17.13
21.24
24.86
27.90
30.20
31.63
32.07
31.61
30.52
29.22
28.13
27.52
27.42
27.61
27.72
27.40
26.41
24.72
22.43
19.73
16.79
13.68
10.43
7.04
3.50
-0.13
-3.81
-7.49
-11.11
-14.66
-18.14
-21.65
-25.38
-29.59
-34.52
-40.15
-46.15
-51.68
-55.64
-56.91
-54.76
-49.12
-40.69
-30.66
-20.40
-10.98
-2.93
3.75
9.41
14.46
19.15
23.46
27.24
30.32
32.63
34.26
35.33
35.99
36.29
36.31
36.10
35.84
35.67
35.73
36.00
36.34
36.49
36.20
35.29
33.74
31.61
29.05
26.19
23.13
19.99
16.88
13.90
11.12
8.52
5.94
3.17
0.02
-3.59
-7.58
-11.71
-15.76
-19.59
-23.20
-26.67
-30.21
-33.99
-38.24
-43.16
-48.88
-55.25
-61.69
-67.16
-70.40
-70.31
-66.41
-59.03
-49.18
-38.19
-27.27
-17.21
-8.37
-0.80
5.58
10.92
15.38
19.16
22.50
25.58
28.43
30.95
32.95
34.26
34.82
34.76
34.34
33.90
33.72
33.96
34.57
35.30
35.84
35.88
35.28
34.08
32.49
30.72
28.90
27.06
25.18
23.21
21.12
18.92
16.59
14.09
11.39
8.54
5.66
2.92
0.47
-1.68
-3.67
-5.79
-8.32
-11.43
-15.07
-18.97
-22.83
-26.38
-29.56
-32.46
-35.38
-38.68
-42.66
-47.48
-53.03
-58.86
-64.10
-67.68
-68.51
-65.91
-59.80
-50.87
-40.32
-29.50
-19.52
-10.97
-3.93
1.87
6.76
11.02
14.77
18.04
20.82
23.09
24.90
26.23
27.08
27.44
27.32
26.84
26.16
25.49
25.01
24.79
24.74
24.64
24.23
23.26
21.67
19.57
17.20
14.80
12.50
10.27
7.96
5.38
2.47
-0.71
-3.97
-7.09
-9.91
-12.40
-14.73
-17.09
-19.67
-22.54
-25.59
-28.60
-31.30
-33.56
-35.40
-37.05
-38.85
-41.18
-44.34
-48.40
-53.14
-57.99
-62.05
-64.23
-63.56
-59.50
-52.22
-42.53
-31.70
-21.00
-11.36
-3.21
3.55
9.22
14.16
18.55
22.41
25.65
28.22
30.17
31.66
32.89
34.08
35.33
36.70
38.13
39.51
40.77
41.84
42.70
43.31
43.62
43.54
42.94
41.75
39.95
37.63
34.98
32.19
29.40
26.68
23.99
21.27
18.50
15.70
12.93
10.17
7.36
4.42
1.32
-1.84
-4.90
-7.68
-10.18
-12.61
-15.36
-18.92
-23.61
-29.50
-36.22
-43.02
-48.84
-52.52
-53.12
-50.17
-43.86
-34.97
-24.73
-14.44
-5.15
2.52
8.46
12.88
16.24
18.91
21.20
23.26
25.13
26.81
28.25
29.40
30.21
30.64
30.70
30.48
30.14
29.86
29.75
29.80
29.86
29.75
29.34
28.56
27.42
25.95
24.11
21.83
19.05
15.84
12.37
8.97
5.90
3.26
0.95
-1.34
-3.92
-6.94
-10.39
-14.04
-17.64
-21.01
-24.09
-26.94
-29.73
-32.70
-36.09
-40.17
-45.09
-50.65
-56.30
-61.05
-63.73
-63.35
-59.46
-52.34
-42.87
-32.29
-21.76
-12.15
-3.91
2.85
8.23
12.42
15.61
18.00
19.82
21.25
22.45
23.48
24.28
24.79
24.96
24.82
24.45
24.00
23.55
23.18
22.94
22.80
22.72
22.51
21.92
20.69
18.67
16.01
13.00
10.09
7.51
5.24
3.03
0.51
-2.53
-6.07
-9.85
-13.48
-16.67
-19.31
-21.48
-23.50
-25.76
-28.69
-32.63
-37.65
-43.47
-49.38
-54.35
-57.22
-57.07
-53.41
-46.39
-36.78
-25.75
-14.57
-4.32
4.34
11.16
16.28
20.02
22.70
24.59
25.82
26.52
26.76
26.73
26.66
26.75
27.19
28.03
29.23
30.69
32.29
33.88
35.36
36.59
37.46
37.85
37.67
36.91
35.66
34.13
32.62
31.41
30.61
30.10
29.62
28.86
27.67
26.12
24.56
23.36
22.71
22.56
22.52
22.06
20.63
17.81
13.45
7.77
1.39
-4.73
-9.42
-11.74
-11.26
-8.31
-3.82
0.95
4.93
7.50
8.56
8.39
7.38
5.80
3.75
1.28
-1.57
-4.66
-7.81
-10.88
-13.74
-16.36
-18.75
-20.90
-22.82
-24.51
-25.95
-27.17
-28.30
-29.56
-31.26
-33.68
-36.97
-41.07
-45.72
-50.61
-55.47
-60.19
-64.88
-69.69
-74.80
-80.17
-85.60
-90.71
-94.96
-97.83
-98.80
-97.48
-93.66
-87.40
-79.11
-69.43
-59.14
-48.80
-38.56
-28.12
-16.91
-4.45
9.31
23.78
37.96
50.67
61.00
68.53
73.39
76.09
77.29
77.58
77.37
76.87
76.12
75.12
73.81
72.21
70.35
68.29
66.09
63.78
61.43
59.04
56.71
54.50
52.44
50.46
48.36
45.85
42.60
38.37
33.08
26.91
20.29
13.74
7.68
2.31
-2.51
-7.11
-11.80
-16.70
-21.69
-26.47
-30.77
-34.47
-37.67
-40.56
-43.36
-46.18
-49.11
-52.21
-55.59
-59.32
-63.27
-67.00
-69.73
-70.58
-68.80
-64.10
-56.81
-47.77
-38.07
-28.74
-20.47
-13.54
-7.89
-3.28
0.52
3.73
6.40
8.53
10.06
11.02
11.49
11.68
11.80
12.06
12.55
13.23
14.03
14.88
15.73
16.54
17.19
17.50
17.23
16.22
14.48
12.25
9.91
7.87
6.35
5.36
4.58
3.54
1.85
-0.73
-4.10
-7.89
-11.60
-14.79
-17.30
-19.21
-20.89
-22.79
-25.30
-28.63
-32.74
-37.24
-41.51
-44.69
-45.92
-44.52
-40.25
-33.44
-24.94
-15.90
-7.44
-0.35
5.10
9.04
11.84
13.90
15.44
16.53
17.12
17.18
16.78
16.08
15.27
14.51
13.89
13.46
13.27
13.42
13.97
14.91
16.12
17.36
18.32
18.77
18.58
17.81
16.58
15.05
13.30
11.39
9.33
7.22
5.18
3.36
1.85
0.60
-0.55
-1.81
-3.30
-5.06
-6.95
-8.82
-10.57
-12.24
-14.02
-16.21
-19.07
-22.81
-27.40
-32.57
-37.72
-41.96
-44.35
-44.06
-40.75
-34.64
-26.53
-17.54
-8.75
-0.90
5.70
11.09
15.49
19.07
21.96
24.15
25.71
26.70
27.24
27.39
27.21
26.69
25.88
24.90
23.97
23.30
23.02
23.07
23.24
23.22
22.79
21.82
20.41
18.69
16.82
14.90
12.92
10.85
8.65
6.36
4.09
1.95
0.07
-1.51
-2.79
-3.81
-4.70
-5.59
-6.64
-8.03
-9.82
-12.03
-14.48
-16.99
-19.36
-21.54
-23.72
-26.24
-29.50
-33.75
-38.83
-44.16
-48.71
-51.27
-50.88
-47.13
-40.32
-31.41
-21.70
-12.41
-4.38
2.04
6.98
10.76
13.81
16.41
18.69
20.69
22.32
23.51
24.24
24.51
24.43
24.14
23.78
23.45
23.25
23.22
23.37
23.67
24.02
24.29
24.33
24.02
23.24
21.95
20.18
18.04
15.70
13.38
11.18
9.14
7.15
5.03
2.63
-0.13
-3.17
-6.37
-9.61
-12.79
-15.84
-18.70
-21.32
-23.63
-25.68
-27.66
-29.88
-32.78
-36.61
-41.33
-46.39
-50.81
-53.37
-53.07
-49.45
-42.81
-34.03
-24.35
-14.92
-6.57
0.28
5.62
9.60
12.51
14.59
16.08
17.15
17.90
18.40
18.70
18.88
19.02
19.22
19.49
19.83
20.18
20.56
20.96
21.41
21.83
22.06
21.88
21.08
19.62
17.59
15.24
12.78
10.38
8.07
5.86
3.71
1.61
-0.52
-2.79
-5.38
-8.45
-12.02
-15.93
-19.86
-23.49
-26.64
-29.37
-32.01
-35.06
-38.95
-43.87
-49.58
-55.31
-59.93
-62.30
-61.50
-57.25
-49.94
-40.52
-30.19
-20.06
-10.92
-3.13
3.29
8.56
12.97
16.77
20.12
23.05
25.49
27.36
28.59
29.23
29.35
29.08
28.60
28.06
27.63
27.42
27.49
27.74
28.03
28.16
27.96
27.39
26.45
25.14
23.43
21.26
18.62
15.63
12.51
9.54
6.93
4.75
2.86
1.04
-1.00
-3.43
-6.27
-9.44
-12.77
-16.08
-19.24
-22.22
-25.14
-28.21
-31.72
-35.99
-41.13
-47.05
-53.23
-58.75
-62.44
-63.17
-60.26
-53.70
-44.29
-33.32
-22.21
-12.10
-3.59
3.23
8.62
12.89
16.32
19.11
21.39
23.30
24.98
26.51
27.93
29.20
30.26
31.09
31.75
32.35
33.06
34.01
35.22
36.57
37.82
38.66
38.84
38.28
37.10
35.45
33.54
31.43
29.12
26.60
23.93
21.20
18.52
15.95
13.42
10.81
8.02
4.98
1.73
-1.67
-5.16
-8.64
-12.03
-15.27
-18.41
-21.62
-25.30
-29.89
-35.64
-42.39
-49.40
-55.47
-59.29
-59.87
-56.85
-50.62
-42.09
-32.42
-22.60
-13.37
-5.16
1.83
7.54
12.04
15.55
18.36
20.73
22.80
24.56
25.88
26.71
27.09
27.23
27.40
27.76
28.34
29.02
29.64
30.05
30.21
30.06
29.50
28.38
26.57
24.06
21.05
17.91
15.05
12.76
11.04
9.69
8.29
6.46
4.01
0.97
-2.45
-5.98
-9.39
-12.58
-15.60
-18.65
-22.06
-26.18
-31.26
-37.23
-43.61
-49.39
-53.34
-54.30
-51.64
-45.50
-36.84
-27.05
-17.51
-9.25
-2.63
2.45
6.42
9.65
12.36
14.54
16.11
17.04
17.42
17.49
17.52
17.72
18.15
18.73
19.35
19.92
20.41
20.86
21.27
21.53
21.46
20.80
19.39
17.16
14.26
10.92
7.46
4.19
1.30
-1.15
-3.24
-5.12
-7.00
-8.96
-10.99
-12.94
-14.59
-15.81
-16.54
-16.89
-17.08
-17.41
-18.22
-19.91
-22.84
-27.26
-33.04
-39.56
-45.64
-49.80
-50.76
-47.80
-41.13
-31.79
-21.27
-11.05
-2.11
5.10
10.69
14.98
18.37
21.18
23.61
25.78
27.70
29.34
30.59
31.33
31.51
31.20
30.60
30.03
29.82
30.17
31.09
32.34
33.52
34.21
34.14
33.25
31.68
29.65
27.32
24.79
22.06
19.18
16.24
13.42
10.86
8.58
6.42
4.15
1.50
-1.68
-5.37
-9.35
-13.33
-17.06
-20.40
-23.44
-26.40
-29.57
-33.23
-37.61
-42.81
-48.77
-55.16
-61.28
-66.17
-68.67
-67.83
-63.17
-54.95
-44.04
-31.72
-19.25
-7.50
3.27
13.30
23.00
32.57
41.65
49.43
54.93
57.55
57.41
55.37
52.67
50.40
49.14
48.82
49.02
49.32
49.52
49.64
49.75
49.77
49.42
48.37
46.41
43.56
40.06
36.24
32.40
28.69
25.19
21.90
18.79
15.86
13.09
10.43
7.80
5.07
2.14
-1.03
-4.41
-7.92
-11.43
-14.84
-18.11
-21.33
-24.70
-28.54
-33.13
-38.55
-44.49
-50.13
-54.23
-55.53
-53.12
-46.82
-37.34
-25.99
-14.35
-3.72
5.15
12.12
17.47
21.68
25.13
27.97
30.18
31.60
32.14
31.82
30.91
29.79
28.87
28.39
28.34
28.56
28.82
28.96
28.93
28.78
28.52
28.03
27.11
25.49
23.02
19.74
15.92
11.92
8.13
4.75
1.80
-0.91
-3.67
-6.77
-10.32
-14.28
-18.40
-22.36
-25.90
-28.95
-31.69
-34.47
-37.78
-42.03
-47.42
-53.77
-60.49
-66.55
-70.72
-71.85
-69.18
-62.64
-52.84
-41.05
-28.72
-17.13
-7.16
0.93
7.33
12.48
16.81
20.62
23.97
26.85
29.18
30.96
32.25
33.19
33.88
34.40
34.81
35.09
35.26
35.30
35.20
34.98
34.60
34.02
33.14
31.86
30.07
27.76
25.03
22.05
19.05
16.20
13.59
11.15
8.69
6.01
2.93
-0.56
-4.38
-8.35
-12.26
-15.96
-19.36
-22.52
-25.58
-28.80
-32.54
-37.16
-42.90
-49.54
-56.34
-62.03
-65.17
-64.57
-59.72
-51.03
-39.63
-27.07
-14.80
-3.84
5.33
12.69
18.53
23.23
27.16
30.56
33.53
36.03
37.90
38.95
39.07
38.34
37.01
35.45
34.07
33.14
32.78
32.85
33.10
33.21
32.92
32.08
30.69
28.86
26.70
24.28
21.69
18.99
16.27
13.67
11.29
9.14
7.05
4.81
2.17
-1.02
-4.71
-8.72
-12.76
-16.60
-20.13
-23.38
-26.52
-29.75
-33.33
-37.49
-42.48
-48.34
-54.83
-61.23
-66.37
-68.95
-67.86
-62.67
-53.79
-42.43
-30.16
-18.44
-8.22
0.19
6.98
12.53
17.15
20.93
23.82
25.75
26.77
27.13
27.17
27.20
27.38
27.63
27.81
27.78
27.56
27.34
27.31
27.58
28.01
28.27
27.93
26.70
24.46
21.39
17.88
14.33
11.07
8.17
5.49
2.71
-0.50
-4.36
-8.82
-13.57
-18.21
-22.34
-25.77
-28.57
-31.04
-33.64
-36.85
-41.04
-46.36
-52.61
-59.10
-64.73
-68.08
-67.92
-63.56
-55.19
-43.86
-31.15
-18.64
-7.51
1.65
8.83
14.33
18.51
21.68
24.08
25.88
27.27
28.43
29.47
30.41
31.22
31.84
32.25
32.54
32.84
33.27
33.94
34.82
35.77
36.54
36.86
36.50
35.39
33.58
31.24
28.61
25.85
23.05
20.22
17.31
14.31
11.24
8.10
4.88
1.49
-2.20
-6.27
-10.69
-15.29
-19.83
-24.09
-27.94
-31.41
-34.71
-38.19
-42.29
-47.43
-53.76
-61.02
-68.31
-74.26
-77.37
-76.41
-70.96
-61.58
-49.57
-36.57
-24.08
-13.06
-3.93
3.41
9.28
14.11
18.24
21.98
25.46
28.71
31.58
33.83
35.31
35.99
36.05
35.88
35.87
36.35
37.41
38.88
40.44
41.66
42.21
41.85
40.63
38.72
36.44
34.04
31.69
29.35
26.86
24.02
20.77
17.22
13.59
10.20
7.22
4.64
2.22
-0.35
-3.35
-6.85
-10.77
-14.86
-18.89
-22.72
-26.40
-30.11
-34.15
-38.85
-44.48
-51.10
-58.42
-65.66
-71.60
-74.82
-74.11
-68.96
-59.73
-47.64
-34.38
-21.61
-10.51
-1.57
5.33
10.68
15.04
18.79
22.10
24.96
27.24
28.84
29.78
30.18
30.26
30.23
30.28
30.50
30.93
31.57
32.39
33.31
34.16
34.71
34.74
34.03
32.52
30.30
27.56
24.60
21.67
18.97
16.56
14.39
12.29
10.02
7.37
4.21
0.53
-3.55
-7.81
-12.03
-16.00
-19.61
-22.91
-26.06
-29.38
-33.25
-38.02
-43.80
-50.31
-56.83
-62.21
-65.17
-64.62
-60.06
-51.72
-40.62
-28.22
-16.01
-5.20
3.61
10.32
15.30
18.98
21.77
23.94
25.58
26.68
27.25
27.36
27.16
26.89
26.72
26.75
26.97
27.29
27.61
27.89
28.11
28.30
28.38
28.19
27.52
26.15
24.00
21.21
18.09
15.04
12.42
10.34
8.70
7.18
5.39
3.01
-0.06
-3.69
-7.62
-11.56
-15.38
-19.15
-23.11
-27.58
-32.90
-39.22
-46.51
-54.43
-62.31
-69.09
-73.55
-74.53
-71.34
-64.04
-53.49
-41.14
-28.60
-17.23
-7.75
-0.25
5.64
10.46
14.62
18.30
21.45
23.90
25.58
26.60
27.20
27.69
28.31
29.14
30.10
31.13
32.17
33.25
34.37
35.43
36.20
36.37
35.67
34.07
31.74
28.99
26.12
23.32
20.55
17.72
14.70
11.46
8.06
4.64
1.25
-2.10
-5.51
-9.07
-12.79
-16.60
-20.32
-23.81
-27.01
-30.09
-33.36
-37.24
-42.12
-48.11
-54.91
-61.67
-67.10
-69.75
-68.51
-62.98
-53.66
-41.82
-29.08
-16.88
-6.14
2.81
10.11
16.07
20.99
25.06
28.40
31.09
33.21
34.85
36.06
36.92
37.47
37.83
38.09
38.35
38.68
39.10
39.57
40.03
40.30
40.17
39.42
37.91
35.70
33.02
30.21
27.56
25.20
23.05
20.88
18.47
15.70
12.60
9.31
5.98
2.71
-0.58
-4.08
-7.97
-12.36
-17.18
-22.22
-27.19
-31.85
-36.12
-40.17
-44.37
-49.26
-55.28
-62.50
-70.40
-77.79
-83.10
-84.84
-82.18
-75.24
-65.15
-53.64
-42.52
-33.19
-26.35
-21.96
-19.36
-17.53
-15.31
-11.71
-6.15
1.34
10.17
19.38
27.94
35.09
40.49
44.21
46.57
47.95
48.67
48.90
48.70
48.08
47.08
45.85
44.59
43.49
42.65
42.06
41.61
41.23
40.85
40.53
40.27
40.01
39.55
38.62
36.94
34.42
31.14
27.41
23.59
20.00
16.80
13.94
11.20
8.33
5.11
1.45
-2.60
-6.87
-11.14
-15.18
-18.83
-22.05
-24.97
-27.95
-31.47
-36.05
-41.97
-49.02
-56.42
-62.84
-66.79
-67.01
-62.96
-54.91
-43.95
-31.58
-19.28
-8.15
1.22
8.75
14.67
19.28
22.79
25.32
26.91
27.66
27.80
27.69
27.72
28.17
29.06
30.21
31.35
32.29
33.06
33.78
34.61
35.49
36.15
36.19
35.27
33.28
30.38
26.91
23.25
19.67
16.31
13.15
10.06
6.88
3.47
-0.24
-4.24
-8.42
-12.65
-16.76
-20.70
-24.45
-28.05
-31.66
-35.46
-39.77
-44.92
-51.13
-58.26
-65.64
-72.06
-76.06
-76.37
-72.37
-64.33
-53.36
-40.98
-28.69
-17.59
-8.16
-0.38
6.08
11.64
16.62
21.15
25.18
28.56
31.12
32.88
34.01
34.78
35.52
36.39
37.46
38.72
40.17
41.82
43.63
45.39
46.72
47.19
46.45
44.39
41.22
37.32
33.10
28.91
24.89
21.07
17.45
13.98
10.65
7.41
4.18
0.85
-2.72
-6.62
-10.82
-15.16
-19.40
-23.34
-26.88
-30.16
-33.58
-37.63
-42.76
-49.16
-56.54
-64.09
-70.57
-74.56
-74.89
-71.05
-63.36
-52.88
-41.05
-29.28
-18.53
-9.22
-1.34
5.40
11.29
16.55
21.26
25.40
28.88
31.58
33.43
34.42
34.68
34.47
34.04
33.64
33.48
33.63
34.12
34.85
35.62
36.13
36.06
35.12
33.13
30.10
26.22
21.81
17.29
13.05
9.36
6.25
3.55
0.92
-1.97
-5.37
-9.29
-13.59
-18.00
-22.25
-26.19
-29.77
-33.13
-36.60
-40.62
-45.60
-51.72
-58.77
-65.97
-72.14
-75.93
-76.28
-72.69
-65.41
-55.31
-43.60
-31.52
-20.07
-9.90
-1.34
5.56
10.92
14.97
18.02
20.35
22.13
23.46
24.39
25.00
25.51
26.20
27.31
28.95
31.00
33.19
35.20
36.82
37.96
38.59
38.65
37.96
36.28
33.42
29.39
24.49
19.25
14.29
10.04
6.56
3.55
0.43
-3.33
-8.05
-13.66
-19.70
-25.60
-30.86
-35.24
-38.92
-42.42
-46.47
-51.69
-58.42
-66.43
-74.91
-82.53
-87.72
-89.03
-85.50
-76.97
-64.17
-48.68
-32.55
-17.78
-5.82
2.84
8.64
12.61
15.86
19.07
22.38
25.46
27.85
29.35
30.02
30.25
30.42
30.79
31.43
32.23
33.09
33.93
34.77
35.62
36.43
37.05
37.25
36.83
35.65
33.71
31.15
28.20
25.06
21.95
18.95
16.04
13.10
9.91
6.26
2.00
-2.88
-8.27
-13.93
-19.66
-25.31
-30.84
-36.30
-41.74
-47.26
-53.02
-59.23
-66.16
-73.89
-82.08
-89.81
-95.66
-98.06
-95.82
-88.65
-77.21
-62.97
-47.65
-32.74
-19.08
-6.94
3.86
13.62
22.55
30.68
37.98
44.36
49.83
54.48
58.39
61.68
64.39
66.57
68.30
69.65
70.82
71.98
73.25
74.64
75.92
76.78
76.83
75.82
73.76
70.89
67.63
64.35
61.24
58.23
55.06
51.47
47.32
42.70
37.89
33.23
28.98
25.14
21.52
17.77
13.59
8.87
3.76
-1.43
-6.37
-10.85
-14.91
-18.83
-23.02
-27.94
-33.92
-41.04
-48.94
-56.76
-63.26
-67.04
-66.98
-62.62
-54.35
-43.35
-31.16
-19.26
-8.63
0.28
7.55
13.45
18.30
22.29
25.53
28.08
30.02
31.43
32.43
33.13
33.61
33.98
34.30
34.64
35.04
35.46
35.88
36.22
36.41
36.38
36.03
35.23
33.86
31.80
29.02
25.67
21.99
18.33
14.92
11.88
9.09
6.29
3.16
-0.48
-4.57
-8.89
-13.07
-16.86
-20.17
-23.19
-26.23
-29.68
-33.84
-38.87
-44.78
-51.38
-58.24
-64.56
-69.29
-71.23
-69.43
-63.55
-54.05
-42.14
-29.43
-17.43
-7.16
1.11
7.62
12.94
17.50
21.48
24.75
27.11
28.41
28.73
28.36
27.70
27.07
26.68
26.58
26.76
27.19
27.82
28.56
29.26
29.70
29.64
28.89
27.38
25.12
22.25
18.95
15.44
11.93
8.61
5.53
2.64
-0.22
-3.28
-6.71
-10.55
-14.75
-19.15
-23.55
-27.83
-31.92
-35.83
-39.74
-43.92
-48.72
-54.51
-61.45
-69.30
-77.22
-83.90
-87.77
-87.51
-82.53
-73.19
-60.74
-46.85
-33.13
-20.66
-9.92
-0.85
6.85
13.53
19.41
24.65
29.27
33.24
36.44
38.78
40.18
40.75
40.71
40.44
40.29
40.52
41.18
42.12
43.01
43.49
43.30
42.38
40.81
38.79
36.49
33.97
31.22
28.17
24.80
21.17
17.40
13.65
10.00
6.50
3.11
-0.25
-3.71
-7.39
-11.36
-15.56
-19.84
-23.99
-27.85
-31.44
-35.05
-39.15
-44.22
-50.62
-58.26
-66.57
-74.41
-80.36
-83.01
-81.39
-75.29
-65.34
-52.80
-39.22
-25.99
-14.05
-3.77
4.90
12.21
18.42
23.73
28.24
32.02
35.09
37.51
39.31
40.54
41.27
41.62
41.78
41.94
42.24
42.75
43.40
44.05
44.46
44.46
43.90
42.68
40.77
38.19
35.05
31.51
27.82
24.19
20.79
17.62
14.58
11.47
8.11
4.41
0.38
-3.86
-8.09
-12.11
-15.80
-19.15
-22.33
-25.65
-29.48
-34.15
-39.89
-46.69
-54.21
-61.67
-67.93
-71.67
-71.71
-67.45
-59.12
-47.74
-34.83
-21.96
-10.27
-0.32
7.83
14.39
19.63
23.71
26.72
28.70
29.77
30.15
30.10
29.89
29.75
29.81
30.06
30.49
30.99
31.48
31.91
32.25
32.45
32.38
31.83
30.53
28.29
25.10
21.16
16.90
12.77
9.09
5.95
3.18
0.47
-2.50
-5.89
-9.70
-13.73
-17.78
-21.67
-25.35
-28.97
-32.75
-37.03
-42.09
-48.19
-55.31
-63.05
-70.57
-76.62
-79.78
-78.93
-73.59
-64.20
-51.97
-38.51
-25.36
-13.56
-3.50
4.97
12.26
18.71
24.49
29.51
33.56
36.49
38.27
39.04
39.12
38.83
38.46
38.21
38.15
38.32
38.71
39.26
39.86
40.32
40.38
39.85
38.57
36.54
33.88
30.79
27.48
24.11
20.80
17.57
14.47
11.46
8.49
5.39
1.98
-1.88
-6.26
-11.06
-16.03
-20.86
-25.34
-29.36
-33.07
-36.76
-40.83
-45.69
-51.63
-58.72
-66.57
-74.38
-80.87
-84.59
-84.32
-79.45
-70.27
-57.89
-43.90
-29.85
-16.90
-5.59
4.03
12.14
18.98
24.73
29.51
33.49
36.85
39.73
42.12
43.91
44.89
45.05
44.61
44.00
43.69
43.91
44.57
45.31
45.67
45.32
44.20
42.47
40.41
38.26
36.10
33.86
31.37
28.49
25.19
21.57
17.83
14.17
10.71
7.42
4.16
0.75
-2.94
-6.92
-11.06
-15.19
-19.16
-22.88
-26.37
-29.78
-33.39
-37.53
-42.56
-48.69
-55.78
-63.23
-69.91
-74.42
-75.47
-72.30
-64.96
-54.37
-41.95
-29.22
-17.41
-7.16
1.34
8.29
13.98
18.62
22.32
25.09
26.96
27.97
28.31
28.24
28.06
28.01
28.19
28.51
28.85
29.12
29.29
29.46
29.67
29.82
29.63
28.69
26.67
23.47
19.34
14.76
10.28
6.28
2.79
-0.49
-4.06
-8.34
-13.48
-19.23
-25.09
-30.51
-35.20
-39.23
-43.00
-47.03
-51.80
-57.60
-64.45
-72.07
-79.75
-86.46
-90.92
-91.90
-88.61
-81.02
-69.94
-56.82
-43.28
-30.69
-19.79
-10.78
-3.46
2.55
7.54
11.71
15.14
17.90
20.06
21.70
22.90
23.77
24.44
25.11
26.02
27.39
29.26
31.48
33.73
35.59
36.78
37.16
36.79
35.78
34.23
32.11
29.42
26.19
22.59
18.89
15.36
12.14
9.14
6.16
2.91
-0.80
-4.98
-9.51
-14.17
-18.74
-23.05
-27.09
-31.01
-35.09
-39.76
-45.44
-52.42
-60.65
-69.54
-77.94
-84.30
-87.02
-84.99
-77.96
-66.73
-52.85
-38.11
-24.07
-11.58
-0.89
8.23
16.11
23.02
29.06
34.29
38.72
42.41
45.43
47.77
49.45
50.49
51.01
51.26
51.54
52.13
53.12
54.47
55.88
56.97
57.40
56.90
55.43
53.14
50.27
47.12
43.95
40.87
37.88
34.89
31.77
28.45
24.97
21.48
18.15
15.01
11.98
8.85
5.32
1.21
-3.52
-8.74
-14.21
-19.66
-24.93
-30.02
-35.16
-40.74
-47.19
-54.77
-63.32
-72.12
-79.94
-85.25
-86.61
-83.06
-74.50
-61.69
-46.19
-29.90
-14.57
-1.41
9.21
17.59
24.46
30.54
36.23
41.49
46.04
49.52
51.82
53.08
53.68
54.07
54.55
55.28
56.21
57.25
58.29
59.28
60.22
61.04
61.60
61.69
61.10
59.71
57.59
54.97
52.16
49.46
47.04
44.90
42.95
41.01
38.95
36.69
34.22
31.53
28.64
25.54
22.25
18.83
15.35
11.81
8.07
3.89
-1.10
-7.24
-14.66
-23.12
-31.92
-39.95
-45.91
-48.62
-47.44
-42.46
-34.49
-24.85
-14.91
-5.77
2.02
8.39
13.60
17.91
21.46
24.18
25.96
26.78
26.80
26.32
25.72
25.25
25.04
25.02
25.09
25.16
25.19
25.18
25.10
24.86
24.31
23.29
21.68
19.44
16.58
13.24
9.55
5.74
2.00
-1.52
-4.78
-7.88
-11.02
-14.41
-18.16
-22.25
-26.52
-30.70
-34.57
-38.01
-41.09
-44.06
-47.35
-51.37
-56.43
-62.57
-69.44
-76.34
-82.20
-85.84
-86.22
-82.72
-75.41
-65.02
-52.80
-40.15
-28.29
-17.94
-9.30
-2.22
3.68
8.70
13.03
16.67
19.61
21.77
23.20
24.03
24.47
24.83
25.36
26.23
27.52
29.15
30.94
32.64
34.01
34.76
34.70
33.75
31.96
29.52
26.69
23.73
20.77
17.85
14.92
11.89
8.75
5.55
2.40
-0.66
-3.68
-6.83
-10.29
-14.18
-18.47
-22.97
-27.43
-31.62
-35.46
-39.02
-42.56
-46.40
-50.88
-56.22
-62.37
-68.85
-74.73
-78.72
-79.51
-76.28
-68.89
-58.08
-45.22
-31.82
-19.18
-8.05
1.31
9.07
15.55
21.12
26.07
30.57
34.64
38.16
40.92
42.73
43.57
43.58
43.09
42.48
42.09
42.13
42.63
43.45
44.34
44.97
45.02
44.28
42.66
40.20
37.12
33.67
30.14
26.71
23.50
20.43
17.37
14.19
10.79
7.19
3.50
-0.22
-3.91
-7.63
-11.41
-15.25
-19.03
-22.59
-25.82
-28.75
-31.65
-34.92
-38.99
-44.14
-50.32
-57.11
-63.68
-68.93
-71.73
-71.17
-66.83
-58.96
-48.40
-36.47
-24.54
-13.78
-4.87
2.07
7.32
11.40
14.74
17.57
19.89
21.57
22.52
22.81
22.64
22.32
22.10
22.09
22.25
22.51
22.80
23.08
23.30
23.31
22.90
21.81
19.88
17.15
13.82
10.23
6.68
3.38
0.34
-2.51
-5.37
-8.39
-11.63
-15.09
-18.63
-22.13
-25.52
-28.88
-32.46
-36.60
-41.63
-47.65
-54.38
-61.07
-66.56
-69.58
-69.10
-64.67
-56.67
-46.16
-34.53
-23.11
-12.73
-3.72
4.05
10.82
16.75
21.79
25.82
28.69
30.42
31.19
31.28
31.01
30.60
30.19
29.80
29.43
29.03
28.64
28.30
28.09
27.98
27.83
27.37
26.30
24.41
21.68
18.28
14.57
10.95
7.70
4.90
2.44
0.04
-2.64
-5.84
-9.71
-14.12
-18.84
-23.55
-27.98
-32.07
-35.96
-39.91
-44.26
-49.31
-55.31
-62.29
-69.97
-77.62
-84.02
-87.74
-87.52
-82.74
-73.72
-61.58
-47.97
-34.42
-21.99
-11.13
-1.78
6.32
13.49
19.87
25.53
30.44
34.58
37.91
40.45
42.29
43.56
44.43
45.08
45.61
46.09
46.52
46.89
47.11
47.10
46.74
45.92
44.60
42.79
40.57
38.05
35.34
32.54
29.66
26.73
23.72
20.58
17.31
13.91
10.38
6.72
2.92
-1.07
-5.23
-9.49
-13.73
-17.81
-21.67
-25.42
-29.32
-33.76
-39.10
-45.52
-52.84
-60.44
-67.24
-71.91
-73.21
-70.32
-63.20
-52.56
-39.73
-26.21
-13.30
-1.82
7.95
16.13
23.00
28.79
33.65
37.63
40.73
43.00
44.48
45.28
45.49
45.29
44.86
44.38
44.02
43.82
43.80
43.84
43.81
43.53
42.78
41.38
39.17
36.18
32.59
28.77
25.14
22.03
19.55
17.54
15.59
13.25
10.18
6.27
1.70
-3.12
-7.77
-11.92
-15.53
-18.82
-22.19
-26.10
-30.91
-36.70
-43.26
-49.99
-56.01
-60.27
-61.71
-59.66
-53.97
-45.21
-34.43
-22.96
-11.95
-2.20
5.99
12.69
18.11
22.49
25.97
28.63
30.53
31.74
32.34
32.49
32.42
32.39
32.67
33.38
34.50
35.81
37.02
37.83
38.07
37.72
36.82
35.45
33.64
31.40
28.77
25.81
22.68
19.50
16.35
13.23
10.08
6.86
3.53
0.07
-3.57
-7.47
-11.69
-16.23
-20.96
-25.70
-30.22
-34.45
-38.50
-42.60
-47.10
-52.26
-58.24
-64.99
-72.07
-78.70
-83.76
-86.06
-84.66
-79.28
-70.38
-59.10
-46.81
-34.75
-23.68
-13.83
-5.04
2.96
10.39
17.32
23.68
29.29
33.98
37.63
40.22
41.89
42.90
43.55
44.15
44.86
45.72
46.66
47.54
48.23
48.65
48.65
48.13
46.99
45.23
42.96
40.46
38.00
35.83
33.99
32.31
30.52
28.32
25.52
22.17
18.48
14.76
11.28
8.16
5.36
2.64
-0.23
-3.49
-7.26
-11.50
-16.08
-20.78
-25.34
-29.55
-33.30
-36.67
-39.95
-43.62
-48.17
-53.86
-60.51
-67.31
-73.05
-76.32
-76.05
-71.79
-63.89
-53.36
-41.56
-29.76
-18.92
-9.50
-1.57
5.13
10.95
16.21
21.07
25.53
29.46
32.66
35.05
36.62
37.52
37.97
38.16
38.27
38.42
38.69
39.10
39.58
39.98
40.08
39.66
38.59
36.85
34.57
31.86
28.87
25.69
22.44
19.21
16.06
13.10
10.29
7.56
4.76
1.72
-1.65
-5.35
-9.29
-13.30
-17.15
-20.67
-23.87
-26.90
-30.09
-33.82
-38.35
-43.75
-49.71
-55.60
-60.55
-63.63
-64.05
-61.38
-55.66
-47.46
-37.70
-27.44
-17.61
-8.87
-1.48
4.61
9.58
13.66
16.98
19.61
21.57
22.88
23.61
23.89
23.90
23.87
23.97
24.35
25.04
26.01
27.11
28.16
28.93
29.20
28.82
27.76
26.12
24.10
21.93
19.77
17.66
15.51
13.18
10.54
7.57
4.33
1.02
-2.21
-5.23
-8.03
-10.72
-13.49
-16.51
-19.91
-23.67
-27.69
-31.84
-36.00
-40.20
-44.61
-49.52
-55.21
-61.76
-68.93
-75.98
-81.80
-85.16
-85.10
-81.21
-73.86
-64.06
-53.13
-42.29
-32.33
-23.56
-15.81
-8.75
-2.07
4.38
10.57
16.34
21.52
25.99
29.68
32.58
34.76
36.39
37.69
38.94
40.38
42.14
44.18
46.34
48.43
50.22
51.56
52.31
52.37
51.70
50.40
48.75
47.11
45.86
45.13
44.81
44.52
43.79
42.23
39.68
36.26
32.25
27.96
23.63
19.33
14.97
10.39
5.42
0.05
-5.60
-11.26
-16.63
-21.57
-26.06
-30.36
-34.88
-40.05
-46.19
-53.29
-60.78
-67.62
-72.45
-74.01
-71.55
-65.17
-55.72
-44.58
-33.13
-22.40
-12.91
-4.71
2.38
8.58
14.09
19.03
23.42
27.25
30.43
32.86
34.48
35.33
35.63
35.66
35.75
36.12
36.88
37.94
39.14
40.19
40.86
40.91
40.25
38.86
36.87
34.47
31.91
29.36
26.90
24.55
22.21
19.80
17.19
14.41
11.48
8.49
5.55
2.67
-0.15
-2.99
-5.91
-8.91
-11.94
-14.90
-17.74
-20.56
-23.57
-27.07
-31.30
-36.32
-41.91
-47.58
-52.60
-56.11
-57.29
-55.57
-50.75
-43.17
-33.60
-23.15
-12.98
-3.96
3.49
9.42
14.15
17.98
21.05
23.30
24.58
24.86
24.33
23.34
22.29
21.47
20.97
20.74
20.68
20.76
20.91
21.11
21.28
21.28
20.93
20.08
18.61
16.47
13.70
10.46
7.01
3.66
0.64
-2.00
-4.37
-6.72
-9.29
-12.16
-15.31
-18.55
-21.76
-24.88
-27.93
-31.00
-34.20
-37.73
-41.84
-46.82
-52.75
-59.35
-65.79
-70.79
-73.02
-71.52
-66.13
-57.51
-46.95
-35.85
-25.31
-15.97
-7.99
-1.28
4.33
9.01
12.90
16.12
18.81
21.05
22.90
24.37
25.50
26.39
27.15
27.92
28.75
29.63
30.51
31.29
31.85
32.09
31.91
31.22
29.99
28.23
25.99
23.36
20.43
17.30
14.10
10.97
8.00
5.22
2.53
-0.23
-3.24
-6.63
-10.37
-14.35
-18.37
-22.30
-26.05
-29.68
-33.32
-37.23
-41.67
-46.89
-53.02
-59.91
-67.03
-73.49
-78.14
-79.84
-77.82
-71.94
-62.77
-51.44
-39.32
-27.63
-17.16
-8.18
-0.55
6.11
12.19
17.89
23.24
28.11
32.29
35.66
38.16
39.85
40.86
41.34
41.44
41.32
41.11
40.98
41.05
41.32
41.69
41.89
41.67
40.80
39.19
36.84
33.87
30.45
26.77
23.05
19.47
16.19
13.20
10.40
7.57
4.50
1.10
-2.61
-6.46
-10.24
-13.77
-16.99
-19.96
-22.90
-26.16
-30.16
-35.25
-41.58
-48.86
-56.32
-62.75
-66.80
-67.38
-64.02
-57.03
-47.39
-36.41
-25.33
-15.02
-5.91
1.95
8.69
14.46
19.35
23.42
26.66
29.07
30.70
31.60
31.94
31.92
31.76
31.63
31.65
31.83
32.16
32.58
32.98
33.21
33.00
32.07
30.22
27.38
23.73
19.58
15.32
11.22
7.35
3.60
-0.29
-4.44
-8.88
-13.43
-17.85
-22.00
-25.90
-29.83
-34.22
-39.51
-45.95
-53.45
-61.51
-69.15
-75.05
-77.93
-76.80
-71.38
-62.18
-50.39
-37.50
-24.87
-13.40
-3.44
5.15
12.70
19.56
25.86
31.52
36.28
39.86
42.12
43.13
43.23
42.93
42.67
42.73
43.10
43.61
44.01
44.15
43.97
43.50
42.82
41.86
40.51
38.64
36.22
33.35
30.25
27.18
24.25
21.45
18.65
15.70
12.54
9.21
5.78
2.28
-1.34
-5.23
-9.49
-14.10
-18.90
-23.64
-28.16
-32.47
-36.83
-41.61
-47.19
-53.75
-61.09
-68.55
-75.08
-79.39
-80.32
-77.16
-69.90
-59.32
-46.68
-33.44
-20.75
-9.23
0.97
10.04
18.24
25.76
32.68
39.00
44.72
49.78
54.12
57.66
60.35
62.25
63.52
64.42
65.20
65.99
66.79
67.49
67.92
67.94
67.43
66.35
64.66
62.33
59.39
55.93
52.19
48.44
44.98
41.99
39.45
37.13
34.66
31.72
28.18
24.21
20.19
16.54
13.44
10.75
8.08
4.95
1.10
-3.42
-8.27
-13.03
-17.41
-21.38
-25.13
-28.99
-33.27
-38.23
-44.03
-50.67
-57.82
-64.74
-70.33
-73.37
-72.93
-68.70
-61.14
-51.35
-40.66
-30.27
-20.95
-12.98
-6.22
-0.32
5.10
10.28
15.26
19.87
23.86
26.99
29.16
30.52
31.31
31.82
32.30
32.86
33.55
34.35
35.20
35.98
36.53
36.67
36.20
35.03
33.15
30.62
27.56
24.11
20.47
16.81
13.33
10.13
7.24
4.53
1.79
-1.25
-4.77
-8.80
-13.20
-17.69
-21.95
-25.82
-29.35
-32.88
-36.86
-41.77
-47.77
-54.65
-61.69
-67.84
-71.93
-73.01
-70.57
-64.69
-56.02
-45.60
-34.60
-24.08
-14.78
-7.04
-0.82
4.21
8.51
12.44
16.21
19.73
22.75
24.98
26.26
26.68
26.54
26.24
26.14
26.45
27.19
28.23
29.41
30.48
31.24
31.48
31.05
29.83
27.87
25.32
22.47
19.67
17.21
15.22
13.61
12.11
10.39
8.19
5.45
2.35
-0.77
-3.60
-5.95
-7.94
-9.89
-12.22
-15.22
-18.92
-23.11
-27.34
-31.22
-34.56
-37.47
-40.35
-43.72
-48.01
-53.37
-59.55
-65.84
-71.21
-74.49
-74.70
-71.30
-64.41
-54.73
-43.40
-31.67
-20.56
-10.69
-2.18
5.22
11.96
18.45
24.85
31.08
36.83
41.73
45.52
48.14
49.71
50.48
50.67
50.49
50.03
49.41
48.71
48.06
47.50
47.01
46.41
45.44
43.89
41.62
38.74
35.51
32.29
29.37
26.85
24.58
22.28
19.70
16.76
13.63
10.57
7.81
5.43
3.25
0.94
-1.79
-5.12
-8.99
-13.17
-17.37
-21.34
-25.02
-28.48
-31.95
-35.76
-40.16
-45.30
-51.02
-56.81
-61.80
-64.93
-65.28
-62.29
-56.06
-47.31
-37.18
-26.90
-17.46
-9.38
-2.74
2.69
7.24
11.18
14.61
17.50
19.75
21.32
22.24
22.65
22.74
22.75
22.85
23.12
23.58
24.15
24.71
25.16
25.44
25.52
25.36
24.86
23.94
22.44
20.29
17.54
14.31
10.87
7.43
4.15
1.04
-2.06
-5.29
-8.79
-12.50
-16.27
-19.85
-23.04
-25.82
-28.29
-30.70
-33.32
-36.41
-40.19
-44.73
-49.95
-55.51
-60.77
-64.82
-66.65
-65.44
-60.82
-53.08
-43.15
-32.31
-21.91
-12.84
-5.45
0.51
5.58
10.30
14.96
19.48
23.59
27.01
29.62
31.50
32.90
34.05
35.06
35.94
36.63
37.12
37.49
37.85
38.25
38.61
38.67
38.09
36.64
34.33
31.43
28.37
25.55
23.17
21.18
19.32
17.29
14.91
12.17
9.23
6.34
3.61
1.05
-1.52
-4.29
-7.46
-11.05
-14.99
-19.11
-23.22
-27.18
-30.90
-34.38
-37.77
-41.31
-45.33
-50.10
-55.67
-61.74
-67.56
-72.05
-74.08
-72.78
-67.89
-59.80
-49.49
-38.22
-27.17
-17.14
-8.41
-0.88
5.71
11.61
16.91
21.59
25.60
28.98
31.77
34.05
35.82
37.02
37.61
37.67
37.39
37.05
36.90
37.02
37.35
37.67
37.78
37.52
36.90
35.98
34.87
33.65
32.33
30.87
29.15
27.09
24.62
21.75
18.61
15.39
12.30
9.47
6.85
4.29
1.52
-1.67
-5.36
-9.44
-13.66
-17.76
-21.51
-24.91
-28.10
-31.38
-35.06
-39.42
-44.47
-49.91
-55.04
-58.90
-60.46
-59.00
-54.34
-46.93
-37.67
-27.66
-17.90
-9.10
-1.68
4.24
8.72
11.98
14.34
16.14
17.68
19.06
20.26
21.20
21.82
22.19
22.45
22.76
23.13
23.50
23.74
23.78
23.63
23.31
22.80
21.94
20.48
18.17
14.97
11.04
6.78
2.61
-1.15
-4.42
-7.37
-10.30
-13.48
-17.02
-20.87
-24.81
-28.57
-31.96
-34.98
-37.78
-40.68
-44.04
-48.17
-53.17
-58.76
-64.21
-68.44
-70.26
-68.74
-63.51
-54.95
-44.10
-32.33
-20.94
-10.83
-2.40
4.42
9.93
14.48
18.32
21.57
24.27
26.46
28.24
29.66
30.85
31.84
32.64
33.28
33.77
34.20
34.63
35.09
35.53
35.77
35.63
34.95
33.69
31.91
29.76
27.42
25.03
22.64
20.23
17.73
15.08
12.24
9.24
6.12
2.90
-0.48
-4.06
-7.92
-12.02
-16.28
-20.54
-24.69
-28.68
-32.62
-36.69
-41.11
-46.09
-51.78
-58.16
-64.94
-71.48
-76.79
-79.70
-79.24
-74.88
-66.87
-56.08
-43.84
-31.48
-20.00
-9.88
-1.17
6.40
13.12
19.20
24.68
29.41
33.26
36.13
38.05
39.21
39.88
40.36
40.89
41.57
42.42
43.38
44.34
45.20
45.83
46.08
45.86
45.09
43.82
42.13
40.08
37.73
35.07
32.13
28.96
25.72
22.57
19.62
16.89
14.22
11.39
8.20
4.55
0.47
-3.85
-8.19
-12.35
-16.29
-20.11
-24.06
-28.44
-33.50
-39.31
-45.72
-52.26
-58.19
-62.56
-64.41
-62.98
-57.97
-49.69
-39.05
-27.32
-15.81
-5.49
3.18
10.24
16.04
20.95
25.24
28.90
31.82
33.83
34.93
35.26
35.17
34.98
34.99
35.31
35.87
36.55
37.18
37.66
37.92
37.88
37.42
36.33
34.45
31.76
28.41
24.70
21.00
17.52
14.29
11.14
7.77
3.93
-0.46
-5.29
-10.29
-15.12
-19.52
-23.41
-26.98
-30.61
-34.78
-39.91
-46.16
-53.31
-60.67
-67.23
-71.79
-73.24
-70.89
-64.62
-55.07
-43.41
-31.08
-19.38
-9.17
-0.70
6.30
12.30
17.72
22.74
27.23
30.98
33.75
35.52
36.44
36.76
36.78
36.74
36.80
37.06
37.53
38.17
38.83
39.34
39.45
39.01
37.94
36.28
34.20
31.82
29.31
26.73
24.07
21.30
18.40
15.38
12.32
9.28
6.31
3.40
0.42
-2.76
-6.26
-10.09
-14.20
-18.41
-22.54
-26.51
-30.35
-34.25
-38.58
-43.72
-49.99
-57.34
-65.30
-72.83
-78.63
-81.37
-80.19
-74.90
-66.10
-54.88
-42.56
-30.28
-18.83
-8.62
0.30
8.11
15.06
21.42
27.31
32.70
37.45
41.38
44.39
46.55
48.05
49.14
50.05
50.94
51.89
52.93
54.07
55.23
56.22
56.74
56.44
55.10
52.73
49.57
46.01
42.43
39.06
35.91
32.84
29.69
26.39
23.00
19.64
16.47
13.53
10.76
8.06
5.27
2.26
-1.07
-4.78
-8.83
-13.08
-17.31
-21.29
-24.94
-28.37
-31.96
-36.18
-41.43
-47.76
-54.68
-61.25
-66.23
-68.49
-67.29
-62.54
-54.75
-44.91
-34.16
-23.51
-13.70
-5.05
2.39
8.75
14.28
19.18
23.56
27.41
30.63
33.11
34.83
35.87
36.51
36.96
37.39
37.83
38.19
38.41
38.51
38.60
38.75
38.88
38.73
37.96
36.26
33.60
30.23
26.53
22.91
19.61
16.68
13.96
11.19
8.17
4.79
1.08
-2.80
-6.65
-10.30
-13.71
-16.98
-20.32
-24.00
-28.26
-33.24
-38.92
-45.07
-51.21
-56.62
-60.42
-61.78
-60.12
-55.36
-47.98
-38.90
-29.19
-19.78
-11.27
-3.86
2.51
8.04
12.86
17.04
20.56
23.36
25.44
26.83
27.60
27.90
27.94
27.89
27.96
28.27
28.85
29.65
30.54
31.27
31.58
31.21
30.00
27.98
25.34
22.37
19.37
16.50
13.78
11.10
8.38
5.59
2.80
0.11
-2.45
-4.95
-7.55
-10.37
-13.47
-16.75
-20.06
-23.26
-26.31
-29.25
-32.22
-35.42
-39.11
-43.49
-48.73
-54.77
-61.20
-67.21
-71.68
-73.49
-71.86
-66.71
-58.62
-48.67
-38.06
-27.72
-18.17
-9.52
-1.71
5.39
11.81
17.52
22.51
26.80
30.44
33.52
36.03
37.95
39.22
39.86
39.98
39.77
39.50
39.44
39.76
40.43
41.22
41.73
41.50
40.24
37.95
34.95
31.72
28.74
26.24
24.23
22.48
20.76
18.90
16.89
14.81
12.75
10.74
8.75
6.70
4.47
1.96
-0.94
-4.26
-7.95
-11.86
-15.79
-19.54
-23.03
-26.30
-29.57
-33.12
-37.29
-42.29
-48.09
-54.21
-59.80
-63.74
-64.96
-62.81
-57.33
-49.20
-39.58
-29.69
-20.49
-12.52
-5.85
-0.24
4.63
9.04
13.12
16.87
20.16
22.89
24.96
26.39
27.26
27.70
27.88
27.95
28.09
28.45
29.12
30.06
31.10
31.96
32.31
31.93
30.71
28.68
25.97
22.77
19.34
15.92
12.76
10.03
7.73
5.70
3.63
1.26
-1.57
-4.80
-8.26
-11.69
-14.97
-18.05
-21.01
-24.00
-27.17
-30.69
-34.74
-39.41
-44.66
-50.15
-55.22
-58.99
-60.58
-59.36
-55.20
-48.47
-39.92
-30.49
-21.00
-12.06
-3.99
3.11
9.24
14.43
18.73
22.18
24.82
26.72
27.97
28.69
29.03
29.12
29.04
28.86
28.65
28.52
28.53
28.73
29.03
29.25
29.10
28.32
26.82
24.70
22.25
19.78
17.53
15.53
13.60
11.50
9.02
6.08
2.79
-0.59
-3.81
-6.69
-9.23
-11.56
-13.92
-16.55
-19.59
-23.07
-26.86
-30.76
-34.56
-38.16
-41.63
-45.14
-49.01
-53.52
-58.79
-64.60
-70.29
-74.83
-77.01
-75.88
-71.04
-62.90
-52.50
-41.23
-30.38
-20.79
-12.67
-5.83
0.18
5.69
10.89
15.74
20.14
23.96
27.19
29.90
32.17
34.05
35.52
36.53
37.08
37.30
37.41
37.69
38.25
39.01
39.69
39.94
39.50
38.25
36.36
34.08
31.72
29.48
27.39
25.36
23.23
20.93
18.42
15.80
13.18
10.70
8.40
6.29
4.27
2.16
-0.28
-3.30
-6.99
-11.25
-15.80
-20.26
-24.30
-27.76
-30.70
-33.38
-36.20
-39.58
-43.90
-49.28
-55.49
-61.79
-67.07
-70.11
-69.91
-66.14
-59.16
-49.96
-39.72
-29.47
-19.87
-11.15
-3.30
3.82
10.29
16.14
21.31
25.68
29.14
31.68
33.36
34.39
35.09
35.71
36.39
37.07
37.60
37.84
37.79
37.57
37.37
37.22
36.94
36.24
34.93
33.01
30.83
28.82
27.22
25.91
24.46
22.31
19.20
15.24
10.96
6.99
3.79
1.35
-0.69
-2.89
-5.61
-8.90
-12.46
-15.93
-19.06
-21.87
-24.62
-27.63
-31.15
-35.32
-40.06
-45.15
-50.16
-54.49
-57.31
-57.80
-55.31
-49.73
-41.49
-31.59
-21.20
-11.39
-2.85
4.18
9.78
14.19
17.64
20.28
22.21
23.51
24.36
24.96
25.49
26.10
26.80
27.57
28.34
29.09
29.85
30.69
31.60
32.48
33.07
33.09
32.35
30.86
28.79
26.31
23.56
20.55
17.25
13.77
10.30
7.14
4.47
2.32
0.46
-1.49
-3.81
-6.64
-9.91
-13.39
-16.89
-20.37
-23.87
-27.59
-31.67
-36.17
-41.16
-46.61
-52.51
-58.72
-64.82
-70.11
-73.59
-74.28
-71.57
-65.47
-56.64
-46.20
-35.25
-24.62
-14.75
-5.84
2.04
8.82
14.47
19.07
22.87
26.14
29.04
31.54
33.47
34.74
35.44
35.94
36.66
37.80
39.27
40.73
41.79
42.25
42.16
41.66
40.86
39.66
37.92
35.57
32.83
30.07
27.68
25.79
24.23
22.58
20.47
17.70
14.35
10.70
7.08
3.76
0.87
-1.62
-3.94
-6.43
-9.47
-13.31
-17.97
-23.21
-28.54
-33.45
-37.66
-41.21
-44.62
-48.62
-53.81
-60.36
-67.68
-74.46
-79.06
-80.02
-76.68
-69.31
-59.03
-47.33
-35.51
-24.42
-14.31
-5.13
3.22
10.71
17.14
22.34
26.32
29.32
31.72
33.90
36.06
38.21
40.22
41.95
43.37
44.50
45.40
46.10
46.60
46.86
46.92
46.78
46.36
45.49
44.00
41.82
39.10
36.16
33.40
31.01
28.96
26.97
24.78
22.24
19.50
16.84
14.52
12.56
10.74
8.70
6.11
2.80
-1.15
-5.49
-9.90
-14.15
-18.16
-21.98
-25.78
-29.80
-34.30
-39.54
-45.65
-52.61
-60.05
-67.26
-73.21
-76.71
-76.71
-72.62
-64.59
-53.51
-40.83
-28.15
-16.72
-7.18
0.48
6.71
12.05
16.79
20.96
24.38
26.90
28.57
29.67
30.57
31.60
32.87
34.25
35.49
36.41
36.97
37.31
37.70
38.25
38.91
39.37
39.27
38.36
36.69
34.54
32.21
29.90
27.49
24.70
21.31
17.33
13.17
9.36
6.31
4.03
2.11
-0.04
-2.92
-6.63
-10.85
-15.08
-18.90
-22.30
-25.67
-29.60
-34.60
-40.70
-47.44
-53.83
-58.70
-61.03
-60.18
-56.04
-49.09
-40.15
-30.28
-20.45
-11.40
-3.54
3.03
8.42
12.86
16.47
19.32
21.38
22.68
23.29
23.44
23.45
23.55
23.91
24.51
25.23
25.92
26.47
26.91
27.32
27.75
28.14
28.23
27.62
26.00
23.21
19.48
15.25
11.08
7.41
4.33
1.65
-0.97
-3.83
-7.08
-10.65
-14.46
-18.43
-22.58
-26.91
-31.36
-35.84
-40.28
-44.82
-49.79
-55.50
-61.96
-68.51
-73.93
-76.69
-75.60
-70.28
-61.36
-50.20
-38.32
-26.96
-16.72
-7.71
0.27
7.41
13.75
19.23
23.78
27.49
30.50
33.02
35.16
36.92
38.21
38.90
39.01
38.65
38.13
37.72
37.57
37.65
37.71
37.45
36.56
34.89
32.44
29.35
25.85
22.14
18.42
14.79
11.29
7.84
4.30
0.52
-3.65
-8.27
-13.23
-18.34
-23.30
-27.87
-31.99
-35.86
-39.99
-44.98
-51.25
-58.76
-66.82
-74.16
-79.21
-80.61
-77.64
-70.38
-59.79
-47.26
-34.34
-22.31
-11.91
-3.36
3.61
9.47
14.70
19.56
24.06
28.01
31.17
33.44
34.90
35.72
36.06
35.98
35.40
34.24
32.57
30.65
28.90
27.67
27.14
27.24
27.68
28.16
28.50
28.71
28.94
29.39
30.10
30.96
31.67
31.91
31.40
30.02
27.84
25.07
22.03
18.99
16.08
13.22
10.14
6.57
2.38
-2.21
-6.75
-10.72
-13.88
-16.40
-18.85
-21.96
-26.31
-32.12
-39.22
-47.18
-55.43
-63.21
-69.67
-73.79
-74.62
-71.59
-64.72
-54.75
-42.85
-30.25
-17.88
-6.20
4.67
14.68
23.62
31.07
36.52
39.70
40.73
40.13
38.72
37.32
36.54
36.60
37.43
38.73
40.18
41.47
42.38
42.70
42.26
40.96
38.73
35.73
32.19
28.40
24.57
20.76
16.88
12.70
8.10
3.02
-2.36
-7.82
-13.09
-18.01
-22.67
-27.37
-32.60
-38.84
-46.37
-54.98
-63.86
-71.67
-76.79
-77.87
-74.22
-66.10
-54.68
-41.58
-28.42
-16.34
-5.80
3.26
11.23
18.44
25.04
30.96
36.04
40.15
43.27
45.51
47.02
47.94
48.41
48.54
48.47
48.35
48.32
48.48
48.77
49.05
49.06
48.45
46.95
44.46
41.04
36.93
32.52
28.12
23.97
20.11
16.41
12.65
8.59
4.07
-0.94
-6.31
-11.82
-17.20
-22.23
-26.85
-31.22
-35.61
-40.40
-45.98
-52.59
-60.25
-68.60
-76.81
-83.60
-87.49
-87.17
-82.00
-72.28
-59.24
-44.63
-30.13
-16.92
-5.49
4.29
12.83
20.49
27.46
33.75
39.21
43.73
47.25
49.80
51.51
52.54
53.03
53.10
52.86
52.44
52.04
51.83
51.86
52.01
51.90
51.06
49.14
46.07
42.18
37.97
33.98
30.42
27.22
24.03
20.54
16.56
12.12
7.32
2.31
-2.80
-7.90
-12.84
-17.47
-21.72
-25.74
-29.92
-34.87
-41.05
-48.57
-56.88
-64.83
-70.86
-73.48
-71.75
-65.57
-55.71
-43.54
-30.57
-18.08
-6.88
2.75
10.87
17.73
23.62
28.71
33.05
36.57
39.15
40.67
41.13
40.71
39.74
38.57
37.52
36.79
36.38
36.22
36.06
35.66
34.72
33.03
30.54
27.38
23.77
19.96
16.08
12.08
7.82
3.20
-1.74
-6.75
-11.48
-15.72
-19.48
-23.08
-27.04
-31.87
-37.85
-44.94
-52.66
-60.14
-66.26
-69.84
-69.92
-66.07
-58.53
-48.16
-36.25
-24.05
-12.56
-2.29
6.69
14.54
21.47
27.56
32.77
36.97
40.09
42.15
43.26
43.68
43.65
43.37
42.97
42.53
42.08
41.71
41.48
41.33
41.14
40.63
39.54
37.67
34.97
31.57
27.68
23.56
19.41
15.36
11.42
7.51
3.49
-0.84
-5.60
-10.79
-16.24
-21.64
-26.70
-31.27
-35.44
-39.55
-44.08
-49.46
-55.96
-63.45
-71.37
-78.72
-84.20
-86.56
-84.92
-79.06
-69.48
-57.28
-43.84
-30.45
-18.04
-7.09
2.33
10.40
17.37
23.51
28.97
33.83
38.08
41.66
44.45
46.39
47.42
47.58
47.11
46.30
45.56
45.22
45.41
45.96
46.55
46.79
46.45
45.51
44.10
42.41
40.55
38.47
36.13
33.47
30.55
27.48
24.34
21.22
18.08
14.91
11.67
8.38
5.08
1.75
-1.61
-5.05
-8.67
-12.53
-16.67
-21.04
-25.54
-30.08
-34.67
-39.54
-45.02
-51.36
-58.43
-65.61
-71.82
-75.82
-76.67
-73.98
-68.01
-59.48
-49.27
-38.21
-26.98
-16.21
-6.46
1.82
8.36
13.26
16.90
19.85
22.65
25.55
28.49
31.18
33.25
34.46
34.81
34.50
33.82
33.08
32.45
31.95
31.50
30.97
30.25
29.28
28.03
26.48
24.66
22.56
20.18
17.56
14.74
11.82
8.89
6.04
3.30
0.66
-1.92
-4.48
-7.06
-9.65
-12.25
-14.88
-17.55
-20.29
-23.11
-26.04
-29.06
-32.16
-35.40
-38.88
-42.77
-47.25
-52.36
-57.89
-63.24
-67.43
-69.37
-68.08
-63.17
-54.96
-44.46
-33.09
-22.15
-12.60
-4.75
1.53
6.62
10.88
14.46
17.41
19.72
21.52
22.95
24.19
25.29
26.15
26.71
26.96
27.05
27.23
27.65
28.27
28.84
29.02
28.59
27.51
25.98
24.30
22.66
21.14
19.60
17.88
15.87
13.54
11.01
8.37
5.72
3.10
0.54
-1.97
-4.45
-7.00
-9.77
-12.89
-16.43
-20.24
-24.05
-27.56
-30.64
-33.43
-36.22
-39.43
-43.37
-48.15
-53.64
-59.44
-64.85
-68.98
-70.83
-69.54
-64.70
-56.53
-45.92
-34.21
-22.73
-12.50
-3.93
3.08
9.00
14.34
19.49
24.53
29.28
33.40
36.50
38.39
39.08
38.82
38.05
37.19
36.62
36.44
36.64
37.06
37.54
37.86
37.80
37.15
35.76
33.66
31.02
28.23
25.63
23.46
21.68
20.06
18.29
16.15
13.57
10.69
7.73
4.92
2.37
0.03
-2.26
-4.73
-7.63
-11.08
-15.11
-19.57
-24.26
-28.94
-33.48
-37.93
-42.51
-47.57
-53.31
-59.61
-65.76
-70.56
-72.59
-70.70
-64.55
-54.78
-42.82
-30.39
-18.93
-9.20
-1.26
5.24
10.76
15.53
19.53
22.58
24.54
25.49
25.70
25.56
25.40
25.37
25.41
25.36
25.11
24.71
24.34
24.21
24.43
24.81
24.96
24.46
23.01
20.62
17.52
14.09
10.62
7.23
3.92
0.57
-2.82
-6.19
-9.38
-12.27
-14.87
-17.30
-19.66
-22.00
-24.28
-26.53
-28.93
-31.94
-36.07
-41.49
-47.81
-53.84
-58.00
-58.88
-55.74
-48.88
-39.38
-28.76
-18.34
-9.00
-1.08
5.43
10.71
14.99
18.46
21.25
23.48
25.18
26.33
26.94
27.03
26.73
26.23
25.73
25.40
25.27
25.32
25.45
25.50
25.32
24.76
23.76
22.26
20.24
17.70
14.70
11.41
8.09
5.00
2.23
-0.34
-3.03
-6.20
-10.01
-14.35
-18.88
-23.21
-27.17
-30.83
-34.48
-38.43
-42.90
-47.96
-53.56
-59.53
-65.44
-70.48
-73.59
-73.66
-69.93
-62.34
-51.68
-39.28
-26.57
-14.72
-4.34
4.43
11.73
17.77
22.75
26.85
30.24
33.10
35.51
37.47
38.89
39.69
39.95
39.90
39.81
39.92
40.22
40.53
40.62
40.37
39.81
39.08
38.20
37.02
35.32
32.85
29.67
26.12
22.69
19.75
17.39
15.37
13.20
10.43
6.80
2.31
-2.81
-8.18
-13.38
-18.05
-22.05
-25.44
-28.57
-31.94
-36.02
-41.16
-47.37
-54.35
-61.45
-67.75
-72.15
-73.62
-71.47
-65.59
-56.53
-45.36
-33.39
-21.80
-11.37
-2.42
5.15
11.60
17.24
22.27
26.79
30.76
34.07
36.53
38.07
38.74
38.72
38.33
37.79
37.25
36.75
36.38
36.23
36.34
36.66
36.92
36.62
35.25
32.50
28.47
23.65
18.74
14.37
10.84
8.02
5.44
2.61
-0.81
-4.80
-9.12
-13.35
-17.17
-20.50
-23.49
-26.49
-29.91
-34.12
-39.29
-45.30
-51.69
-57.60
-61.90
-63.46
-61.48
-55.77
-46.87
-35.87
-24.15
-12.94
-3.08
5.07
11.55
16.70
20.87
24.34
27.23
29.58
31.34
32.51
33.13
33.30
33.11
32.64
31.98
31.26
30.65
30.35
30.51
31.10
31.88
32.44
32.30
31.10
28.70
25.29
21.28
17.23
13.55
10.46
7.87
5.50
3.00
0.07
-3.40
-7.36
-11.62
-15.95
-20.18
-24.21
-28.04
-31.75
-35.58
-39.87
-44.98
-51.12
-58.14
-65.40
-71.77
-75.88
-76.51
-73.00
-65.48
-54.84
-42.42
-29.62
-17.51
-6.74
2.48
10.22
16.65
22.00
26.45
30.15
33.19
35.66
37.61
39.08
40.09
40.71
41.04
41.24
41.47
41.88
42.52
43.30
43.99
44.29
43.91
42.74
40.83
38.41
35.72
32.95
30.12
27.19
24.04
20.69
17.25
13.89
10.81
8.06
5.54
3.00
0.20
-3.05
-6.75
-10.80
-14.97
-19.05
-22.91
-26.47
-29.83
-33.21
-37.01
-41.66
-47.50
-54.48
-62.02
-68.97
-73.88
-75.43
-72.87
-66.29
-56.49
-44.75
-32.45
-20.65
-10.07
-0.99
6.63
13.03
18.55
23.49
28.02
32.13
35.66
38.42
40.26
41.22
41.46
41.20
40.73
40.25
39.97
40.01
40.37
40.90
41.31
41.27
40.50
38.94
36.68
33.96
31.04
28.10
25.25
22.51
19.85
17.18
14.43
11.50
8.35
5.00
1.49
-2.10
-5.71
-9.27
-12.77
-16.19
-19.59
-23.11
-26.97
-31.55
-37.09
-43.62
-50.73
-57.53
-62.81
-65.33
-64.26
-59.40
-51.32
-41.14
-30.15
-19.47
-9.80
-1.40
5.79
11.91
17.11
21.44
24.86
27.38
29.00
29.85
30.14
30.12
30.05
30.11
30.34
30.67
30.97
31.14
31.18
31.09
30.88
30.44
29.57
28.02
25.68
22.62
19.11
15.54
12.20
9.23
6.58
4.03
1.31
-1.81
-5.44
-9.54
-13.91
-18.29
-22.41
-26.09
-29.31
-32.29
-35.44
-39.23
-44.07
-50.09
-57.02
-64.09
-70.09
-73.69
-73.71
-69.55
-61.40
-50.24
-37.50
-24.75
-13.12
-3.25
4.85
11.50
17.09
21.92
26.09
29.60
32.40
34.51
35.97
36.90
37.47
37.84
38.15
38.47
38.81
39.10
39.23
39.13
38.78
38.19
37.35
36.18
34.60
32.53
29.96
27.00
23.80
20.54
17.35
14.24
11.18
8.07
4.79
1.20
-2.74
-7.06
-11.66
-16.40
-21.14
-25.74
-30.16
-34.40
-38.55
-42.82
-47.53
-52.99
-59.38
-66.43
-73.33
-78.73
-81.16
-79.45
-73.21
-63.01
-50.17
-36.35
-23.02
-11.17
-1.22
6.85
13.34
18.61
23.03
26.88
30.36
33.53
36.31
38.59
40.25
41.29
41.82
42.01
42.08
42.19
42.44
42.83
43.26
43.53
43.43
42.73
41.29
39.03
36.05
32.49
28.55
24.47
20.47
16.77
13.45
10.48
7.71
4.87
1.74
-1.83
-5.86
-10.27
-14.98
-19.85
-24.74
-29.44
-33.81
-37.79
-41.60
-45.70
-50.66
-56.83
-64.05
-71.47
-77.70
-81.19
-80.71
-75.79
-66.86
-55.00
-41.69
-28.29
-15.86
-4.98
4.15
11.64
17.74
22.73
26.87
30.32
33.17
35.39
36.99
38.01
38.59
38.88
39.04
39.17
39.30
39.41
39.49
39.52
39.45
39.08
38.14
36.37
33.61
29.98
25.81
21.55
17.51
13.80
10.22
6.47
2.36
-2.12
-6.72
-11.13
-15.15
-18.82
-22.41
-26.27
-30.77
-36.11
-42.31
-49.14
-55.99
-61.97
-65.90
-66.65
-63.44
-56.19
-45.62
-33.07
-20.09
-8.01
2.45
11.13
18.25
24.11
28.86
32.44
34.75
35.80
35.83
35.28
34.61
34.17
34.07
34.21
34.40
34.50
34.46
34.35
34.21
34.03
33.64
32.79
31.23
28.80
25.57
21.77
17.78
13.93
10.39
7.04
3.56
-0.39
-4.99
-10.15
-15.47
-20.51
-24.97
-28.90
-32.66
-36.85
-42.03
-48.50
-56.17
-64.44
-72.29
-78.39
-81.39
-80.28
-74.65
-64.96
-52.38
-38.45
-24.68
-12.13
-1.29
7.85
15.53
22.03
27.52
32.07
35.72
38.57
40.75
42.35
43.48
44.15
44.40
44.30
43.98
43.61
43.33
43.19
43.10
42.84
42.14
40.72
38.46
35.41
31.79
27.89
24.05
20.43
17.16
14.18
11.35
8.48
5.35
1.75
-2.49
-7.34
-12.56
-17.77
-22.61
-26.90
-30.80
-34.85
-39.69
-45.85
-53.39
-61.75
-69.74
-75.87
-78.68
-77.19
-71.19
-61.27
-48.67
-34.87
-21.29
-8.94
1.69
10.53
17.77
23.72
28.64
32.70
36.01
38.61
40.56
41.92
42.78
43.29
43.59
43.83
44.14
44.56
45.06
45.55
45.85
45.80
45.23
43.98
42.03
39.42
36.34
32.98
29.55
26.19
22.94
19.71
16.33
12.64
8.52
4.02
-0.74
-5.54
-10.14
-14.37
-18.22
-21.88
-25.73
-30.29
-36.00
-42.99
-50.90
-58.90
-65.67
-69.81
-70.18
-66.27
-58.33
-47.33
-34.69
-21.86
-10.06
-0.01
8.11
14.50
19.61
23.82
27.33
30.10
31.99
32.90
32.91
32.31
31.53
30.94
30.78
31.04
31.61
32.29
32.93
33.37
33.43
32.89
31.53
29.19
25.92
21.96
17.69
13.54
9.77
6.47
3.46
0.39
-3.13
-7.35
-12.27
-17.62
-22.99
-28.01
-32.57
-36.91
-41.53
-46.95
-53.38
-60.37
-66.89
-71.44
-72.59
-69.46
-62.10
-51.45
-39.04
-26.40
-14.70
-4.50
4.15
11.46
17.65
22.88
27.21
30.70
33.42
35.47
36.95
37.99
38.70
39.25
39.83
40.53
41.34
42.14
42.75
43.03
42.92
42.45
41.67
40.57
39.06
36.98
34.22
30.79
26.87
22.71
18.60
14.75
11.19
7.87
4.67
1.41
-2.09
-5.98
-10.29
-14.98
-19.84
-24.63
-29.16
-33.37
-37.40
-41.56
-46.23
-51.76
-58.30
-65.61
-72.94
-79.08
-82.61
-82.28
-77.51
-68.62
-56.74
-43.49
-30.44
-18.67
-8.68
-0.42
6.49
12.53
18.10
23.43
28.52
33.22
37.26
40.34
42.27
43.12
43.13
42.70
42.27
42.13
42.40
43.00
43.75
44.40
44.71
44.47
43.54
41.89
39.59
36.83
33.87
30.98
28.21
25.52
22.74
19.73
16.47
13.04
9.60
6.19
2.76
-0.77
-4.53
-8.53
-12.70
-16.94
-21.11
-25.14
-29.01
-32.74
-36.44
-40.34
-44.76
-49.97
-55.99
-62.36
-68.07
-71.76
-72.17
-68.56
-61.08
-50.75
-39.05
-27.53
-17.20
-8.45
-1.04
5.50
11.64
17.63
23.45
28.95
33.83
37.90
40.97
43.05
44.25
44.81
45.03
45.14
45.32
45.60
45.93
46.22
46.33
46.12
45.43
44.13
42.07
39.21
35.62
31.51
27.14
22.79
18.65
14.78
11.10
7.46
3.68
-0.36
-4.66
-9.09
-13.41
-17.34
-20.68
-23.43
-25.83
-28.33
-31.45
-35.60
-41.00
-47.51
-54.63
-61.49
-66.96
-69.83
-69.18
-64.65
-56.66
-46.28
-34.89
-23.74
-13.65
-4.88
2.69
9.35
15.27
20.49
24.88
28.33
30.75
32.23
32.88
32.93
32.66
32.35
32.23
32.48
33.06
33.84
34.55
34.94
34.81
34.10
32.85
31.15
29.05
26.61
23.86
20.87
17.74
14.55
11.29
7.91
4.30
0.43
-3.65
-7.78
-11.80
-15.64
-19.29
-22.77
-26.14
-29.45
-32.80
-36.35
-40.28
-44.76
-49.94
-55.93
-62.77
-70.34
-78.21
-85.58
-91.32
-94.25
-93.48
-88.73
-80.51
-69.97
-58.49
-47.35
-37.41
-29.01
-22.09
-16.32
-11.32
-6.77
-2.52
1.44
5.03
8.15
10.76
12.95
14.84
16.63
18.58
20.93
23.90
27.64
32.11
37.04
41.85
45.78
48.08
48.25
46.26
42.61
38.10
33.58
29.64
26.42
23.68
20.97
17.98
14.65
11.19
7.90
4.94
2.26
-0.43
-3.47
-7.07
-11.20
-15.64
-20.06
-24.28
-28.31
-32.38
-36.89
-42.24
-48.74
-56.48
-65.13
-73.88
-81.45
-86.37
-87.32
-83.63
-75.45
-63.76
-50.10
-36.01
-22.76
-11.06
-1.12
7.22
14.26
20.30
25.53
30.05
33.85
36.93
39.28
40.99
42.22
43.18
44.08
45.09
46.23
47.50
48.80
50.05
51.17
52.02
52.48
52.42
51.68
50.25
48.17
45.56
42.58
39.38
36.07
32.75
29.48
26.28
23.11
19.86
16.39
12.59
8.48
4.17
-0.14
-4.26
-8.17
-11.96
-15.93
-20.42
-25.80
-32.26
-39.72
-47.66
-55.07
-60.67
-63.09
-61.39
-55.35
-45.56
-33.36
-20.33
-7.94
2.83
11.60
18.45
23.75
27.90
31.14
33.64
35.45
36.64
37.33
37.64
37.69
37.56
37.30
36.99
36.80
36.89
37.35
38.09
38.83
39.17
38.73
37.32
34.98
31.97
28.58
25.04
21.43
17.71
13.85
9.82
5.65
1.37
-2.99
-7.37
-11.73
-16.01
-20.19
-24.35
-28.78
-33.88
-40.04
-47.35
-55.36
-63.02
-68.84
-71.36
-69.63
-63.57
-53.94
-42.10
-29.52
-17.38
-6.39
3.19
11.40
18.32
24.08
28.72
32.35
35.14
37.32
39.11
40.63
41.92
42.93
43.59
43.93
44.07
44.22
44.57
45.13
45.73
46.02
45.63
44.30
41.99
38.80
34.97
30.75
26.38
22.08
17.94
13.94
9.93
5.66
0.93
-4.26
-9.68
-14.97
-19.86
-24.29
-28.56
-33.19
-38.72
-45.47
-53.34
-61.71
-69.53
-75.48
-78.32
-77.21
-71.97
-63.15
-51.91
-39.67
-27.66
-16.68
-6.99
1.52
9.12
15.99
22.13
27.39
31.61
34.70
36.77
38.02
38.74
39.17
39.43
39.56
39.49
39.22
38.79
38.34
37.99
37.69
37.26
36.33
34.55
31.70
27.76
22.93
17.47
11.72
5.95
0.38
-4.85
-9.67
-14.20
-18.77
-23.90
-30.04
-37.40
-45.67
-53.94
-60.86
-65.02
-65.31
-61.25
-53.13
-41.85
-28.75
-15.29
-2.77
7.83
16.03
21.87
25.76
28.28
29.97
31.12
31.73
31.73
31.11
30.00
28.69
27.43
26.29
25.17
23.92
22.48
20.96
19.52
18.15
16.61
14.46
11.25
6.82
1.46
-4.20
-9.45
-13.87
-17.57
-21.12
-25.32
-30.84
-37.84
-45.87
-53.90
-60.54
-64.39
-64.45
-60.38
-52.60
-42.15
-30.38
-18.61
-7.87
1.26
8.60
14.30
18.66
22.00
24.55
26.42
27.57
27.86
27.23
25.77
23.78
21.73
20.07
19.03
18.55
18.28
17.78
16.60
14.50
11.44
7.55
3.08
-1.71
-6.65
-11.66
-16.76
-22.09
-27.85
-34.29
-41.52
-49.43
-57.49
-64.68
-69.69
-71.16
-68.24
-60.89
-49.95
-36.94
-23.51
-11.02
-0.18
8.93
16.56
23.08
28.70
33.49
37.40
40.39
42.44
43.60
43.92
43.50
42.40
40.77
38.76
36.61
34.58
32.89
31.69
30.83
29.98
28.55
25.97
21.88
16.31
9.77
2.98
-3.41
-9.07
-14.11
-19.01
-24.35
-30.67
-38.21
-46.87
-56.13
-65.07
-72.44
-76.89
-77.37
-73.46
-65.51
-54.61
-42.16
-29.54
-17.68
-7.05
2.27
10.40
17.55
23.90
29.54
34.55
38.87
42.34
44.78
46.04
46.13
45.19
43.55
41.57
39.61
37.94
36.70
35.81
35.03
33.98
32.22
29.40
25.38
20.31
14.56
8.65
3.03
-2.11
-6.91
-11.82
-17.42
-24.22
-32.32
-41.27
-50.01
-57.08
-61.08
-60.99
-56.59
-48.52
-38.01
-26.56
-15.44
-5.42
3.27
10.79
17.45
23.46
28.85
33.52
37.33
40.21
42.20
43.41
44.02
44.20
44.09
43.83
43.49
43.10
42.66
42.14
41.50
40.68
39.60
38.10
36.00
33.14
29.44
25.00
20.06
14.96
10.00
5.37
1.12
-2.90
-6.94
-11.32
-16.40
-22.42
-29.39
-36.91
-44.16
-49.93
-53.01
-52.55
-48.33
-40.87
-31.20
-20.55
-9.96
-0.14
8.63
16.27
22.81
28.26
32.61
35.92
38.33
40.01
41.14
41.83
42.13
42.05
41.62
40.95
40.20
39.49
38.94
38.55
38.22
37.80
37.07
35.85
33.95
31.33
28.02
24.24
20.30
16.55
13.22
10.31
7.62
4.79
1.48
-2.43
-6.79
-11.27
-15.45
-19.05
-22.07
-24.79
-27.66
-31.22
-35.88
-41.80
-48.71
-55.91
-62.27
-66.53
-67.55
-64.74
-58.21
-48.84
-37.92
-26.88
-16.82
-8.36
-1.60
3.71
7.92
11.34
14.10
16.21
17.60
18.27
18.26
17.81
17.16
16.56
16.12
15.86
15.73
15.64
15.57
15.48
15.31
14.92
14.08
12.58
10.36
7.52
4.40
1.35
-1.39
-3.81
-6.10
-8.49
-11.12
-13.93
-16.71
-19.29
-21.68
-24.05
-26.78
-30.22
-34.56
-39.67
-45.08
-49.95
-53.30
-54.19
-52.02
-46.78
-39.00
-29.67
-19.92
-10.64
-2.38
4.71
10.68
15.62
19.54
22.47
24.45
25.64
26.25
26.50
26.52
26.35
25.98
25.43
24.80
24.21
23.75
23.46
23.29
23.10
22.75
22.07
20.90
19.12
16.73
13.85
10.76
7.79
5.16
2.88
0.69
-1.77
-4.76
-8.31
-12.17
-15.93
-19.22
-21.93
-24.21
-26.45
-29.12
-32.65
-37.26
-42.84
-48.87
-54.42
-58.32
-59.46
-57.17
-51.48
-43.11
-33.27
-23.26
-14.10
-6.28
0.11
5.32
9.67
13.38
16.59
19.32
21.57
23.33
24.61
25.40
25.73
25.67
25.39
25.10
25.00
25.26
25.86
26.63
27.30
27.60
27.29
26.29
24.65
22.53
20.11
17.55
15.02
12.61
10.37
8.30
6.31
4.27
2.00
-0.65
-3.75
-7.22
-10.84
-14.28
-17.29
-19.79
-21.93
-24.02
-26.42
-29.42
-33.18
-37.73
-42.95
-48.48
-53.61
-57.34
-58.59
-56.54
-50.99
-42.50
-32.20
-21.44
-11.36
-2.64
4.55
10.34
14.96
18.65
21.56
23.82
25.54
26.84
27.79
28.46
28.80
28.81
28.50
27.93
27.27
26.72
26.42
26.42
26.60
26.74
26.57
25.85
24.47
22.46
20.00
17.26
14.45
11.72
9.09
6.56
4.03
1.38
-1.48
-4.62
-8.02
-11.55
-15.01
-18.19
-20.98
-23.45
-25.89
-28.74
-32.41
-37.09
-42.65
-48.51
-53.86
-57.70
-59.19
-57.77
-53.37
-46.35
-37.49
-27.77
-18.15
-9.43
-2.03
3.90
8.47
11.94
14.47
16.19
17.17
17.52
17.40
17.06
16.75
16.62
16.71
16.95
17.24
17.47
17.61
17.60
17.38
16.82
15.83
14.34
12.38
10.05
7.48
4.73
1.83
-1.23
-4.40
-7.59
-10.65
-13.49
-16.06
-18.47
-20.91
-23.59
-26.76
-30.60
-35.24
-40.65
-46.48
-52.07
-56.46
-58.58
-57.60
-53.19
-45.65
-35.92
-25.24
-14.86
-5.74
1.67
7.34
11.59
14.77
17.18
18.93
20.01
20.46
20.42
20.12
19.83
19.68
19.67
19.71
19.70
19.66
19.66
19.77
20.01
20.20
20.10
19.44
18.03
15.89
13.23
10.33
7.43
4.65
1.88
-1.06
-4.37
-8.11
-12.15
-16.28
-20.25
-23.92
-27.34
-30.66
-34.21
-38.31
-43.19
-48.80
-54.65
-59.82
-63.14
-63.54
-60.44
-53.96
-44.86
-34.29
-23.40
-13.05
-3.73
4.38
11.25
16.92
21.42
24.86
27.41
29.35
30.97
32.43
33.77
34.85
35.56
35.90
36.07
36.39
37.13
38.31
39.64
40.67
40.92
40.14
38.44
36.13
33.60
31.05
28.53
25.96
23.25
20.40
17.46
14.45
11.33
8.03
4.52
0.88
-2.64
-5.76
-8.37
-10.69
-13.23
-16.68
-21.50
-27.65
-34.42
-40.47
-44.33
-44.78
-41.35
-34.43
-25.17
-15.05
-5.41
2.80
9.24
14.02
17.54
20.20
22.32
23.97
25.12
25.68
25.63
25.10
24.31
23.46
22.64
21.76
20.66
19.30
17.80
16.40
15.32
14.54
13.78
12.63
10.81
8.31
5.39
2.43
-0.36
-2.92
-5.42
-7.98
-10.63
-13.28
-15.80
-18.12
-20.38
-22.89
-26.05
-30.12
-35.04
-40.26
-44.81
-47.55
-47.55
-44.47
-38.64
-31.01
-22.75
-14.88
-7.97
-2.14
2.76
6.99
10.70
13.92
16.62
18.74
20.27
21.22
21.64
21.55
21.04
20.23
19.33
18.59
18.21
18.25
18.57
18.82
18.56
17.46
15.39
12.56
9.38
6.32
3.74
1.68
-0.05
-1.83
-4.02
-6.78
-10.04
-13.49
-16.78
-19.70
-22.30
-24.86
-27.78
-31.41
-35.91
-41.09
-46.41
-51.01
-53.93
-54.26
-51.54
-45.84
-37.85
-28.63
-19.25
-10.54
-2.86
3.73
9.32
13.97
17.62
20.27
22.04
23.21
24.12
24.99
25.90
26.78
27.50
28.01
28.30
28.44
28.48
28.45
28.34
28.15
27.79
27.15
26.07
24.39
22.07
19.26
16.22
13.28
10.64
8.33
6.18
3.98
1.51
-1.31
-4.42
-7.67
-10.86
-13.90
-16.79
-19.66
-22.73
-26.23
-30.35
-35.18
-40.58
-46.15
-51.18
-54.74
-55.94
-54.17
-49.32
-41.88
-32.80
-23.25
-14.24
-6.43
-0.01
5.19
9.49
13.22
16.55
19.56
22.19
24.34
25.94
26.97
27.46
27.48
27.15
26.64
26.11
25.69
25.46
25.40
25.40
25.29
24.87
23.95
22.42
20.27
17.66
14.84
12.13
9.76
7.78
6.00
4.14
1.92
-0.77
-3.80
-6.89
-9.70
-12.06
-14.04
-15.91
-18.07
-20.90
-24.58
-29.03
-33.80
-38.16
-41.21
-42.05
-40.07
-35.13
-27.64
-18.44
-8.63
0.77
9.00
15.69
20.86
24.74
27.71
30.05
31.97
33.52
34.67
35.40
35.68
35.57
35.15
34.59
34.08
33.81
33.95
34.52
35.37
36.19
36.56
36.14
34.76
32.44
29.34
25.63
21.39
16.65
11.41
5.74
-0.16
-6.08
-11.87
-17.37
-22.52
-27.26
-31.52
-35.30
-38.71
-42.03
-45.63
-49.86
-54.79
-60.05
-64.80
-67.94
-68.45
-65.75
-59.96
-51.86
-42.61
-33.39
-25.04
-17.89
-11.81
-6.48
-1.57
3.05
7.32
11.03
13.99
16.11
17.42
18.15
18.53
18.78
19.04
19.38
19.82
20.40
21.16
22.08
23.05
23.85
24.20
23.86
22.70
20.77
18.28
15.54
12.88
10.56
8.64
7.05
5.55
3.90
1.88
-0.58
-3.43
-6.52
-9.71
-12.87
-15.91
-18.84
-21.69
-24.61
-27.82
-31.62
-36.20
-41.50
-46.99
-51.72
-54.51
-54.30
-50.56
-43.52
-34.13
-23.72
-13.58
-4.58
2.96
9.17
14.36
18.84
22.76
26.16
29.02
31.34
33.11
34.30
34.83
34.69
33.95
32.82
31.63
30.67
30.05
29.69
29.36
28.85
28.05
27.02
25.82
24.52
23.01
21.13
18.84
16.19
13.43
10.85
8.64
6.77
5.02
3.09
0.75
-2.07
-5.27
-8.67
-12.03
-15.18
-18.02
-20.56
-22.92
-25.39
-28.30
-32.03
-36.77
-42.40
-48.35
-53.69
-57.25
-57.97
-55.27
-49.18
-40.45
-30.26
-19.93
-10.51
-2.58
3.78
8.80
12.79
15.97
18.42
20.18
21.34
22.11
22.78
23.60
24.65
25.83
26.90
27.68
28.14
28.42
28.78
29.37
30.14
30.79
30.88
29.93
27.70
24.22
19.84
15.08
10.42
6.12
2.19
-1.56
-5.36
-9.35
-13.46
-17.51
-21.26
-24.55
-27.37
-29.84
-32.21
-34.78
-37.87
-41.74
-46.47
-51.80
-57.10
-61.42
-63.70
-63.09
-59.21
-52.34
-43.26
-33.10
-22.94
-13.58
-5.41
1.54
7.42
12.43
16.65
20.07
22.61
24.30
25.25
25.76
26.15
26.68
27.37
28.08
28.58
28.68
28.39
27.86
27.28
26.77
26.24
25.48
24.26
22.50
20.27
17.77
15.26
12.93
10.83
8.89
6.97
4.88
2.46
-0.40
-3.67
-7.24
-10.92
-14.52
-17.91
-21.09
-24.21
-27.51
-31.28
-35.83
-41.32
-47.68
-54.42
-60.68
-65.28
-67.08
-65.34
-59.96
-51.53
-41.15
-30.04
-19.26
-9.48
-1.01
6.12
12.00
16.83
20.84
24.24
27.14
29.55
31.40
32.56
33.07
33.11
33.00
33.07
33.53
34.37
35.42
36.40
37.12
37.45
37.33
36.77
35.76
34.26
32.23
29.70
26.77
23.67
20.69
18.03
15.76
13.74
11.67
9.27
6.33
2.86
-1.00
-5.02
-9.05
-13.02
-16.95
-20.92
-25.05
-29.49
-34.45
-40.12
-46.55
-53.39
-59.87
-64.83
-67.06
-65.66
-60.40
-51.75
-40.82
-28.94
-17.33
-6.80
2.29
9.92
16.26
21.51
25.81
29.20
31.79
33.63
34.82
35.49
35.73
35.66
35.40
35.09
34.90
34.99
35.43
36.12
36.91
37.53
37.70
37.19
35.82
33.54
30.42
26.71
22.81
19.12
15.92
13.21
10.74
8.08
4.85
0.91
-3.61
-8.31
-12.78
-16.79
-20.36
-23.78
-27.50
-31.94
-37.38
-43.72
-50.44
-56.52
-60.70
-61.78
-58.98
-52.28
-42.37
-30.52
-18.15
-6.48
3.71
12.10
18.71
23.73
27.37
29.83
31.29
31.97
32.13
32.05
31.95
31.95
32.08
32.30
32.59
32.98
33.48
34.10
34.74
35.18
35.17
34.50
33.04
30.81
27.90
24.49
20.80
17.05
13.45
10.08
6.92
3.81
0.52
-3.16
-7.29
-11.73
-16.25
-20.54
-24.43
-27.93
-31.25
-34.81
-39.15
-44.70
-51.61
-59.50
-67.33
-73.57
-76.57
-75.12
-68.87
-58.50
-45.51
-31.65
-18.46
-6.86
2.84
10.81
17.40
22.91
27.56
31.44
34.60
37.00
38.66
39.60
39.91
39.72
39.24
38.70
38.32
38.30
38.72
39.54
40.56
41.46
41.88
41.52
40.23
38.00
35.01
31.48
27.70
23.94
20.36
17.00
13.77
10.44
6.75
2.53
-2.19
-7.21
-12.22
-16.89
-21.07
-24.80
-28.34
-32.15
-36.71
-42.42
-49.45
-57.49
-65.72
-72.85
-77.34
-77.95
-74.07
-65.99
-54.80
-42.01
-29.11
-17.13
-6.54
2.61
10.50
17.32
23.16
28.07
32.08
35.29
37.84
39.86
41.46
42.68
43.51
43.94
44.06
43.99
43.96
44.18
44.75
45.58
46.38
46.74
46.24
44.61
41.83
38.12
33.83
29.37
25.04
20.95
17.03
13.08
8.79
4.00
-1.27
-6.81
-12.23
-17.21
-21.60
-25.58
-29.58
-34.17
-39.85
-46.83
-54.93
-63.43
-71.26
-77.07
-79.58
-77.88
-71.72
-61.58
-48.61
-34.19
-19.71
-6.16
6.05
16.95
26.79
35.55
42.85
47.94
50.12
49.14
45.56
40.62
35.78
32.20
30.34
29.97
30.48
31.29
32.06
32.69
33.07
32.98
32.09
30.15
27.19
23.52
19.61
15.87
12.44
9.17
5.67
1.62
-3.08
-8.22
-13.29
-17.81
-21.49
-24.45
-27.19
-30.39
-34.67
-40.36
-47.27
-54.68
-61.42
-66.07
-67.34
-64.41
-57.15
-46.30
-33.22
-19.55
-6.79
4.10
12.77
19.40
24.44
28.36
31.46
33.85
35.52
36.49
36.90
37.00
37.05
37.27
37.68
38.16
38.55
38.73
38.67
38.46
38.18
37.80
37.17
36.02
34.11
31.33
27.79
23.79
19.71
15.88
12.45
9.29
6.07
2.43
-1.90
-6.98
-12.57
-18.28
-23.67
-28.40
-32.44
-36.02
-39.60
-43.78
-49.07
-55.69
-63.44
-71.56
-78.77
-83.57
-84.57
-80.91
-72.63
-60.60
-46.33
-31.57
-17.74
-5.71
4.32
12.58
19.50
25.41
30.52
34.82
38.29
40.91
42.75
43.91
44.56
44.82
44.83
44.69
44.55
44.51
44.68
45.06
45.55
45.97
46.06
45.57
44.29
42.13
39.19
35.69
31.92
28.17
24.60
21.24
17.96
14.56
10.79
6.50
1.64
-3.66
-9.11
-14.41
-19.23
-23.45
-27.13
-30.56
-34.21
-38.59
-44.09
-50.91
-58.76
-66.91
-74.14
-78.99
-80.12
-76.74
-68.86
-57.40
-43.86
-29.92
-16.96
-5.80
3.38
10.82
16.92
22.02
26.29
29.76
32.41
34.23
35.26
35.61
35.43
34.94
34.38
33.98
33.91
34.25
34.87
35.55
36.01
35.95
35.20
33.64
31.32
28.36
24.97
21.37
17.73
14.15
10.58
6.87
2.85
-1.53
-6.16
-10.76
-14.98
-18.64
-21.77
-24.77
-28.24
-32.81
-38.85
-46.23
-54.15
-61.31
-66.15
-67.28
-63.97
-56.32
-45.31
-32.43
-19.31
-7.27
2.94
11.11
17.43
22.24
25.88
28.58
30.49
31.72
32.36
32.56
32.48
32.31
32.18
32.15
32.21
32.29
32.34
32.34
32.32
32.20
31.81
30.85
29.03
26.20
22.47
18.25
14.06
10.34
7.20
4.40
1.48
-2.02
-6.27
-11.10
-16.06
-20.65
-24.58
-27.90
-31.00
-34.42
-38.69
-44.18
-50.93
-58.60
-66.38
-73.08
-77.27
-77.73
-73.78
-65.57
-54.13
-40.94
-27.59
-15.27
-4.57
4.42
11.91
18.18
23.44
27.82
31.39
34.26
36.53
38.31
39.65
40.57
41.07
41.20
41.09
40.92
40.89
41.16
41.71
42.40
42.95
42.99
42.25
40.55
37.97
34.72
31.16
27.61
24.24
21.04
17.80
14.28
10.30
5.86
1.17
-3.49
-7.86
-11.82
-15.44
-19.02
-23.00
-27.84
-33.86
-40.98
-48.67
-55.83
-61.12
-63.21
-61.34
-55.56
-46.74
-36.26
-25.63
-16.02
-8.03
-1.72
3.23
7.25
10.67
13.61
16.03
17.83
18.97
19.52
19.69
19.71
19.77
19.92
20.10
20.23
20.23
20.09
19.87
19.61
19.32
18.92
18.25
17.09
15.26
12.67
9.40
5.73
2.01
-1.41
-4.37
-6.88
-9.17
-11.57
-14.42
-18.03
-22.56
-27.98
-33.97
-39.88
-44.76
-47.59
-47.58
-44.34
-38.14
-29.70
-20.08
-10.35
-1.38
6.26
12.32
16.86
20.10
22.39
24.02
25.17
25.84
25.95
25.40
24.26
22.72
21.10
19.68
18.68
18.15
18.05
18.21
18.33
18.01
16.83
14.51
11.02
6.63
1.79
-3.03
-7.57
-11.85
-16.12
-20.75
-26.10
-32.34
-39.31
-46.41
-52.62
-56.66
-57.40
-54.23
-47.32
-37.65
-26.62
-15.62
-5.62
2.94
10.07
15.94
20.70
24.35
26.85
28.18
28.44
27.89
26.80
25.49
24.15
22.87
21.62
20.32
18.93
17.53
16.21
15.04
13.95
12.68
10.88
8.22
4.58
0.08
-4.94
-10.09
-15.03
-19.63
-23.94
-28.17
-32.63
-37.63
-43.46
-50.11
-57.25
-64.06
-69.38
-71.94
-70.77
-65.60
-56.92
-45.92
-34.01
-22.45
-12.05
-3.08
4.55
11.16
17.03
22.38
27.32
31.88
35.95
39.36
41.92
43.55
44.32
44.40
44.10
43.61
43.07
42.50
41.84
41.06
40.10
38.85
37.15
34.80
31.62
27.63
23.00
18.09
13.26
8.69
4.34
-0.01
-4.62
-9.63
-14.95
-20.32
-25.41
-30.03
-34.26
-38.50
-43.35
-49.28
-56.47
-64.47
-72.27
-78.50
-81.76
-81.14
-76.42
-68.14
-57.43
-45.59
-33.76
-22.68
-12.67
-3.65
4.67
12.70
20.77
29.09
37.61
46.02
53.74
60.04
64.32
66.24
65.99
64.17
61.60
59.05
57.02
55.59
54.57
53.67
52.60
51.23
49.48
47.30
44.71
41.68
38.20
34.34
30.17
25.81
21.41
17.13
13.09
9.32
5.73
2.10
-1.76
-5.93
-10.35
-14.79
-19.05
-23.01
-26.73
-30.45
-34.43
-38.96
-44.25
-50.37
-57.13
-63.99
-69.99
-73.92
-74.70
-71.70
-65.08
-55.74
-44.96
-33.99
-23.73
-14.54
-6.41
0.77
7.10
12.56
17.15
20.92
24.03
26.67
28.96
30.91
32.40
33.28
33.48
33.09
32.42
31.88
31.80
32.38
33.48
34.74
35.73
36.12
35.76
34.71
33.09
31.10
28.84
26.35
23.62
20.66
17.44
13.93
10.06
5.80
1.17
-3.71
-8.60
-13.28
-17.58
-21.53
-25.39
-29.59
-34.57
-40.61
-47.56
-54.76
-61.12
-65.32
-66.23
-63.26
-56.52
-46.83
-35.47
-23.80
-12.89
-3.36
4.65
11.33
16.98
21.86
26.09
29.63
32.42
34.40
35.63
36.28
36.56
36.69
36.87
37.21
37.78
38.59
39.57
40.52
41.21
41.34
40.70
39.16
36.81
33.84
30.51
27.08
23.71
20.47
17.36
14.30
11.20
7.98
4.52
0.76
-3.34
-7.72
-12.22
-16.65
-20.81
-24.60
-28.10
-31.55
-35.24
-39.49
-44.48
-50.23
-56.56
-62.98
-68.76
-72.96
-74.61
-73.00
-67.87
-59.58
-48.99
-37.30
-25.68
-15.02
-5.77
2.01
8.53
14.09
18.94
23.21
26.87
29.87
32.21
33.93
35.19
36.17
36.99
37.71
38.38
38.98
39.57
40.18
40.78
41.26
41.38
40.96
39.88
38.23
36.18
33.97
31.71
29.39
26.91
24.15
21.07
17.73
14.28
10.90
7.74
4.87
2.21
-0.43
-3.34
-6.74
-10.74
-15.23
-19.87
-24.29
-28.16
-31.44
-34.33
-37.33
-40.97
-45.62
-51.28
-57.42
-63.09
-67.07
-68.23
-65.87
-59.94
-51.04
-40.22
-28.75
-17.73
-7.95
0.24
6.84
12.08
16.24
19.60
22.32
24.50
26.15
27.24
27.79
27.89
27.68
27.32
26.99
26.81
26.84
27.07
27.46
27.89
28.19
28.18
27.70
26.69
25.17
23.23
21.01
18.68
16.32
14.03
11.86
9.80
7.78
5.60
3.09
0.10
-3.36
-7.13
-10.94
-14.55
-17.81
-20.71
-23.34
-25.91
-28.70
-31.98
-36.07
-41.08
-46.78
-52.52
-57.24
-59.79
-59.25
-55.26
-48.17
-38.87
-28.61
-18.52
-9.49
-1.92
4.15
8.96
12.82
16.03
18.71
20.91
22.61
23.77
24.43
24.70
24.71
24.61
24.55
24.65
24.98
25.53
26.20
26.83
27.19
27.11
26.47
25.24
23.48
21.27
18.74
16.03
13.27
10.57
7.97
5.45
2.98
0.49
-2.04
-4.63
-7.30
-10.06
-12.92
-15.87
-18.92
-22.04
-25.17
-28.23
-31.18
-34.10
-37.22
-40.90
-45.47
-51.00
-57.17
-63.12
-67.66
-69.57
-68.00
-62.78
-54.47
-44.13
-33.01
-22.18
-12.30
-3.66
3.76
10.10
15.49
20.03
23.82
26.99
29.69
32.05
34.05
35.63
36.65
37.04
36.86
36.33
35.76
35.40
35.33
35.41
35.38
35.02
34.20
32.96
31.46
29.83
28.11
26.30
24.33
22.13
19.71
17.05
14.20
11.23
8.20
5.25
2.44
-0.24
-2.90
-5.68
-8.68
-11.88
-15.18
-18.51
-21.83
-25.29
-29.10
-33.53
-38.70
-44.54
-50.76
-56.72
-61.54
-64.20
-63.83
-59.95
-52.72
-42.94
-31.82
-20.65
-10.41
-1.71
5.37
11.03
15.58
19.33
22.43
24.97
26.90
28.18
28.83
28.93
28.66
28.22
27.82
27.57
27.54
27.69
27.95
28.19
28.25
28.01
27.32
26.04
24.14
21.62
18.60
15.25
11.78
8.34
4.97
1.57
-2.05
-6.07
-10.56
-15.38
-20.27
-24.86
-28.91
-32.37
-35.46
-38.62
-42.32
-46.86
-52.17
-57.67
-62.43
-65.35
-65.53
-62.50
-56.35
-47.64
-37.24
-26.14
-15.22
-5.20
3.46
10.56
16.11
20.32
23.43
25.69
27.30
28.42
29.16
29.66
30.04
30.37
30.67
30.87
30.93
30.84
30.64
30.37
30.09
29.71
29.08
27.98
26.23
23.77
20.72
17.33
13.92
10.77
7.91
5.17
2.22
-1.25
-5.34
-9.86
-14.40
-18.52
-22.00
-24.89
-27.54
-30.37
-33.83
-38.23
-43.74
-50.31
-57.57
-64.72
-70.64
-74.03
-73.84
-69.66
-61.87
-51.47
-39.82
-28.18
-17.42
-7.93
0.25
7.32
13.45
18.78
23.39
27.31
30.55
33.14
35.13
36.57
37.56
38.18
38.57
38.79
38.94
39.06
39.15
39.21
39.20
39.02
38.56
37.64
36.12
33.88
30.95
27.49
23.74
19.99
16.45
13.26
10.39
7.62
4.67
1.21
-2.89
-7.57
-12.58
-17.56
-22.22
-26.49
-30.56
-34.83
-39.75
-45.67
-52.61
-60.14
-67.35
-73.01
-75.88
-75.01
-70.11
-61.55
-50.35
-37.84
-25.29
-13.69
-3.55
5.01
12.19
18.25
23.45
27.88
31.54
34.38
36.38
37.64
38.35
38.74
38.93
38.98
38.85
38.52
38.08
37.70
37.55
37.68
37.97
38.04
37.49
36.00
33.50
30.22
26.54
22.89
19.48
16.27
13.02
9.40
5.21
0.43
-4.71
-9.89
-14.78
-19.19
-23.14
-26.85
-30.74
-35.26
-40.80
-47.44
-54.80
-61.94
-67.59
-70.45
-69.57
-64.68
-56.31
-45.50
-33.57
-21.66
-10.59
-0.82
7.49
14.31
19.73
23.91
27.08
29.50
31.39
32.90
34.10
35.03
35.76
36.40
37.02
37.66
38.23
38.61
38.75
38.64
38.33
37.84
37.09
35.92
34.14
31.66
28.54
25.00
21.25
17.44
13.51
9.32
4.70
-0.33
-5.56
-10.66
-15.28
-19.30
-22.82
-26.16
-29.77
-34.11
-39.59
-46.45
-54.58
-63.45
-72.06
-79.05
-83.03
-82.98
-78.56
-70.21
-58.96
-46.18
-33.13
-20.74
-9.52
0.39
9.08
16.69
23.31
28.92
33.49
37.04
39.66
41.53
42.86
43.80
44.50
45.07
45.64
46.32
47.17
48.07
48.80
49.04
48.56
47.26
45.27
42.77
39.99
37.04
33.92
30.55
26.89
22.97
18.94
15.00
11.33
8.01
4.93
1.82
-1.59
-5.51
-9.95
-14.76
-19.68
-24.55
-29.29
-33.98
-38.76
-43.77
-49.20
-55.23
-62.02
-69.50
-77.12
-83.81
-88.10
-88.57
-84.36
-75.59
-63.31
-49.16
-34.86
-21.70
-10.33
-0.82
7.13
13.93
19.91
25.28
30.11
34.37
38.02
41.05
43.46
45.31
46.68
47.65
48.30
48.78
49.27
49.96
50.89
51.93
52.77
52.99
52.28
50.61
48.16
45.22
42.04
38.71
35.16
31.30
27.13
22.81
18.62
14.78
11.43
8.48
5.69
2.76
-0.61
-4.59
-9.18
-14.21
-19.40
-24.46
-29.20
-33.65
-38.06
-42.81
-48.34
-54.91
-62.43
-70.35
-77.67
-83.15
-85.62
-84.41
-79.46
-71.42
-61.32
-50.30
-39.35
-29.16
-20.15
-12.49
-6.19
-1.13
2.94
6.28
9.19
11.89
14.47
16.99
19.43
21.74
23.86
25.72
27.28
28.56
29.72
30.91
32.31
33.90
35.49
36.71
37.19
36.71
35.29
33.27
31.07
29.06
27.35
25.77
24.03
21.89
19.26
16.25
13.04
9.73
6.34
2.83
-0.86
-4.71
-8.71
-12.89
-17.34
-22.19
-27.56
-33.47
-39.84
-46.39
-52.56
-57.60
-60.58
-60.62
-57.16
-50.17
-40.26
-28.51
-16.25
-4.65
5.49
13.86
20.56
25.81
29.91
32.95
34.93
35.86
35.88
35.33
34.72
34.47
34.77
35.56
36.62
37.68
38.65
39.53
40.30
40.84
40.89
40.14
38.47
35.99
33.07
30.11
27.41
25.00
22.64
20.01
16.84
13.09
8.93
4.64
0.51
-3.32
-6.88
-10.35
-13.93
-17.73
-21.67
-25.53
-29.07
-32.22
-35.24
-38.67
-43.25
-49.44
-57.15
-65.47
-72.78
-77.23
-77.34
-72.50
-63.15
-50.66
-36.74
-23.00
-10.54
0.12
8.91
16.06
21.86
26.60
30.47
33.64
36.21
38.26
39.80
40.85
41.47
41.71
41.74
41.73
41.87
42.27
42.87
43.51
43.91
43.80
43.05
41.65
39.73
37.47
34.98
32.28
29.37
26.20
22.79
19.22
15.62
12.13
8.87
5.84
2.97
0.03
-3.18
-6.84
-10.96
-15.36
-19.80
-23.97
-27.76
-31.29
-34.91
-39.04
-44.06
-50.08
-56.83
-63.60
-69.32
-72.73
-72.76
-68.79
-60.91
-49.91
-37.10
-23.87
-11.43
-0.42
8.99
17.04
24.07
30.33
35.92
40.78
44.86
48.10
50.57
52.37
53.61
54.40
54.80
54.90
54.78
54.58
54.39
54.19
53.84
53.07
51.60
49.25
46.01
42.09
37.82
33.52
29.38
25.43
21.56
17.62
13.55
9.39
5.28
1.37
-2.25
-5.62
-8.87
-12.19
-15.68
-19.39
-23.23
-27.05
-30.67
-33.98
-37.00
-39.93
-43.12
-47.04
-52.00
-58.01
-64.51
-70.41
-74.26
-74.71
-70.99
-63.15
-52.13
-39.38
-26.40
-14.38
-3.98
4.63
11.54
16.97
21.14
24.22
26.44
28.02
29.15
29.96
30.51
30.83
30.99
31.08
31.20
31.46
31.86
32.38
32.93
33.42
33.71
33.63
33.01
31.67
29.57
26.80
23.60
20.26
16.99
13.90
10.89
7.81
4.44
0.69
-3.43
-7.76
-12.05
-16.09
-19.70
-22.83
-25.57
-28.18
-30.99
-34.42
-38.77
-44.09
-50.01
-55.71
-59.98
-61.60
-59.67
-53.99
-45.11
-34.17
-22.53
-11.40
-1.56
6.67
13.28
18.40
22.18
24.70
26.09
26.55
26.38
25.92
25.47
25.27
25.43
25.95
26.73
27.65
28.56
29.32
29.87
30.23
30.40
30.39
30.08
29.27
27.73
25.33
22.14
18.41
14.59
11.09
8.20
5.92
3.97
1.87
-0.81
-4.31
-8.50
-12.98
-17.26
-21.00
-24.15
-26.99
-29.97
-33.55
-38.05
-43.53
-49.81
-56.36
-62.32
-66.61
-68.13
-66.08
-60.23
-51.11
-39.83
-27.79
-16.27
-6.12
2.29
9.04
14.44
18.92
22.82
26.30
29.37
31.93
33.85
35.10
35.71
35.89
35.83
35.71
35.67
35.74
35.93
36.17
36.36
36.32
35.86
34.87
33.32
31.31
29.04
26.63
24.18
21.69
19.14
16.57
14.00
11.52
9.09
6.62
3.99
1.08
-2.14
-5.62
-9.20
-12.79
-16.26
-19.57
-22.73
-25.81
-29.03
-32.71
-37.21
-42.76
-49.23
-55.98
-61.90
-65.64
-66.01
-62.41
-55.02
-44.76
-33.03
-21.23
-10.47
-1.37
5.91
11.56
15.90
19.27
21.98
24.22
26.07
27.53
28.53
29.03
29.07
28.77
28.32
27.97
27.85
28.06
28.53
29.10
29.56
29.68
29.30
28.32
26.75
24.64
22.12
19.36
16.58
13.98
11.74
9.89
8.22
6.44
4.19
1.31
-2.13
-5.84
-9.46
-12.71
-15.57
-18.21
-20.95
-24.16
-28.13
-32.99
-38.70
-44.83
-50.66
-55.17
-57.29
-56.19
-51.62
-43.99
-34.32
-23.91
-13.97
-5.32
1.71
7.25
11.64
15.23
18.24
20.65
22.35
23.27
23.40
22.95
22.16
21.34
20.69
20.35
20.33
20.60
21.08
21.58
21.93
21.94
21.48
20.52
19.09
17.27
15.14
12.73
10.06
7.19
4.24
1.40
-1.17
-3.40
-5.36
-7.24
-9.28
-11.68
-14.52
-17.75
-21.23
-24.75
-28.16
-31.41
-34.54
-37.78
-41.42
-45.79
-51.01
-56.84
-62.56
-67.05
-69.01
-67.46
-62.02
-53.14
-41.93
-29.83
-18.16
-7.85
0.73
7.63
13.15
17.64
21.42
24.69
27.59
30.18
32.41
34.19
35.39
35.98
36.00
35.64
35.14
34.76
34.67
34.91
35.38
35.86
36.10
35.89
35.09
33.71
31.87
29.79
27.68
25.68
23.84
22.07
20.23
18.18
15.84
13.24
10.48
7.70
4.99
2.33
-0.38
-3.33
-6.65
-10.34
-14.25
-18.12
-21.74
-25.02
-28.13
-31.38
-35.21
-39.93
-45.66
-52.12
-58.63
-64.17
-67.56
-67.77
-64.21
-57.00
-46.90
-35.18
-23.27
-12.33
-3.01
4.57
10.73
15.90
20.41
24.42
27.90
30.80
33.10
34.88
36.21
37.19
37.83
38.13
38.12
37.90
37.68
37.68
38.05
38.78
39.72
40.56
40.98
40.77
39.90
38.49
36.82
35.09
33.44
31.85
30.16
28.20
25.84
23.07
20.00
16.86
13.85
11.08
8.51
5.88
2.86
-0.83
-5.31
-10.41
-15.78
-21.00
-25.77
-30.03
-33.95
-37.88
-42.22
-47.25
-53.07
-59.43
-65.75
-71.14
-74.55
-75.02
-72.03
-65.63
-56.61
-46.17
-35.72
-26.34
-18.62
-12.57
-7.83
-3.96
-0.65
2.16
4.39
5.97
6.93
7.44
7.69
7.84
7.92
7.94
7.95
8.07
8.49
9.28
10.36
11.48
12.26
12.45
11.98
11.00
9.77
8.49
7.28
6.06
4.66
2.98
0.99
-1.16
-3.30
-5.26
-7.01
-8.64
-10.28
-12.07
-14.10
-16.37
-18.86
-21.54
-24.37
-27.35
-30.43
-33.61
-36.95
-40.60
-44.79
-49.68
-55.13
-60.56
-64.98
-67.22
-66.29
-61.80
-54.01
-43.83
-32.50
-21.19
-10.79
-1.75
5.78
11.88
16.73
20.54
23.57
25.99
27.99
29.60
30.86
31.76
32.38
32.85
33.31
33.87
34.56
35.35
36.13
36.86
37.51
38.00
38.22
37.99
37.11
35.52
33.42
31.13
29.02
27.29
25.85
24.39
22.56
20.18
17.33
14.29
11.35
8.66
6.11
3.41
0.32
-3.28
-7.21
-11.17
-14.81
-17.96
-20.67
-23.18
-25.86
-29.05
-33.03
-37.96
-43.86
-50.45
-57.13
-62.86
-66.46
-66.85
-63.46
-56.50
-46.83
-35.78
-24.62
-14.32
-5.37
2.19
8.49
13.82
18.37
22.31
25.73
28.63
30.97
32.69
33.76
34.27
34.42
34.46
34.62
35.07
35.84
36.89
38.07
39.19
39.99
40.22
39.69
38.36
36.37
34.00
31.53
29.23
27.20
25.37
23.61
21.76
19.71
17.40
14.87
12.18
9.42
6.68
4.02
1.41
-1.24
-4.08
-7.23
-10.73
-14.48
-18.31
-22.07
-25.69
-29.25
-33.00
-37.31
-42.47
-48.59
-55.44
-62.34
-68.25
-71.98
-72.52
-69.38
-62.70
-53.24
-42.14
-30.58
-19.52
-9.63
-1.20
5.76
11.43
16.15
20.27
24.04
27.54
30.63
33.08
34.71
35.50
35.60
35.32
34.95
34.71
34.70
34.91
35.25
35.61
35.85
35.84
35.40
34.45
32.96
31.00
28.70
26.21
23.64
21.04
18.39
15.66
12.82
9.90
7.01
4.25
1.68
-0.74
-3.22
-6.02
-9.33
-13.15
-17.20
-21.10
-24.51
-27.29
-29.62
-31.90
-34.65
-38.33
-43.20
-49.12
-55.56
-61.53
-65.78
-67.06
-64.55
-58.14
-48.51
-36.96
-24.96
-13.75
-4.12
3.70
9.82
14.52
18.07
20.71
22.57
23.77
24.41
24.61
24.54
24.38
24.29
24.38
24.69
25.18
25.79
26.41
26.93
27.25
27.22
26.77
25.86
24.52
22.82
20.81
18.49
15.81
12.80
9.60
6.48
3.71
1.42
-0.52
-2.43
-4.69
-7.58
-11.09
-15.02
-19.05
-22.88
-26.33
-29.42
-32.29
-35.25
-38.66
-42.92
-48.24
-54.48
-61.04
-66.83
-70.51
-70.89
-67.32
-59.96
-49.67
-37.79
-25.69
-14.40
-4.51
3.83
10.71
16.35
20.96
24.69
27.69
30.05
31.83
33.06
33.79
34.09
34.11
34.06
34.15
34.50
35.14
35.96
36.79
37.43
37.69
37.44
36.59
35.19
33.36
31.31
29.19
27.09
24.95
22.64
20.03
17.12
14.01
10.91
8.05
5.54
3.37
1.34
-0.80
-3.34
-6.48
-10.30
-14.68
-19.36
-24.01
-28.37
-32.35
-36.16
-40.24
-45.10
-51.08
-58.09
-65.48
-72.03
-76.28
-76.97
-73.41
-65.76
-54.93
-42.33
-29.39
-17.21
-6.42
2.80
10.58
17.18
22.80
27.61
31.63
34.89
37.41
39.25
40.56
41.50
42.20
42.76
43.22
43.63
44.05
44.57
45.20
45.89
46.42
46.51
45.94
44.59
42.56
40.05
37.31
34.51
31.73
28.94
26.05
22.95
19.60
16.02
12.29
8.54
4.95
1.61
-1.49
-4.48
-7.60
-11.07
-14.99
-19.32
-23.82
-28.24
-32.37
-36.21
-39.99
-44.10
-48.94
-54.77
-61.47
-68.50
-74.83
-79.18
-80.32
-77.48
-70.60
-60.36
-48.02
-35.00
-22.58
-11.59
-2.41
4.99
10.91
15.73
19.85
23.50
26.83
29.80
32.35
34.39
35.93
37.02
37.80
38.43
39.05
39.78
40.67
41.72
42.80
43.71
44.24
44.23
43.61
42.41
40.74
38.70
36.32
33.60
30.52
27.08
23.40
19.66
16.08
12.76
9.67
6.64
3.45
-0.02
-3.70
-7.38
-10.84
-13.98
-16.92
-19.90
-23.25
-27.22
-31.97
-37.54
-43.76
-50.17
-55.92
-59.91
-60.95
-58.25
-51.64
-41.80
-30.04
-17.92
-6.77
2.55
9.77
15.12
18.98
21.76
23.70
24.94
25.54
25.62
25.38
25.06
24.84
24.84
25.04
25.34
25.63
25.79
25.80
25.67
25.42
25.02
24.39
23.38
21.84
19.68
16.94
13.78
10.44
7.15
4.08
1.20
-1.66
-4.72
-8.20
-12.17
-16.51
-20.95
-25.20
-29.00
-32.29
-35.22
-38.07
-41.25
-45.18
-50.16
-56.24
-63.02
-69.60
-74.69
-76.93
-75.26
-69.36
-59.72
-47.53
-34.31
-21.45
-9.92
-0.19
7.74
14.12
19.31
23.63
27.28
30.39
32.95
34.97
36.45
37.46
38.11
38.51
38.76
38.92
39.07
39.28
39.61
40.09
40.60
40.89
40.67
39.70
37.90
35.39
32.48
29.47
26.60
23.91
21.30
18.60
15.75
12.78
9.88
7.20
4.79
2.53
0.12
-2.72
-6.17
-10.20
-14.61
-19.10
-23.41
-27.47
-31.39
-35.49
-40.19
-45.81
-52.49
-59.89
-67.25
-73.37
-76.94
-76.86
-72.61
-64.46
-53.36
-40.68
-27.81
-15.84
-5.37
3.46
10.80
16.92
22.11
26.55
30.35
33.54
36.11
38.05
39.35
40.10
40.39
40.39
40.24
40.07
40.00
40.07
40.29
40.53
40.62
40.30
39.34
37.66
35.36
32.67
29.90
27.31
24.97
22.75
20.40
17.68
14.49
10.93
7.27
3.79
0.71
-1.98
-4.41
-6.84
-9.50
-12.50
-15.81
-19.25
-22.63
-25.79
-28.75
-31.74
-35.15
-39.46
-44.92
-51.42
-58.27
-64.30
-68.13
-68.62
-65.19
-58.10
-48.28
-37.07
-25.82
-15.57
-6.88
0.16
5.87
10.79
15.46
20.21
25.03
29.56
33.28
35.79
37.02
37.28
37.07
36.88
36.93
37.17
37.39
37.44
37.27
36.94
36.49
35.85
34.83
33.24
30.94
28.01
24.67
21.17
17.73
14.46
11.35
8.29
5.18
1.89
-1.61
-5.30
-9.11
-12.93
-16.67
-20.23
-23.57
-26.77
-30.01
-33.63
-38.01
-43.40
-49.76
-56.54
-62.74
-67.03
-68.19
-65.52
-59.02
-49.43
-37.95
-25.87
-14.29
-3.88
5.02
12.39
18.35
23.16
27.06
30.32
33.11
35.49
37.44
38.86
39.73
40.10
40.16
40.09
40.11
40.33
40.83
41.54
42.32
42.93
43.07
42.48
41.03
38.81
36.08
33.22
30.55
28.22
26.14
24.05
21.70
18.92
15.74
12.32
8.93
5.75
2.87
0.20
-2.48
-5.41
-8.83
-12.85
-17.43
-22.38
-27.39
-32.19
-36.60
-40.67
-44.63
-48.93
-54.03
-60.18
-67.26
-74.59
-81.02
-85.14
-85.72
-82.03
-74.13
-62.81
-49.43
-35.46
-22.20
-10.46
-0.55
7.61
14.36
20.14
25.35
30.22
34.83
39.04
42.61
45.30
46.96
47.63
47.53
47.00
46.40
46.03
45.99
46.24
46.61
46.91
46.93
46.53
45.55
43.93
41.66
38.90
35.89
32.90
30.13
27.64
25.30
22.93
20.38
17.58
14.58
11.50
8.44
5.48
2.73
0.19
-2.20
-4.64
-7.40
-10.74
-14.72
-19.14
-23.58
-27.58
-30.92
-33.73
-36.45
-39.64
-43.80
-49.11
-55.35
-61.89
-67.77
-71.86
-73.04
-70.51
-64.08
-54.21
-41.97
-28.77
-15.96
-4.52
5.05
12.79
19.05
24.29
28.93
33.19
37.09
40.50
43.28
45.31
46.62
47.30
47.50
47.35
46.95
46.40
45.83
45.42
45.25
45.27
45.25
44.80
43.58
41.47
38.63
35.44
32.35
29.62
27.24
24.95
22.39
19.35
15.84
12.09
8.38
4.97
1.96
-0.71
-3.21
-5.75
-8.51
-11.58
-14.91
-18.34
-21.63
-24.56
-27.06
-29.26
-31.52
-34.35
-38.21
-43.27
-49.24
-55.32
-60.30
-62.88
-62.03
-57.37
-49.31
-38.92
-27.61
-16.73
-7.20
0.53
6.48
10.96
14.30
16.79
18.62
19.89
20.67
21.06
21.13
21.01
20.82
20.64
20.50
20.41
20.31
20.13
19.84
19.48
19.10
18.69
18.14
17.25
15.78
13.60
10.81
7.66
4.49
1.57
-1.01
-3.35
-5.66
-8.18
-11.04
-14.25
-17.71
-21.22
-24.58
-27.64
-30.39
-32.96
-35.65
-38.84
-42.90
-47.99
-53.96
-60.19
-65.67
-69.15
-69.52
-66.12
-59.02
-49.05
-37.52
-25.86
-15.15
-5.96
1.64
7.85
12.98
17.23
20.69
23.46
25.63
27.27
28.44
29.17
29.46
29.42
29.16
28.91
28.78
28.81
28.96
29.12
29.21
29.17
28.94
28.44
27.55
26.17
24.28
21.92
19.22
16.34
13.40
10.47
7.56
4.67
1.81
-1.01
-3.82
-6.70
-9.77
-13.11
-16.75
-20.61
-24.52
-28.31
-31.90
-35.39
-39.07
-43.31
-48.42
-54.43
-60.95
-67.12
-71.72
-73.53
-71.63
-65.83
-56.68
-45.36
-33.28
-21.69
-11.38
-2.67
4.53
10.47
15.48
19.87
23.91
27.82
31.64
35.24
38.31
40.57
41.82
42.13
41.77
41.08
40.36
39.75
39.33
39.06
38.85
38.57
38.05
37.14
35.75
33.88
31.65
29.16
26.54
23.81
21.00
18.17
15.40
12.78
10.35
7.99
5.51
2.69
-0.57
-4.21
-8.07
-11.89
-15.50
-18.89
-22.18
-25.64
-29.56
-34.17
-39.59
-45.73
-52.24
-58.38
-63.12
-65.32
-64.04
-58.94
-50.49
-39.84
-28.54
-17.92
-8.83
-1.46
4.47
9.38
13.60
17.26
20.37
22.91
24.93
26.54
27.83
28.87
29.59
29.92
29.77
29.17
28.33
27.55
27.12
27.13
27.47
27.74
27.48
26.34
24.19
21.23
17.85
14.50
11.52
9.00
6.82
4.67
2.24
-0.64
-3.93
-7.37
-10.67
-13.59
-16.09
-18.36
-20.72
-23.52
-27.03
-31.38
-36.44
-41.85
-46.87
-50.55
-51.90
-50.20
-45.32
-37.78
-28.62
-19.09
-10.22
-2.61
3.58
8.54
12.52
15.75
18.28
20.15
21.40
22.16
22.61
22.91
23.13
23.28
23.31
23.20
23.00
22.83
22.81
22.99
23.29
23.50
23.32
22.48
20.84
18.41
15.41
12.19
9.10
6.38
4.09
2.02
-0.18
-2.81
-5.99
-9.58
-13.24
-16.62
-19.56
-22.14
-24.68
-27.57
-31.17
-35.67
-41.04
-47.00
-52.97
-58.05
-61.17
-61.31
-57.92
-51.14
-41.81
-31.26
-20.84
-11.55
-3.79
2.51
7.75
12.30
16.40
20.07
23.22
25.77
27.66
28.96
29.78
30.24
30.49
30.61
30.64
30.61
30.52
30.38
30.19
29.95
29.61
29.11
28.36
27.30
25.88
24.14
22.12
19.89
17.51
15.06
12.58
10.15
7.82
5.55
3.23
0.67
-2.30
-5.73
-9.49
-13.29
-16.85
-19.96
-22.63
-25.09
-27.72
-30.96
-35.11
-40.19
-45.83
-51.18
-55.12
-56.45
-54.35
-48.66
-39.96
-29.42
-18.40
-8.04
0.97
8.43
14.46
19.32
23.30
26.62
29.52
32.15
34.63
36.91
38.82
40.12
40.61
40.29
39.31
37.98
36.58
35.29
34.11
32.94
31.61
29.99
28.04
25.74
23.08
20.03
16.64
13.00
9.35
5.92
2.88
0.23
-2.19
-4.65
-7.39
-10.49
-13.84
-17.15
-20.12
-22.60
-24.67
-26.67
-29.10
-32.46
-37.06
-42.73
-48.84
-54.27
-57.76
-58.30
-55.52
-49.77
-42.03
-33.56
-25.48
-18.51
-12.89
-8.54
-5.21
-2.61
-0.50
1.29
2.89
4.31
5.48
6.32
6.77
6.92
6.98
7.16
7.58
8.20
8.83
9.27
9.40
9.22
8.79
8.18
7.37
6.29
4.83
2.95
0.75
-1.60
-3.85
-5.85
-7.54
-8.99
-10.36
-11.89
-13.88
-16.60
-20.32
-25.13
-30.78
-36.62
-41.61
-44.53
-44.40
-40.76
-33.92
-24.88
-14.99
-5.54
2.56
8.95
13.78
17.42
20.30
22.67
24.58
25.98
26.83
27.20
27.24
27.12
26.92
26.55
25.88
24.86
23.66
22.66
22.31
22.87
24.24
25.90
27.11
27.17
25.65
22.54
18.17
13.16
8.15
3.77
0.43
-1.73
-2.89
-3.61
-4.59
-6.52
-9.81
-14.38
-19.69
-24.86
-29.00
-31.55
-32.43
-32.21
-31.83
-32.35
-34.49
-38.38
-43.31
-47.95
-50.74
-50.32
-46.03
-38.06
-27.36
-15.29
-3.11
8.35
18.76
28.26
37.14
45.62
53.73
61.32
68.18
74.11
79.03
82.94
85.93
88.19
90.02
91.74
93.63
95.87
98.42
101.09
103.59
105.64
106.98
107.29
106.26
103.63
99.37
93.91
88.08
82.90
79.26
77.52
77.55
78.95
81.38
84.70
88.74
92.93
95.90
95.75
90.60
79.35
62.23
40.59
16.29
-9.08
-34.59
-59.85
-84.65
-108.77
-132.02
-154.62
-177.43
-201.84
-229.17
-259.84
-292.54
-324.00
-349.50
-364.05
-363.98
-348.23
-318.77
-280.04
-237.50
-196.06
-158.88
-127.16
-100.60
-78.37
-59.73
-44.27
-31.67
-21.45
-12.89
-5.25
1.99
8.96
15.39
20.83
25.00
27.97
30.20
32.33
34.95
38.23
41.90
45.26
47.53
48.15
46.99
44.42
41.10
37.74
34.83
32.48
30.47
28.38
25.76
22.34
18.10
13.30
8.39
3.78
-0.24
-3.75
-7.12
-10.95
-15.84
-22.12
-29.61
-37.60
-44.85
-49.89
-51.46
-48.79
-41.93
-31.71
-19.50
-6.84
4.99
15.27
23.81
30.85
36.73
41.68
45.79
49.02
51.37
52.90
53.76
54.13
54.11
53.80
53.25
52.56
51.87
51.30
50.89
50.57
50.19
49.56
48.59
47.25
45.60
43.64
41.33
38.56
35.27
31.49
27.39
23.25
19.31
15.73
12.43
9.18
5.66
1.66
-2.87
-7.80
-12.81
-17.60
-21.97
-25.97
-29.86
-34.12
-39.24
-45.53
-52.96
-61.00
-68.64
-74.55
-77.37
-76.10
-70.36
-60.60
-48.02
-34.20
-20.76
-8.84
1.10
9.32
16.58
23.76
31.44
39.66
47.87
55.17
60.65
63.81
64.71
63.95
62.37
60.75
59.50
58.71
58.26
58.00
57.86
57.83
57.82
57.57
56.70
54.86
51.94
48.17
44.02
40.01
36.45
33.27
30.16
26.75
22.83
18.46
13.86
9.23
4.60
-0.14
-5.13
-10.38
-15.69
-20.74
-25.31
-29.37
-33.24
-37.47
-42.62
-49.04
-56.64
-64.76
-72.22
-77.55
-79.39
-76.90
-69.98
-59.36
-46.33
-32.36
-18.76
-6.47
4.04
12.63
19.44
24.77
28.99
32.47
35.47
38.09
40.26
41.77
42.45
42.27
41.43
40.28
39.26
38.67
38.62
38.97
39.35
39.35
38.60
36.89
34.24
30.85
27.05
23.17
19.40
15.79
12.25
8.59
4.71
0.57
-3.71
-7.99
-12.08
-15.84
-19.26
-22.46
-25.80
-29.69
-34.52
-40.34
-46.66
-52.45
-56.32
-56.91
-53.41
-45.81
-34.95
-22.28
-9.41
2.34
12.23
20.07
26.15
30.92
34.74
37.76
39.91
41.07
41.17
40.34
38.87
37.14
35.51
34.17
33.23
32.65
32.38
32.30
32.24
31.97
31.18
29.64
27.23
24.08
20.48
16.81
13.36
10.23
7.27
4.16
0.59
-3.58
-8.22
-12.95
-17.26
-20.80
-23.50
-25.63
-27.75
-30.50
-34.38
-39.47
-45.36
-51.04
-55.16
-56.38
-53.75
-47.11
-37.17
-25.31
-13.13
-1.92
7.58
15.21
21.20
25.86
29.46
32.16
34.08
35.37
36.17
36.58
36.61
36.26
35.55
34.53
33.38
32.27
31.36
30.72
30.33
30.09
29.83
29.26
28.11
26.14
23.31
19.85
16.17
12.69
9.70
7.21
4.96
2.62
-0.06
-3.13
-6.45
-9.84
-13.11
-16.25
-19.31
-22.41
-25.70
-29.37
-33.63
-38.59
-44.05
-49.37
-53.49
-55.16
-53.42
-47.97
-39.32
-28.67
-17.47
-6.97
2.06
9.40
15.17
19.67
23.18
25.92
28.06
29.73
30.98
31.82
32.20
32.02
31.24
29.96
28.37
26.77
25.49
24.72
24.45
24.49
24.50
24.13
23.14
21.42
19.06
16.20
13.09
9.93
6.92
4.09
1.34
-1.53
-4.68
-8.15
-11.77
-15.23
-18.25
-20.70
-22.70
-24.61
-26.83
-29.75
-33.52
-38.05
-42.89
-47.27
-50.17
-50.62
-47.95
-42.10
-33.69
-23.84
-13.86
-4.84
2.57
8.18
12.20
14.96
16.80
17.92
18.42
18.33
17.71
16.67
15.40
14.17
13.20
12.63
12.45
12.50
12.62
12.63
12.50
12.25
11.88
11.35
10.47
9.08
7.07
4.47
1.43
-1.76
-4.84
-7.63
-10.07
-12.23
-14.30
-16.47
-19.01
-22.15
-26.00
-30.48
-35.21
-39.48
-42.39
-43.05
-40.87
-35.75
-28.21
-19.24
-10.01
-1.54
5.53
10.98
15.01
17.96
20.13
21.70
22.69
23.07
22.85
22.14
21.08
19.89
18.74
17.80
17.20
17.02
17.23
17.65
17.98
17.87
17.10
15.59
13.47
10.95
8.21
5.32
2.25
-1.04
-4.51
-8.04
-11.48
-14.70
-17.70
-20.51
-23.26
-26.10
-29.18
-32.72
-36.85
-41.52
-46.36
-50.57
-53.12
-53.05
-49.77
-43.43
-34.76
-24.92
-15.05
-6.05
1.64
7.90
12.84
16.64
19.51
21.64
23.27
24.53
25.48
26.06
26.17
25.77
24.94
23.91
22.92
22.19
21.78
21.67
21.71
21.73
21.53
20.96
19.87
18.18
15.93
13.27
10.45
7.73
5.26
3.06
0.94
-1.35
-4.06
-7.22
-10.69
-14.16
-17.32
-19.97
-22.14
-24.08
-26.22
-29.01
-32.77
-37.57
-43.07
-48.50
-52.77
-54.73
-53.54
-48.94
-41.40
-31.93
-21.74
-11.92
-3.16
4.22
10.22
14.94
18.56
21.29
23.40
25.15
26.73
28.19
29.40
30.21
30.52
30.36
29.94
29.50
29.22
29.14
29.15
29.08
28.75
28.06
26.98
25.50
23.67
21.52
19.08
16.43
13.69
10.97
8.38
5.96
3.65
1.33
-1.16
-3.94
-7.04
-10.40
-13.78
-16.92
-19.60
-21.78
-23.66
-25.63
-28.21
-31.75
-36.37
-41.67
-46.85
-50.85
-52.61
-51.37
-46.94
-39.74
-30.66
-20.89
-11.50
-3.31
3.31
8.35
12.05
14.69
16.55
17.84
18.70
19.24
19.54
19.61
19.48
19.17
18.74
18.32
18.04
17.95
18.06
18.26
18.33
18.07
17.26
15.82
13.79
11.35
8.79
6.37
4.20
2.21
0.18
-2.14
-4.87
-7.96
-11.22
-14.38
-17.26
-19.82
-22.14
-24.45
-27.03
-30.19
-34.07
-38.59
-43.26
-47.17
-49.24
-48.47
-44.37
-37.20
-27.92
-17.85
-8.31
-0.13
6.41
11.57
15.76
19.33
22.38
24.78
26.41
27.25
27.47
27.32
27.05
26.76
26.44
26.04
25.57
25.16
24.96
25.05
25.33
25.53
25.29
24.30
22.45
19.83
16.69
13.41
10.31
7.61
5.36
3.42
1.51
-0.73
-3.59
-7.12
-11.11
-15.12
-18.74
-21.69
-24.05
-26.17
-28.55
-31.66
-35.76
-40.82
-46.42
-51.77
-55.87
-57.64
-56.27
-51.48
-43.67
-33.80
-23.16
-12.88
-3.77
3.89
10.18
15.38
19.76
23.47
26.58
29.07
30.95
32.22
32.92
33.11
32.85
32.26
31.48
30.67
30.01
29.63
29.57
29.76
30.03
30.14
29.83
28.93
27.37
25.19
22.53
19.60
16.63
13.78
11.09
8.48
5.74
2.65
-0.89
-4.77
-8.73
-12.42
-15.60
-18.24
-20.52
-22.79
-25.43
-28.75
-32.93
-37.92
-43.45
-48.88
-53.31
-55.74
-55.27
-51.52
-44.70
-35.64
-25.45
-15.24
-5.76
2.57
9.68
15.54
20.14
23.39
25.19
25.59
24.79
23.17
21.22
19.38
18.02
17.34
17.36
18.00
19.11
20.48
21.88
23.01
23.55
23.26
22.05
20.10
17.80
15.56
13.67
12.14
10.69
8.95
6.61
3.64
0.26
-3.12
-6.16
-8.63
-10.51
-12.06
-13.67
-15.84
-19.02
-23.45
-28.91
-34.69
-39.61
-42.38
-41.97
-38.03
-30.93
-21.75
-11.75
-2.15
6.30
13.25
18.68
22.68
25.31
26.63
26.74
25.87
24.46
22.98
21.91
21.48
21.72
22.42
23.29
24.10
24.76
25.33
25.92
26.61
27.31
27.84
27.89
27.23
25.78
23.62
20.98
18.17
15.49
13.06
10.86
8.64
6.09
2.89
-1.11
-5.74
-10.69
-15.50
-19.85
-23.63
-26.98
-30.18
-33.55
-37.34
-41.70
-46.50
-51.27
-55.17
-57.15
-56.19
-51.72
-43.87
-33.49
-21.93
-10.58
-0.50
7.76
14.19
19.07
22.80
25.73
28.10
30.06
31.61
32.70
33.24
33.20
32.65
31.78
30.88
30.17
29.84
29.95
30.45
31.21
32.11
32.97
33.57
33.69
33.17
31.90
29.94
27.47
24.70
21.88
19.17
16.64
14.24
11.84
9.27
6.37
3.07
-0.54
-4.27
-7.83
-11.00
-13.67
-15.96
-18.16
-20.74
-24.17
-28.75
-34.51
-40.97
-47.25
-52.11
-54.37
-53.18
-48.39
-40.56
-30.88
-20.71
-11.27
-3.28
3.02
7.84
11.53
14.40
16.66
18.39
19.64
20.51
21.04
21.29
21.29
21.02
20.51
19.82
19.12
18.55
18.18
17.96
17.70
17.16
16.10
14.39
12.05
9.27
6.32
3.47
0.90
-1.40
-3.56
-5.81
-8.32
-11.10
-14.02
-16.85
-19.35
-21.38
-23.00
-24.46
-26.13
-28.43
-31.62
-35.70
-40.19
-44.23
-46.62
-46.24
-42.35
-34.89
-24.51
-12.34
0.30
12.29
22.87
31.78
39.09
45.10
50.19
54.69
58.85
62.80
66.56
70.10
73.36
76.28
78.79
80.88
82.64
84.22
85.87
87.81
90.17
92.89
95.70
98.18
99.88
100.42
99.74
98.04
95.79
93.52
91.61
90.12
88.79
87.10
84.45
80.23
73.82
64.71
52.52
37.32
19.87
1.55
-15.80
-30.53
-41.80
-49.98
-56.61
-63.99
-74.50
-89.90
-110.88
-136.92
-166.25
-196.12
-223.27
-244.55
-257.76
-262.10
-258.31
-248.12
-233.49
-215.79
-195.62
-173.13
-148.66
-123.28
-98.74
-76.93
-59.12
-45.44
-34.99
-26.38
-18.45
-10.70
-3.28
3.32
8.76
13.03
16.50
19.63
22.71
25.64
28.06
29.50
29.65
28.52
26.43
23.93
21.55
19.62
18.14
16.92
15.55
13.71
11.19
8.06
4.59
1.13
-2.00
-4.70
-7.09
-9.53
-12.41
-16.10
-20.81
-26.52
-32.95
-39.53
-45.35
-49.37
-50.58
-48.30
-42.49
-33.78
-23.32
-12.41
-2.16
6.69
13.89
19.49
23.69
26.73
28.83
30.22
31.07
31.55
31.74
31.67
31.35
30.80
30.14
29.50
29.05
28.94
29.20
29.77
30.42
30.83
30.68
29.71
27.82
25.11
21.90
18.56
15.42
12.60
9.99
7.30
4.23
0.62
-3.44
-7.67
-11.72
-15.40
-18.71
-21.87
-25.22
-29.11
-33.83
-39.47
-45.89
-52.54
-58.51
-62.55
-63.42
-60.31
-53.14
-42.65
-30.18
