1626259163.00
64.000000
-0.00
-0.00
-0.00
-0.00
-0.00
-0.00
-0.00
-0.00
-0.00
-0.00
0.00
0.01
0.01
-0.00
-0.03
-0.05
-0.05
0.00
0.13
0.36
0.66
1.01
1.37
1.72
2.06
2.40
2.79
3.24
3.80
4.42
5.06
5.66
6.20
6.68
7.15
7.68
8.31
9.14
10.09
11.04
11.88
12.56
13.14
13.76
14.65
15.96
17.91
20.32
22.90
25.38
27.58
29.57
31.68
34.32
37.81
42.54
48.15
54.10
59.83
64.97
69.58
74.14
79.34
85.71
93.76
103.00
112.62
121.73
129.77
136.75
143.30
150.75
157.77
166.64
177.95
191.79
206.97
220.57
228.25
225.36
208.53
176.87
132.76
80.05
23.07
-34.94
-92.44
-149.16
-205.23
-260.37
-313.74
-363.87
-409.83
-450.91
-486.50
-515.74
-537.23
-549.22
-549.96
-538.37
-514.21
-478.67
-433.88
-382.45
-327.02
-269.84
-212.63
-156.66
-102.95
-52.37
-5.90
35.58
71.43
101.35
125.50
144.38
158.69
169.15
176.37
180.75
182.57
182.07
179.51
175.23
169.65
163.18
156.15
148.81
141.30
133.69
126.02
118.33
110.69
103.16
95.80
88.68
81.83
75.25
68.95
62.95
57.25
51.86
46.78
42.03
37.59
33.45
29.61
26.07
22.81
19.83
17.11
14.67
12.48
10.54
8.83
7.35
6.07
4.97
4.05
3.26
2.61
2.09
1.67
1.33
1.05
0.82
0.59
0.37
0.15
-0.03
-0.15
-0.21
-0.21
-0.19
-0.18
-0.22
-0.30
-0.41
-0.50
-0.53
-0.48
-0.37
-0.26
-0.22
-0.30
-0.51
-0.77
-1.01
-1.10
-1.02
-0.81
-0.60
-0.55
-0.80
-1.34
-2.05
-2.67
-2.97
-2.83
-2.35
-1.84
-1.67
-2.13
-3.21
-4.63
-5.88
-6.48
-6.19
-5.24
-4.16
-3.66
-4.23
-5.89
-8.13
-10.12
-11.13
-10.80
-9.41
-7.67
-6.43
-6.36
-7.70
-10.37
-13.95
-17.58
-19.88
-19.14
-13.80
-3.31
11.26
27.27
41.34
50.65
54.11
52.65
48.53
44.09
40.53
37.55
33.83
28.08
20.17
11.09
2.73
-3.21
-6.12
-6.69
-6.55
-7.06
-8.69
-10.75
-12.18
-12.21
-10.96
-9.27
-8.24
-8.54
-10.21
-12.74
-15.38
-17.29
-17.71
-16.23
-13.06
-9.21
-6.11
-5.07
-6.44
-9.48
-12.69
-14.66
-14.66
-12.67
-8.99
-3.78
2.90
10.72
18.82
25.85
30.53
32.23
31.15
28.08
23.92
19.18
14.01
8.38
2.51
-2.88
-6.75
-7.89
-5.56
0.06
7.74
15.50
21.41
24.50
25.17
24.79
24.86
26.06
27.91
29.20
28.89
26.82
23.85
21.36
20.46
21.31
23.16
24.77
25.14
24.01
21.85
19.47
17.55
16.20
15.05
13.47
11.02
7.78
4.34
1.51
0.02
0.16
1.75
4.21
6.74
8.55
9.00
7.82
5.26
2.04
-0.83
-2.44
-2.30
-0.40
2.56
5.17
5.12
-0.50
-14.18
-36.55
-65.11
-94.27
-116.90
-127.03
-122.18
-104.11
-77.74
-48.91
-22.35
-0.80
14.72
24.21
28.14
27.55
24.17
20.09
17.08
16.00
16.59
17.89
19.20
20.58
22.98
27.83
36.46
49.42
65.89
83.27
97.03
101.34
90.50
61.43
15.88
-38.76
-90.91
-128.50
-143.37
-134.13
-106.45
-70.08
-34.73
-6.55
12.85
24.94
31.75
34.06
31.34
23.11
10.52
-3.26
-14.16
-19.27
-18.29
-13.72
-9.66
-9.72
-15.43
-25.66
-37.35
-47.15
-52.93
-54.61
-53.98
-53.67
-56.02
-62.31
-72.45
-85.09
-97.86
-107.78
-111.86
-107.90
-95.27
-75.26
-50.71
-25.05
-1.30
18.64
34.10
45.29
52.81
57.30
59.36
59.41
57.85
55.02
51.36
47.43
44.00
41.80
41.16
41.79
42.80
43.10
41.90
39.10
35.34
31.51
28.32
25.86
23.65
21.00
17.42
13.00
8.43
4.76
2.85
3.05
5.07
8.16
11.44
14.18
15.97
16.68
16.31
14.93
12.65
9.64
6.15
2.59
-0.61
-3.03
-4.41
-4.83
-4.83
-5.23
-6.85
-10.14
-14.91
-20.43
-25.81
-30.49
-34.47
-38.21
-42.25
-46.82
-51.69
-56.43
-60.92
-65.67
-71.68
-79.69
-89.25
-98.23
-103.31
-101.23
-90.39
-71.58
-47.82
-23.09
-0.83
16.98
29.94
38.56
43.55
45.30
43.96
39.83
33.73
27.10
21.79
19.44
20.82
25.48
31.93
38.36
43.53
47.28
50.38
53.74
57.65
61.30
63.24
62.21
57.81
50.83
42.83
35.62
30.59
28.48
29.04
31.20
33.33
33.86
31.93
27.90
23.09
19.05
16.67
15.71
15.07
13.57
10.65
6.52
1.83
-2.81
-7.17
-11.20
-14.68
-16.93
-16.84
-13.30
-5.72
5.42
18.55
31.27
41.11
46.23
45.93
40.62
31.38
19.29
5.19
-10.14
-25.45
-38.68
-47.26
-49.00
-43.13
-30.66
-14.10
3.61
20.07
33.87
44.50
51.94
56.15
56.93
54.03
47.56
38.18
27.21
16.35
7.14
0.46
-3.63
-5.80
-6.72
-6.65
-5.17
-1.62
4.23
11.70
19.25
25.19
28.41
28.84
27.28
24.73
21.87
18.89
15.53
11.52
6.84
1.78
-3.03
-6.95
-9.56
-10.99
-11.97
-13.51
-16.48
-21.11
-26.88
-32.83
-38.10
-42.25
-45.28
-47.33
-48.49
-48.85
-48.83
-49.24
-51.19
-55.54
-62.45
-71.38
-81.62
-92.70
-104.53
-116.71
-127.78
-134.98
-135.03
-125.51
-106.04
-78.59
-46.78
-14.76
13.81
36.24
50.84
56.93
55.01
46.77
34.91
22.34
11.29
2.69
-3.70
-8.70
-12.99
-16.68
-19.34
-20.23
-18.62
-13.92
-5.96
4.83
17.23
29.41
39.41
45.78
48.06
46.85
43.46
39.36
35.64
32.92
31.39
31.01
31.57
32.70
33.80
34.20
33.39
31.37
28.67
26.21
24.75
24.52
25.04
25.33
24.38
21.59
16.99
11.10
4.73
-1.41
-6.89
-11.66
-15.99
-20.23
-24.62
-29.11
-33.46
-37.36
-40.83
-44.35
-48.71
-54.72
-62.87
-73.21
-85.28
-97.95
-109.29
-116.65
-117.28
-109.32
-92.85
-70.18
-45.24
-22.00
-3.10
10.86
20.94
28.65
34.93
39.64
42.02
41.36
37.73
32.17
26.49
22.80
22.75
26.87
34.25
42.86
50.44
55.66
58.69
60.95
64.06
68.59
73.49
76.56
75.69
70.06
60.61
49.50
39.03
30.61
24.49
20.06
16.46
13.06
9.75
6.86
4.95
4.62
6.14
9.29
13.32
17.28
20.54
23.07
25.39
28.00
30.91
33.40
34.51
33.65
30.97
27.19
23.02
18.60
13.47
7.04
-0.87
-9.70
-18.38
-25.89
-31.63
-35.66
-38.62
-41.56
-45.73
-52.32
-61.70
-72.69
-82.27
-86.26
-81.00
-65.28
-41.37
-14.31
10.10
27.76
37.59
41.29
41.72
41.15
40.31
38.71
35.60
30.80
25.00
19.32
14.75
11.83
10.41
9.88
9.41
8.39
6.93
6.08
7.37
11.93
19.41
27.70
33.70
34.95
30.94
23.49
15.76
10.47
8.53
8.86
9.27
8.00
4.67
0.30
-3.55
-5.77
-6.33
-6.12
-6.46
-8.32
-11.88
-16.43
-20.79
-23.86
-25.28
-25.57
-25.92
-27.57
-31.16
-36.49
-42.75
-48.99
-54.55
-59.14
-62.54
-64.40
-64.25
-62.05
-58.71
-56.14
-56.58
-61.33
-69.81
-79.47
-86.71
-88.47
-83.40
-72.10
-56.44
-38.54
-20.10
-2.27
14.01
27.82
38.26
44.84
47.79
48.07
46.97
45.56
44.16
42.40
39.57
35.21
29.61
23.91
19.64
18.08
19.69
23.87
29.28
34.47
38.50
41.14
42.57
42.96
42.22
40.19
37.00
33.32
30.14
28.30
27.97
28.51
28.75
27.56
24.41
19.54
13.84
8.38
4.07
1.33
0.13
0.11
0.82
1.78
2.58
2.91
2.70
2.18
1.82
2.01
2.73
3.35
2.73
-0.25
-6.14
-14.55
-24.18
-33.19
-39.80
-42.83
-42.09
-38.52
-33.98
-31.00
-31.86
-37.68
-47.55
-58.54
-66.60
-68.25
-62.16
-49.58
-33.56
-17.26
-2.57
10.26
21.78
32.24
40.93
46.47
47.79
44.92
39.13
32.33
26.24
21.86
19.59
19.51
21.58
25.54
30.73
36.09
40.55
43.49
45.12
46.21
47.71
50.09
53.10
55.83
57.13
56.11
52.60
47.29
41.36
36.10
32.34
30.27
29.59
29.87
30.83
32.32
34.07
35.45
35.51
33.48
29.33
23.99
18.94
15.51
14.08
13.86
13.32
10.89
5.79
-1.71
-10.48
-19.15
-26.73
-32.93
-38.20
-43.41
-49.56
-57.45
-67.42
-79.14
-91.39
-102.17
-109.14
-110.29
-104.67
-92.81
-76.68
-58.99
-42.45
-28.95
-19.26
-13.22
-10.04
-8.87
-8.90
-9.50
-10.05
-9.91
-8.43
-5.06
0.54
8.18
16.94
25.16
30.79
32.16
28.78
21.73
13.43
6.65
3.30
3.55
5.89
7.99
8.03
5.66
2.04
-0.98
-1.99
-0.90
1.14
2.44
1.67
-1.53
-6.70
-13.02
-19.89
-26.86
-33.17
-37.31
-37.20
-31.20
-19.32
-3.99
10.61
20.03
21.69
15.90
5.59
-5.34
-13.99
-19.66
-23.77
-28.63
-35.90
-45.65
-56.33
-65.54
-71.09
-71.84
-67.86
-60.20
-50.26
-39.26
-27.95
-16.67
-5.63
4.82
14.10
21.52
26.63
29.48
30.66
31.16
31.93
33.59
36.24
39.43
42.38
44.32
44.78
43.93
42.50
41.56
41.96
43.82
46.35
48.17
47.97
45.24
40.50
35.01
30.05
26.43
24.20
22.83
21.72
20.43
18.86
17.08
15.21
13.30
11.38
9.43
7.53
5.76
4.23
2.90
1.61
0.02
-2.17
-4.99
-7.85
-9.70
-9.44
-6.58
-1.81
3.11
5.95
5.19
0.71
-6.13
-13.23
-18.74
-21.94
-23.18
-23.45
-23.85
-25.15
-27.99
-32.79
-39.64
-47.81
-55.52
-60.28
-59.71
-52.66
-39.83
-23.56
-6.87
7.72
18.85
26.30
30.68
32.90
33.87
34.44
35.28
36.67
38.42
40.00
40.86
40.81
40.08
39.11
38.32
37.95
38.14
39.17
41.37
44.89
49.32
53.59
56.29
56.45
54.09
50.30
46.62
44.29
43.56
43.80
43.96
43.30
41.67
39.34
36.55
33.30
29.36
24.59
19.29
14.19
10.10
7.53
6.35
5.91
5.46
4.50
2.96
1.12
-0.72
-2.49
-4.48
-7.18
-11.06
-16.25
-22.41
-28.80
-34.56
-39.10
-42.29
-44.59
-46.84
-49.94
-54.42
-60.18
-66.36
-71.47
-73.93
-72.46
-66.66
-57.13
-45.24
-32.69
-20.95
-10.94
-3.13
2.32
5.40
6.27
5.38
3.51
1.59
0.37
0.19
0.96
2.29
3.67
4.64
4.94
4.59
3.98
3.82
4.89
7.60
11.63
15.96
19.20
20.35
19.27
16.72
13.91
11.86
10.99
11.03
11.42
11.64
11.47
10.94
10.19
9.32
8.39
7.42
6.37
5.19
3.74
1.86
-0.55
-3.40
-6.41
-9.21
-11.57
-13.45
-14.99
-16.29
-17.28
-17.71
-17.40
-16.51
-15.70
-15.87
-17.75
-21.43
-26.38
-31.65
-36.50
-40.69
-44.49
-48.37
-52.56
-57.06
-61.74
-66.68
-72.00
-77.56
-82.54
-85.25
-83.71
-76.59
-63.96
-47.49
-29.78
-13.34
0.12
9.99
16.44
19.92
20.85
19.65
16.91
13.49
10.36
8.46
8.41
10.38
14.00
18.46
22.71
25.89
27.63
28.24
28.50
29.19
30.53
32.07
32.98
32.61
30.88
28.35
25.81
23.91
22.95
22.88
23.50
24.54
25.65
26.40
26.39
25.46
23.89
22.28
21.29
21.24
22.00
23.05
23.81
23.94
23.41
22.45
21.34
20.25
19.32
18.63
18.31
18.41
18.89
19.58
20.25
20.71
20.85
20.57
19.63
17.72
14.54
10.05
4.51
-1.51
-7.34
-12.43
-16.44
-19.33
-21.41
-23.39
-26.36
-31.37
-38.74
-47.42
-54.81
-57.64
-53.30
-41.22
-23.25
-2.98
15.87
30.82
41.27
47.94
51.97
53.95
53.87
51.47
46.82
40.58
33.77
27.39
22.13
18.25
15.75
14.41
13.90
13.77
13.64
13.40
13.24
13.50
14.44
15.87
17.17
17.52
16.30
13.24
8.48
2.59
-3.57
-8.86
-11.97
-11.83
-8.08
-1.58
5.73
11.36
13.43
11.42
6.33
0.07
-5.67
-10.06
-13.30
-16.02
-18.70
-21.36
-23.80
-26.04
-28.57
-32.10
-37.07
-43.37
-50.10
-56.00
-60.08
-62.18
-62.96
-63.70
-65.73
-69.93
-76.57
-85.25
-94.98
-104.24
-111.03
-113.26
-109.27
-98.60
-82.24
-62.45
-41.95
-22.99
-6.80
6.45
17.01
25.09
30.48
32.90
32.37
29.63
25.99
22.97
21.77
22.88
25.90
29.70
32.94
34.62
34.66
33.91
33.75
35.17
38.09
41.27
43.01
42.29
39.44
35.90
33.33
32.49
32.85
33.10
32.11
29.78
26.96
24.75
23.55
22.81
21.55
19.18
16.04
13.19
11.61
11.45
11.80
11.29
8.96
4.81
-0.27
-5.14
-9.11
-12.13
-14.70
-17.44
-20.80
-24.90
-29.53
-34.20
-38.19
-40.84
-41.80
-41.34
-40.39
-40.34
-42.48
-47.54
-55.31
-64.53
-73.30
-79.60
-81.85
-79.33
-72.32
-61.82
-49.24
-35.91
-22.93
-11.26
-1.76
4.84
8.27
9.10
8.67
8.72
10.59
14.69
20.33
26.25
31.30
34.83
36.87
37.85
38.26
38.63
39.54
41.57
45.18
50.24
55.95
60.95
64.05
64.80
63.71
61.87
60.26
59.11
57.97
56.13
53.26
49.69
46.15
43.25
41.02
38.99
36.60
33.70
30.53
27.55
24.96
22.61
20.27
17.93
15.92
14.59
13.92
13.33
11.92
9.04
4.73
-0.30
-5.01
-8.73
-11.31
-13.11
-14.63
-16.17
-17.88
-20.03
-23.25
-28.24
-35.26
-43.57
-51.23
-55.70
-54.81
-47.63
-34.99
-19.06
-2.59
11.99
23.07
29.94
32.60
31.59
27.94
22.99
18.15
14.54
12.67
12.36
12.94
13.64
13.87
13.41
12.42
11.37
10.89
11.56
13.63
16.80
20.22
22.82
23.80
23.03
21.00
18.51
16.11
13.94
11.75
9.29
6.47
3.32
-0.16
-4.19
-9.04
-14.79
-21.08
-27.10
-32.05
-35.54
-37.79
-39.56
-41.57
-44.16
-47.05
-49.60
-51.17
-51.54
-51.01
-50.36
-50.58
-52.64
-57.33
-65.12
-75.95
-89.05
-102.71
-114.44
-121.42
-121.35
-113.34
-98.33
-78.93
-58.38
-39.51
-23.81
-11.33
-1.19
7.60
15.51
22.36
27.55
30.61
31.46
30.64
29.06
27.83
27.83
29.51
32.62
36.34
39.52
41.08
40.26
36.82
31.09
24.02
17.15
12.39
11.57
15.66
24.15
34.92
44.99
51.57
53.24
50.34
44.60
38.20
32.89
29.44
27.68
26.86
26.11
24.71
22.22
18.52
13.70
7.96
1.56
-5.16
-11.68
-17.35
-21.47
-23.61
-23.89
-23.20
-22.89
-24.21
-27.71
-32.99
-38.91
-44.28
-48.47
-51.94
-55.97
-62.09
-70.97
-81.88
-92.54
-99.85
-101.08
-94.94
-82.02
-64.44
-44.93
-25.90
-9.02
4.65
14.40
19.85
21.22
19.74
17.72
17.92
22.47
31.82
44.51
57.65
68.10
73.66
73.64
68.88
61.11
52.35
44.45
38.81
36.32
37.26
41.26
47.21
53.52
58.53
60.87
60.01
56.31
50.86
45.06
40.13
36.78
35.03
34.37
34.00
33.21
31.57
29.13
26.25
23.43
21.00
19.06
17.47
15.99
14.58
13.32
12.36
11.75
11.25
10.45
8.86
6.14
2.25
-2.55
-7.78
-12.84
-17.16
-20.41
-22.63
-24.37
-26.62
-30.56
-37.01
-45.85
-55.76
-64.35
-68.96
-67.64
-59.98
-47.34
-32.21
-17.13
-3.74
7.61
17.40
26.19
34.03
40.34
44.35
45.62
44.33
41.28
37.61
34.45
32.73
33.19
36.29
41.89
48.84
54.64
55.91
49.43
33.68
9.98
-17.30
-41.93
-57.71
-60.62
-50.09
-28.91
-2.15
24.64
46.83
61.54
67.66
65.73
57.50
45.75
33.90
25.21
21.70
23.13
26.42
26.34
17.38
-3.81
-36.43
-75.09
-111.16
-135.57
-141.90
-128.56
-99.15
-61.01
-22.84
7.91
26.79
32.79
27.87
15.57
-0.25
-16.60
-31.85
-45.51
-57.59
-67.98
-76.16
-81.25
-82.42
-79.30
-72.27
-62.35
-50.83
-38.90
-27.43
-16.92
-7.61
0.37
7.00
12.37
16.58
19.69
21.65
22.32
21.77
20.39
18.89
18.08
18.43
19.96
22.28
24.89
27.43
29.75
31.74
33.17
33.67
32.88
30.74
27.54
23.92
20.52
17.81
15.79
14.10
12.23
9.82
7.15
5.19
5.41
9.17
16.94
27.74
39.19
48.32
52.76
51.73
46.27
38.62
31.11
25.09
20.63
16.87
12.77
7.77
2.02
-3.91
-9.59
-14.92
-20.17
-25.63
-31.32
-36.91
-41.90
-45.97
-49.37
-52.92
-57.62
-64.07
-71.84
-79.27
-83.96
-83.66
-77.25
-65.27
-49.65
-32.97
-17.47
-4.52
5.50
12.76
17.63
20.53
21.93
22.52
23.09
24.24
26.07
28.25
30.23
31.61
32.36
32.75
33.13
33.72
34.48
35.27
35.87
36.10
35.86
35.06
33.69
31.84
29.74
27.71
25.99
24.70
23.77
23.09
22.64
22.53
22.96
23.92
25.12
26.02
26.05
24.87
22.50
19.37
16.08
13.16
10.83
9.01
7.36
5.57
3.44
0.98
-1.70
-4.40
-6.98
-9.35
-11.51
-13.57
-15.73
-18.32
-21.73
-26.36
-32.50
-40.02
-48.13
-55.32
-59.68
-59.55
-54.19
-44.24
-31.48
-18.16
-6.14
3.74
11.63
18.13
23.70
28.15
30.82
31.00
28.53
24.18
19.56
16.58
16.63
19.92
25.26
30.64
34.18
35.09
33.94
32.11
30.88
30.58
30.57
29.89
28.08
25.61
23.53
22.70
23.28
24.64
25.91
26.50
26.29
25.39
23.80
21.39
18.08
14.18
10.34
7.17
4.77
2.54
-0.33
-4.38
-9.40
-14.59
-19.18
-22.89
-26.09
-29.46
-33.32
-37.48
-41.49
-45.17
-48.92
-53.40
-58.84
-64.45
-68.47
-68.96
-64.75
-56.09
-44.58
-32.37
-21.23
-12.05
-4.81
0.89
5.36
8.52
9.99
9.52
7.23
3.82
0.41
-1.79
-1.92
0.22
4.08
8.64
12.90
16.28
18.82
20.87
22.78
24.50
25.67
25.94
25.20
23.69
21.78
19.65
17.28
14.59
11.77
9.31
7.74
7.21
7.37
7.49
6.96
5.69
4.12
2.94
2.43
2.34
1.92
0.41
-2.45
-6.32
-10.36
-13.78
-16.20
-17.88
-19.46
-21.66
-24.90
-29.11
-33.91
-38.71
-43.03
-46.62
-49.46
-51.65
-53.42
-55.13
-57.34
-60.71
-65.64
-71.89
-78.29
-82.98
-83.95
-79.89
-70.64
-57.32
-41.88
-26.38
-12.44
-0.85
8.25
15.12
20.00
23.05
24.39
24.31
23.47
22.70
22.69
23.72
25.52
27.49
29.03
29.86
30.13
30.30
30.86
32.10
33.94
36.03
37.86
38.97
39.08
38.16
36.45
34.39
32.45
31.08
30.51
30.73
31.51
32.51
33.34
33.79
33.77
33.39
32.84
32.09
30.96
29.12
26.38
22.94
19.37
16.46
14.69
14.08
14.13
14.22
13.90
13.20
12.45
12.03
12.07
12.28
12.14
11.13
8.90
5.43
1.00
-3.94
-8.83
-13.07
-16.22
-18.20
-19.36
-20.41
-22.31
-25.98
-31.92
-40.09
-49.56
-58.67
-65.28
-67.43
-64.04
-55.34
-42.83
-28.73
-15.08
-3.11
6.96
15.42
22.50
27.98
31.37
32.21
30.69
27.67
24.47
22.38
22.16
23.78
26.43
28.94
30.37
30.45
29.79
29.49
30.52
33.02
36.08
38.10
37.52
33.47
26.17
16.76
6.79
-2.21
-9.18
-13.54
-15.24
-14.67
-12.56
-9.79
-7.14
-5.16
-4.01
-3.66
-3.97
-4.95
-6.56
-8.73
-11.19
-13.49
-15.26
-16.33
-16.93
-17.53
-18.69
-20.71
-23.55
-26.82
-30.05
-32.92
-35.31
-37.43
-39.60
-42.10
-45.08
-48.55
-52.59
-57.49
-63.67
-71.38
-80.13
-88.43
-93.96
-94.37
-88.28
-75.96
-59.30
-41.09
-23.86
-9.28
2.07
10.33
15.82
18.96
20.32
20.66
20.71
20.82
20.79
20.08
18.37
15.93
13.65
12.54
13.16
15.34
18.44
21.77
25.04
28.27
31.41
34.09
35.61
35.40
33.50
30.68
28.08
26.65
26.62
27.51
28.47
28.90
28.72
28.27
27.87
27.44
26.49
24.46
21.14
16.90
12.49
8.62
5.72
3.75
2.49
1.73
1.32
1.19
1.08
0.52
-1.10
-4.27
-8.98
-14.68
-20.24
-24.31
-25.70
-23.94
-19.53
-13.94
-9.01
-6.34
-6.72
-9.86
-14.77
-20.23
-25.42
-30.07
-34.55
-39.50
-45.58
-53.05
-61.48
-69.66
-75.77
-78.04
-75.32
-67.60
-55.91
-41.77
-26.55
-11.20
3.61
17.10
28.12
35.46
38.44
37.39
33.73
29.39
26.05
24.55
24.82
26.19
27.92
29.48
30.70
31.66
32.54
33.58
34.82
36.22
37.55
38.46
38.68
38.12
36.96
35.53
34.24
33.33
32.89
32.74
32.57
31.92
30.38
27.77
24.40
21.01
18.66
18.22
20.11
24.07
29.24
34.45
38.53
40.61
40.39
38.10
34.43
30.23
26.23
22.83
19.99
17.50
15.18
13.06
11.45
10.62
10.60
10.93
10.82
9.48
6.55
2.20
-2.87
-7.74
-11.59
-14.10
-15.46
-16.42
-18.06
-21.57
-27.80
-36.87
-47.87
-58.87
-67.26
-70.61
-67.47
-57.97
-43.67
-26.97
-10.27
4.62
16.66
25.38
30.64
32.56
31.60
28.67
25.10
22.15
20.71
20.91
22.20
23.57
24.01
22.89
20.27
16.93
14.11
13.09
14.50
18.02
22.35
25.85
27.22
26.01
22.64
17.96
12.61
6.83
0.71
-5.29
-10.12
-12.51
-11.66
-7.89
-2.65
2.17
5.12
5.78
4.59
2.31
-0.69
-4.46
-9.14
-14.45
-19.43
-22.90
-24.15
-23.48
-22.18
-21.89
-23.71
-27.77
-33.30
-39.09
-44.09
-47.71
-49.83
-50.71
-50.95
-51.50
-53.60
-58.38
-66.14
-75.84
-85.00
-90.48
-89.59
-81.29
-66.65
-48.34
-29.57
-12.96
0.14
9.56
15.82
19.55
21.22
21.08
19.34
16.32
12.48
8.29
4.31
1.19
-0.34
0.43
3.88
9.87
17.69
26.22
34.27
40.83
45.28
47.29
46.79
43.95
39.14
33.00
26.44
20.45
15.88
13.18
12.25
12.46
13.00
13.04
12.13
10.18
7.49
4.66
2.22
0.60
-0.08
0.02
0.58
1.13
1.27
0.72
-0.63
-2.67
-5.21
-8.11
-11.36
-15.13
-19.52
-24.43
-29.41
-33.71
-36.72
-38.23
-38.53
-38.41
-38.78
-40.54
-44.26
-50.16
-57.78
-65.92
-72.71
-76.04
-74.22
-66.65
-54.14
-38.47
-21.87
-6.22
7.23
17.75
25.03
28.94
29.63
27.63
23.92
19.65
15.79
12.86
10.96
9.99
9.93
10.97
13.41
17.37
22.65
28.66
34.56
39.46
42.71
43.99
43.42
41.38
38.39
34.95
31.42
27.96
24.63
21.53
18.81
16.74
15.54
15.20
15.37
15.40
14.70
12.98
10.35
7.20
3.87
0.43
-3.30
-7.48
-12.02
-16.50
-20.39
-23.35
-25.49
-27.28
-29.35
-32.15
-35.85
-40.28
-45.22
-50.38
-55.48
-60.23
-64.42
-68.11
-71.71
-75.84
-80.86
-86.40
-91.04
-92.65
-89.10
-79.25
-63.46
-43.55
-22.14
-1.80
15.68
29.46
39.57
46.52
51.00
53.79
55.63
57.24
59.24
61.95
65.38
69.13
72.60
75.08
76.16
75.81
74.52
73.03
72.06
71.89
72.24
72.47
71.86
69.98
66.88
62.90
58.50
54.11
49.96
46.14
42.63
39.31
36.07
32.80
29.62
26.91
25.19
24.87
25.78
27.09
27.41
25.36
20.18
12.26
3.25
-4.43
-8.51
-7.78
-2.70
4.71
11.68
15.73
15.63
11.74
5.61
-0.71
-5.54
-7.85
-7.52
-5.17
-2.22
-0.92
-3.82
-12.90
-28.32
-47.67
-66.24
-78.64
-80.82
-71.88
-54.56
-33.94
-15.36
-2.32
4.46
6.51
6.27
5.65
5.51
5.94
6.95
9.01
12.82
18.68
25.92
32.81
37.29
37.96
34.91
29.65
24.33
20.68
19.26
19.41
19.87
19.57
18.11
15.67
12.74
9.69
6.56
3.26
-0.22
-3.63
-6.55
-8.66
-9.94
-10.75
-11.66
-13.14
-15.34
-18.10
-21.08
-23.97
-26.60
-28.91
-30.92
-32.68
-34.26
-35.88
-37.98
-41.11
-45.71
-51.66
-58.11
-63.51
-66.05
-64.32
-57.95
-47.76
-35.49
-23.10
-12.14
-3.39
3.02
7.32
9.77
10.53
9.82
8.08
5.97
4.32
3.82
4.84
7.29
10.66
14.19
17.17
19.18
20.21
20.66
21.06
21.70
22.48
22.89
22.43
20.87
18.48
15.84
13.48
11.56
9.83
7.78
5.09
1.82
-1.60
-4.60
-6.76
-8.01
-8.52
-8.51
-8.17
-7.62
-7.07
-6.84
-7.25
-8.49
-10.52
-13.07
-15.91
-18.93
-22.22
-25.97
-30.25
-34.91
-39.69
-44.42
-49.16
-54.18
-59.55
-64.77
-68.64
-69.61
-66.42
-58.78
-47.58
-34.58
-21.72
-10.39
-1.20
5.96
11.44
15.60
18.65
20.78
22.25
23.33
24.24
25.01
25.58
25.85
25.89
25.82
25.78
25.89
26.20
26.76
27.64
28.82
30.13
31.21
31.65
31.15
29.67
27.42
24.74
22.00
19.50
17.44
15.93
14.98
14.59
14.68
15.13
15.73
16.12
15.75
14.12
11.03
6.97
3.18
1.22
2.35
6.80
13.53
20.58
25.83
27.93
26.75
23.29
19.03
15.25
12.48
10.60
9.09
7.38
5.12
2.05
-1.99
-7.10
-13.19
-19.88
-26.54
-32.39
-36.88
-39.91
-42.03
-44.30
-47.74
-52.82
-59.02
-64.81
-68.12
-67.14
-61.08
-50.53
-37.23
-23.30
-10.52
0.25
8.97
15.98
21.49
25.50
27.86
28.66
28.38
27.73
27.44
27.84
28.88
30.10
30.99
31.25
30.94
30.55
30.69
31.85
34.08
36.86
39.27
40.39
39.71
37.37
34.06
30.69
28.02
26.33
25.48
25.00
24.47
23.59
22.37
21.02
19.87
19.24
19.26
19.79
20.38
20.44
19.45
17.20
13.94
10.27
6.93
4.52
3.28
3.02
3.22
3.27
2.65
1.07
-1.55
-5.07
-9.17
-13.30
-16.84
-19.30
-20.62
-21.32
-22.39
-24.96
-29.80
-36.87
-45.21
-53.21
-59.11
-61.57
-59.98
-54.55
-46.01
-35.36
-23.65
-11.88
-1.10
7.77
13.97
17.24
17.90
16.79
14.95
13.22
11.92
10.93
9.94
8.84
7.79
7.17
7.32
8.36
10.17
12.48
14.97
17.35
19.30
20.45
20.53
19.42
17.34
14.77
12.31
10.39
9.12
8.27
7.47
6.43
5.08
3.48
1.81
0.17
-1.45
-3.12
-4.95
-7.00
-9.23
-11.49
-13.55
-15.20
-16.29
-16.89
-17.33
-18.13
-19.82
-22.69
-26.61
-31.07
-35.42
-39.13
-42.00
-44.24
-46.30
-48.80
-52.35
-57.33
-63.73
-70.89
-77.46
-81.67
-81.77
-76.77
-66.77
-53.00
-37.53
-22.56
-10.01
-1.20
3.37
4.15
2.56
0.69
0.65
3.77
10.03
18.16
26.22
32.54
36.30
37.60
37.13
35.67
33.82
31.95
30.45
29.65
29.84
30.96
32.61
34.11
34.81
34.32
32.53
29.65
26.15
22.71
19.99
18.40
17.88
17.84
17.36
15.66
12.49
8.22
3.66
-0.35
-3.24
-4.78
-4.99
-3.86
-1.34
2.63
7.80
13.53
18.88
22.85
24.72
24.20
21.41
16.74
10.71
3.88
-3.11
-9.71
-15.57
-20.59
-24.99
-29.20
-33.61
-38.58
-44.36
-50.98
-58.17
-65.22
-70.83
-73.56
-72.21
-66.51
-57.31
-46.37
-35.68
-26.70
-20.02
-15.39
-12.23
-10.01
-8.53
-7.82
-7.93
-8.73
-9.97
-11.33
-12.52
-13.38
-13.84
-13.81
-13.16
-11.64
-8.95
-4.80
0.94
8.13
16.35
24.99
33.47
41.39
48.61
55.10
60.82
65.60
69.17
71.28
71.94
71.40
70.07
68.26
66.09
63.49
60.36
56.72
52.81
49.01
45.62
42.72
40.03
37.15
33.70
29.58
25.05
20.52
16.30
12.33
8.35
4.15
-0.04
-3.48
-5.32
-5.08
-3.20
-1.00
-0.20
-2.18
-7.43
-15.37
-24.66
-33.71
-41.05
-45.58
-46.65
-44.19
-38.61
-30.81
-21.85
-12.66
-3.92
3.98
10.74
16.09
19.83
22.00
22.90
23.02
22.81
22.49
22.07
21.42
20.47
19.33
18.24
17.51
17.42
18.08
19.41
21.10
22.67
23.65
23.70
22.75
20.93
18.49
15.70
12.69
9.64
6.74
4.22
2.27
0.87
-0.17
-1.10
-2.13
-3.32
-4.71
-6.41
-8.64
-11.66
-15.57
-20.13
-24.69
-28.34
-30.20
-29.78
-27.26
-23.52
-19.86
-17.52
-17.31
-19.31
-22.99
-27.61
-32.63
-37.99
-44.10
-51.26
-59.19
-66.73
-72.09
-73.54
-70.27
-62.73
-52.40
-41.13
-30.35
-20.64
-11.95
-4.07
2.93
8.61
12.48
14.33
14.53
13.81
13.05
12.94
13.82
15.63
18.00
20.45
22.55
24.15
25.41
26.64
28.10
29.68
30.91
31.22
30.24
28.10
25.30
22.45
19.90
17.67
15.62
13.65
11.95
10.81
10.43
10.73
11.29
11.59
11.27
10.31
8.96
7.57
6.41
5.49
4.63
3.52
1.83
-0.70
-4.09
-8.11
-12.21
-15.73
-18.20
-19.61
-20.43
-21.43
-23.20
-25.87
-29.17
-32.71
-36.47
-40.87
-46.42
-53.10
-59.92
-65.11
-66.91
-64.36
-57.81
-48.53
-38.01
-27.31
-16.89
-6.97
2.02
9.37
14.39
16.94
17.62
17.47
17.48
18.11
19.26
20.53
21.56
22.20
22.54
22.76
23.12
23.90
25.29
27.29
29.55
31.44
32.35
32.00
30.64
28.92
27.50
26.71
26.38
26.05
25.27
23.86
22.02
20.20
18.83
18.17
18.18
18.60
19.07
19.27
19.02
18.27
17.04
15.38
13.35
11.07
8.80
6.82
5.33
4.26
3.24
1.77
-0.50
-3.55
-6.94
-10.08
-12.61
-14.67
-16.82
-19.76
-23.96
-29.38
-35.56
-41.78
-47.30
-51.45
-53.64
-53.39
-50.38
-44.62
-36.52
-26.75
-16.19
-5.70
3.99
12.28
18.77
23.25
25.80
26.67
26.35
25.37
24.25
23.40
23.09
23.37
24.13
25.08
25.94
26.66
27.36
28.28
29.58
31.12
32.55
33.43
33.51
32.81
31.54
29.98
28.30
26.57
24.82
23.13
21.62
20.36
19.42
18.74
18.21
17.67
16.95
15.91
14.47
12.70
10.73
8.78
7.00
5.43
3.95
2.35
0.40
-2.08
-5.07
-8.41
-11.78
-14.87
-17.49
-19.58
-21.25
-22.66
-24.04
-25.77
-28.33
-32.26
-37.81
-44.56
-51.31
-56.28
-57.80
-55.03
-48.35
-39.15
-29.15
-19.67
-11.25
-3.74
3.13
9.39
14.68
18.48
20.48
20.75
19.63
17.54
14.76
11.47
7.87
4.32
1.39
-0.32
-0.46
0.99
3.61
6.78
9.84
12.28
13.79
14.28
13.84
12.71
11.24
9.80
8.63
7.78
7.10
6.35
5.32
3.96
2.38
0.68
-1.14
-3.23
-5.78
-8.87
-12.38
-16.04
-19.59
-22.86
-25.83
-28.55
-31.03
-33.25
-35.17
-36.82
-38.30
-39.75
-41.31
-43.10
-45.30
-48.12
-51.75
-56.17
-60.98
-65.38
-68.22
-68.31
-64.67
-56.86
-45.12
-30.44
-14.36
1.33
15.06
25.80
33.24
37.59
39.33
38.94
36.85
33.50
29.53
25.69
22.71
21.08
20.97
22.22
24.49
27.29
30.03
32.10
32.98
32.49
30.92
28.94
27.20
25.98
25.07
23.98
22.34
20.29
18.45
17.50
17.77
18.96
20.35
21.06
20.56
18.74
15.88
12.32
8.36
4.17
-0.13
-4.38
-8.34
-11.76
-14.45
-16.39
-17.71
-18.67
-19.58
-20.73
-22.29
-24.38
-27.02
-30.23
-34.14
-38.92
-44.61
-50.89
-56.96
-61.61
-63.60
-62.09
-57.03
-49.11
-39.44
-29.08
-18.77
-8.88
0.30
8.37
14.81
19.14
21.18
21.28
20.27
19.19
19.00
20.30
23.19
27.23
31.62
35.45
38.07
39.40
39.91
40.31
41.12
42.31
43.36
43.60
42.67
40.78
38.56
36.69
35.46
34.68
33.78
32.22
29.81
26.92
24.25
22.56
22.27
23.19
24.60
25.54
25.16
23.10
19.65
15.55
11.66
8.53
6.23
4.39
2.44
-0.01
-3.04
-6.41
-9.76
-12.83
-15.62
-18.27
-20.89
-23.41
-25.67
-27.67
-29.83
-33.04
-38.17
-45.33
-53.44
-60.21
-62.99
-59.92
-50.85
-37.51
-22.72
-9.21
1.42
9.01
14.35
18.42
21.73
24.21
25.61
25.91
25.48
24.96
24.77
24.94
25.13
24.95
24.33
23.51
23.02
23.24
24.27
25.82
27.42
28.57
28.95
28.42
26.97
24.76
22.11
19.39
16.92
14.90
13.28
11.93
10.70
9.42
7.93
6.01
3.48
0.30
-3.28
-6.88
-10.14
-12.87
-15.15
-17.20
-19.27
-21.56
-24.18
-27.24
-30.68
-34.30
-37.69
-40.36
-42.03
-42.87
-43.52
-44.91
-47.95
-53.12
-60.20
-68.20
-75.47
-80.11
-80.54
-76.07
-67.22
-55.55
-43.01
-31.24
-21.04
-12.33
-4.62
2.45
8.81
13.99
17.43
18.89
18.59
17.21
15.62
14.59
14.55
15.54
17.35
19.70
22.41
25.37
28.47
31.40
33.75
35.06
35.05
33.81
31.67
29.12
26.51
24.03
21.76
19.77
18.17
17.03
16.31
15.79
15.17
14.28
13.14
11.93
10.80
9.68
8.26
6.21
3.39
0.05
-3.23
-5.86
-7.58
-8.60
-9.50
-10.92
-13.25
-16.47
-20.28
-24.22
-27.98
-31.42
-34.64
-37.82
-41.21
-45.07
-49.66
-55.14
-61.45
-68.07
-74.04
-78.09
-79.08
-76.49
-70.55
-62.16
-52.43
-42.30
-32.34
-22.89
-14.33
-7.26
-2.27
0.28
0.55
-0.72
-2.52
-3.93
-4.43
-4.00
-2.95
-1.64
-0.21
1.64
4.49
8.99
15.46
23.67
32.83
41.91
50.06
56.86
62.33
66.68
69.97
72.03
72.60
71.62
69.37
66.41
63.44
60.93
58.99
57.34
55.52
53.15
50.08
46.54
42.98
39.87
37.38
35.32
33.21
30.51
26.94
22.73
18.50
14.97
12.54
11.11
10.10
8.81
6.73
3.74
0.11
-3.70
-7.25
-10.38
-13.16
-15.83
-18.66
-21.80
-25.32
-29.36
-34.12
-39.87
-46.51
-53.37
-59.09
-61.95
-60.61
-54.70
-44.97
-33.05
-20.68
-9.15
1.02
9.82
17.36
23.56
28.15
30.89
31.83
31.42
30.33
29.20
28.38
27.87
27.45
26.87
26.03
25.22
24.91
25.54
27.18
29.35
31.14
31.55
29.99
26.62
22.33
18.41
15.94
15.36
16.26
17.62
18.33
17.64
15.50
12.49
9.46
7.08
5.60
4.85
4.43
4.01
3.43
2.65
1.62
0.25
-1.68
-4.33
-7.75
-11.77
-16.08
-20.19
-23.69
-26.35
-28.20
-29.56
-30.94
-32.91
-35.93
-40.27
-45.82
-52.06
-57.97
-62.24
-63.57
-61.14
-54.95
-45.84
-35.25
-24.65
-15.05
-6.80
0.21
6.18
11.10
14.65
16.40
16.19
14.36
11.77
9.51
8.48
9.00
10.73
12.86
14.56
15.45
15.71
15.95
16.71
18.13
19.78
20.97
21.19
20.38
19.02
17.78
17.07
16.80
16.45
15.39
13.32
10.39
7.13
4.11
1.65
-0.33
-2.22
-4.35
-6.88
-9.61
-12.18
-14.32
-15.99
-17.50
-19.29
-21.70
-24.75
-28.16
-31.47
-34.33
-36.71
-38.91
-41.34
-44.35
-48.12
-52.66
-57.88
-63.51
-68.95
-73.25
-75.16
-73.57
-68.00
-58.84
-47.26
-34.76
-22.63
-11.65
-2.10
6.06
12.90
18.48
22.83
26.05
28.32
29.86
30.92
31.79
32.68
33.66
34.65
35.41
35.69
35.49
35.06
34.88
35.35
36.46
37.80
38.69
38.58
37.32
35.20
32.74
30.38
28.35
26.62
25.07
23.64
22.35
21.22
20.21
19.15
17.85
16.17
14.12
11.85
9.56
7.42
5.42
3.44
1.25
-1.34
-4.35
-7.68
-11.08
-14.29
-17.19
-19.77
-22.15
-24.48
-26.87
-29.37
-32.03
-34.96
-38.25
-41.96
-46.10
-50.73
-56.02
-62.21
-69.30
-76.82
-83.56
-87.96
-88.59
-84.78
-76.91
-66.14
-53.84
-41.00
-28.02
-14.96
-1.83
11.03
23.07
33.75
42.77
50.25
56.52
61.94
66.70
70.77
73.97
76.14
77.17
77.10
76.12
74.49
72.50
70.36
68.12
65.72
63.02
59.93
56.46
52.73
48.86
45.03
41.37
38.10
35.44
33.59
32.61
32.34
32.40
32.27
31.45
29.64
26.80
23.17
19.16
15.17
11.50
8.28
5.45
2.83
0.17
-2.69
-5.83
-9.20
-12.68
-16.13
-19.48
-22.72
-25.84
-28.83
-31.71
-34.63
-37.82
-41.64
-46.25
-51.37
-56.20
-59.49
-59.99
-56.90
-50.21
-40.73
-29.76
-18.69
-8.57
0.03
6.94
12.23
16.02
18.39
19.40
19.22
18.16
16.70
15.40
14.67
14.58
14.85
15.01
14.72
13.97
13.11
12.59
12.69
13.32
14.00
14.16
13.45
11.83
9.66
7.36
5.30
3.61
2.24
1.06
-0.09
-1.27
-2.51
-3.82
-5.22
-6.77
-8.48
-10.33
-12.22
-14.00
-15.59
-17.02
-18.42
-20.01
-21.98
-24.34
-26.98
-29.70
-32.35
-34.90
-37.49
-40.38
-43.95
-48.48
-54.05
-60.31
-66.36
-70.90
-72.58
-70.47
-64.41
-55.09
-43.74
-31.69
-20.02
-9.37
-0.07
7.75
14.02
18.78
22.14
24.35
25.73
26.59
27.22
27.82
28.55
29.39
30.19
30.70
30.72
30.23
29.48
28.81
28.54
28.74
29.27
29.83
30.11
29.91
29.14
27.86
26.20
24.41
22.72
21.25
20.00
18.77
17.42
15.91
14.37
13.03
11.99
11.16
10.23
8.90
7.07
4.90
2.75
0.90
-0.58
-1.90
-3.28
-4.84
-6.46
-7.94
-9.20
-10.43
-11.99
-14.20
-17.11
-20.43
-23.67
-26.41
-28.45
-30.00
-31.52
-33.70
-37.14
-42.14
-48.34
-54.74
-59.76
-61.85
-60.02
-54.28
-45.62
-35.45
-25.03
-15.00
-5.45
3.72
12.41
20.10
26.10
29.95
31.68
31.88
31.43
31.16
31.56
32.64
34.07
35.37
36.20
36.47
36.39
36.30
36.46
36.89
37.36
37.56
37.27
36.57
35.66
34.84
34.26
33.88
33.53
33.01
32.15
30.85
29.12
27.10
25.02
23.22
21.91
21.12
20.57
19.85
18.62
16.83
14.70
12.61
10.82
9.34
7.96
6.41
4.53
2.28
-0.27
-3.10
-6.23
-9.65
-13.29
-16.95
-20.37
-23.41
-26.06
-28.52
-31.15
-34.37
-38.47
-43.52
-49.08
-54.24
-57.78
-58.59
-56.10
-50.53
-42.71
-33.76
-24.59
-15.79
-7.65
-0.39
5.68
10.19
12.92
13.99
13.89
13.27
12.77
12.79
13.45
14.62
16.02
17.34
18.33
18.90
19.12
19.22
19.40
19.75
20.11
20.18
19.61
18.21
16.08
13.53
11.04
9.02
7.69
6.97
6.52
5.91
4.75
2.92
0.56
-1.95
-4.25
-6.14
-7.66
-9.09
-10.77
-12.96
-15.75
-19.05
-22.60
-26.11
-29.29
-32.00
-34.31
-36.52
-39.12
-42.59
-47.26
-52.98
-59.13
-64.67
-68.47
-69.58
-67.55
-62.47
-54.93
-45.76
-35.86
-26.01
-16.80
-8.56
-1.45
4.49
9.25
12.85
15.35
16.93
17.97
18.94
20.25
22.01
23.96
25.60
26.44
26.33
25.58
24.77
24.49
25.03
26.21
27.59
28.63
28.97
28.51
27.39
25.82
23.96
21.90
19.68
17.32
14.93
12.69
10.80
9.35
8.25
7.26
6.07
4.47
2.47
0.29
-1.74
-3.42
-4.78
-6.06
-7.64
-9.83
-12.74
-16.30
-20.27
-24.31
-28.11
-31.49
-34.45
-37.20
-40.11
-43.58
-48.02
-53.60
-60.19
-67.22
-73.64
-78.22
-79.83
-77.87
-72.44
-64.32
-54.65
-44.53
-34.75
-25.87
-18.19
-11.93
-7.24
-4.11
-2.30
-1.38
-0.85
-0.30
0.54
1.78
3.47
5.64
8.28
11.44
15.18
19.67
25.08
31.59
39.11
47.28
55.38
62.54
68.00
71.32
72.49
71.87
70.04
67.50
64.55
61.27
57.61
53.58
49.36
45.30
41.73
38.81
36.44
34.31
32.14
29.80
27.34
24.90
22.57
20.33
18.09
15.71
13.15
10.39
7.38
4.11
0.63
-2.84
-6.00
-8.57
-10.55
-12.27
-14.31
-17.22
-21.25
-26.34
-32.15
-38.22
-44.06
-49.07
-52.47
-53.44
-51.30
-45.91
-37.80
-27.96
-17.59
-7.61
1.46
9.50
16.54
22.55
27.44
31.04
33.28
34.24
34.21
33.55
32.72
32.09
31.85
31.97
32.20
32.22
31.81
30.93
29.79
28.68
27.77
26.98
25.99
24.48
22.27
19.54
16.74
14.35
12.63
11.51
10.64
9.62
8.25
6.57
4.85
3.36
2.22
1.26
0.16
-1.45
-3.76
-6.69
-9.96
-13.19
-16.08
-18.50
-20.56
-22.42
-24.25
-26.14
-28.09
-30.21
-32.75
-36.00
-40.11
-44.77
-49.19
-52.25
-52.86
-50.46
-45.18
-37.79
-29.28
-20.39
-11.50
-2.63
6.11
14.26
20.96
25.34
26.94
26.10
23.88
21.61
20.24
19.96
20.22
20.16
19.27
17.64
15.93
14.91
14.97
15.93
17.11
17.80
17.58
16.52
15.03
13.54
12.28
11.14
9.80
7.93
5.33
2.08
-1.43
-4.68
-7.16
-8.65
-9.35
-9.85
-10.85
-12.82
-15.78
-19.26
-22.64
-25.55
-28.02
-30.55
-33.74
-37.97
-43.33
-49.64
-56.57
-63.73
-70.51
-76.01
-79.06
-78.60
-74.09
-65.85
-55.03
-43.13
-31.44
-20.71
-11.06
-2.29
5.74
12.94
18.97
23.43
26.15
27.29
27.44
27.37
27.73
28.77
30.24
31.55
32.14
31.91
31.22
30.77
31.05
32.06
33.27
33.90
33.44
31.94
29.94
28.07
26.67
25.61
24.51
23.02
21.15
19.18
17.47
16.21
15.24
14.21
12.74
10.69
8.18
5.55
3.11
1.08
-0.56
-1.99
-3.51
-5.40
-7.83
-10.76
-13.97
-17.19
-20.22
-23.07
-25.99
-29.29
-33.21
-37.84
-43.10
-48.73
-54.31
-59.12
-62.27
-62.81
-60.06
-53.92
-44.90
-34.00
-22.34
-10.84
-0.13
9.43
17.60
24.17
29.02
32.15
33.85
34.57
34.88
35.24
35.86
36.68
37.45
37.90
37.93
37.72
37.66
38.15
39.37
41.12
42.91
44.19
44.65
44.36
43.67
42.99
42.53
42.12
41.39
39.93
37.56
34.46
31.09
27.91
25.18
22.85
20.67
18.35
15.82
13.20
10.73
8.59
6.75
5.03
3.20
1.07
-1.40
-4.18
-7.20
-10.34
-13.48
-16.50
-19.32
-21.93
-24.45
-27.07
-30.06
-33.68
-38.13
-43.44
-49.32
-55.05
-59.59
-61.83
-60.96
-56.82
-49.89
-41.10
-31.43
-21.57
-11.91
-2.63
6.04
13.68
19.74
23.76
25.60
25.53
24.19
22.30
20.53
19.27
18.62
18.47
18.64
19.03
19.62
20.46
21.48
22.47
23.05
22.82
21.60
19.45
16.78
14.11
11.90
10.38
9.39
8.53
7.34
5.48
2.95
-0.01
-2.99
-5.67
-7.90
-9.80
-11.59
-13.50
-15.65
-17.99
-20.41
-22.76
-25.00
-27.18
-29.47
-32.05
-35.04
-38.50
-42.44
-46.72
-51.14
-55.22
-58.29
-59.54
-58.33
-54.36
-47.94
-39.83
-30.99
-22.27
-14.13
-6.66
0.23
6.58
12.18
16.66
19.68
21.11
21.22
20.57
19.87
19.65
20.10
21.08
22.26
23.39
24.37
25.26
26.18
27.18
28.17
29.04
29.71
30.08
30.06
29.46
28.06
25.79
22.80
19.50
16.38
13.79
11.78
10.14
8.59
6.91
5.04
3.03
0.90
-1.39
-3.86
-6.48
-9.10
-11.56
-13.76
-15.82
-17.99
-20.50
-23.50
-26.92
-30.54
-34.16
-37.68
-41.21
-45.03
-49.47
-54.73
-60.68
-66.74
-71.92
-75.07
-75.27
-72.21
-66.21
-58.10
-48.82
-39.12
-29.42
-19.98
-11.06
-3.18
3.07
7.22
9.18
9.34
8.44
7.28
6.46
6.24
6.54
7.17
8.01
9.16
10.97
13.84
18.02
23.42
29.61
35.98
41.98
47.30
51.94
55.99
59.47
62.21
63.88
64.24
63.31
61.40
59.00
56.53
54.21
51.97
49.68
47.25
44.72
42.18
39.69
37.15
34.41
31.33
27.91
24.36
20.92
17.78
14.99
12.41
9.78
6.83
3.34
-0.76
-5.37
-10.17
-14.81
-18.98
-22.54
-25.58
-28.41
-31.44
-35.10
-39.61
-44.78
-49.94
-53.99
-55.72
-54.22
-49.28
-41.41
-31.67
-21.24
-10.99
-1.37
7.50
15.59
22.76
28.77
33.30
36.20
37.52
37.51
36.59
35.25
33.94
33.00
32.50
32.28
32.06
31.61
30.87
29.96
29.06
28.23
27.39
26.35
24.94
23.17
21.18
19.15
17.16
15.20
13.17
11.00
8.71
6.36
4.01
1.61
-0.92
-3.63
-6.44
-9.10
-11.29
-12.78
-13.59
-14.04
-14.60
-15.69
-17.49
-19.83
-22.33
-24.54
-26.22
-27.40
-28.44
-29.81
-31.90
-34.93
-38.78
-43.05
-47.07
-50.07
-51.28
-50.19
-46.64
-40.85
-33.32
-24.68
-15.52
-6.35
2.38
10.21
16.68
21.37
24.06
24.80
24.04
22.48
20.84
19.67
19.13
18.95
18.68
17.92
16.61
15.02
13.62
12.77
12.48
12.44
12.17
11.34
9.96
8.30
6.73
5.44
4.35
3.16
1.55
-0.59
-3.08
-5.57
-7.64
-9.07
-9.90
-10.41
-11.00
-11.99
-13.55
-15.67
-18.23
-21.04
-23.93
-26.74
-29.31
-31.56
-33.54
-35.47
-37.71
-40.66
-44.58
-49.39
-54.58
-59.30
-62.50
-63.27
-61.15
-56.22
-49.08
-40.61
-31.64
-22.82
-14.48
-6.80
0.19
6.44
11.85
16.36
19.91
22.53
24.31
25.40
26.00
26.29
26.42
26.54
26.83
27.49
28.77
30.78
33.39
36.15
38.38
39.42
38.97
37.21
34.71
32.14
29.99
28.39
27.15
25.98
24.64
23.07
21.35
19.58
17.81
16.04
14.23
12.42
10.74
9.37
8.53
8.31
8.65
9.19
9.36
8.45
5.88
1.45
-4.56
-11.37
-17.99
-23.50
-27.43
-29.84
-31.29
-32.61
-34.57
-37.70
-42.13
-47.58
-53.38
-58.61
-62.29
-63.62
-62.16
-57.89
-51.09
-42.26
-32.02
-21.03
-10.02
0.29
9.39
16.99
23.13
28.00
31.82
34.74
36.81
38.10
38.69
38.71
38.16
37.01
35.21
32.94
30.72
29.27
29.20
30.73
33.43
36.47
38.91
40.11
39.90
38.61
36.76
34.81
32.96
31.10
28.97
26.33
23.17
19.69
16.19
12.92
10.04
7.65
5.90
4.96
4.96
5.75
6.84
7.49
6.94
4.90
1.64
-2.03
-5.18
-7.23
-8.21
-8.74
-9.66
-11.55
-14.49
-17.97
-21.32
-24.11
-26.48
-29.19
-33.11
-38.67
-45.30
-51.55
-55.58
-56.12
-52.91
-46.86
-39.41
-31.85
-24.75
-18.05
-11.49
-5.02
1.06
6.38
10.85
14.74
18.54
22.55
26.59
30.14
32.60
33.61
33.30
32.12
30.61
29.18
28.00
27.02
26.07
25.02
23.81
22.50
21.23
20.04
18.90
17.57
15.83
13.52
10.72
7.66
4.66
1.93
-0.51
-2.84
-5.35
-8.27
-11.61
-15.17
-18.58
-21.48
-23.73
-25.47
-27.09
-29.05
-31.64
-34.82
-38.32
-41.83
-45.18
-48.43
-51.69
-54.82
-57.29
-58.30
-57.08
-53.32
-47.29
-39.76
-31.60
-23.43
-15.46
-7.64
0.06
7.40
13.85
18.77
21.80
23.01
22.92
22.24
21.58
21.27
21.26
21.36
21.41
21.40
21.49
21.77
22.18
22.50
22.41
21.79
20.74
19.58
18.62
17.96
17.44
16.71
15.44
13.46
10.84
7.84
4.79
1.94
-0.57
-2.83
-5.03
-7.39
-10.04
-12.89
-15.71
-18.26
-20.39
-22.23
-24.09
-26.29
-29.02
-32.28
-36.03
-40.26
-45.06
-50.43
-56.00
-60.96
-64.20
-64.74
-62.12
-56.62
-49.03
-40.30
-31.17
-22.01
-12.97
-4.16
4.13
11.56
17.78
22.71
26.43
29.23
31.38
33.08
34.43
35.44
36.13
36.50
36.59
36.54
36.45
36.46
36.59
36.77
36.88
36.77
36.36
35.64
34.63
33.36
31.80
29.96
27.83
25.46
22.98
20.53
18.26
16.27
14.58
13.07
11.55
9.80
7.68
5.18
2.41
-0.41
-3.13
-5.64
-7.97
-10.15
-12.19
-14.05
-15.68
-17.15
-18.70
-20.76
-23.78
-28.03
-33.42
-39.37
-44.93
-48.99
-50.65
-49.49
-45.61
-39.51
-31.85
-23.28
-14.24
-5.11
3.75
11.96
19.14
24.95
29.24
32.01
33.49
33.97
33.81
33.36
32.87
32.52
32.36
32.40
32.57
32.85
33.23
33.67
34.11
34.49
34.74
34.77
34.48
33.70
32.28
30.19
27.64
25.03
22.84
21.33
20.48
19.97
19.38
18.41
17.02
15.40
13.85
12.57
11.62
10.90
10.20
9.35
8.18
6.52
4.17
0.98
-2.97
-7.29
-11.27
-14.13
-15.41
-15.22
-14.42
-14.27
-16.05
-20.45
-27.31
-35.59
-43.73
-50.19
-53.87
-54.33
-51.81
-46.94
-40.44
-32.91
-24.78
-16.39
-8.17
-0.67
5.48
9.90
12.51
13.64
13.86
13.77
13.75
13.95
14.30
14.66
14.95
15.19
15.50
15.98
16.71
17.60
18.41
18.84
18.67
17.90
16.77
15.64
14.79
14.28
13.90
13.26
12.04
10.09
7.57
4.83
2.29
0.24
-1.33
-2.71
-4.36
-6.67
-9.76
-13.39
-17.08
-20.31
-22.76
-24.43
-25.55
-26.50
-27.69
-29.47
-32.14
-35.87
-40.59
-45.85
-50.79
-54.35
-55.60
-54.09
-49.95
-43.78
-36.25
-27.87
-18.95
-9.68
-0.49
7.97
14.82
19.29
21.00
20.09
17.22
13.42
9.77
7.13
5.98
6.29
7.61
9.35
11.03
12.40
13.49
14.46
15.33
16.00
16.25
15.98
15.30
14.58
14.17
14.28
14.80
15.41
15.75
15.56
14.78
13.49
11.83
9.96
8.05
6.22
4.54
2.94
1.27
-0.65
-2.88
-5.24
-7.50
-9.44
-11.12
-12.80
-14.81
-17.34
-20.32
-23.46
-26.52
-29.43
-32.39
-35.69
-39.55
-43.90
-48.37
-52.33
-55.05
-55.86
-54.35
-50.47
-44.54
-37.19
-29.09
-20.86
-12.92
-5.54
1.09
6.80
11.46
14.99
17.45
19.10
20.29
21.34
22.47
23.65
24.66
25.25
25.30
24.93
24.50
24.37
24.78
25.69
26.78
27.69
28.18
28.17
27.78
27.13
26.32
25.36
24.25
22.95
21.45
19.77
18.00
16.29
14.80
13.69
12.98
12.59
12.29
11.93
11.39
10.66
9.75
8.56
6.95
4.77
2.06
-1.03
-4.20
-7.25
-10.21
-13.32
-16.86
-20.93
-25.34
-29.61
-33.30
-36.23
-38.62
-41.01
-43.97
-47.90
-52.87
-58.67
-64.94
-71.15
-76.68
-80.79
-82.75
-82.03
-78.52
-72.56
-64.73
-55.67
-45.83
-35.42
-24.57
-13.44
-2.35
8.28
18.09
26.86
34.57
41.30
47.19
52.27
56.48
59.63
61.53
62.13
61.60
60.38
59.00
57.96
57.48
57.48
57.61
57.49
56.81
55.42
53.41
51.02
48.61
46.56
45.09
44.17
43.44
42.38
40.51
37.69
34.18
30.47
27.07
24.24
21.94
19.92
17.90
15.76
13.51
11.20
8.84
6.47
4.12
1.93
0.09
-1.29
-2.28
-3.17
-4.37
-6.18
-8.64
-11.51
-14.33
-16.74
-18.58
-20.01
-21.38
-23.16
-25.74
-29.34
-33.83
-38.71
-43.14
-46.16
-46.96
-45.19
-41.07
-35.23
-28.39
-21.15
-13.80
-6.52
0.50
6.90
12.20
15.96
17.99
18.39
17.55
16.00
14.28
12.85
12.02
11.89
12.38
13.30
14.48
15.83
17.31
18.87
20.36
21.53
22.07
21.82
20.76
19.09
17.13
15.26
13.74
12.67
11.93
11.24
10.32
8.96
7.16
5.05
2.86
0.78
-1.15
-2.96
-4.77
-6.67
-8.69
-10.83
-13.06
-15.31
-17.49
-19.53
-21.46
-23.44
-25.72
-28.54
-32.05
-36.28
-41.13
-46.29
-51.24
-55.24
-57.44
-57.16
-54.10
-48.53
-41.16
-32.90
-24.57
-16.61
-9.26
-2.58
3.27
8.00
11.32
13.08
13.48
13.03
12.36
12.02
12.27
13.04
14.03
14.87
15.38
15.60
15.75
16.08
16.69
17.51
18.35
19.05
19.52
19.75
19.71
19.33
18.47
17.08
15.26
13.25
11.37
9.89
8.86
8.15
7.52
6.71
5.54
3.95
2.02
-0.10
-2.20
-4.05
-5.56
-6.78
-7.92
-9.30
-11.21
-13.75
-16.86
-20.28
-23.73
-27.00
-30.03
-32.98
-36.14
-39.84
-44.28
-49.38
-54.60
-59.06
-61.73
-61.82
-59.07
-53.78
-46.69
-38.70
-30.51
-22.54
-14.93
-7.71
-0.89
5.47
11.22
16.23
20.40
23.77
26.52
28.90
31.18
33.39
35.32
36.60
36.95
36.41
35.40
34.49
34.12
34.28
34.59
34.51
33.75
32.37
30.76
29.31
28.22
27.42
26.70
25.89
24.94
23.92
22.89
21.82
20.63
19.26
17.75
16.27
15.02
14.13
13.62
13.30
12.93
12.26
11.16
9.66
7.86
5.90
3.88
1.79
-0.39
-2.67
-5.01
-7.35
-9.66
-11.97
-14.29
-16.60
-18.82
-20.86
-22.78
-24.83
-27.45
-31.08
-35.89
-41.61
-47.47
-52.37
-55.28
-55.51
-52.93
-47.91
-41.09
-33.16
-24.60
-15.71
-6.73
2.03
10.10
17.00
22.36
26.12
28.49
29.91
30.81
31.48
31.97
32.16
31.83
30.84
29.22
27.23
25.30
23.92
23.38
23.57
24.07
24.26
23.72
22.48
20.99
19.90
19.62
20.14
20.96
21.34
20.63
18.49
14.86
9.93
4.11
-1.86
-6.80
-9.26
-8.05
-2.82
5.48
14.80
22.68
27.18
27.59
24.46
19.13
13.04
7.11
1.70
-3.26
-7.87
-12.06
-15.66
-18.54
-20.84
-23.00
-25.64
-29.38
-34.52
-40.80
-47.38
-53.03
-56.57
-57.22
-54.93
-50.25
-44.03
-36.97
-29.38
-21.28
-12.67
-3.88
4.35
11.07
15.52
17.45
17.28
15.89
14.26
13.12
12.74
12.94
13.36
13.69
13.82
13.91
14.25
15.05
16.29
17.71
18.94
19.69
19.89
19.71
19.36
19.00
18.57
17.91
16.85
15.38
13.62
11.72
9.79
7.85
5.84
3.78
1.75
-0.10
-1.71
-3.10
-4.46
-6.00
-7.83
-9.99
-12.41
-15.03
-17.85
-20.93
-24.33
-27.93
-31.51
-34.70
-37.22
-39.09
-40.66
-42.62
-45.72
-50.32
-56.12
-62.04
-66.56
-68.29
-66.52
-61.46
-54.08
-45.61
-37.04
-28.85
-21.15
-13.87
-7.06
-0.88
4.48
8.99
12.78
16.11
19.19
22.07
24.65
26.78
28.24
28.94
28.84
28.09
27.00
25.95
25.31
25.23
25.58
26.02
26.11
25.56
24.37
22.76
21.16
19.93
19.23
19.01
18.97
18.78
18.19
17.18
15.93
14.74
13.80
13.05
12.22
10.92
8.94
6.42
3.83
1.75
0.57
0.23
0.30
0.13
-0.76
-2.56
-4.98
-7.48
-9.41
-10.23
-9.74
-8.11
-5.81
-3.59
-2.24
-2.42
-4.55
-8.77
-14.86
-22.29
-30.15
-37.32
-42.68
-45.45
-45.45
-43.17
-39.54
-35.47
-31.46
-27.55
-23.47
-19.02
-14.23
-9.39
-4.90
-1.06
2.06
4.64
6.98
9.42
12.18
15.31
18.66
21.89
24.68
26.86
28.48
29.76
30.99
32.28
33.50
34.42
34.80
34.61
33.91
32.80
31.25
29.18
26.54
23.44
20.24
17.35
15.13
13.68
12.86
12.43
12.10
11.74
11.28
10.68
9.88
8.80
7.43
5.89
4.41
3.19
2.34
1.79
1.29
0.50
-0.82
-2.73
-5.08
-7.67
-10.34
-13.07
-15.98
-19.17
-22.66
-26.35
-30.08
-33.84
-37.70
-41.82
-46.11
-50.12
-53.00
-53.77
-51.74
-46.78
-39.41
-30.57
-21.26
-12.28
-4.06
3.19
9.40
14.51
18.50
21.42
23.47
24.88
25.93
26.76
27.35
27.57
27.28
26.54
25.68
25.32
26.16
28.63
32.63
37.43
41.91
44.98
46.00
45.01
42.52
39.31
35.97
32.81
29.88
27.07
24.37
21.86
19.70
17.99
16.67
15.51
14.17
12.39
10.10
7.48
5.01
3.17
2.27
2.18
2.31
1.90
0.32
-2.57
-6.37
-10.33
-13.69
-16.06
-17.55
-18.67
-20.08
-22.26
-25.44
-29.53
-34.26
-39.27
-44.09
-48.17
-50.93
-51.86
-50.67
-47.42
-42.40
-36.09
-28.90
-21.17
-13.18
-5.30
2.05
8.41
13.50
17.21
19.70
21.19
21.89
21.94
21.44
20.55
19.51
18.56
17.90
17.61
17.63
17.84
18.16
18.56
19.00
19.39
19.57
19.33
18.51
17.04
14.97
12.48
9.81
7.21
4.83
2.74
0.94
-0.60
-1.86
-2.90
-3.81
-4.76
-5.93
-7.48
-9.45
-11.73
-14.11
-16.38
-18.37
-20.05
-21.53
-22.98
-24.56
-26.35
-28.40
-30.70
-33.27
-36.12
-39.34
-43.00
-47.15
-51.69
-56.28
-60.30
-62.94
-63.38
-61.12
-56.11
-48.76
-39.82
-30.04
-20.05
-10.32
-1.25
6.70
13.12
17.71
20.54
22.05
22.93
23.82
25.04
26.50
27.83
28.66
28.88
28.77
28.86
29.60
31.11
33.06
34.85
35.94
36.14
35.68
34.98
34.40
33.91
33.14
31.62
29.13
25.87
22.43
19.41
17.22
15.81
14.82
13.78
12.36
10.55
8.61
6.86
5.53
4.56
3.65
2.42
0.60
-1.80
-4.51
-7.15
-9.48
-11.50
-13.43
-15.55
-18.00
-20.72
-23.44
-25.96
-28.23
-30.45
-32.95
-36.07
-40.01
-44.71
-49.85
-54.82
-58.89
-61.38
-61.84
-60.22
-56.78
-51.94
-46.08
-39.50
-32.39
-25.03
-17.83
-11.28
-5.80
-1.59
1.41
3.42
4.70
5.39
5.57
5.29
4.59
3.61
2.54
1.66
1.26
1.62
2.90
5.08
8.00
11.45
15.30
19.52
24.09
28.89
33.68
38.08
41.83
44.87
47.32
49.39
51.13
52.42
52.97
52.57
51.18
48.98
46.27
43.34
40.38
37.41
34.43
31.39
28.31
25.26
22.32
19.61
17.21
15.14
13.37
11.75
10.08
8.17
5.87
3.11
-0.03
-3.41
-6.85
-10.20
-13.41
-16.56
-19.89
-23.61
-27.84
-32.51
-37.28
-41.72
-45.34
-47.74
-48.66
-47.93
-45.41
-41.02
-34.78
-26.99
-18.16
-9.06
-0.43
7.19
13.56
18.65
22.59
25.51
27.51
28.72
29.36
29.67
29.89
30.08
30.15
29.99
29.52
28.92
28.48
28.49
29.05
29.98
30.90
31.39
31.14
30.10
28.43
26.37
24.16
21.92
19.68
17.39
15.06
12.79
10.73
9.00
7.64
6.52
5.42
4.04
2.21
-0.07
-2.57
-4.95
-6.91
-8.38
-9.55
-10.78
-12.42
-14.57
-17.07
-19.52
-21.56
-23.06
-24.18
-25.34
-27.06
-29.73
-33.51
-38.23
-43.44
-48.46
-52.51
-54.91
-55.24
-53.41
-49.63
-44.32
-37.82
-30.42
-22.29
-13.65
-4.87
3.51
10.87
16.69
20.70
22.93
23.68
23.36
22.40
21.17
19.95
18.89
18.08
17.56
17.35
17.45
17.85
18.45
19.11
19.64
19.90
19.84
19.47
18.86
18.06
17.04
15.76
14.20
12.37
10.32
8.12
5.86
3.64
1.57
-0.22
-1.66
-2.78
-3.71
-4.63
-5.66
-6.81
-7.97
-9.01
-9.92
-10.81
-11.92
-13.45
-15.49
-17.92
-20.49
-23.00
-25.36
-27.69
-30.24
-33.23
-36.84
-41.07
-45.81
-50.80
-55.64
-59.76
-62.43
-62.99
-60.94
-56.17
-49.04
-40.24
-30.62
-20.92
-11.63
-2.98
4.97
12.18
18.47
23.62
27.41
29.81
31.01
31.41
31.45
31.41
31.38
31.29
31.06
30.73
30.54
30.74
31.44
32.49
33.47
33.88
33.41
32.02
30.01
27.81
25.83
24.26
23.06
22.01
20.86
19.52
18.02
16.51
15.12
13.93
12.92
12.04
11.25
10.48
9.67
8.70
7.48
5.92
3.96
1.64
-0.99
-3.92
-7.12
-10.52
-13.97
-17.21
-20.03
-22.32
-24.24
-26.10
-28.22
-30.80
-33.91
-37.57
-41.78
-46.45
-51.27
-55.59
-58.50
-59.10
-56.84
-51.81
-44.67
-36.35
-27.66
-19.06
-10.61
-2.28
5.88
13.53
20.17
25.34
28.87
30.93
31.92
32.31
32.41
32.32
32.02
31.53
31.00
30.71
30.89
31.61
32.67
33.70
34.39
34.59
34.42
34.14
33.96
33.89
33.73
33.24
32.25
30.76
29.01
27.28
25.75
24.43
23.13
21.63
19.82
17.79
15.72
13.82
12.13
10.51
8.67
6.38
3.56
0.31
-3.12
-6.44
-9.47
-12.16
-14.62
-17.04
-19.63
-22.55
-25.87
-29.67
-33.95
-38.64
-43.51
-48.11
-51.75
-53.71
-53.47
-50.90
-46.31
-40.25
-33.24
-25.59
-17.42
-8.80
-0.05
8.23
15.25
20.36
23.29
24.30
23.99
23.10
22.20
21.57
21.20
21.03
21.00
21.16
21.59
22.29
23.09
23.72
23.91
23.50
22.55
21.21
19.70
18.17
16.68
15.21
13.70
12.08
10.33
8.45
6.46
4.39
2.25
0.02
-2.39
-5.05
-7.93
-10.95
-13.94
-16.77
-19.43
-22.02
-24.73
-27.64
-30.71
-33.81
-36.81
-39.69
-42.48
-45.12
-47.38
-48.80
-48.84
-47.20
-43.86
-39.13
-33.43
-27.06
-20.18
-12.88
-5.35
1.98
8.52
13.75
17.43
19.69
20.97
21.73
22.31
22.84
23.27
23.57
23.76
23.88
24.01
24.15
24.31
24.47
24.59
24.60
24.34
23.66
22.45
20.79
18.89
17.06
15.56
14.49
13.82
13.37
12.96
12.42
11.65
10.55
9.00
6.96
4.43
1.48
-1.80
-5.26
-8.76
-12.11
-15.09
-17.57
-19.53
-21.15
-22.77
-24.72
-27.17
-30.15
-33.59
-37.35
-41.24
-44.93
-47.88
-49.37
-48.77
-45.77
-40.66
-34.14
-27.04
-19.98
-13.08
-6.17
0.98
8.28
15.23
21.11
25.32
27.71
28.60
28.58
28.29
28.12
28.19
28.47
28.89
29.43
30.06
30.67
31.07
31.01
30.33
29.10
27.63
26.34
25.59
25.51
25.96
26.59
26.95
26.69
25.61
23.70
21.18
18.34
15.50
12.89
10.64
8.79
7.32
6.22
5.52
5.18
5.13
5.16
5.00
4.45
3.41
2.00
0.46
-0.91
-1.93
-2.62
-3.22
-4.04
-5.30
-7.07
-9.16
-11.30
-13.27
-15.00
-16.58
-18.21
-20.05
-22.27
-25.01
-28.42
-32.56
-37.23
-41.81
-45.31
-46.72
-45.33
-41.10
-34.66
-26.98
-19.04
-11.47
-4.53
1.78
7.50
12.55
16.76
19.97
22.06
23.08
23.17
22.59
21.61
20.48
19.36
18.31
17.32
16.37
15.54
15.00
14.91
15.31
16.03
16.77
17.24
17.30
17.01
16.53
15.99
15.46
14.81
13.94
12.74
11.25
9.61
7.94
6.31
4.70
3.00
1.14
-0.90
-2.99
-4.93
-6.51
-7.68
-8.56
-9.42
-10.59
-12.23
-14.28
-16.45
-18.36
-19.73
-20.50
-20.87
-21.22
-21.94
-23.31
-25.37
-28.03
-31.03
-34.06
-36.79
-38.81
-39.76
-39.34
-37.36
-33.75
-28.63
-22.33
-15.31
-8.12
-1.31
4.71
9.70
13.58
16.37
18.12
18.93
18.94
18.34
17.33
16.10
14.79
13.48
12.25
11.23
10.64
10.62
11.21
12.25
13.38
14.14
14.16
13.28
11.62
9.54
7.49
5.84
4.76
4.22
4.08
4.12
4.23
4.31
4.29
4.06
3.51
2.58
1.33
-0.09
-1.57
-3.12
-4.83
-6.82
-9.03
-11.25
-13.19
-14.68
-15.81
-16.95
-18.53
-20.84
-23.83
-27.12
-30.18
-32.58
-34.24
-35.40
-36.49
-37.95
-40.08
-42.98
-46.62
-50.72
-54.76
-57.94
-59.25
-57.81
-53.17
-45.63
-36.16
-26.08
-16.55
-8.28
-1.34
4.58
9.88
14.75
19.13
22.77
25.44
27.11
27.92
28.21
28.27
28.30
28.31
28.22
28.00
27.69
27.50
27.68
28.37
29.55
30.99
32.36
33.33
33.63
33.15
31.94
30.20
28.25
26.42
24.94
23.83
22.99
22.24
21.45
20.62
19.84
19.15
18.50
17.74
16.66
15.13
13.24
11.21
9.33
7.78
6.53
5.44
4.41
3.42
2.65
2.26
2.31
2.65
2.94
2.83
2.06
0.61
-1.41
-3.79
-6.39
-9.16
-12.08
-15.13
-18.23
-21.26
-24.11
-26.69
-28.98
-31.07
-33.16
-35.54
-38.40
-41.74
-45.18
-48.02
-49.47
-48.86
-45.97
-41.05
-34.64
-27.33
-19.58
-11.70
-3.94
3.38
9.84
15.07
18.88
21.37
22.81
23.54
23.82
23.79
23.62
23.48
23.56
23.96
24.61
25.29
25.73
25.79
25.50
25.03
24.55
24.18
23.88
23.55
23.07
22.36
21.43
20.27
18.90
17.31
15.53
13.68
11.96
10.58
9.73
9.46
9.66
10.12
10.61
10.91
10.87
10.39
9.51
8.38
7.27
6.45
6.11
6.26
6.64
6.95
6.93
6.48
5.65
4.56
3.32
2.06
0.98
0.37
0.47
1.29
2.50
3.46
3.49
2.20
-0.31
-3.50
-6.75
-9.61
-12.02
-14.24
-16.59
-19.28
-22.29
-25.50
-28.82
-32.22
-35.73
-39.23
-42.43
-44.77
-45.66
-44.62
-41.46
-36.33
-29.62
-21.87
-13.66
-5.59
1.80
8.05
12.83
16.01
17.67
18.10
17.64
16.69
15.52
14.33
13.19
12.12
11.14
10.31
9.78
9.66
10.03
10.79
11.71
12.51
13.00
13.14
13.06
12.94
12.82
12.59
12.04
10.99
9.47
7.69
6.02
4.70
3.75
3.01
2.26
1.32
0.19
-1.00
-2.13
-3.16
-4.16
-5.23
-6.43
-7.74
-9.16
-10.72
-12.53
-14.67
-17.12
-19.71
-22.21
-24.45
-26.44
-28.40
-30.65
-33.48
-37.02
-41.17
-45.58
-49.68
-52.78
-54.21
-53.53
-50.65
-45.87
-39.78
-32.99
-26.03
-19.21
-12.71
-6.59
-0.99
3.98
8.26
11.85
14.85
17.35
19.35
20.79
21.58
21.72
21.42
21.03
20.98
21.58
22.87
24.57
26.20
27.26
27.45
26.79
25.61
24.41
23.55
23.17
23.07
22.95
22.53
21.70
20.55
19.24
17.91
16.65
15.46
14.31
13.19
12.11
11.10
10.17
9.35
8.61
7.96
7.33
6.56
5.39
3.45
0.47
-3.59
-8.40
-13.38
-17.85
-21.37
-23.91
-25.80
-27.56
-29.55
-31.81
-34.09
-36.09
-37.77
-39.42
-41.49
-44.30
-47.65
-50.93
-53.20
-53.71
-52.17
-48.73
-43.88
-38.05
-31.48
-24.24
-16.39
-8.16
-0.10
7.19
13.19
17.66
20.70
22.61
23.74
24.45
25.04
25.79
26.90
28.41
30.13
31.76
33.03
33.90
34.55
35.34
36.52
38.08
39.72
40.86
40.96
39.76
37.41
34.57
32.05
30.51
30.13
30.53
30.88
30.44
28.81
26.21
23.29
20.73
18.91
17.73
16.72
15.41
13.63
11.62
9.88
8.91
8.91
9.64
10.57
11.05
10.56
8.96
6.60
4.22
2.72
2.88
5.01
8.82
13.30
17.00
18.24
15.58
8.23
-3.61
-18.60
-34.51
-48.78
-59.26
-64.90
-65.99
-63.86
-60.19
-56.20
-52.33
-48.36
-43.91
-39.00
-34.14
-30.14
-27.66
-26.82
-27.15
-27.78
-27.70
-26.00
-21.93
-15.06
-5.42
6.43
19.41
32.17
43.50
52.56
59.00
62.76
63.81
62.12
57.82
51.37
43.74
36.19
29.94
25.79
23.93
23.92
24.81
25.12
23.08
17.07
6.34
-8.41
-24.83
-39.57
-49.47
-52.83
-49.97
-42.94
-34.46
-26.81
-21.11
-17.48
-15.59
-15.28
-16.76
-20.36
-26.09
-33.22
-40.36
-45.83
-48.31
-47.31
-43.32
-37.48
-31.00
-24.68
-18.67
-12.71
-6.51
-0.10
6.06
11.24
14.85
16.63
16.77
15.80
14.38
13.07
12.26
12.05
12.32
12.83
13.35
13.83
14.36
15.12
16.23
17.62
19.09
20.34
21.18
21.55
21.51
21.21
20.67
19.78
18.35
16.14
13.07
9.25
5.00
0.74
-3.14
-6.46
-9.24
-11.72
-14.15
-16.68
-19.23
-21.56
-23.46
-24.85
-25.91
-26.89
-28.03
-29.42
-31.06
-33.05
-35.52
-38.68
-42.42
-46.21
-49.12
-50.10
-48.41
-43.94
-37.27
-29.36
-21.18
-13.38
-6.26
0.13
5.77
10.63
14.67
17.90
20.41
22.30
23.65
24.46
24.78
24.70
24.44
24.31
24.55
25.30
26.51
27.97
29.48
30.90
32.12
32.96
33.23
32.70
31.25
28.97
26.18
23.26
20.54
18.15
16.03
14.01
11.94
9.80
7.59
5.40
3.32
1.47
0.04
-0.88
-1.26
-1.37
-1.59
-2.38
-4.06
-6.72
-10.22
-14.34
-18.84
-23.57
-28.47
-33.51
-38.68
-43.94
-49.23
-54.44
-59.35
-63.55
-66.41
-67.19
-65.28
-60.41
-52.85
-43.37
-33.09
-23.13
-14.36
-7.19
-1.59
2.79
6.32
9.22
11.54
13.29
14.50
15.40
16.22
17.04
17.69
17.79
16.99
15.25
13.01
11.11
10.40
11.46
14.37
18.69
23.75
28.90
33.74
38.18
42.37
46.48
50.54
54.37
57.59
59.83
60.90
60.82
59.71
57.66
54.63
50.51
45.34
39.43
33.32
27.55
22.44
17.95
13.77
9.60
5.40
1.35
-2.27
-5.25
-7.57
-9.36
-10.80
-12.14
-13.76
-16.15
-19.80
-24.88
-30.98
-37.02
-41.60
-43.44
-41.90
-37.09
-29.81
-21.12
-12.07
-3.49
4.12
10.50
15.69
20.00
23.88
27.73
31.66
35.36
38.23
39.63
39.27
37.37
34.52
31.43
28.58
26.10
23.88
21.77
19.71
17.73
15.86
13.98
11.89
9.42
6.60
3.70
1.13
-0.78
-1.92
-2.44
-2.64
-2.87
-3.35
-4.22
-5.51
-7.11
-8.88
-10.61
-12.17
-13.58
-15.06
-16.98
-19.71
-23.54
-28.55
-34.58
-41.25
-47.92
-53.75
-57.78
-59.18
-57.45
-52.65
-45.29
-36.17
-26.05
-15.50
-4.92
5.29
14.62
22.46
28.33
32.03
33.73
33.95
33.22
31.96
30.35
28.45
26.37
24.37
22.81
21.97
21.96
22.57
23.39
23.92
23.71
22.47
20.11
16.80
12.85
8.75
4.91
1.60
-1.15
-3.51
-5.69
-7.80
-9.77
-11.44
-12.79
-14.05
-15.62
-17.88
-20.95
-24.60
-28.39
-31.96
-35.19
-38.17
-41.04
-43.91
-46.72
-49.40
-51.86
-54.02
-55.74
-56.69
-56.49
-54.78
-51.34
-46.21
-39.62
-31.90
-23.38
-14.36
-5.14
4.00
12.77
20.87
27.95
33.63
37.61
39.81
40.45
40.03
39.10
38.01
36.85
35.56
34.19
33.09
32.74
33.47
35.11
36.97
38.19
38.18
36.95
35.03
33.12
31.62
30.49
29.38
27.92
26.05
24.01
22.15
20.66
19.42
18.05
16.18
13.65
10.66
7.67
5.15
3.41
2.42
1.83
1.14
-0.03
-1.82
-4.02
-6.23
-8.08
-9.43
-10.51
-11.72
-13.49
-16.05
-19.27
-22.77
-26.09
-28.88
-31.07
-32.82
-34.46
-36.26
-38.45
-41.17
-44.51
-48.47
-52.86
-57.16
-60.61
-62.29
-61.44
-57.67
-51.01
-41.86
-30.84
-18.74
-6.41
5.21
15.25
23.12
28.64
32.08
33.99
34.90
35.19
35.03
34.50
33.68
32.75
32.01
31.74
32.18
33.40
35.28
37.51
39.58
41.00
41.39
40.66
38.98
36.76
34.40
32.26
30.50
29.17
28.20
27.48
26.90
26.25
25.27
23.67
21.22
17.95
14.13
10.34
7.17
4.98
3.73
2.99
2.19
0.90
-0.95
-3.15
-5.34
-7.32
-9.02
-10.53
-11.89
-13.10
-14.11
-15.00
-16.02
-17.53
-19.93
-23.47
-28.08
-33.41
-38.85
-43.70
-47.38
-49.56
-50.12
-49.03
-46.23
-41.55
-34.90
-26.49
-16.90
-7.01
2.24
10.13
16.30
20.68
23.39
24.63
24.71
24.02
23.01
22.07
21.38
20.97
20.76
20.66
20.66
20.71
20.70
20.41
19.66
18.47
17.01
15.58
14.34
13.24
12.09
10.70
9.11
7.46
5.92
4.44
2.75
0.57
-2.18
-5.22
-8.03
-10.19
-11.62
-12.68
-13.86
-15.52
-17.64
-19.89
-21.98
-23.87
-25.82
-28.21
-31.29
-34.96
-38.88
-42.61
-45.78
-48.20
-49.74
-50.25
-49.54
-47.46
-43.98
-39.29
-33.75
-27.75
-21.54
-15.16
-8.54
-1.69
5.15
11.45
16.58
20.10
21.96
22.51
22.29
21.73
21.06
20.38
19.78
19.43
19.55
20.19
21.18
22.15
22.77
22.85
22.41
21.51
20.15
18.24
15.77
12.89
9.93
7.25
5.03
3.16
1.38
-0.53
-2.58
-4.65
-6.61
-8.53
-10.65
-13.19
-16.11
-19.05
-21.51
-23.17
-24.10
-24.79
-25.86
-27.71
-30.33
-33.38
-36.47
-39.39
-42.14
-44.70
-46.82
-47.98
-47.56
-45.16
-40.77
-34.67
-27.31
-19.08
-10.24
-1.08
7.94
16.18
22.94
27.70
30.31
31.02
30.40
29.12
27.79
26.82
26.40
26.48
26.90
27.46
28.01
28.49
28.88
29.15
29.20
28.92
28.22
27.14
25.86
24.61
23.58
22.87
22.47
22.27
22.08
21.69
20.86
19.40
17.31
14.77
12.16
9.91
8.39
7.68
7.60
7.74
7.62
6.86
5.31
3.08
0.52
-1.99
-4.11
-5.78
-7.15
-8.50
-10.12
-12.07
-14.21
-16.31
-18.25
-20.12
-22.23
-24.95
-28.44
-32.51
-36.66
-40.16
-42.25
-42.38
-40.23
-35.85
-29.57
-22.01
-13.85
-5.73
1.83
8.52
14.14
18.55
21.71
23.66
24.65
25.05
25.26
25.56
26.00
26.51
26.95
27.26
27.48
27.69
27.96
28.26
28.52
28.64
28.58
28.31
27.81
27.03
25.96
24.67
23.30
22.03
20.98
20.15
19.43
18.59
17.47
15.98
14.16
12.15
10.14
8.21
6.37
4.52
2.56
0.47
-1.71
-3.87
-6.00
-8.12
-10.32
-12.64
-15.08
-17.66
-20.43
-23.53
-27.07
-30.99
-34.96
-38.38
-40.55
-40.88
-39.07
-35.18
-29.53
-22.59
-14.94
-7.16
0.18
6.55
11.54
14.99
16.92
17.61
17.42
16.73
15.82
14.85
13.86
12.86
11.87
10.97
10.26
9.82
9.66
9.70
9.84
9.99
10.10
10.15
10.07
9.69
8.80
7.22
4.94
2.24
-0.45
-2.68
-4.19
-5.03
-5.49
-5.96
-6.71
-7.86
-9.35
-11.07
-12.94
-14.98
-17.21
-19.56
-21.87
-23.87
-25.30
-26.02
-26.11
-25.86
-25.81
-26.61
-28.77
-32.47
-37.37
-42.74
-47.51
-50.69
-51.54
-49.68
-45.16
-38.31
-29.72
-20.22
-10.76
-2.27
4.51
9.28
12.11
13.39
13.59
13.06
12.08
10.88
9.75
9.02
9.00
9.77
11.13
12.67
13.90
14.57
14.70
14.58
14.51
14.62
14.76
14.64
14.11
13.23
12.29
11.63
11.45
11.64
11.93
12.01
11.70
11.04
10.19
9.38
8.77
8.36
8.12
7.92
7.72
7.49
7.28
7.11
6.93
6.53
5.58
3.82
1.19
-2.03
-5.31
-8.13
-10.22
-11.69
-12.97
-14.52
-16.65
-19.34
-22.35
-25.38
-28.23
-30.87
-33.34
-35.75
-38.22
-40.91
-44.03
-47.68
-51.73
-55.63
-58.51
-59.37
-57.44
-52.52
-45.00
-35.80
-25.94
-16.38
-7.71
-0.23
6.05
11.22
15.46
18.86
21.46
23.24
24.23
24.55
24.44
24.21
24.10
24.26
24.74
25.53
26.64
28.10
29.92
32.01
34.15
35.94
37.02
37.12
36.22
34.59
32.71
31.07
30.07
29.75
29.83
29.86
29.38
28.18
26.40
24.37
22.46
20.81
19.43
18.21
17.10
16.11
15.26
14.47
13.50
12.13
10.25
8.03
5.76
3.74
2.09
0.67
-0.77
-2.39
-4.23
-6.21
-8.29
-10.52
-13.06
-15.94
-18.98
-21.83
-24.15
-25.89
-27.36
-29.15
-31.78
-35.39
-39.57
-43.48
-46.08
-46.56
-44.51
-40.00
-33.46
-25.53
-16.89
-8.16
0.10
7.49
13.75
18.68
22.21
24.31
25.07
24.74
23.73
22.62
21.94
22.00
22.78
23.99
25.24
26.27
27.00
27.54
28.00
28.34
28.37
27.86
26.63
24.69
22.18
19.25
16.03
12.61
9.12
5.82
3.08
1.29
0.66
1.11
2.22
3.34
3.85
3.38
1.94
-0.13
-2.39
-4.50
-6.39
-8.27
-10.38
-12.89
-15.71
-18.58
-21.20
-23.36
-25.01
-26.19
-27.04
-27.64
-28.13
-28.71
-29.60
-30.99
-32.90
-35.00
-36.67
-37.12
-35.63
-31.79
-25.63
-17.60
-8.46
0.90
9.67
17.23
23.26
27.71
30.72
32.50
33.19
32.85
31.48
29.14
26.14
22.92
20.05
17.92
16.65
16.11
16.02
16.16
16.45
16.88
17.46
18.04
18.32
18.01
16.89
14.95
12.46
9.84
7.53
5.81
4.70
3.91
3.07
1.84
0.11
-1.94
-4.06
-6.02
-7.78
-9.41
-10.93
-12.27
-13.28
-13.97
-14.57
-15.59
-17.47
-20.40
-24.11
-27.98
-31.40
-34.05
-36.01
-37.69
-39.53
-41.84
-44.73
-48.17
-52.08
-56.31
-60.56
-64.32
-66.92
-67.70
-66.22
-62.34
-56.23
-48.24
-38.77
-28.32
-17.44
-6.80
2.99
11.55
18.74
24.64
29.34
32.78
34.85
35.58
35.33
34.76
34.53
34.98
35.99
37.10
37.86
38.05
37.78
37.28
36.73
36.18
35.59
34.99
34.55
34.38
34.45
34.45
33.97
32.75
30.91
28.81
26.93
25.51
24.46
23.47
22.23
20.64
18.85
17.06
15.39
13.83
12.29
10.73
9.24
8.00
7.12
6.53
5.98
5.17
3.91
2.21
0.31
-1.53
-3.13
-4.53
-5.95
-7.70
-9.99
-12.87
-16.17
-19.55
-22.66
-25.27
-27.29
-28.89
-30.36
-32.15
-34.68
-38.25
-42.85
-48.01
-52.84
-56.23
-57.22
-55.31
-50.63
-43.70
-35.22
-25.77
-15.76
-5.62
4.11
12.74
19.62
24.42
27.29
28.81
29.67
30.42
31.29
32.15
32.75
32.94
32.76
32.43
32.23
32.35
32.76
33.19
33.32
32.86
31.73
30.06
28.11
26.05
23.96
21.89
20.00
18.53
17.66
17.33
17.12
16.43
14.79
12.23
9.25
6.60
4.79
3.91
3.62
3.45
3.14
2.67
2.16
1.70
1.20
0.54
-0.34
-1.37
-2.40
-3.36
-4.27
-5.25
-6.44
-7.92
-9.71
-11.90
-14.55
-17.70
-21.19
-24.64
-27.56
-29.60
-30.70
-31.22
-31.75
-32.89
-34.94
-37.74
-40.73
-43.14
-44.18
-43.27
-40.08
-34.63
-27.23
-18.43
-8.98
0.29
8.62
15.39
20.25
23.17
24.32
24.13
23.15
21.94
20.93
20.30
19.96
19.69
19.33
18.92
18.66
18.73
19.18
19.81
20.36
20.56
20.33
19.72
18.84
17.78
16.60
15.38
14.26
13.42
13.02
13.16
13.79
14.72
15.62
16.06
15.70
14.40
12.32
9.90
7.62
5.85
4.65
3.85
3.22
2.61
2.05
1.64
1.41
1.29
1.06
0.55
-0.27
-1.34
-2.56
-3.86
-5.24
-6.72
-8.30
-10.01
-11.91
-14.09
-16.63
-19.52
-22.54
-25.25
-27.15
-27.76
-26.78
-24.12
-19.91
-14.43
-8.08
-1.40
4.98
10.43
14.47
16.84
17.59
16.98
15.39
13.25
10.95
8.88
7.37
6.62
6.63
7.23
8.17
9.21
10.19
10.98
11.42
11.31
10.44
8.71
6.15
3.04
-0.19
-2.94
-4.71
-5.23
-4.64
-3.44
-2.30
-1.80
-2.14
-3.19
-4.52
-5.73
-6.63
-7.24
-7.70
-8.19
-8.84
-9.71
-10.94
-12.64
-14.84
-17.34
-19.79
-21.78
-23.05
-23.58
-23.60
-23.60
-24.14
-25.69
-28.40
-32.02
-35.86
-38.98
-40.47
-39.74
-36.71
-31.69
-25.25
-18.02
-10.59
-3.56
2.46
6.98
9.85
11.26
11.64
11.42
10.85
9.99
8.87
7.57
6.28
5.18
4.33
3.73
3.36
3.26
3.52
4.19
5.20
6.34
7.36
8.10
8.53
8.64
8.44
7.87
6.99
5.95
5.04
4.49
4.29
4.20
3.87
3.07
1.82
0.38
-0.85
-1.61
-1.89
-1.97
-2.28
-3.15
-4.67
-6.64
-8.68
-10.58
-12.33
-14.09
-16.02
-18.07
-20.01
-21.64
-22.91
-24.02
-25.28
-26.91
-28.96
-31.37
-34.03
-36.91
-39.96
-42.98
-45.54
-47.00
-46.81
-44.63
-40.52
-34.93
-28.46
-21.74
-15.19
-9.02
-3.28
2.02
6.75
10.62
13.41
15.07
15.89
16.43
17.17
18.35
19.87
21.44
22.85
24.06
25.20
26.28
27.12
27.35
26.72
25.32
23.58
22.15
21.44
21.52
22.00
22.41
22.36
21.75
20.72
19.44
18.03
16.46
14.66
12.59
10.44
8.55
7.30
6.87
7.10
7.52
7.60
6.97
5.58
3.65
1.50
-0.62
-2.53
-4.12
-5.25
-5.85
-5.99
-6.01
-6.40
-7.62
-9.79
-12.56
-15.28
-17.33
-18.51
-19.17
-20.04
-21.92
-25.25
-29.87
-35.06
-39.74
-42.81
-43.53
-41.59
-37.24
-31.05
-23.79
-16.26
-9.13
-2.84
2.46
6.88
10.66
14.01
16.95
19.30
20.84
21.43
21.16
20.34
19.36
18.53
18.01
17.81
17.88
18.21
18.81
19.75
21.00
22.44
23.79
24.70
24.86
24.09
22.50
20.42
18.30
16.54
15.37
14.82
14.75
14.99
15.38
15.77
16.01
15.97
15.58
14.85
13.88
12.78
11.57
10.19
8.51
6.49
4.19
1.89
-0.10
-1.61
-2.68
-3.56
-4.62
-6.19
-8.40
-11.19
-14.33
-17.51
-20.47
-23.05
-25.30
-27.34
-29.40
-31.70
-34.39
-37.47
-40.76
-43.87
-46.22
-47.12
-45.94
-42.26
-36.10
-27.93
-18.62
-9.23
-0.63
6.68
12.62
17.38
21.18
24.14
26.22
27.39
27.79
27.69
27.60
27.99
29.25
31.53
34.70
38.35
41.85
44.50
45.69
45.20
43.20
40.21
36.84
33.58
30.62
27.99
25.63
23.50
21.51
19.58
17.62
15.63
13.76
12.18
10.96
9.83
8.30
5.87
2.29
-2.20
-7.01
-11.41
-14.83
-17.00
-17.92
-17.75
-16.73
-15.18
-13.58
-12.42
-12.06
-12.51
-13.34
-13.95
-13.87
-13.06
-12.04
-11.64
-12.68
-15.62
-20.42
-26.52
-32.91
-38.42
-41.88
-42.39
-39.59
-33.75
-25.79
-17.04
-8.88
-2.34
2.10
4.58
5.65
6.00
6.25
6.72
7.43
8.21
8.87
9.29
9.51
9.64
9.78
10.00
10.35
10.90
11.73
12.82
14.01
15.00
15.42
15.00
13.73
11.84
9.72
7.79
6.33
5.44
5.02
4.85
4.64
4.16
3.25
1.91
0.23
-1.63
-3.57
-5.57
-7.67
-9.93
-12.32
-14.69
-16.82
-18.57
-19.95
-21.20
-22.72
-24.86
-27.78
-31.32
-35.04
-38.30
-40.39
-40.65
-38.58
-33.94
-26.89
-18.01
-8.24
1.31
9.70
16.35
21.10
24.12
25.76
26.34
26.15
25.41
24.35
23.16
22.03
21.09
20.45
20.19
20.42
21.19
22.47
24.15
26.00
27.71
29.01
29.59
29.19
27.62
24.89
21.30
17.47
14.10
11.69
10.29
9.35
8.08
5.71
1.95
-2.94
-8.29
-13.32
-17.46
-20.49
-22.51
-23.80
-24.72
-25.53
-26.43
-27.53
-28.86
-30.43
-32.23
-34.21
-36.18
-37.82
-38.70
-38.39
-36.61
-33.34
-28.76
-23.22
-17.02
-10.37
-3.32
4.10
11.76
19.34
26.32
32.11
36.29
38.77
39.78
39.78
39.19
38.19
36.69
34.50
31.52
28.03
24.63
22.01
20.64
20.53
21.25
22.14
22.66
22.57
21.97
21.13
20.30
19.56
18.85
18.03
16.94
15.50
13.70
11.58
9.24
6.85
4.63
2.73
1.21
-0.07
-1.39
-3.00
-4.98
-7.16
-9.18
-10.68
-11.55
-12.00
-12.56
-13.78
-16.01
-19.21
-23.01
-26.86
-30.31
-33.13
-35.35
-37.18
-38.88
-40.81
-43.28
-46.55
-50.67
-55.25
-59.50
-62.38
-62.91
-60.55
-55.38
-47.94
-38.99
-29.22
-19.14
-9.29
-0.25
7.28
12.74
16.02
17.55
18.23
18.96
20.32
22.29
24.44
26.20
27.23
27.59
27.59
27.64
27.97
28.58
29.26
29.72
29.72
29.10
27.87
26.13
24.15
22.29
20.92
20.26
20.21
20.33
19.96
18.55
15.99
12.83
10.06
8.81
9.79
13.02
17.87
23.30
28.24
31.85
33.60
33.23
30.77
26.52
21.10
15.29
9.76
4.88
0.64
-3.24
-7.03
-10.73
-14.12
-16.91
-18.99
-20.52
-21.88
-23.40
-25.23
-27.32
-29.50
-31.71
-34.00
-36.50
-39.38
-42.74
-46.63
-51.00
-55.57
-59.80
-62.95
-64.23
-63.20
-59.81
-54.48
-47.76
-40.16
-31.98
-23.39
-14.69
-6.35
1.08
7.10
11.49
14.32
15.94
16.74
17.14
17.47
17.95
18.69
19.66
20.75
21.86
22.98
24.19
25.64
27.41
29.42
31.47
33.22
34.38
34.76
34.34
33.21
31.54
29.51
27.25
24.94
22.72
20.77
19.20
17.97
16.87
15.58
13.88
11.80
9.71
8.07
7.26
7.27
7.79
8.38
8.73
8.82
8.84
9.00
9.32
9.67
9.77
9.36
8.22
6.17
3.00
-1.40
-6.90
-13.11
-19.38
-25.11
-29.97
-34.07
-37.84
-41.73
-45.94
-50.30
-54.43
-57.95
-60.54
-62.00
-62.05
-60.30
-56.34
-49.91
-41.12
-30.51
-18.94
-7.34
3.50
13.03
20.93
27.01
31.16
33.38
33.87
33.00
31.38
29.69
28.59
28.50
29.54
31.52
34.00
36.50
38.61
40.11
40.95
41.14
40.73
39.74
38.20
36.20
33.91
31.53
29.23
27.16
25.38
23.97
23.01
22.53
22.42
22.40
21.98
20.79
18.66
15.83
12.79
10.07
7.97
6.35
4.75
2.56
-0.66
-4.98
-10.11
-15.49
-20.56
-24.94
-28.61
-31.83
-35.06
-38.73
-43.08
-48.03
-53.17
-57.94
-61.71
-63.93
-64.24
-62.48
-58.65
-52.92
-45.51
-36.73
-27.00
-16.87
-6.96
2.17
10.19
17.06
22.85
27.64
31.34
33.78
34.89
34.86
34.13
33.21
32.48
32.01
31.68
31.31
30.91
30.66
30.79
31.41
32.39
33.37
33.86
33.49
32.08
29.68
26.57
23.07
19.45
15.83
12.22
8.62
5.09
1.82
-1.00
-3.27
-5.11
-6.83
-8.81
-11.34
-14.53
-18.26
-22.29
-26.37
-30.36
-34.24
-38.15
-42.23
-46.61
-51.33
-56.37
-61.65
-66.89
-71.60
-75.04
-76.35
-74.87
-70.34
-62.94
-53.23
-41.81
-29.30
-16.21
-3.08
9.48
20.82
30.35
37.73
42.89
45.99
47.30
47.16
45.90
43.89
41.57
39.39
37.71
36.71
36.35
36.34
36.33
36.06
35.52
34.93
34.54
34.34
34.00
33.00
30.91
27.74
23.94
20.19
16.96
14.30
11.88
9.24
6.15
2.69
-0.86
-4.18
-7.08
-9.45
-11.16
-12.06
-12.03
-11.22
-10.07
-9.25
-9.39
-10.84
-13.56
-17.22
-21.33
-25.48
-29.42
-33.14
-36.87
-40.97
-45.85
-51.75
-58.53
-65.60
-71.98
-76.50
-78.14
-76.25
-70.62
-61.52
-49.51
-35.47
-20.44
-5.58
8.04
19.59
28.63
35.05
38.99
40.74
40.67
39.29
37.21
35.09
33.53
32.88
33.22
34.38
36.04
37.88
39.63
41.09
42.08
42.50
42.26
41.37
39.84
37.69
34.94
31.67
28.09
24.51
21.29
18.59
16.44
14.72
13.34
12.34
11.82
11.82
12.27
12.90
13.37
13.34
12.57
10.96
8.57
5.57
2.25
-1.05
-4.08
-6.72
-9.06
-11.35
-13.84
-16.71
-20.00
-23.57
-27.21
-30.70
-33.82
-36.47
-38.73
-40.84
-43.17
-46.08
-49.83
-54.44
-59.64
-64.85
-69.22
-71.82
-71.78
-68.60
-62.23
-53.12
-42.03
-29.80
-17.21
-4.83
6.88
17.53
26.70
33.98
39.10
41.99
42.93
42.48
41.46
40.69
40.69
41.58
42.94
44.12
44.57
44.11
43.08
42.03
41.42
41.36
41.49
41.23
40.04
37.73
34.54
31.01
27.77
25.18
23.30
21.90
20.69
19.52
18.36
17.28
16.22
15.00
13.38
11.22
8.64
6.02
3.83
2.35
1.53
0.95
0.09
-1.44
-3.72
-6.56
-9.57
-12.42
-14.91
-17.04
-18.92
-20.70
-22.53
-24.56
-26.97
-29.99
-33.87
-38.76
-44.61
-50.99
-57.16
-62.14
-64.98
-64.92
-61.62
-55.21
-46.23
-35.54
-24.01
-12.45
-1.47
8.54
17.28
24.57
30.29
34.39
36.88
37.85
37.42
35.75
33.11
29.88
26.58
23.84
22.22
22.05
23.32
25.59
28.16
30.33
31.57
31.66
30.68
28.83
26.34
23.36
20.05
16.58
13.22
10.23
7.82
5.97
4.51
3.18
1.75
0.10
-1.79
-3.87
-6.09
-8.40
-10.70
-12.89
-14.95
-17.04
-19.51
-22.75
-26.94
-31.88
-37.03
-41.67
-45.28
-47.78
-49.60
-51.45
-54.02
-57.63
-62.12
-66.89
-71.10
-73.88
-74.49
-72.46
-67.55
-59.83
-49.70
-37.78
-24.84
-11.69
0.95
12.51
22.55
30.72
36.75
40.45
41.89
41.48
39.88
37.85
36.02
34.68
33.82
33.28
33.00
33.02
33.36
33.95
34.53
34.75
34.42
33.55
32.31
30.92
29.42
27.76
25.83
23.60
21.11
18.41
15.53
12.59
9.87
7.82
6.88
7.09
7.99
8.68
8.21
6.05
2.35
-2.21
-6.83
-10.95
-14.38
-17.30
-19.93
-22.46
-24.99
-27.60
-30.33
-33.13
-35.84
-38.22
-40.12
-41.59
-42.95
-44.71
-47.31
-51.00
-55.70
-60.98
-66.16
-70.33
-72.50
-71.76
-67.51
-59.65
-48.69
-35.61
-21.60
-7.76
5.15
16.66
26.49
34.45
40.34
44.13
46.02
46.52
46.34
46.10
46.18
46.63
47.27
47.94
48.58
49.25
50.01
50.78
51.33
51.36
50.64
49.15
47.05
44.66
42.29
40.24
38.64
37.42
36.36
35.09
33.22
30.57
27.21
23.52
20.04
17.20
15.20
13.89
12.91
11.86
10.49
8.75
6.68
4.35
1.80
-0.97
-3.91
-6.88
-9.72
-12.34
-14.73
-16.94
-19.02
-21.02
-22.94
-24.85
-26.87
-29.15
-31.81
-34.85
-38.26
-42.02
-46.12
-50.42
-54.54
-57.71
-58.99
-57.53
-52.94
-45.47
-35.84
-25.05
-14.02
-3.42
6.26
14.72
21.71
27.02
30.57
32.46
32.98
32.48
31.37
29.92
28.31
26.76
25.58
25.21
26.05
28.26
31.53
35.12
38.10
39.68
39.50
37.72
34.83
31.42
27.91
24.50
21.22
18.07
15.10
12.37
9.89
7.57
5.32
3.08
0.86
-1.30
-3.34
-5.28
-7.12
-8.88
-10.54
-12.12
-13.75
-15.62
-17.89
-20.58
-23.50
-26.37
-28.96
-31.25
-33.47
-35.91
-38.81
-42.19
-45.94
-49.80
-53.42
-56.33
-57.95
-57.64
-54.93
-49.72
-42.33
-33.43
-23.79
-14.09
-4.83
3.61
10.85
16.57
20.62
23.06
24.24
24.61
24.59
24.38
24.06
23.68
23.28
23.02
22.97
23.14
23.41
23.63
23.72
23.68
23.50
23.13
22.45
21.34
19.76
17.81
15.67
13.53
11.50
9.66
8.04
6.73
5.81
5.32
5.09
4.90
4.50
3.79
2.88
1.91
0.98
-0.03
-1.33
-3.11
-5.34
-7.78
-10.07
-12.02
-13.68
-15.43
-17.67
-20.61
-24.18
-28.02
-31.75
-35.15
-38.26
-41.23
-44.25
-47.42
-50.81
-54.53
-58.62
-62.93
-66.90
-69.63
-70.05
-67.33
-61.30
-52.48
-41.89
-30.66
-19.69
-9.42
-0.06
8.34
15.68
21.85
26.85
30.84
34.08
36.75
38.76
39.84
39.75
38.50
36.52
34.58
33.42
33.44
34.47
35.89
37.02
37.40
36.96
35.96
34.69
33.28
31.68
29.81
27.73
25.70
24.05
22.96
22.33
21.83
21.03
19.74
17.99
16.00
14.04
12.25
10.70
9.39
8.33
7.44
6.56
5.45
3.87
1.81
-0.47
-2.53
-4.00
-4.80
-5.22
-5.76
-6.93
-8.94
-11.68
-14.72
-17.51
-19.55
-20.66
-21.08
-21.41
-22.50
-25.02
-29.14
-34.40
-39.71
-43.80
-45.57
-44.60
-41.21
-36.43
-31.63
-28.09
-26.56
-26.96
-28.33
-29.10
-27.53
-22.41
-13.46
-1.51
11.75
24.33
34.57
41.57
45.30
46.38
45.62
43.67
40.96
37.74
34.31
31.18
28.88
27.71
27.57
27.93
28.11
27.62
26.43
24.92
23.61
22.85
22.62
22.54
22.07
20.82
18.73
16.03
13.17
10.57
8.48
6.92
5.75
4.76
3.78
2.79
1.86
1.14
0.75
0.72
0.99
1.46
1.94
2.30
2.35
1.95
0.98
-0.62
-2.80
-5.47
-8.51
-11.84
-15.45
-19.31
-23.28
-27.06
-30.24
-32.44
-33.49
-33.60
-33.33
-33.43
-34.52
-36.86
-40.28
-44.14
-47.60
-49.86
-50.30
-48.61
-44.78
-39.04
-31.74
-23.27
-14.10
-4.71
4.35
12.53
19.38
24.59
28.15
30.21
31.14
31.30
31.02
30.50
29.83
29.08
28.30
27.51
26.78
26.12
25.55
25.09
24.65
24.11
23.24
21.89
20.01
17.75
15.39
13.25
11.53
10.23
9.20
8.25
7.26
6.25
5.28
4.47
3.85
3.38
2.93
2.25
1.02
-1.12
-4.41
-8.90
-14.38
-20.39
-26.33
-31.63
-35.92
-39.08
-41.30
-42.84
-43.96
-44.77
-45.35
-45.82
-46.48
-47.74
-49.99
-53.28
-57.11
-60.54
-62.44
-61.99
-58.87
-53.34
-45.97
-37.42
-28.26
-18.95
-9.86
-1.26
6.69
13.88
20.21
25.49
29.42
31.80
32.66
32.38
31.60
30.96
30.81
31.17
31.80
32.51
33.26
34.14
35.16
36.13
36.56
35.95
34.04
30.95
27.25
23.61
20.59
18.44
17.13
16.40
15.97
15.64
15.31
14.97
14.57
14.07
13.39
12.41
11.11
9.54
7.85
6.23
4.82
3.68
2.70
1.71
0.53
-1.00
-2.96
-5.37
-8.21
-11.39
-14.77
-18.11
-21.17
-23.82
-26.07
-28.12
-30.23
-32.66
-35.64
-39.26
-43.47
-48.01
-52.29
-55.51
-56.76
-55.35
-50.98
-43.94
-34.95
-24.91
-14.65
-4.79
4.33
12.53
19.66
25.58
30.19
33.42
35.35
36.23
36.41
36.30
36.24
36.43
36.93
37.64
38.44
39.19
39.82
40.30
40.58
40.64
40.47
40.04
39.33
38.27
36.78
34.77
32.25
29.35
26.33
23.53
21.31
19.86
19.20
19.11
19.30
19.46
19.35
18.79
17.66
15.93
13.64
10.97
8.26
5.79
3.74
2.00
0.24
-1.88
-4.51
-7.51
-10.55
-13.29
-15.59
-17.47
-19.11
-20.63
-22.09
-23.56
-25.09
-26.86
-29.02
-31.66
-34.62
-37.52
-39.79
-40.84
-40.22
-37.69
-33.31
-27.34
-20.21
-12.45
-4.62
2.71
9.07
14.14
17.80
20.15
21.36
21.62
21.08
19.84
18.08
16.13
14.41
13.34
13.19
13.99
15.54
17.49
19.43
20.95
21.68
21.45
20.34
18.66
16.86
15.30
14.13
13.18
12.21
10.98
9.47
7.79
6.12
4.56
3.13
1.79
0.49
-0.78
-2.01
-3.25
-4.60
-6.16
-7.96
-9.91
-11.80
-13.39
-14.53
-15.28
-15.91
-16.90
-18.66
-21.40
-24.95
-28.83
-32.41
-35.17
-37.00
-38.15
-39.18
-40.65
-42.95
-46.14
-49.91
-53.65
-56.50
-57.53
-55.96
-51.37
-43.92
-34.32
-23.68
-13.25
-4.08
3.20
8.42
11.82
13.91
15.27
16.39
17.60
19.00
20.49
21.80
22.55
22.50
21.65
20.35
19.25
19.00
20.00
22.16
24.93
27.52
29.22
29.64
28.80
27.01
24.71
22.26
19.87
17.62
15.60
13.95
12.85
12.36
12.38
12.55
12.40
11.49
9.70
7.27
4.67
2.42
0.80
-0.22
-0.97
-1.80
-2.96
-4.41
-5.91
-7.20
-8.14
-8.75
-9.21
-9.72
-10.36
-11.12
-11.94
-12.76
-13.65
-14.71
-15.99
-17.47
-19.01
-20.47
-21.71
-22.71
-23.46
-24.03
-24.57
-25.32
-26.62
-28.72
-31.76
-35.61
-39.90
-44.02
-47.22
-48.69
-47.74
-44.06
-37.84
-29.83
-21.09
-12.61
-5.07
1.28
6.49
10.70
14.02
16.49
18.19
19.28
19.96
20.41
20.72
20.85
20.80
20.58
20.36
20.29
20.50
21.05
21.87
22.90
24.04
25.17
26.14
26.76
26.84
26.28
25.11
23.54
21.87
20.44
19.47
18.95
18.71
18.46
17.97
17.20
16.24
15.33
14.63
14.20
13.93
13.64
13.23
12.65
11.99
11.32
10.61
9.71
8.44
6.75
4.77
2.80
1.07
-0.40
-1.86
-3.72
-6.28
-9.52
-13.10
-16.54
-19.43
-21.58
-23.06
-24.13
-25.09
-26.32
-28.17
-30.94
-34.69
-39.10
-43.46
-46.83
-48.34
-47.46
-44.14
-38.73
-31.83
-24.08
-16.11
-8.52
-1.87
3.43
7.24
9.75
11.38
12.56
13.57
14.44
15.06
15.35
15.36
15.24
15.15
15.12
15.13
15.09
15.03
15.01
15.11
15.30
15.40
15.19
14.48
13.29
11.80
10.29
9.02
8.13
7.61
7.36
7.23
7.08
6.82
6.42
5.92
5.34
4.75
4.14
3.47
2.74
1.97
1.21
0.55
0.03
-0.34
-0.60
-0.76
-0.86
-0.91
-0.96
-1.09
-1.39
-1.95
-2.81
-3.94
-5.18
-6.27
-6.95
-7.08
-6.80
-6.49
-6.78
-8.21
-11.04
-15.14
-19.98
-24.89
-29.28
-32.85
-35.60
-37.81
-39.97
-42.62
-46.23
-50.96
-56.50
-62.05
-66.43
-68.51
-67.46
-63.08
-55.73
-46.26
-35.70
-25.06
-15.13
-6.37
1.06
7.23
12.30
16.34
19.32
21.20
22.04
22.22
22.20
22.45
23.18
24.32
25.64
26.98
28.34
29.79
31.32
32.76
33.76
34.02
33.42
32.13
30.47
28.82
27.38
26.23
25.33
24.59
23.98
23.45
22.98
22.54
22.12
21.74
21.45
21.28
21.18
20.97
20.45
19.41
17.82
15.78
13.57
11.45
9.60
8.01
6.63
5.36
4.19
3.14
2.21
1.37
0.50
-0.49
-1.68
-3.06
-4.58
-6.22
-8.00
-9.99
-12.27
-14.90
-17.86
-21.03
-24.26
-27.37
-30.24
-32.87
-35.40
-38.01
-40.86
-44.03
-47.50
-51.18
-54.90
-58.37
-61.13
-62.57
-62.01
-58.95
-53.12
-44.75
-34.44
-23.11
-11.79
-1.34
7.65
14.99
20.76
25.17
28.44
30.73
32.18
32.97
33.37
33.63
33.88
34.09
34.08
33.74
33.15
32.60
32.41
32.83
33.87
35.31
36.80
37.94
38.41
38.04
36.89
35.26
33.62
32.38
31.75
31.62
31.58
31.23
30.32
28.94
27.39
26.01
24.91
23.99
22.94
21.50
19.59
17.42
15.37
13.83
12.93
12.50
12.07
11.18
9.57
7.29
4.67
2.08
-0.25
-2.34
-4.38
-6.50
-8.76
-11.07
-13.44
-16.08
-19.36
-23.66
-29.06
-35.21
-41.38
-46.71
-50.47
-52.23
-51.84
-49.33
-44.81
-38.53
-30.95
-22.75
-14.69
-7.40
-1.16
4.05
8.42
12.07
14.97
16.95
17.95
18.12
17.83
17.51
17.48
17.84
18.48
19.20
19.82
20.21
20.36
20.32
20.14
19.84
19.41
18.81
18.03
17.08
15.98
14.74
13.38
11.84
10.08
8.13
6.03
3.92
1.93
0.14
-1.49
-3.17
-5.10
-7.45
-10.23
-13.21
-16.08
-18.54
-20.49
-22.08
-23.67
-25.58
-27.95
-30.63
-33.24
-35.26
-36.24
-35.81
-33.72
-29.93
-24.51
-17.81
-10.35
-2.75
4.38
10.60
15.68
19.55
22.20
23.72
24.30
24.20
23.75
23.22
22.73
22.30
21.87
21.40
20.94
20.61
20.47
20.51
20.61
20.56
20.15
19.23
17.71
15.54
12.77
9.51
5.97
2.45
-0.78
-3.53
-5.73
-7.49
-9.03
-10.63
-12.52
-14.84
-17.58
-20.67
-24.01
-27.45
-30.90
-34.18
-37.17
-39.80
-42.16
-44.55
-47.38
-50.88
-54.90
-58.74
-61.37
-61.76
-59.28
-53.96
-46.37
-37.38
-27.80
-18.13
-8.68
0.42
8.97
16.73
23.37
28.63
32.42
34.79
35.98
36.30
36.13
35.75
35.34
34.95
34.58
34.27
34.12
34.29
34.81
35.55
36.26
36.62
36.49
35.90
35.01
33.95
32.77
31.37
29.64
27.58
25.35
23.22
21.39
19.93
18.74
17.67
16.55
15.37
14.21
13.23
12.53
12.10
11.81
11.47
10.94
10.27
9.65
9.30
9.32
9.55
9.61
9.05
7.65
5.54
3.12
0.87
-0.94
-2.37
-3.67
-5.09
-6.69
-8.31
-9.73
-10.89
-11.92
-13.09
-14.64
-16.65
-19.03
-21.62
-24.30
-26.99
-29.62
-32.04
-34.03
-35.45
-36.35
-37.04
-38.00
-39.76
-42.64
-46.60
-51.14
-55.34
-58.13
-58.49
-55.87
-50.28
-42.31
-32.89
-23.00
-13.43
-4.69
3.00
9.54
14.93
19.14
22.21
24.24
25.46
26.18
26.73
27.33
28.08
28.88
29.55
29.96
30.12
30.21
30.44
30.84
31.25
31.26
30.51
28.90
26.66
24.29
22.31
21.00
20.32
19.98
19.67
19.19
18.54
17.80
17.02
16.15
15.07
13.75
12.27
10.86
9.74
8.95
8.33
7.60
6.56
5.23
3.85
2.75
2.07
1.72
1.34
0.58
-0.75
-2.51
-4.33
-5.82
-6.76
-7.19
-7.36
-7.55
-7.91
-8.46
-9.09
-9.71
-10.30
-10.92
-11.61
-12.42
-13.32
-14.32
-15.46
-16.87
-18.71
-21.11
-24.07
-27.46
-30.93
-34.08
-36.55
-38.19
-39.03
-39.27
-39.03
-38.25
-36.62
-33.65
-28.92
-22.27
-14.01
-4.84
4.23
12.19
18.24
22.05
23.79
24.04
23.53
22.93
22.58
22.49
22.47
22.33
22.07
21.88
22.00
22.53
23.37
24.26
24.90
25.12
24.91
24.40
23.77
23.13
22.52
21.87
21.03
19.85
18.21
16.14
13.78
11.45
9.46
8.02
7.06
6.29
5.33
3.91
2.01
-0.11
-2.05
-3.42
-3.97
-3.72
-2.89
-1.91
-1.31
-1.49
-2.60
-4.44
-6.54
-8.43
-9.91
-11.16
-12.57
-14.45
-16.81
-19.29
-21.46
-23.07
-24.23
-25.32
-26.70
-28.55
-30.84
-33.45
-36.28
-39.28
-42.25
-44.76
-46.09
-45.50
-42.52
-37.13
-29.77
-21.21
-12.27
-3.68
3.94
10.11
14.55
17.25
18.47
18.75
18.65
18.58
18.68
18.88
19.05
19.09
19.03
18.92
18.80
18.69
18.54
18.34
18.12
17.87
17.54
17.06
16.31
15.25
13.95
12.55
11.28
10.33
9.80
9.58
9.41
8.90
7.72
5.84
3.55
1.42
-0.02
-0.57
-0.46
-0.27
-0.54
-1.59
-3.28
-5.24
-7.09
-8.64
-9.95
-11.20
-12.58
-14.13
-15.85
-17.71
-19.80
-22.26
-25.19
-28.53
-32.04
-35.42
-38.55
-41.52
-44.63
-48.14
-51.98
-55.60
-58.18
-58.85
-57.08
-52.83
-46.43
-38.43
-29.39
-19.83
-10.29
-1.36
6.38
12.56
17.09
20.16
22.07
23.05
23.22
22.67
21.55
20.21
19.07
18.47
18.57
19.24
20.23
21.27
22.25
23.20
24.18
25.24
26.25
26.95
27.08
26.47
25.22
23.58
21.96
20.69
19.90
19.48
19.15
18.61
17.73
16.53
15.20
13.92
12.78
11.78
10.82
9.84
8.81
7.76
6.71
5.58
4.25
2.52
0.31
-2.35
-5.22
-7.95
-10.29
-12.15
-13.72
-15.40
-17.58
-20.46
-23.86
-27.40
-30.59
-33.20
-35.32
-37.30
-39.50
-42.14
-45.18
-48.44
-51.64
-54.47
-56.59
-57.52
-56.73
-53.68
-48.07
-39.95
-29.83
-18.58
-7.26
3.10
11.74
18.32
22.90
25.86
27.71
28.88
29.68
30.26
30.68
30.94
31.08
31.14
31.15
31.17
31.19
31.18
31.09
30.84
30.43
29.88
29.22
28.47
27.56
26.46
25.15
23.74
22.47
21.52
20.96
20.70
20.53
20.21
19.63
18.79
17.75
16.60
15.40
14.21
13.08
12.05
11.08
10.08
8.98
7.72
6.32
4.85
3.33
1.76
0.06
-1.81
-3.81
-5.82
-7.75
-9.58
-11.42
-13.41
-15.61
-17.97
-20.35
-22.64
-24.84
-27.06
-29.44
-32.15
-35.28
-38.83
-42.74
-46.71
-50.27
-52.71
-53.25
-51.35
-46.82
-39.99
-31.52
-22.18
-12.68
-3.59
4.62
11.54
16.87
20.48
22.51
23.34
23.48
23.44
23.56
23.96
24.57
25.23
25.76
26.09
26.26
26.39
26.60
26.96
27.44
27.94
28.33
28.47
28.29
27.68
26.62
25.15
23.47
21.84
20.58
19.82
19.52
19.43
19.24
18.75
17.89
16.74
15.43
14.10
12.85
11.73
10.72
9.75
8.67
7.31
5.64
3.72
1.72
-0.21
-2.03
-3.88
-5.96
-8.39
-11.13
-13.96
-16.62
-18.91
-20.81
-22.44
-23.93
-25.42
-27.00
-28.75
-30.77
-33.08
-35.56
-37.84
-39.33
-39.33
-37.33
-33.12
-26.94
-19.36
-11.12
-2.88
4.82
11.59
17.15
21.30
23.96
25.19
25.33
24.82
24.17
23.75
23.70
23.96
24.36
24.75
25.07
25.36
25.70
26.12
26.52
26.76
26.64
26.04
24.93
23.36
21.50
19.50
17.51
15.63
13.94
12.46
11.14
9.86
8.40
6.48
3.94
0.73
-2.94
-6.76
-10.36
-13.49
-16.07
-18.13
-19.74
-20.96
-21.87
-22.54
-23.16
-23.98
-25.24
-27.07
-29.43
-32.14
-34.84
-37.11
-38.46
-38.45
-36.74
-33.21
-28.02
-21.61
-14.54
-7.41
-0.74
5.08
9.75
13.13
15.20
16.09
16.06
15.38
14.33
13.06
11.67
10.24
8.90
7.87
7.43
7.72
8.72
10.17
11.65
12.76
13.21
12.96
12.12
10.95
9.69
8.52
7.53
6.75
6.12
5.57
4.98
4.21
3.17
1.87
0.35
-1.25
-2.85
-4.44
-6.12
-8.08
-10.44
-13.21
-16.25
-19.30
-22.11
-24.58
-26.80
-29.02
-31.50
-34.39
-37.59
-40.78
-43.52
-45.37
-46.03
-45.32
-43.11
-39.33
-33.94
-27.04
-18.96
-10.31
-1.86
5.61
11.62
16.06
19.12
21.17
22.48
23.19
23.35
23.03
22.41
21.80
21.51
21.71
22.44
23.55
24.87
26.19
27.33
28.10
28.29
27.76
26.49
24.61
22.43
20.34
18.63
17.47
16.81
16.44
16.08
15.49
14.54
13.22
11.67
10.06
8.58
7.34
6.37
5.59
4.82
3.86
2.57
0.96
-0.83
-2.50
-3.85
-4.82
-5.63
-6.67
-8.31
-10.70
-13.68
-16.83
-19.73
-22.12
-23.98
-25.50
-26.93
-28.51
-30.41
-32.74
-35.46
-38.38
-41.11
-43.08
-43.68
-42.48
-39.31
-34.30
-27.86
-20.54
-12.94
-5.67
0.71
5.80
9.45
11.78
13.16
14.03
14.76
15.55
16.41
17.24
17.92
18.44
18.83
19.24
19.79
20.48
21.27
22.03
22.63
23.01
23.23
23.35
23.41
23.38
23.18
22.78
22.24
21.72
21.30
21.01
20.68
20.08
19.08
17.73
16.28
15.06
14.26
13.88
13.72
13.48
12.94
11.99
10.69
9.18
7.65
6.21
4.91
3.67
2.35
0.87
-0.79
-2.52
-4.21
-5.84
-7.54
-9.50
-11.90
-14.76
-18.00
-21.44
-25.01
-28.64
-32.24
-35.47
-37.74
-38.38
-36.90
-33.26
-27.90
-21.57
-15.03
-8.79
-3.08
2.05
6.53
10.15
12.63
13.74
13.50
12.19
10.34
8.51
7.14
6.44
6.38
6.74
7.25
7.69
7.94
7.98
7.85
7.64
7.45
7.33
7.28
7.22
6.97
6.35
5.24
3.59
1.52
-0.75
-2.97
-4.87
-6.29
-7.23
-7.86
-8.43
-9.24
-10.45
-12.10
-14.04
-16.06
-18.00
-19.75
-21.33
-22.82
-24.36
-26.05
-27.96
-30.01
-31.99
-33.56
-34.34
-34.10
-32.81
-30.65
-27.81
-24.37
-20.26
-15.33
-9.62
-3.47
2.52
7.71
11.62
14.14
15.41
15.73
15.41
14.71
13.89
13.24
12.99
13.25
13.93
14.74
15.39
15.69
15.57
15.07
14.18
12.90
11.26
9.49
7.96
7.08
7.04
7.65
8.43
8.81
8.47
7.45
6.05
4.57
3.07
1.33
-0.95
-3.93
-7.46
-11.10
-14.38
-16.97
-18.82
-20.09
-21.01
-21.73
-22.24
-22.37
-21.92
-20.67
-18.47
-15.25
-10.96
-5.59
0.78
7.93
15.44
22.63
28.70
32.99
35.21
35.55
34.64
33.18
31.71
30.40
29.19
27.93
26.61
25.33
24.17
23.09
21.93
20.51
18.77
16.86
15.09
13.78
13.13
13.12
13.58
14.18
14.57
14.40
13.45
11.69
9.34
6.81
4.55
2.86
1.75
0.92
-0.13
-1.86
-4.55
-8.18
-12.41
-16.76
-20.71
-23.89
-26.14
-27.63
-28.75
-30.09
-32.16
-35.19
-39.00
-42.84
-45.68
-46.49
-44.61
-40.00
-33.19
-25.05
-16.46
-8.02
-0.04
7.38
14.22
20.39
25.76
30.20
33.61
36.01
37.48
38.14
38.12
37.56
36.59
35.36
34.05
32.83
31.89
31.31
31.03
30.83
30.40
29.46
27.89
25.82
23.51
21.27
19.27
17.54
16.02
14.67
13.51
12.59
11.87
11.23
10.48
9.48
8.23
6.83
5.42
4.02
2.55
0.89
-1.03
-3.10
-5.13
-6.95
-8.48
-9.70
-10.56
-10.93
-10.76
-10.13
-9.31
-8.68
-8.47
-8.68
-9.14
-9.64
-10.07
-10.47
-10.92
-11.42
-11.91
-12.35
-12.79
-13.43
-14.52
-16.26
-18.68
-21.69
-25.00
-28.26
-31.07
-33.13
-34.36
-35.02
-35.65
-36.89
-39.12
-42.26
-45.66
-48.34
-49.32
-48.00
-44.31
-38.63
-31.65
-24.09
-16.55
-9.43
-2.90
2.99
8.22
12.69
16.28
18.80
20.15
20.39
19.76
18.61
17.30
16.08
15.03
14.16
13.46
13.01
13.01
13.62
14.86
16.54
18.29
19.75
20.71
21.19
21.35
21.39
21.42
21.45
21.42
21.22
20.79
20.05
18.99
17.66
16.09
14.35
12.49
10.57
8.67
6.88
5.34
4.12
3.28
2.78
2.49
2.21
1.75
0.95
-0.24
-1.77
-3.50
-5.22
-6.74
-7.94
-8.83
-9.54
-10.24
-11.06
-12.04
-13.19
-14.54
-16.10
-17.89
-19.87
-21.90
-23.84
-25.57
-27.07
-28.43
-29.81
-31.44
-33.52
-36.13
-39.07
-41.90
-43.91
-44.45
-43.13
-39.93
-35.22
-29.52
-23.32
-16.94
-10.53
-4.23
1.85
7.54
12.74
17.39
21.40
24.51
26.39
26.72
25.49
23.06
20.18
17.71
16.33
16.38
17.80
20.26
23.30
26.44
29.16
30.97
31.43
30.30
27.70
24.09
20.18
16.60
13.71
11.47
9.54
7.50
5.18
2.65
0.24
-1.67
-2.85
-3.21
-2.82
-1.79
-0.23
1.71
3.86
5.93
7.60
8.52
8.37
6.94
4.19
0.35
-4.09
-8.40
-11.85
-13.94
-14.59
-14.11
-13.07
-12.01
-11.26
-10.91
-10.91
-11.23
-11.99
-13.43
-15.82
-19.30
-23.84
-29.11
-34.51
-39.13
-41.83
-41.44
-37.24
-29.20
-18.23
-5.94
5.86
15.70
22.74
26.93
28.71
28.69
27.47
25.48
23.06
20.47
17.96
15.69
13.76
12.20
10.97
10.02
9.33
8.84
8.59
8.64
9.07
9.90
11.03
12.15
12.87
12.90
12.17
10.87
9.41
8.19
7.40
6.94
6.49
5.75
4.55
3.01
1.43
0.10
-0.86
-1.59
-2.35
-3.40
-4.85
-6.60
-8.44
-10.15
-11.66
-13.03
-14.46
-16.13
-18.09
-20.23
-22.32
-24.14
-25.66
-27.11
-28.88
-31.34
-34.59
-38.39
-42.19
-45.30
-47.11
-47.19
-45.32
-41.53
-36.00
-29.12
-21.50
-13.81
-6.71
-0.62
4.28
8.05
10.83
12.79
14.06
14.77
15.09
15.20
15.19
15.12
15.02
14.97
15.13
15.65
16.57
17.70
18.74
19.40
19.55
19.28
18.77
18.20
17.62
16.95
16.15
15.29
14.52
14.01
13.79
13.70
13.46
12.83
11.71
10.15
8.28
6.30
4.37
2.61
1.07
-0.24
-1.34
-2.32
-3.27
-4.35
-5.74
-7.62
-10.05
-12.94
-16.07
-19.16
-22.01
-24.56
-26.95
-29.35
-31.92
-34.72
-37.71
-40.79
-43.80
-46.42
-48.13
-48.25
-46.16
-41.59
-34.82
-26.63
-18.03
-9.96
-2.99
2.68
7.12
10.57
13.23
15.32
16.97
18.25
19.17
19.64
19.66
19.29
18.72
18.23
18.10
18.43
19.16
20.09
20.98
21.75
22.47
23.33
24.56
26.26
28.39
30.74
33.04
34.97
36.26
36.72
36.23
34.77
32.44
29.41
25.92
22.16
18.27
14.35
10.46
6.73
3.30
0.28
-2.35
-4.73
-7.08
-9.55
-12.16
-14.87
-17.56
-20.16
-22.58
-24.71
-26.40
-27.57
-28.31
-29.00
-30.26
-32.64
-36.35
-41.04
-45.84
-49.64
-51.42
-50.58
-47.05
-41.12
-33.36
-24.44
-15.01
-5.72
2.81
10.10
15.88
20.13
23.03
24.85
25.89
26.39
26.56
26.61
26.72
27.04
27.56
28.15
28.61
28.75
28.55
28.15
27.73
27.47
27.37
27.27
26.97
26.32
25.34
24.20
23.14
22.30
21.64
20.98
20.11
18.94
17.52
15.99
14.52
13.10
11.62
9.91
7.87
5.49
2.88
0.19
-2.44
-4.91
-7.19
-9.28
-11.20
-13.00
-14.70
-16.36
-18.05
-19.86
-21.97
-24.53
-27.60
-30.98
-34.14
-36.31
-36.73
-34.88
-30.70
-24.56
-17.12
-9.15
-1.34
5.77
11.85
16.75
20.49
23.20
25.08
26.31
26.99
27.19
26.97
26.44
25.78
25.20
24.90
24.98
25.42
26.08
26.73
27.09
26.92
26.07
24.54
22.44
20.01
17.50
15.12
13.04
11.34
9.99
8.85
7.63
6.07
3.99
1.36
-1.64
-4.83
-8.07
-11.32
-14.57
-17.80
-20.90
-23.76
-26.26
-28.45
-30.47
-32.53
-34.82
-37.45
-40.42
-43.61
-46.69
-49.17
-50.34
-49.51
-46.19
-40.25
-32.01
-22.21
-11.78
-1.69
7.20
14.34
19.51
22.81
24.59
25.24
25.11
24.42
23.33
21.99
20.63
19.50
18.84
18.74
19.11
19.72
20.25
20.44
20.09
19.06
17.35
15.08
12.50
9.91
7.63
5.82
4.50
3.58
2.97
2.58
2.30
1.92
1.14
-0.34
-2.67
-5.67
-8.97
-12.12
-14.84
-17.11
-19.13
-21.10
-23.09
-25.00
-26.71
-28.25
-29.91
-32.09
-35.05
-38.61
-42.11
-44.58
-45.03
-42.82
-37.86
-30.62
-21.97
-12.90
-4.23
3.46
9.90
15.04
18.89
21.54
23.08
23.63
23.37
22.49
21.17
19.57
17.85
16.17
14.76
13.86
13.68
14.36
15.88
18.05
20.49
22.63
23.75
23.25
20.85
16.80
11.87
7.16
3.65
1.88
1.78
2.80
4.24
5.50
6.31
6.58
6.29
5.35
3.60
0.95
-2.51
-6.48
-10.51
-14.21
-17.37
-20.03
-22.42
-24.87
-27.65
-30.92
-34.67
-38.68
-42.62
-46.04
-48.47
-49.42
-48.48
-45.31
-39.72
-31.71
-21.58
-9.95
2.29
14.12
24.65
33.28
39.75
44.10
46.48
47.08
46.16
44.10
41.40
38.67
36.45
35.02
34.36
34.24
34.34
34.41
34.29
33.91
33.18
31.99
30.25
27.96
25.27
22.43
19.72
17.36
15.34
13.50
11.61
9.45
7.00
4.38
1.69
-1.04
-3.90
-6.98
-10.24
-13.36
-15.86
-17.36
-17.84
-17.65
-17.32
-17.22
-17.52
-18.18
-19.18
-20.71
-23.07
-26.47
-30.72
-35.14
-38.67
-40.30
-39.48
-36.31
-31.49
-25.87
-20.11
-14.39
-8.50
-2.17
4.67
11.68
18.15
23.25
26.35
27.18
25.87
22.96
19.20
15.54
12.82
11.60
11.91
13.29
15.01
16.46
17.41
18.04
18.67
19.58
20.78
22.21
23.85
25.83
28.31
31.19
33.97
35.79
35.82
33.67
29.56
24.22
18.45
12.68
6.82
0.45
-6.71
-14.40
-21.83
-28.00
-32.20
-34.47
-35.55
-36.51
-38.13
-40.45
-42.73
-43.80
-42.60
-38.66
-32.23
-24.16
-15.47
-6.99
0.93
8.30
15.27
21.67
26.96
30.23
30.71
28.20
23.32
17.39
11.89
7.93
5.82
5.14
5.09
5.00
4.67
4.29
4.23
4.67
5.48
6.28
6.69
6.56
5.99
5.22
4.49
3.84
3.13
2.08
0.37
-2.20
-5.63
-9.65
-13.78
-17.48
-20.32
-22.24
-23.52
-24.74
-26.45
-28.89
-31.79
-34.43
-35.85
-35.21
-32.06
-26.38
-18.51
-8.94
1.76
13.04
24.33
34.96
44.29
51.92
57.99
63.29
68.97
75.86
83.68
90.87
94.98
93.97
87.39
76.85
65.56
57.13
54.36
58.47
68.72
82.80
97.15
107.47
109.50
99.71
75.86
37.28
-15.00
-77.91
-145.83
-210.63
-262.83
-294.04
-299.99
-282.50
-248.98
-209.49
-172.84
-143.64
-121.97
-105.31
-91.06
-78.06
-66.54
-56.83
-48.51
-40.44
-31.58
-21.80
-11.96
-3.19
3.55
7.92
10.00
9.92
7.70
3.22
-3.56
-12.42
-22.74
-33.44
-43.03
-49.86
-52.57
-50.50
-43.82
-33.30
-19.80
-3.99
13.58
32.13
50.31
66.28
78.32
85.56
88.26
87.65
85.15
81.66
77.36
72.10
65.91
59.44
53.81
50.00
48.40
48.55
49.41
49.94
49.64
48.71
47.92
48.13
49.85
53.00
56.83
60.23
62.00
61.12
56.96
49.33
38.50
25.13
10.29
-4.53
-17.56
-27.02
-31.60
-30.92
-25.73
-17.64
-8.62
-0.27
6.53
11.70
15.68
19.01
22.02
24.67
26.60
27.19
25.80
21.95
15.51
6.82
-3.38
-14.08
-24.29
-33.14
-40.05
-44.75
-47.41
-48.59
-49.24
-50.26
-52.14
-54.51
-56.22
-55.82
-52.24
-45.34
-36.04
-25.94
-16.63
-9.14
-3.62
0.57
4.46
8.99
14.61
21.18
28.02
34.30
39.37
43.02
45.55
47.58
49.70
52.21
54.95
57.46
59.24
60.00
59.72
58.59
56.79
54.33
51.03
46.64
41.01
34.21
26.58
18.65
11.00
4.08
-1.90
-6.98
-11.35
-15.15
-18.23
-20.10
-20.06
-17.59
-12.79
-6.48
-0.04
4.99
7.52
7.15
4.10
-1.03
-7.46
-14.41
-21.04
-26.68
-31.03
-34.59
-38.52
-44.05
-51.57
-60.00
-66.97
-69.95
-67.55
-60.34
-50.61
-41.13
-33.85
-29.11
-25.90
-22.82
-18.91
-14.02
-8.37
-2.05
5.11
13.23
21.99
30.27
36.71
40.32
41.04
39.71
37.54
35.42
33.48
31.26
28.27
24.47
20.50
17.39
15.99
16.57
18.63
21.22
23.31
24.13
23.33
20.90
17.05
11.94
5.73
-1.55
-9.88
-19.21
-29.30
-39.56
-49.06
-56.57
-61.01
-61.87
-59.57
-55.39
-51.04
-48.05
-47.18
-48.33
-50.76
-53.60
-56.08
-57.64
-57.83
-56.25
-52.64
-47.01
-39.74
-31.46
-22.84
-14.37
-6.39
0.90
7.34
12.79
17.26
20.89
23.94
26.67
29.19
31.52
33.73
35.94
38.38
41.19
44.33
47.53
50.52
52.98
54.73
55.65
55.65
54.65
52.60
49.53
45.54
40.75
35.36
29.66
24.04
18.86
14.38
10.66
7.58
4.97
2.82
1.27
0.52
0.64
1.43
2.48
3.41
4.00
4.25
4.27
4.05
3.37
1.97
-0.38
-3.64
-7.58
-11.91
-16.48
-21.34
-26.69
-32.61
-38.91
-45.09
-50.41
-54.16
-55.77
-54.95
-51.71
-46.27
-39.03
-30.48
-21.22
-11.82
-2.81
5.44
12.76
19.08
24.43
28.83
32.31
34.91
36.66
37.55
37.52
36.57
34.77
32.40
29.90
27.73
26.20
25.29
24.69
23.94
22.72
21.05
19.29
17.98
17.48
17.86
18.77
19.66
19.99
19.45
17.98
15.75
13.04
10.12
7.18
4.28
1.39
-1.62
-4.86
-8.39
-12.16
-15.95
-19.52
-22.69
-25.38
-27.72
-29.94
-32.30
-34.94
-37.84
-40.76
-43.30
-44.99
-45.38
-44.15
-41.18
-36.52
-30.44
-23.31
-15.58
-7.74
-0.26
6.45
12.05
16.32
19.16
20.65
20.96
20.42
19.36
18.11
16.92
15.89
15.03
14.21
13.30
12.16
10.68
8.86
6.78
4.60
2.50
0.64
-0.88
-2.02
-2.74
-2.94
-2.53
-1.49
-0.06
1.31
2.01
1.56
-0.26
-3.32
-7.29
-11.88
-16.94
-22.40
-28.18
-33.98
-39.36
-43.84
-47.03
-48.72
-48.86
-47.46
-44.55
-40.19
-34.53
-27.88
-20.58
-13.01
-5.49
1.77
8.61
14.80
20.09
24.18
26.89
28.21
28.34
27.62
26.49
25.24
24.07
23.02
22.10
21.29
20.68
20.34
20.29
20.47
20.70
20.70
20.14
18.72
16.36
13.22
9.77
6.68
4.49
3.36
2.92
2.39
0.98
-1.78
-5.79
-10.54
-15.43
-20.05
-24.32
-28.35
-32.30
-36.26
-40.21
-44.09
-47.81
-51.15
-53.68
-54.78
-53.80
-50.33
-44.47
-36.78
-28.14
-19.42
-11.21
-3.75
3.06
9.41
15.47
21.27
26.66
31.40
35.18
37.82
39.25
39.64
39.28
38.50
37.59
36.66
35.76
34.91
34.16
33.61
33.28
33.14
32.98
32.51
31.39
29.28
25.92
21.16
15.11
8.18
1.03
-5.63
-11.35
-16.02
-19.83
-23.08
-25.93
-28.36
-30.25
-31.61
-32.67
-33.81
-35.37
-37.53
-40.24
-43.27
-46.26
-48.80
-50.37
-50.41
-48.45
-44.26
-38.05
-30.42
-22.17
-14.02
-6.45
0.40
6.61
12.25
17.26
21.42
24.45
26.18
26.71
26.39
25.74
25.18
24.93
24.96
25.10
25.19
25.23
25.35
25.67
26.15
26.56
26.53
25.69
23.92
21.36
18.38
15.45
12.89
10.79
8.99
7.22
5.19
2.76
-0.06
-3.13
-6.24
-9.24
-12.03
-14.63
-17.11
-19.56
-22.11
-24.83
-27.84
-31.21
-34.90
-38.62
-41.80
-43.64
-43.33
-40.33
-34.62
-26.73
-17.50
-7.87
1.41
9.89
17.32
23.54
28.43
31.86
33.77
34.31
33.79
32.63
31.29
30.05
29.06
28.25
27.48
26.68
25.93
25.39
25.21
25.38
25.70
25.83
25.53
24.75
23.61
22.24
20.63
18.63
16.03
12.76
9.02
5.20
1.68
-1.34
-3.92
-6.37
-8.99
-11.95
-15.29
-18.93
-22.72
-26.49
-30.02
-32.97
-34.95
-35.55
-34.44
-31.52
-26.90
-20.92
-14.11
-6.99
-0.08
6.23
11.60
15.76
18.50
19.70
19.41
17.91
15.65
13.17
10.92
9.18
7.97
7.12
6.38
5.56
4.65
3.82
3.28
3.17
3.44
3.82
3.94
3.52
2.47
0.94
-0.81
-2.58
-4.32
-6.18
-8.38
-11.01
-14.00
-17.13
-20.16
-23.01
-25.77
-28.52
-31.10
-32.94
-33.27
-31.42
-27.28
-21.45
-14.97
-8.81
-3.41
1.38
6.07
11.01
16.01
20.39
23.39
24.59
24.15
22.68
20.93
19.41
18.25
17.28
16.24
14.93
13.39
11.84
10.60
9.87
9.60
9.47
8.95
7.62
5.33
2.29
-1.07
-4.30
-7.15
-9.60
-11.82
-14.05
-16.42
-19.02
-21.92
-25.26
-29.19
-33.80
-38.88
-43.82
-47.70
-49.55
-48.66
-44.86
-38.61
-30.83
-22.51
-14.43
-6.95
-0.10
6.25
12.08
17.18
21.20
23.84
25.03
24.96
24.05
22.76
21.49
20.48
19.77
19.29
18.85
18.30
17.53
16.53
15.40
14.26
13.19
12.15
10.95
9.39
7.31
4.71
1.70
-1.52
-4.80
-8.05
-11.18
-14.14
-16.86
-19.38
-21.87
-24.66
-28.13
-32.51
-37.63
-42.85
-47.14
-49.35
-48.64
-44.74
-38.05
-29.53
-20.25
-11.09
-2.53
5.29
12.39
18.67
23.85
27.57
29.60
30.05
29.35
28.09
26.76
25.56
24.38
22.99
21.23
19.21
17.27
15.86
15.26
15.43
15.94
16.20
15.74
14.41
12.48
10.43
8.64
7.19
5.85
4.27
2.21
-0.27
-2.91
-5.43
-7.66
-9.52
-10.86
-11.42
-10.97
-9.58
-7.88
-6.94
-7.86
-11.19
-16.60
-23.00
-28.92
-33.10
-34.81
-34.00
-30.94
-26.12
-19.98
-12.94
-5.40
2.23
9.51
16.04
21.41
25.30
27.58
28.41
28.29
27.85
27.64
27.85
28.30
28.61
28.48
27.95
27.41
27.34
27.98
29.19
30.45
31.15
30.92
29.78
28.04
26.16
24.44
22.96
21.57
20.11
18.44
16.54
14.44
12.22
9.88
7.45
4.96
2.45
-0.02
-2.47
-4.92
-7.38
-9.78
-11.98
-13.83
-15.29
-16.54
-17.88
-19.67
-22.13
-25.19
-28.63
-32.16
-35.54
-38.59
-41.02
-42.31
-41.81
-38.96
-33.58
-26.03
-17.14
-7.84
1.16
9.47
16.97
23.49
28.70
32.20
33.75
33.53
32.09
30.20
28.49
27.31
26.67
26.42
26.35
26.27
26.02
25.45
24.48
23.18
21.70
20.21
18.71
17.06
15.06
12.65
10.05
7.62
5.69
4.29
3.11
1.69
-0.30
-2.90
-5.79
-8.58
-10.96
-12.90
-14.56
-16.19
-17.95
-19.84
-21.80
-23.80
-25.95
-28.46
-31.55
-35.17
-38.93
-42.06
-43.59
-42.72
-39.12
-33.09
-25.44
-17.23
-9.34
-2.28
3.80
9.00
13.36
16.89
19.57
21.49
22.87
23.99
24.96
25.67
25.87
25.35
24.16
22.57
21.01
19.76
18.91
18.30
17.77
17.20
16.63
16.10
15.54
14.76
13.48
11.45
8.56
4.84
0.48
-4.24
-8.93
-13.22
-16.79
-19.57
-21.73
-23.62
-25.66
-28.08
-30.90
-33.98
-37.13
-40.30
-43.57
-47.03
-50.57
-53.77
-55.89
-56.10
-53.77
-48.75
-41.39
-32.51
-23.02
-13.76
-5.31
2.02
8.09
12.91
16.57
19.25
21.17
22.58
23.64
24.40
24.84
24.97
24.89
24.79
24.92
25.41
26.16
26.90
27.29
27.12
26.39
25.34
24.28
23.41
22.71
21.91
20.65
18.63
15.82
12.36
8.59
4.80
1.23
-2.06
-5.05
-7.73
-10.07
-12.04
-13.67
-15.08
-16.44
-17.92
-19.58
-21.43
-23.41
-25.53
-27.88
-30.69
-34.15
-38.34
-43.10
-47.90
-52.00
-54.60
-55.01
-52.87
-48.19
-41.26
-32.64
-22.93
-12.74
-2.61
7.01
15.73
23.27
29.40
33.97
36.92
38.30
38.29
37.20
35.45
33.46
31.58
30.05
28.98
28.40
28.31
28.64
29.25
29.95
30.48
30.64
30.30
29.47
28.26
26.81
25.27
23.73
22.27
20.94
19.77
18.73
17.74
16.68
15.42
13.93
12.28
10.64
9.15
7.85
6.63
5.30
3.68
1.70
-0.54
-2.86
-5.10
-7.18
-9.14
-11.11
-13.26
-15.76
-18.69
-22.04
-25.64
-29.16
-32.21
-34.57
-36.29
-37.83
-39.84
-42.77
-46.64
-50.80
-54.18
-55.63
-54.38
-50.18
-43.36
-34.53
-24.45
-13.80
-3.23
6.69
15.53
22.97
28.94
33.52
36.85
39.06
40.19
40.28
39.44
37.93
36.09
34.31
32.92
32.05
31.74
31.84
32.17
32.49
32.63
32.46
31.92
31.00
29.72
28.14
26.33
24.40
22.45
20.56
18.79
17.13
15.57
14.07
12.60
11.12
9.52
7.66
5.38
2.65
-0.43
-3.56
-6.41
-8.77
-10.65
-12.30
-14.05
-16.12
-18.57
-21.28
-24.11
-26.96
-29.82
-32.68
-35.50
-38.23
-40.85
-43.43
-46.01
-48.45
-50.30
-50.89
-49.53
-45.88
-40.06
-32.67
-24.49
-16.25
-8.44
-1.33
4.91
10.11
14.09
16.75
18.15
18.46
18.03
17.32
16.74
16.67
17.28
18.54
20.24
22.09
23.83
25.30
26.42
27.15
27.45
27.25
26.57
25.52
24.34
23.28
22.50
21.99
21.47
20.58
18.96
16.42
12.99
8.98
4.78
0.80
-2.70
-5.66
-8.22
-10.65
-13.21
-16.08
-19.33
-22.86
-26.50
-30.09
-33.55
-36.96
-40.44
-44.14
-48.00
-51.76
-54.88
-56.76
-56.82
-54.77
-50.61
-44.63
-37.26
-29.02
-20.35
-11.70
-3.52
3.78
9.80
14.36
17.46
19.37
20.47
21.13
21.61
22.03
22.36
22.56
22.57
22.41
22.17
21.95
21.88
21.97
22.14
22.23
22.05
21.46
20.49
19.24
17.88
16.49
15.08
13.54
11.73
9.59
7.16
4.55
1.91
-0.64
-3.06
-5.35
-7.57
-9.81
-12.14
-14.64
-17.35
-20.23
-23.20
-26.12
-28.81
-31.10
-32.92
-34.36
-35.72
-37.39
-39.71
-42.67
-45.84
-48.38
-49.33
-47.91
-43.80
-37.21
-28.78
-19.30
-9.50
0.09
9.10
17.22
24.10
29.42
32.97
34.87
35.56
35.71
35.90
36.39
37.01
37.33
36.93
35.70
33.95
32.24
31.09
30.74
31.04
31.58
31.89
31.63
30.72
29.31
27.69
26.12
24.77
23.59
22.37
20.85
18.90
16.58
14.17
12.00
10.32
9.07
8.03
6.88
5.43
3.68
1.75
-0.22
-2.20
-4.27
-6.53
-9.05
-11.78
-14.63
-17.47
-20.21
-22.81
-25.25
-27.55
-29.76
-32.01
-34.50
-37.44
-40.87
-44.64
-48.31
-51.24
-52.71
-52.13
-49.14
-43.75
-36.28
-27.33
-17.58
-7.65
2.00
11.06
19.26
26.30
31.86
35.64
37.55
37.79
36.89
35.46
34.05
32.93
32.12
31.49
30.96
30.53
30.27
30.22
30.30
30.27
29.88
28.99
27.63
25.97
24.26
22.67
21.26
19.97
18.72
17.44
16.08
14.63
13.05
11.28
9.26
7.00
4.64
2.37
0.38
-1.30
-2.81
-4.43
-6.45
-8.98
-11.90
-14.91
-17.68
-20.02
-21.94
-23.67
-25.49
-27.67
-30.36
-33.67
-37.61
-42.13
-46.95
-51.52
-55.08
-56.83
-56.21
-53.13
-47.97
-41.39
-34.05
-26.38
-18.51
-10.49
-2.44
5.27
12.11
17.59
21.45
23.80
25.00
25.47
25.56
25.42
25.10
24.61
24.04
23.50
23.13
22.98
23.01
23.12
23.18
23.06
22.72
22.13
21.31
20.30
19.13
17.82
16.34
14.61
12.55
10.15
7.50
4.78
2.21
-0.06
-2.04
-3.87
-5.85
-8.23
-11.16
-14.58
-18.27
-21.94
-25.38
-28.54
-31.55
-34.68
-38.14
-42.03
-46.19
-50.20
-53.45
-55.29
-55.18
-52.79
-48.14
-41.55
-33.58
-24.83
-15.88
-7.14
1.07
8.50
14.87
19.96
23.66
26.03
27.33
27.97
28.28
28.44
28.48
28.34
28.04
27.70
27.50
27.54
27.78
27.99
27.92
27.42
26.45
25.14
23.62
21.95
20.13
18.14
16.01
13.87
11.85
10.00
8.26
6.49
4.57
2.44
0.20
-1.99
-4.02
-5.91
-7.83
-9.99
-12.55
-15.51
-18.71
-21.95
-25.06
-28.00
-30.86
-33.87
-37.20
-40.95
-45.01
-49.03
-52.47
-54.67
-55.03
-53.14
-48.85
-42.31
-33.97
-24.46
-14.47
-4.62
4.55
12.65
19.42
24.70
28.43
30.65
31.63
31.75
31.50
31.30
31.38
31.74
32.22
32.66
32.98
33.20
33.38
33.53
33.52
33.23
32.58
31.61
30.47
29.32
28.22
27.18
26.11
24.98
23.76
22.45
21.05
19.53
17.89
16.20
14.57
13.12
11.93
10.90
9.86
8.57
6.90
4.82
2.42
-0.10
-2.61
-4.98
-7.18
-9.21
-11.18
-13.21
-15.47
-18.06
-20.94
-23.96
-26.89
-29.58
-32.02
-34.38
-36.92
-39.89
-43.36
-47.27
-51.34
-55.17
-58.21
-59.81
-59.38
-56.45
-50.93
-43.12
-33.70
-23.48
-13.15
-3.19
6.11
14.55
21.87
27.78
32.05
34.69
35.95
36.27
36.15
35.95
35.86
35.84
35.79
35.60
35.26
34.85
34.52
34.36
34.38
34.46
34.40
34.08
33.47
32.67
31.81
31.01
30.21
29.25
27.94
26.15
23.94
21.48
19.04
16.81
14.92
13.34
11.95
10.56
9.02
7.25
5.23
3.04
0.81
-1.39
-3.48
-5.42
-7.21
-8.90
-10.55
-12.32
-14.33
-16.70
-19.45
-22.44
-25.44
-28.21
-30.66
-32.92
-35.31
-38.22
-41.84
-46.08
-50.47
-54.32
-56.87
-57.56
-56.10
-52.55
-47.19
-40.44
-32.75
-24.53
-16.12
-7.82
0.05
7.23
13.44
18.48
22.20
24.54
25.61
25.61
24.89
23.84
22.81
22.08
21.75
21.81
22.16
22.68
23.28
23.85
24.30
24.49
24.36
23.86
23.01
21.87
20.48
18.87
17.07
15.08
12.97
10.76
8.47
6.13
3.77
1.47
-0.64
-2.49
-4.12
-5.71
-7.50
-9.71
-12.40
-15.45
-18.61
-21.65
-24.43
-26.91
-29.14
-31.23
-33.35
-35.70
-38.56
-42.12
-46.40
-51.12
-55.65
-59.22
-61.09
-60.75
-58.08
-53.25
-46.63
-38.69
-29.87
-20.54
-11.07
-1.81
6.88
14.58
20.90
25.58
28.55
30.03
30.44
30.33
30.15
30.13
30.26
30.38
30.32
30.00
29.49
28.96
28.60
28.50
28.62
28.78
28.75
28.34
27.50
26.30
24.90
23.38
21.80
20.07
18.16
16.11
14.08
12.25
10.74
9.47
8.22
6.77
4.96
2.82
0.49
-1.86
-4.15
-6.37
-8.63
-11.03
-13.62
-16.35
-19.11
-21.84
-24.51
-27.17
-29.89
-32.68
-35.52
-38.45
-41.61
-45.22
-49.39
-53.95
-58.24
-61.31
-62.13
-60.09
-55.15
-47.85
-39.03
-29.44
-19.59
-9.76
-0.18
8.89
17.01
23.76
28.87
32.33
34.41
35.54
36.16
36.60
37.01
37.35
37.51
37.42
37.11
36.71
36.41
36.33
36.43
36.54
36.41
35.88
34.91
33.60
32.14
30.70
29.31
27.96
26.58
25.16
23.71
22.28
20.90
19.57
18.26
16.93
15.56
14.20
12.90
11.67
10.44
9.11
7.59
5.85
3.92
1.87
-0.24
-2.38
-4.60
-6.94
-9.48
-12.24
-15.19
-18.26
-21.29
-24.16
-26.75
-29.06
-31.19
-33.35
-35.84
-38.87
-42.48
-46.44
-50.17
-52.95
-54.02
-52.80
-49.07
-42.97
-34.95
-25.70
-15.98
-6.48
2.22
9.82
16.18
21.31
25.28
28.14
29.94
30.82
30.99
30.77
30.41
30.08
29.80
29.53
29.26
29.02
28.86
28.78
28.68
28.41
27.86
27.01
25.95
24.77
23.54
22.26
20.93
19.54
18.14
16.73
15.36
14.01
12.72
11.45
10.17
8.77
7.17
5.35
3.35
1.28
-0.78
-2.84
-4.97
-7.28
-9.72
-12.17
-14.42
-16.36
-17.97
-19.38
-20.75
-22.20
-23.75
-25.40
-27.20
-29.27
-31.74
-34.65
-37.82
-40.82
-43.04
-43.84
-42.73
-39.55
-34.48
-27.96
-20.58
-12.87
-5.22
2.08
8.72
14.40
18.77
21.62
22.97
23.07
22.41
21.45
20.57
19.94
19.51
19.09
18.47
17.50
16.22
14.90
14.01
14.02
15.18
17.41
20.27
23.13
25.39
26.70
26.98
26.25
24.59
21.99
18.45
14.11
9.25
4.32
-0.24
-4.18
-7.49
-10.35
-13.04
-15.73
-18.44
-21.06
-23.44
-25.54
-27.46
-29.43
-31.66
-34.25
-37.15
-40.20
-43.23
-46.09
-48.65
-50.77
-52.22
-52.85
-52.57
-51.48
-49.75
-47.46
-44.55
-40.75
-35.81
-29.68
-22.66
-15.35
-8.38
-2.19
3.08
7.60
11.57
15.11
18.13
20.46
22.00
22.83
23.23
23.56
24.08
24.84
25.71
26.49
27.07
27.47
27.86
28.39
29.13
30.02
30.93
31.72
32.27
32.53
32.45
32.05
31.32
30.29
28.93
27.25
25.28
23.12
20.96
18.98
17.32
15.95
14.75
13.50
12.06
10.43
8.72
7.04
5.42
3.81
2.09
0.19
-1.87
-4.01
-6.11
-8.12
-10.00
-11.76
-13.39
-14.93
-16.42
-17.99
-19.75
-21.74
-23.88
-26.04
-28.10
-30.04
-31.97
-34.03
-36.39
-39.11
-42.20
-45.63
-49.27
-52.83
-55.74
-57.26
-56.57
-53.12
-46.85
-38.24
-28.16
-17.59
-7.32
2.11
10.45
17.57
23.38
27.82
30.84
32.56
33.26
33.32
33.12
32.94
32.90
32.93
32.94
32.86
32.73
32.64
32.65
32.70
32.63
32.23
31.40
30.14
28.60
26.92
25.26
23.68
22.22
20.93
19.82
18.89
18.06
17.19
16.18
14.98
13.61
12.18
10.73
9.30
7.87
6.39
4.76
2.90
0.69
-1.87
-4.68
-7.58
-10.38
-12.98
-15.36
-17.59
-19.69
-21.62
-23.29
-24.65
-25.76
-26.80
-27.99
-29.52
-31.52
-34.01
-36.96
-40.26
-43.64
-46.60
-48.46
-48.51
-46.26
-41.55
-34.66
-26.22
-17.01
-7.75
0.96
8.73
15.31
20.56
24.43
26.91
28.13
28.33
27.82
26.95
26.01
25.14
24.36
23.66
23.05
22.60
22.39
22.40
22.51
22.49
22.16
21.48
20.54
19.49
18.45
17.38
16.12
14.55
12.64
10.47
8.23
6.07
4.06
2.20
0.42
-1.28
-2.90
-4.39
-5.73
-6.96
-8.20
-9.63
-11.37
-13.49
-15.97
-18.71
-21.60
-24.55
-27.53
-30.48
-33.36
-36.07
-38.54
-40.81
-43.11
-45.79
-49.17
-53.32
-57.89
-62.08
-64.87
-65.32
-62.93
-57.72
-50.21
-41.10
-31.07
-20.70
-10.43
-0.69
8.08
15.51
21.40
25.81
28.98
31.27
32.95
34.18
35.04
35.62
36.01
36.35
36.70
37.03
37.24
37.22
36.93
36.43
35.82
35.20
34.60
33.99
33.25
32.27
30.90
29.11
26.90
24.42
21.94
19.70
17.88
16.51
15.45
14.50
13.48
12.32
11.03
9.67
8.26
6.80
5.25
3.54
1.66
-0.37
-2.45
-4.50
-6.37
-7.99
-9.39
-10.70
-12.14
-13.95
-16.25
-18.97
-21.96
-24.96
-27.81
-30.40
-32.76
-34.94
-37.03
-39.17
-41.60
-44.54
-48.12
-52.18
-56.21
-59.33
-60.59
-59.24
-54.95
-47.98
-38.99
-28.84
-18.38
-8.26
1.12
9.52
16.86
23.06
28.05
31.75
34.18
35.49
36.04
36.27
36.59
37.15
37.80
38.24
38.20
37.70
37.07
36.72
36.97
37.72
38.55
38.81
38.05
36.18
33.60
31.00
29.07
28.15
28.11
28.42
28.41
27.56
25.77
23.31
20.68
18.39
16.76
15.96
16.02
16.76
17.69
17.75
15.51
9.67
-0.21
-13.17
-26.93
-38.63
-45.96
-48.02
-45.55
-40.43
-34.75
-29.98
-26.68
-24.76
-23.88
-23.88
-24.78
-26.65
-29.36
-32.61
-35.98
-39.18
-42.13
-44.90
-47.58
-50.02
-51.78
-52.25
-50.82
-47.08
-40.99
-32.86
-23.27
-12.96
-2.70
6.80
14.97
21.52
26.39
29.77
31.94
33.17
33.63
33.38
32.51
31.25
29.95
29.00
28.72
29.16
30.11
31.19
32.05
32.50
32.51
32.20
31.65
30.87
29.76
28.25
26.38
24.34
22.35
20.58
19.02
17.54
15.93
14.05
11.83
9.35
6.79
4.32
2.10
0.18
-1.50
-3.13
-4.95
-7.19
-9.91
-12.99
-16.13
-19.06
-21.58
-23.72
-25.74
-28.01
-30.88
-34.53
-38.91
-43.65
-48.18
-51.76
-53.69
-53.44
-50.78
-45.80
-38.85
-30.49
-21.33
-11.94
-2.80
5.71
13.26
19.59
24.51
27.92
29.91
30.74
30.81
30.52
30.19
29.93
29.71
29.40
28.94
28.36
27.78
27.35
27.14
27.13
27.18
27.10
26.70
25.87
24.56
22.84
20.84
18.75
16.74
14.95
13.44
12.20
11.12
10.09
8.98
7.71
6.25
4.62
2.90
1.16
-0.53
-2.17
-3.76
-5.32
-6.89
-8.55
-10.41
-12.60
-15.15
-18.00
-20.90
-23.61
-25.99
-28.06
-30.08
-32.29
-34.90
-37.90
-41.23
-44.81
-48.71
-53.00
-57.54
-61.82
-64.96
-65.95
-64.07
-59.18
-51.72
-42.54
-32.50
-22.28
-12.29
-2.83
5.88
13.60
20.19
25.56
29.73
32.76
34.66
35.46
35.31
34.48
33.42
32.55
32.13
32.22
32.63
33.14
33.57
33.89
34.13
34.26
34.16
33.62
32.53
30.89
28.95
27.04
25.43
24.21
23.26
22.31
21.10
19.54
17.66
15.65
13.66
11.75
9.91
8.07
6.16
4.19
2.19
0.16
-1.88
-3.93
-6.00
-8.06
-10.06
-11.98
-13.81
-15.60
-17.47
-19.52
-21.80
-24.33
-27.10
-30.01
-32.93
-35.61
-37.77
-39.23
-40.02
-40.43
-40.89
-41.71
-42.82
-43.70
-43.59
-41.81
-38.04
-32.43
-25.45
-17.65
-9.49
-1.28
6.71
14.13
20.57
25.59
28.95
30.64
30.93
30.28
29.23
28.22
27.56
27.32
27.36
27.46
27.41
27.17
26.86
26.63
26.62
26.78
26.97
26.90
26.37
25.25
23.58
21.51
19.25
16.97
14.69
12.37
9.91
7.23
4.44
1.74
-0.61
-2.42
-3.69
-4.60
-5.41
-6.33
-7.50
-8.94
-10.60
-12.44
-14.44
-16.52
-18.63
-20.67
-22.58
-24.43
-26.38
-28.69
-31.54
-34.91
-38.43
-41.44
-43.16
-42.97
-40.58
-36.08
-29.92
-22.61
-14.66
-6.45
1.67
9.34
16.15
21.70
25.71
28.10
29.01
28.72
27.56
25.88
24.02
22.30
20.99
20.21
19.95
20.04
20.30
20.55
20.74
20.85
20.89
20.83
20.61
20.12
19.30
18.11
16.59
14.77
12.74
10.56
8.29
6.00
3.74
1.52
-0.64
-2.73
-4.79
-6.88
-9.15
-11.74
-14.75
-18.15
-21.78
-25.43
-28.87
-31.98
-34.75
-37.28
-39.76
-42.40
-45.49
-49.17
-53.42
-57.89
-61.87
-64.47
-64.85
-62.53
-57.47
-50.09
-41.07
-31.11
-20.80
-10.63
-1.00
7.72
15.22
21.32
26.00
29.40
31.75
33.26
34.13
34.52
34.61
34.53
34.48
34.57
34.88
35.41
36.06
36.66
37.00
36.86
36.13
34.82
33.06
31.07
29.06
27.11
25.20
23.22
21.11
18.88
16.62
14.46
12.48
10.65
8.88
7.06
5.12
3.03
0.83
-1.40
-3.63
-5.84
-8.09
-10.50
-13.14
-16.08
-19.24
-22.44
-25.45
-28.10
-30.38
-32.55
-35.00
-38.14
-42.12
-46.77
-51.48
-55.41
-57.68
-57.61
-54.90
-49.66
-42.32
-33.48
-23.75
-13.67
-3.68
5.82
14.49
22.13
28.63
34.03
38.20
40.74
41.01
38.39
32.84
25.29
17.52
11.71
9.62
11.91
17.96
26.21
34.81
42.23
47.56
50.51
51.16
49.80
46.82
42.75
38.23
33.94
30.35
27.57
25.24
22.60
18.79
13.26
6.10
-1.85
-9.22
-14.60
-17.02
-16.33
-13.15
-8.62
-4.02
-0.38
1.69
1.95
0.50
-2.35
-6.19
-10.53
-14.90
-18.88
-22.25
-24.98
-27.33
-29.74
-32.69
-36.47
-40.99
-45.69
-49.71
-52.09
-52.13
-49.56
-44.64
-37.95
-30.18
-21.93
-13.59
-5.39
2.46
9.69
15.95
20.89
24.29
26.18
26.86
26.81
26.47
26.12
25.83
25.50
25.04
24.50
24.10
24.09
24.62
25.54
26.51
27.07
26.93
26.05
24.64
23.05
21.57
20.33
19.28
18.25
17.04
15.50
13.56
11.23
8.61
5.87
3.19
0.73
-1.44
-3.37
-5.20
-7.08
-9.19
-11.63
-14.43
-17.56
-20.92
-24.36
-27.79
-31.18
-34.62
-38.34
-42.56
-47.37
-52.61
-57.76
-62.06
-64.69
-65.00
-62.70
-57.92
-51.09
-42.81
-33.67
-24.16
-14.69
-5.67
2.53
9.52
15.06
19.09
21.81
23.58
24.83
25.92
27.07
28.41
29.98
31.78
33.70
35.53
36.95
37.66
37.44
36.27
34.36
32.04
29.70
27.62
25.94
24.68
23.70
22.87
21.95
20.80
19.30
17.44
15.31
12.98
10.57
8.17
5.89
3.86
2.20
0.89
-0.16
-1.17
-2.36
-3.90
-5.82
-8.01
-10.35
-12.75
-15.17
-17.64
-20.21
-22.91
-25.70
-28.58
-31.54
-34.67
-38.09
-41.90
-46.16
-50.71
-55.15
-58.88
-61.14
-61.32
-59.02
-54.26
-47.43
-39.09
-29.83
-20.16
-10.42
-0.97
7.86
15.67
22.11
27.02
30.46
32.73
34.23
35.28
36.08
36.65
36.92
36.91
36.73
36.61
36.73
37.14
37.68
38.07
37.98
37.25
35.95
34.34
32.77
31.51
30.64
30.03
29.42
28.55
27.27
25.64
23.84
22.14
20.69
19.52
18.47
17.37
16.07
14.52
12.75
10.82
8.74
6.48
4.07
1.58
-0.83
-3.00
-4.83
-6.37
-7.77
-9.20
-10.83
-12.72
-14.87
-17.19
-19.61
-22.07
-24.54
-27.02
-29.48
-31.89
-34.25
-36.62
-39.19
-42.18
-45.72
-49.68
-53.60
-56.69
-58.10
-57.19
-53.77
-48.11
-40.82
-32.57
-23.92
-15.18
-6.54
1.80
9.59
16.42
21.88
25.73
27.95
28.87
28.97
28.72
28.45
28.20
27.85
27.26
26.43
25.56
24.92
24.67
24.74
24.84
24.64
23.91
22.68
21.10
19.37
17.63
15.89
14.16
12.45
10.84
9.42
8.21
7.22
6.35
5.51
4.67
3.76
2.76
1.62
0.35
-1.01
-2.38
-3.70
-5.03
-6.49
-8.27
-10.45
-12.94
-15.50
-17.89
-19.91
-21.60
-23.12
-24.71
-26.55
-28.74
-31.32
-34.31
-37.77
-41.61
-45.44
-48.44
-49.53
-47.67
-42.37
-33.94
-23.45
-12.38
-2.03
6.81
14.00
19.79
24.49
28.19
30.76
32.04
32.03
31.05
29.60
28.16
27.00
26.12
25.34
24.54
23.78
23.31
23.42
24.31
25.81
27.47
28.68
28.90
27.90
25.85
23.20
20.53
18.29
16.66
15.51
14.53
13.37
11.85
9.97
7.95
6.00
4.24
2.60
0.90
-1.01
-3.15
-5.39
-7.52
-9.45
-11.24
-13.15
-15.43
-18.20
-21.36
-24.68
-27.86
-30.75
-33.35
-35.80
-38.32
-41.10
-44.29
-47.96
-52.12
-56.64
-61.20
-65.27
-68.15
-69.14
-67.72
-63.72
-57.37
-49.17
-39.71
-29.60
-19.34
-9.34
-0.03
8.25
15.26
20.88
25.19
28.35
30.56
31.99
32.79
33.16
33.32
33.48
33.77
34.19
34.67
35.13
35.55
35.94
36.27
36.44
36.29
35.66
34.53
33.01
31.29
29.58
27.98
26.50
25.08
23.62
22.07
20.42
18.68
16.91
15.17
13.57
12.15
10.91
9.74
8.52
7.14
5.55
3.77
1.86
-0.16
-2.30
-4.59
-7.04
-9.62
-12.24
-14.84
-17.36
-19.83
-22.29
-24.84
-27.53
-30.41
-33.52
-36.85
-40.43
-44.20
-48.04
-51.63
-54.51
-56.09
-55.80
-53.28
-48.46
-41.56
-33.01
-23.32
-13.00
-2.55
7.49
16.57
24.20
30.04
34.05
36.41
37.49
37.69
37.41
36.94
36.47
36.10
35.87
35.71
35.60
35.46
35.30
35.13
34.92
34.54
33.87
32.82
31.41
29.79
28.08
26.33
24.48
22.45
20.18
17.75
15.34
13.08
10.99
8.95
6.82
4.52
2.14
-0.18
-2.33
-4.37
-6.53
-9.07
-12.06
-15.32
-18.43
-20.94
-22.69
-23.90
-25.09
-26.86
-29.46
-32.75
-36.24
-39.43
-42.04
-44.06
-45.60
-46.61
-46.76
-45.50
-42.36
-37.20
-30.30
-22.22
-13.62
-5.04
3.11
10.50
16.85
21.92
25.54
27.71
28.55
28.38
27.55
26.42
25.32
24.46
23.92
23.67
23.62
23.70
23.83
23.94
23.97
23.78
23.29
22.42
21.21
19.70
17.99
16.07
13.94
11.56
8.90
5.99
2.89
-0.34
-3.60
-6.84
-9.97
-12.96
-15.76
-18.41
-21.02
-23.73
-26.69
-29.95
-33.43
-37.04
-40.71
-44.47
-48.41
-52.57
-56.78
-60.60
-63.38
-64.43
-63.27
-59.80
-54.29
-47.26
-39.31
-30.95
-22.54
-14.31
-6.45
0.81
7.18
12.34
16.09
18.44
19.66
20.18
20.52
21.12
22.24
23.96
26.18
28.66
31.11
33.27
34.94
36.06
36.62
36.68
36.28
35.47
34.27
32.72
30.89
28.85
26.68
24.46
22.27
20.25
18.42
16.72
14.95
12.87
10.35
7.46
4.45
1.58
-1.04
-3.56
-6.26
-9.37
-12.91
-16.67
-20.32
-23.65
-26.60
-29.30
-31.98
-34.83
-37.98
-41.52
-45.45
-49.67
-53.82
-57.34
-59.49
-59.64
-57.42
-52.83
-46.23
-38.08
-28.81
-18.73
-8.11
2.66
13.00
22.21
29.66
35.03
38.45
40.40
41.55
42.43
43.35
44.35
45.34
46.26
47.12
47.99
48.87
49.64
50.07
49.98
49.35
48.32
47.14
46.04
45.12
44.32
43.51
42.58
41.44
40.13
38.62
36.94
35.06
33.00
30.77
28.45
26.10
23.74
21.39
19.02
16.61
14.15
11.60
8.94
6.15
3.23
0.20
-2.92
-6.14
-9.47
-12.94
-16.53
-20.13
-23.56
-26.67
-29.40
-31.90
-34.50
-37.60
-41.46
-46.00
-50.71
-54.78
-57.30
-57.59
-55.41
-50.95
-44.71
-37.27
-29.15
-20.76
-12.43
-4.55
2.44
8.18
12.46
15.31
16.97
17.79
18.10
18.10
17.93
17.62
17.21
16.77
16.39
16.17
16.15
16.30
16.48
16.53
16.25
15.54
14.37
12.86
11.16
9.44
7.81
6.26
4.74
3.13
1.38
-0.55
-2.60
-4.72
-6.86
-9.00
-11.15
-13.33
-15.53
-17.76
-19.95
-22.03
-23.94
-25.66
-27.26
-28.89
-30.71
-32.85
-35.35
-38.10
-40.83
-43.11
-44.41
-44.19
-42.05
-37.82
-31.67
-24.05
-15.60
-6.99
1.27
8.86
15.59
21.32
25.88
29.08
30.82
31.17
30.42
28.98
27.28
25.62
24.11
22.72
21.41
20.21
19.27
18.77
18.78
19.22
19.82
20.27
20.27
19.62
18.20
16.01
13.12
9.72
6.18
2.90
0.27
-1.53
-2.63
-3.44
-4.47
-6.11
-8.54
-11.66
-15.28
-19.20
-23.32
-27.62
-32.10
-36.69
-41.24
-45.54
-49.33
-52.29
-54.11
-54.49
-53.19
-50.10
-45.28
-38.93
-31.38
-22.99
-14.21
-5.47
2.78
10.16
16.39
21.35
25.02
27.48
28.88
29.40
29.28
28.79
28.22
27.77
27.57
27.58
27.75
27.91
27.93
27.67
27.05
26.03
24.65
23.03
21.29
19.58
18.01
16.61
15.38
14.20
12.93
11.37
9.35
6.86
4.07
1.28
-1.17
-3.12
-4.64
-6.03
-7.63
-9.70
-12.29
-15.25
-18.39
-21.53
-24.59
-27.59
-30.54
-33.48
-36.41
-39.43
-42.71
-46.47
-50.75
-55.35
-59.64
-62.71
-63.64
-61.81
-57.11
-49.94
-41.06
-31.26
-21.20
-11.32
-1.89
6.86
14.65
21.18
26.23
29.72
31.84
32.89
33.26
33.27
33.09
32.81
32.47
32.15
31.95
31.95
32.16
32.49
32.78
32.90
32.76
32.38
31.78
30.97
29.94
28.69
27.29
25.86
24.52
23.31
22.17
21.01
19.73
18.36
16.99
15.79
14.84
14.14
13.55
12.89
11.96
10.67
9.03
7.15
5.21
3.39
1.80
0.44
-0.84
-2.23
-3.87
-5.70
-7.42
-8.59
-8.83
-8.05
-6.55
-4.98
-4.06
-4.33
-6.00
-8.90
-12.60
-16.66
-20.74
-24.65
-28.40
-32.04
-35.73
-39.60
-43.77
-48.18
-52.54
-56.29
-58.64
-58.78
-56.12
-50.54
-42.45
-32.61
-21.93
-11.19
-0.91
8.61
17.18
24.55
30.43
34.62
37.14
38.28
38.53
38.38
38.17
38.01
37.86
37.59
37.17
36.65
36.15
35.79
35.65
35.68
35.72
35.58
35.04
34.03
32.60
30.92
29.24
27.71
26.32
24.92
23.31
21.31
18.94
16.37
13.87
11.68
9.90
8.53
7.40
6.32
5.07
3.49
1.54
-0.74
-3.22
-5.70
-8.02
-10.08
-11.93
-13.73
-15.68
-17.89
-20.36
-22.90
-25.29
-27.34
-29.06
-30.62
-32.32
-34.45
-37.16
-40.47
-44.20
-48.09
-51.77
-54.76
-56.55
-56.66
-54.76
-50.78
-44.98
-37.81
-29.84
-21.60
-13.50
-5.87
1.00
6.86
11.51
14.84
16.96
18.14
18.83
19.52
20.59
22.22
24.32
26.51
28.29
29.18
29.01
27.91
26.40
25.05
24.35
24.45
25.13
25.89
26.24
25.89
24.82
23.28
21.57
19.92
18.40
16.93
15.40
13.74
11.96
10.12
8.32
6.60
4.96
3.30
1.54
-0.42
-2.63
-5.04
-7.61
-10.25
-12.98
-15.89
-19.15
-22.90
-27.18
-31.90
-36.88
-41.99
-47.09
-52.09
-56.75
-60.67
-63.25
-63.88
-62.09
-57.78
-51.24
-43.15
-34.35
-25.61
-17.45
-10.14
-3.66
2.08
7.15
11.51
15.10
17.85
19.78
21.04
21.79
22.23
22.49
22.67
22.81
22.93
23.06
23.20
23.35
23.51
23.70
23.89
23.97
23.80
23.18
21.96
20.08
17.62
14.76
11.77
8.96
6.61
4.98
4.16
4.08
4.49
4.97
5.12
4.61
3.32
1.29
-1.32
-4.34
-7.61
-11.02
-14.46
-17.75
-20.72
-23.28
-25.48
-27.51
-29.69
-32.26
-35.32
-38.79
-42.46
-46.08
-49.35
-51.99
-53.61
-53.77
-52.10
-48.48
-43.15
-36.58
-29.33
-21.76
-13.96
-5.84
2.69
11.49
20.14
28.07
34.78
39.97
43.60
45.83
46.89
46.99
46.36
45.23
43.91
42.72
41.93
41.65
41.77
42.04
42.14
41.82
41.00
39.78
38.36
36.88
35.41
33.87
32.14
30.09
27.71
25.08
22.38
19.73
17.26
15.00
13.02
11.37
10.09
9.22
8.62
8.07
7.22
5.76
3.51
0.57
-2.77
-6.09
-9.02
-11.35
-13.16
-14.73
-16.41
-18.56
-21.37
-24.84
-28.81
-32.96
-36.92
-40.26
-42.56
-43.50
-42.89
-40.72
-37.11
-32.25
-26.37
-19.69
-12.46
-4.95
2.50
9.50
15.58
20.25
23.07
23.78
22.41
19.39
15.49
11.60
8.50
6.60
5.98
6.46
7.76
9.60
11.65
13.55
14.91
15.46
15.23
14.54
13.84
13.49
13.52
13.58
13.14
11.72
9.18
5.72
1.85
-1.82
-4.80
-6.88
-8.18
-9.08
-10.15
-11.93
-14.76
-18.68
-23.45
-28.61
-33.65
-38.19
-41.99
-44.97
-47.06
-48.18
-48.17
-46.86
-44.18
-40.13
-34.82
-28.42
-21.11
-13.12
-4.81
3.28
10.47
16.10
19.74
21.36
21.29
20.14
18.54
16.95
15.63
14.69
14.17
14.15
14.65
15.59
16.74
17.73
18.21
17.97
17.04
15.65
14.08
12.49
10.82
8.86
6.40
3.40
0.08
-3.17
-6.02
-8.32
-10.23
-12.11
-14.37
-17.28
-20.89
-25.09
-29.60
-34.09
-38.13
-41.26
-42.95
-42.81
-40.63
-36.45
-30.52
-23.25
-15.08
-6.44
2.20
10.35
17.51
23.27
27.43
30.03
31.35
31.75
31.58
31.07
30.34
29.49
28.58
27.73
27.03
26.50
26.10
25.74
25.29
24.67
23.83
22.73
21.34
19.60
17.49
15.01
12.26
9.34
6.38
3.41
0.40
-2.71
-5.97
-9.34
-12.75
-16.14
-19.50
-22.89
-26.43
-30.26
-34.44
-38.95
-43.63
-48.21
-52.25
-55.21
-56.52
-55.67
-52.38
-46.61
-38.64
-28.99
-18.34
-7.45
2.94
12.24
20.06
26.25
30.88
34.18
36.43
37.92
38.87
39.43
39.69
39.66
39.36
38.79
38.04
37.20
36.43
35.80
35.28
34.72
33.96
32.90
31.56
30.09
28.65
27.37
26.28
25.31
24.32
23.19
21.88
20.47
19.11
17.96
17.12
16.54
16.06
15.49
14.67
13.57
12.26
10.84
9.36
7.82
6.20
4.53
2.93
1.53
0.42
-0.44
-1.24
-2.22
-3.54
-5.23
-7.15
-9.06
-10.74
-12.07
-13.09
-13.97
-14.96
-16.36
-18.39
-21.19
-24.70
-28.72
-32.94
-37.11
-41.10
-44.91
-48.67
-52.45
-56.27
-60.10
-63.87
-67.53
-70.99
-74.06
-76.38
-77.47
-76.85
-74.19
-69.37
-62.51
-53.85
-43.67
-32.33
-20.24
-7.95
3.91
14.70
23.88
31.17
36.51
40.11
42.36
43.72
44.62
45.37
46.14
46.95
47.67
48.19
48.40
48.28
47.86
47.16
46.19
45.02
43.70
42.35
41.11
40.03
39.08
38.16
37.11
35.86
34.38
32.73
31.00
29.28
27.64
26.12
24.76
23.52
22.34
21.05
19.52
17.63
15.44
13.07
10.75
8.66
6.91
5.50
4.32
3.21
2.01
0.60
-1.10
-3.08
-5.32
-7.75
-10.29
-12.86
-15.38
-17.85
-20.27
-22.73
-25.27
-27.93
-30.68
-33.44
-36.12
-38.66
-41.09
-43.55
-46.26
-49.38
-52.94
-56.63
-59.85
-61.80
-61.73
-59.22
-54.27
-47.32
-38.97
-29.84
-20.38
-10.88
-1.67
6.89
14.35
20.27
24.44
26.90
27.96
28.05
27.58
26.85
26.04
25.29
24.73
24.52
24.79
25.53
26.53
27.42
27.77
27.26
25.86
23.81
21.52
19.46
17.91
16.92
16.33
15.82
15.10
14.00
12.52
10.84
9.15
7.65
6.43
5.45
4.66
4.01
3.44
2.86
2.15
1.14
-0.30
-2.19
-4.39
-6.64
-8.67
-10.41
-11.93
-13.50
-15.39
-17.72
-20.39
-23.12
-25.58
-27.59
-29.15
-30.48
-31.97
-34.00
-36.80
-40.35
-44.31
-48.09
-50.96
-52.20
-51.33
-48.13
-42.71
-35.40
-26.75
-17.38
-7.95
0.92
8.74
15.23
20.32
24.13
26.86
28.67
29.70
30.06
29.86
29.31
28.61
27.96
27.49
27.22
27.06
26.93
26.79
26.63
26.45
26.23
25.91
25.37
24.49
23.26
21.75
20.13
18.60
17.31
16.25
15.32
14.28
12.97
11.29
9.35
7.39
5.66
4.30
3.21
2.14
0.78
-1.07
-3.43
-6.11
-8.87
-11.52
-14.04
-16.51
-19.08
-21.87
-24.87
-28.03
-31.29
-34.56
-37.80
-40.94
-43.90
-46.63
-49.17
-51.70
-54.45
-57.58
-60.99
-64.24
-66.61
-67.33
-65.85
-61.99
-55.94
-48.22
-39.40
-30.02
-20.53
-11.29
-2.62
5.22
12.02
17.69
22.22
25.70
28.30
30.27
31.86
33.27
34.61
35.82
36.81
37.48
37.81
37.88
37.81
37.69
37.52
37.26
36.85
36.28
35.56
34.70
33.72
32.60
31.39
30.17
29.09
28.17
27.40
26.61
25.68
24.55
23.30
22.11
21.10
20.30
19.56
18.66
17.38
15.61
13.37
10.78
8.01
5.20
2.46
-0.17
-2.64
-4.94
-7.09
-9.12
-11.11
-13.12
-15.23
-17.49
-19.95
-22.61
-25.44
-28.37
-31.32
-34.28
-37.40
-40.88
-44.91
-49.36
-53.69
-56.98
-58.20
-56.62
-52.09
-45.07
-36.38
-26.93
-17.43
-8.29
0.22
7.91
14.52
19.86
23.82
26.50
28.12
29.00
29.40
29.48
29.31
28.89
28.29
27.66
27.20
27.14
27.58
28.48
29.58
30.53
31.04
30.96
30.36
29.47
28.50
27.58
26.69
25.68
24.40
22.82
21.04
19.26
17.71
16.49
15.56
14.73
13.77
12.53
10.95
9.11
7.12
5.13
3.16
1.20
-0.83
-2.96
-5.18
-7.48
-9.88
-12.42
-15.14
-18.04
-21.02
-23.91
-26.59
-29.02
-31.39
-34.03
-37.24
-41.11
-45.36
-49.32
-52.16
-53.08
-51.57
-47.64
-41.65
-34.22
-25.98
-17.41
-8.86
-0.62
6.96
13.51
18.61
22.06
23.88
24.39
24.07
23.47
22.95
22.71
22.74
22.96
23.27
23.61
23.99
24.43
24.94
25.44
25.76
25.75
25.26
24.29
22.91
21.31
19.70
18.20
16.83
15.51
14.15
12.65
11.01
9.27
7.46
5.63
3.77
1.90
0.04
-1.80
-3.68
-5.71
-8.07
-10.87
-14.05
-17.41
-20.62
-23.39
-25.61
-27.42
-29.13
-31.14
-33.83
-37.35
-41.65
-46.38
-50.95
-54.61
-56.59
-56.32
-53.61
-48.64
-41.95
-34.21
-26.03
-17.87
-10.00
-2.64
4.00
9.65
14.10
17.26
19.19
20.13
20.38
20.23
19.92
19.62
19.44
19.49
19.82
20.44
21.30
22.29
23.24
23.97
24.34
24.24
23.66
22.66
21.35
19.78
17.96
15.86
13.47
10.86
8.15
5.46
2.81
0.13
-2.77
-6.02
-9.64
-13.49
-17.33
-20.95
-24.24
-27.24
-30.11
-33.05
-36.25
-39.86
-43.83
-47.92
-51.62
-54.21
-54.94
-53.25
-48.96
-42.32
-33.96
-24.65
-15.15
-6.05
2.22
9.40
15.28
19.78
22.92
24.84
25.80
26.07
25.93
25.59
25.18
24.82
24.55
24.34
24.15
23.90
23.57
23.26
23.05
23.01
23.12
23.27
23.37
23.40
23.43
23.52
23.66
23.65
23.21
22.09
20.21
17.74
15.00
12.35
9.94
7.70
5.42
2.91
0.10
-2.86
-5.73
-8.34
-10.67
-12.88
-15.19
-17.75
-20.61
-23.71
-26.97
-30.32
-33.60
-36.46
-38.27
-38.25
-35.67
-30.19
-21.98
-11.67
-0.09
11.93
23.77
34.97
45.20
54.17
61.66
67.65
72.33
76.11
79.37
82.18
84.09
84.19
81.39
74.92
64.75
51.79
37.68
24.31
13.36
5.81
1.98
1.55
3.87
8.07
13.22
18.36
22.67
25.55
26.84
26.81
26.09
25.46
25.53
26.65
28.73
31.34
33.74
35.21
35.21
33.65
30.90
27.67
24.67
22.29
20.42
18.50
15.71
11.35
5.07
-2.97
-12.22
-21.88
-31.09
-39.21
-45.82
-50.90
-54.64
-57.44
-59.64
-61.50
-62.97
-63.73
-63.32
-61.36
-57.93
-53.69
-49.84
-47.68
-48.03
-50.80
-54.99
-59.14
-62.06
-63.27
-63.05
-62.00
-60.53
-58.59
-55.87
-52.25
-48.10
-44.31
-41.86
-41.29
-42.44
-44.47
-46.16
-46.45
-44.65
-40.66
-34.93
-28.28
-21.79
-16.56
-13.46
-12.92
-14.77
-18.27
-22.33
-25.84
-28.01
-28.56
-27.68
-25.83
-23.55
-21.34
-19.66
-18.91
-19.27
-20.56
-21.96
-22.16
-19.73
-13.72
-4.21
7.67
20.12
31.45
40.63
47.47
52.30
55.53
57.33
57.66
56.45
53.87
50.40
46.69
43.43
41.10
39.89
39.69
40.03
40.15
39.19
36.54
32.11
26.46
20.51
15.19
10.80
6.94
2.67
-3.00
-10.40
-18.88
-26.76
-31.76
-31.36
-23.10
-5.08
23.21
59.88
99.99
135.90
158.98
162.41
143.86
106.91
60.08
13.96
-22.57
-44.97
-53.46
-51.58
-43.53
-32.30
-18.93
-3.43
13.87
31.18
45.18
51.81
47.88
32.56
7.99
-21.16
-49.10
-70.78
-83.40
-87.03
-83.95
-77.21
-69.08
-60.49
-51.45
-41.90
-32.49
-24.41
-18.70
-15.35
-13.16
-10.10
-4.47
4.37
15.71
27.86
39.04
47.86
53.63
56.19
55.71
52.45
46.72
38.94
29.56
18.98
7.57
-4.29
-16.02
-26.72
-35.20
-40.26
-41.12
-37.95
-31.99
-25.21
-19.45
-15.42
-12.25
-7.76
0.45
13.67
31.28
50.84
68.99
82.67
90.07
90.84
85.85
76.45
64.22
50.77
37.86
27.54
21.82
22.17
28.95
41.05
56.05
70.94
83.10
91.10
95.02
96.07
95.84
95.55
95.59
95.56
94.65
91.93
86.60
78.06
65.90
49.91
30.22
7.34
-17.89
-44.42
-71.11
-96.50
-118.64
-135.41
-145.32
-148.76
-148.38
-148.21
-151.74
-159.83
-170.15
-178.48
-181.24
-177.35
-168.50
-157.44
-145.75
-132.76
-116.22
-94.31
-67.36
-38.05
-9.93
14.42
34.42
51.14
65.90
79.21
90.56
99.06
104.44
107.58
110.31
114.69
122.01
131.93
142.07
148.33
146.26
132.79
107.79
74.66
39.38
8.35
-14.00
-26.47
-30.85
-30.29
-27.36
-22.97
-16.53
-7.10
5.31
19.33
32.65
42.99
48.86
49.91
46.72
40.29
31.64
21.73
11.34
1.24
-7.83
-15.15
-20.13
-22.44
-22.14
-19.74
-16.11
-12.24
-9.13
-7.53
-7.86
-10.11
-13.93
-18.66
-23.55
-28.01
-31.93
-35.71
-40.08
-45.74
-52.95
-61.41
-70.50
-79.70
-88.71
-97.34
-105.31
-112.22
-118.02
-123.22
-128.65
-134.56
-139.73
-141.24
-135.67
-120.88
-97.50
-69.12
-40.75
-16.57
1.67
14.79
24.95
33.96
42.23
48.94
53.01
54.01
52.32
48.98
45.15
41.70
39.15
37.64
37.08
37.19
37.65
38.16
38.43
38.20
37.26
35.53
33.10
30.29
27.38
24.64
22.27
20.54
19.92
20.85
23.43
26.90
29.70
29.92
26.26
18.73
8.85
-1.06
-9.06
-14.39
-17.78
-20.79
-24.87
-30.57
-37.40
-44.17
-49.73
-53.64
-56.21
-58.33
-60.78
-63.80
-67.17
-70.59
-74.14
-78.19
-83.06
-88.56
-93.80
-97.48
-98.48
-96.35
-91.50
-85.13
-78.68
-73.32
-69.32
-65.87
-61.06
-52.75
-39.48
-21.37
-0.53
19.87
36.85
48.93
56.50
61.17
64.44
66.81
67.86
66.88
63.83
59.59
55.59
53.04
52.30
52.95
54.10
54.99
55.23
54.88
54.23
53.64
53.28
53.02
52.48
51.14
48.54
44.66
39.91
35.02
30.70
27.29
24.64
22.29
19.84
17.20
14.66
12.57
11.00
9.55
7.57
4.46
0.00
-5.56
-11.71
-17.89
-23.76
-29.11
-33.89
-38.05
-41.54
-44.41
-46.89
-49.44
-52.61
-56.80
-61.95
-67.28
-71.47
-72.88
-70.13
-62.77
-51.41
-37.56
-23.07
-9.55
1.99
11.06
17.44
21.03
21.78
19.91
15.98
10.89
5.69
1.31
-1.70
-3.15
-3.23
-2.30
-0.64
1.65
4.71
8.64
13.30
18.09
22.12
24.50
24.86
23.47
21.15
18.84
17.22
16.45
16.33
16.55
16.76
16.74
16.38
15.68
14.82
14.10
13.86
14.16
14.81
15.43
15.67
15.41
14.68
13.54
11.95
9.89
7.38
4.66
1.92
-0.85
-4.08
-8.40
-14.11
-20.75
-26.90
-30.54
-29.80
-23.65
-12.19
3.44
21.34
39.16
54.47
65.21
70.20
69.45
64.13
56.01
46.91
38.17
30.58
24.57
20.38
18.07
17.46
18.13
19.50
21.17
23.02
25.17
27.78
30.74
33.58
35.74
36.82
36.67
35.32
32.81
29.21
24.51
18.77
12.11
4.77
-2.80
-9.96
-16.00
-20.49
-23.53
-25.73
-27.89
-30.63
-34.04
-37.81
-41.55
-45.08
-48.50
-52.09
-56.06
-60.40
-64.69
-68.13
-69.64
-68.02
-62.27
-52.06
-37.95
-21.21
-3.54
13.49
28.63
40.97
49.77
54.48
54.98
51.77
46.04
39.23
32.55
26.59
21.37
16.75
12.82
10.00
8.92
10.02
13.30
18.17
23.53
28.12
30.74
30.62
27.64
22.32
15.60
8.53
1.89
-3.96
-9.10
-13.81
-18.47
-23.35
-28.62
-34.22
-39.86
-45.23
-50.02
-54.09
-57.54
-60.52
-63.18
-65.72
-68.56
-72.39
-77.82
-84.86
-92.37
-98.09
-99.31
-93.95
-81.43
-62.85
-40.43
-16.58
6.70
27.95
45.94
59.55
67.93
70.95
69.42
64.85
58.80
52.36
45.89
39.46
33.37
28.31
25.27
25.02
27.66
32.57
38.64
44.69
49.68
52.87
53.80
52.20
48.13
42.13
35.06
28.07
22.25
18.28
15.95
14.07
10.77
4.26
-6.21
-19.85
-34.44
-47.23
-56.09
-60.32
-60.79
-59.41
-58.21
-58.62
-61.11
-65.30
-70.22
-74.62
-77.04
-76.07
-70.45
-59.51
-43.46
-23.50
-1.46
20.42
40.05
55.76
66.48
71.85
72.13
68.15
61.12
52.47
43.68
36.04
30.37
26.87
25.14
24.54
24.57
25.24
26.99
30.22
34.72
39.46
42.92
43.71
41.34
36.48
30.49
24.70
19.71
15.39
11.32
7.31
3.48
0.03
-3.37
-7.60
-13.59
-21.56
-30.70
-39.46
-46.39
-50.88
-53.37
-54.95
-56.75
-59.49
-63.26
-67.58
-71.48
-73.50
-71.89
-65.08
-52.36
-34.34
-12.92
9.17
29.29
45.37
56.30
61.75
62.00
57.77
50.23
40.73
30.68
21.21
12.98
6.22
0.93
-2.87
-4.96
-4.99
-2.69
1.79
7.64
13.35
17.10
17.34
13.56
6.51
-2.03
-10.01
-15.88
-18.94
-19.27
-17.42
-14.07
-10.01
-6.10
-3.09
-1.40
-0.96
-1.47
-2.67
-4.71
-7.98
-12.70
-18.63
-24.84
-30.19
-33.68
-34.70
-32.94
-28.09
-19.75
-7.77
7.31
24.08
40.53
54.73
65.48
72.29
74.96
73.18
66.37
54.19
37.41
18.31
0.69
-11.03
-13.11
-3.82
15.68
41.22
66.65
85.75
94.15
90.82
78.11
60.41
42.31
26.82
14.83
5.79
-1.13
-6.15
-8.80
-8.51
-5.50
-0.83
4.12
8.24
11.12
12.99
14.10
14.15
12.20
7.05
-1.90
-14.03
-27.39
-39.27
-47.08
-49.06
-44.50
-33.75
-18.06
0.63
19.92
37.33
50.80
59.04
61.76
59.53
53.53
45.14
35.71
26.35
17.90
11.05
6.17
3.18
