-24.26
-7.22
9.4
23.86
35.24
43.45
48.95
52.24
53.56
52.93
50.46
46.57
41.97
37.45
33.53
30.4
27.9
25.81
23.99
22.37
20.94
19.77
19.02
19.05
20.34
23.22
27.61
32.76
37.42
40.23
40.22
37.16
31.57
24.42
16.66
8.8
0.78
-7.73
-17.15
-27.48
-38.15
-48.2
-56.56
-62.54
-66.16
-68.04
-69.25
-70.83
-73.42
-77.05
-81.22
-85.19
-88.27
-90.13
-90.83
-90.73
-90.33
-89.96
-89.61
-88.81
-86.68
-82.22
-74.72
-64.32
-52.11
-39.99
-29.98
-23.53
-21.12
-22.1
-25.12
-28.57
-30.84
-30.65
-27.25
-20.6
-11.53
-1.44
8.32
17.07
25.11
33.46
42.89
53.08
62.43
68.65
69.92
65.96
58.12
48.79
40.25
33.73
29.2
25.83
22.59
18.84
14.46
9.7
4.94
0.58
-2.96
-5.21
-5.67
-4.05
-0.52
4.14
8.57
11.19
10.73
6.63
-0.73
-10.17
-20.17
-29.26
-36.5
-41.64
-45.05
-47.45
-49.57
-51.83
-54.29
-56.7
-58.68
-59.79
-59.6
-57.55
-52.96
-45.2
-33.83
-19.02
-1.83
15.84
31.73
43.86
51.24
54.13
53.79
51.84
49.49
47.19
44.77
41.88
38.59
35.58
33.82
34.01
36.09
39.26
42.44
44.82
46.24
47.01
47.62
48.31
48.86
48.71
47.27
44.16
39.52
33.98
28.57
24.34
21.97
21.47
22.21
23.34
24.26
25
26.14
28.3
31.51
34.98
37.33
37.13
33.36
25.74
14.79
1.76
-11.41
-22.36
-28.73
-29
-23.23
-13.34
-2.62
5.44
8.45
6.06
-0.22
-7.98
-15.11
-20.64
-24.9
-28.93
-33.78
-39.88
-46.8
-53.46
-58.39
-60.19
-57.92
-51.24
-40.41
-26.19
-9.69
7.63
24.04
37.59
46.44
49.52
47.05
40.79
33.55
28.13
26.18
27.57
30.68
33.39
34.15
32.58
29.45
26.09
23.82
23.52
25.38
28.77
32.2
33.62
31.04
23.39
11.21
-3.25
-16.7
-26.04
-29.5
-27.21
-20.98
-13.52
-7.41
-4.35
-4.92
-8.74
-14.93
-22.42
-30.3
-37.77
-44.21
-49.14
-52.28
-53.69
-53.94
-54.01
-55.02
-57.72
-61.97
-66.7
-70.24
-71.17
-69.07
-64.91
-60.71
-58.56
-59.69
-63.74
-68.9
-72.67
-72.9
-68.59
-60.05
-48.5
-35.43
-22.09
-9.25
2.71
13.51
22.84
30.38
36.02
40.06
43.25
46.62
51.05
56.74
63.02
68.52
71.77
71.93
69.13
64.27
58.35
51.89
44.73
36.44
26.97
17.06
8.11
1.61
-1.52
-1.33
1.3
5.08
8.89
12
14.1
15.09
14.92
13.48
10.69
6.53
1.14
-5.13
-11.84
-18.52
-24.8
-30.46
-35.36
-39.3
-41.97
-43.06
-42.49
-40.65
-38.48
-37.12
-37.5
-39.75
-43.04
-45.77
-46.21
-43.12
-36.23
-26.07
-13.78
-0.54
12.48
24.22
33.72
40.25
43.59
44.17
43.01
41.3
39.91
39.1
38.67
38.3
37.91
37.86
38.71
40.97
44.79
49.89
55.64
61.21
65.74
68.57
69.31
67.94
64.79
60.37
55.23
49.8
44.35
39
33.72
28.48
23.25
18.18
13.59
9.92
7.55
6.46
6.1
5.45
3.44
-0.64
-6.72
-14.07
-21.57
-28.3
-33.77
-38.02
-41.42
-44.47
-47.59
-51.01
-54.78
-58.71
-62.32
-64.9
-65.66
-63.95
-59.51
-52.45
-43.18
-32.25
-20.23
-7.76
4.35
15.25
24.2
30.72
34.68
36.18
35.46
32.9
29.09
24.75
20.59
17.11
14.45
12.47
10.99
9.92
9.39
9.49
10.03
10.54
10.48
9.65
8.45
7.69
8.16
10.05
12.68
14.72
14.76
11.96
6.39
-0.96
-8.6
-15.11
-19.74
-22.68
-24.89
-27.62
-31.68
-37.06
-42.83
-47.61
-50.11
-49.6
-45.9
-39.28
-30.15
-18.96
-6.29
7.05
19.94
31.24
40.13
46.39
50.43
52.96
54.48
55.11
54.65
52.98
50.38
47.56
45.37
44.42
44.79
46.05
47.48
48.26
47.72
45.38
41.06
35.07
28.22
21.65
16.34
12.55
9.71
6.71
2.54
-3.09
-9.68
-16.4
-22.6
-28.04
-32.74
-36.6
-39.24
-40.33
-40.14
-39.62
-40.06
-42.17
-45.62
-49.29
-52.13
-54.02
-55.86
-58.67
-62.47
-65.75
-66.05
-61.18
-50.5
-35.17
-17.6
-0.43
14.31
25.46
32.58
35.7
35.34
32.48
28.49
24.82
22.62
22.55
24.75
28.77
33.62
37.86
39.99
39.1
35.35
29.96
24.48
20.05
16.81
14.14
11.32
8.07
4.72
1.87
-0.07
-1.25
-2.25
-3.87
-6.78
-11.3
-17.33
-24.39
-31.72
-38.46
-43.9
-47.75
-50.2
-51.62
-52.26
-51.9
-49.87
-45.4
-37.96
-27.55
-14.91
-1.37
11.29
21.21
26.91
27.74
24.07
17.28
9.23
1.61
-4.62
-9.45
-13.55
-17.66
-21.9
-25.49
-27.05
-25.36
-20.14
-12.37
-3.88
3.42
8.32
10.54
10.51
8.89
6.17
2.68
-1.38
-5.77
-10.17
-14.26
-17.79
-20.7
-23.12
-25.38
-27.9
-31.01
-34.77
-38.87
-42.65
-45.39
-46.75
-47.1
-47.46
-49.07
-52.76
-58.41
-64.88
-70.42
-73.38
-72.68
-68.14
-60.4
-50.6
-39.92
-29.29
-19.13
-9.46
0.01
9.46
18.83
27.73
35.66
42.45
48.55
54.99
62.87
72.68
83.85
94.89
104.1
110.29
113.09
112.8
109.8
104.24
96.1
85.55
73.27
60.46
48.41
37.95
29.25
21.94
15.62
10.33
6.46
4.38
3.97
4.49
5.06
5.07
4.49
3.63
2.64
1.16
-1.54
-5.98
-12.06
-19.06
-26.07
-32.62
-38.92
-45.55
-52.8
-60.19
-66.56
-70.54
-71.06
-67.74
-60.71
-50.43
-37.56
-23.04
-7.98
6.38
18.95
28.95
35.94
39.78
40.64
38.96
35.54
31.34
27.24
23.74
20.91
18.58
16.64
15.18
14.51
14.96
16.61
19.26
22.34
25.16
27.08
27.65
26.76
24.45
20.92
16.35
10.95
5.09
-0.68
-5.66
-9.2
-10.88
-10.67
-8.89
-6.18
-3.3
-0.99
0.11
-0.41
-2.81
-7.13
-13.27
-20.9
-29.45
-37.89
-44.83
-48.64
-48.1
-42.82
-33.53
-21.77
-9.3
2.5
12.93
21.75
28.92
34.3
37.78
39.33
39.2
37.92
36.06
34.06
32.09
30.06
27.89
25.64
23.66
22.44
22.41
23.63
25.63
27.5
28.35
27.66
25.56
22.62
19.49
16.44
13.22
9.39
4.77
-0.28
-5.03
-8.78
-11.33
-13.18
-15.15
-18
-21.95
-26.67
-31.46
-35.7
-39.07
-41.67
-43.75
-45.56
-47.25
-49.05
-51.38
-54.72
-59.32
-64.77
-69.91
-73.07
-72.69
-67.95
-59.01
-46.94
-33.23
-19.34
-6.38
4.98
14.37
21.74
27.26
31.36
34.57
37.36
39.92
42.15
43.76
44.49
44.25
43.23
41.76
40.23
38.91
37.84
36.87
35.76
34.42
32.97
31.65
30.55
29.5
28.02
25.66
22.33
18.42
14.69
11.87
10.18
9.31
8.54
7.18
4.86
1.66
-2.11
-6.17
-10.41
-14.79
-19.26
-23.58
-27.52
-30.98
-34.14
-37.3
-40.71
-44.31
-47.9
-51.37
-54.98
-59.36
-65.05
-71.93
-78.86
-84
-85.5
-82.22
-74.15
-62.17
-47.54
-31.37
-14.49
2.36
18.25
32
42.46
48.91
51.37
50.66
48.11
45.14
42.79
41.51
41.18
41.38
41.66
41.85
42.12
42.83
44.23
46.21
48.29
49.76
50
48.72
46.12
42.73
39.2
36.05
33.48
31.44
29.65
27.7
25.14
21.46
16.17
8.94
-0.21
-10.77
-21.85
-32.48
-41.94
-49.87
-56.23
-61.02
-64.01
-64.9
-63.62
-60.68
-57.25
-54.79
-54.43
-56.46
-60.18
-64.16
-66.75
-66.5
-62.42
-54.09
-41.75
-26.4
-9.76
6.09
19.27
28.63
34.08
36.24
35.99
33.95
30.52
26.15
21.67
18.26
16.97
18.12
21.13
24.76
27.78
29.63
30.55
31.22
32.24
33.75
35.43
36.77
37.39
37.17
36.21
34.71
32.85
30.75
28.49
26.03
23.13
19.41
14.42
7.95
0.13
-8.49
-17.21
-25.45
-32.92
-39.6
-45.58
-50.82
-55.15
-58.46
-60.92
-63.07
-65.69
-69.34
-73.93
-78.58
-81.79
-81.9
-77.71
-68.77
-55.44
-38.75
-20.07
-1.1
16.19
29.8
38.09
40.51
37.98
32.8
27.74
24.97
25.15
27.4
30.02
31.54
31.51
30.58
29.88
30.17
31.37
32.66
32.98
31.65
28.6
24.22
19.1
13.83
8.73
3.95
-0.62
-5.19
-9.97
-14.98
-19.98
-24.49
-28
-30.26
-31.49
-32.34
-33.66
-36.27
-40.59
-46.61
-53.85
-61.5
-68.4
-73.09
-73.94
-69.74
-60.19
-46.27
-30.07
-14.1
-0.48
9.69
16.36
20.2
22.09
22.92
23.6
25.15
28.66
34.9
43.9
54.64
65.39
74.31
80.33
83.4
84.45
84.65
84.93
85.57
86.3
86.56
85.69
82.94
77.59
69.07
57.39
43.48
29.18
16.75
7.91
3.11
1.27
0.37
-1.63
-5.9
-12.55
-21.09
-31.15
-42.77
-56.21
-71.27
-86.8
-100.61
-110.14
-113.26
-109
-97.85
-81.49
-62.32
-42.87
-25.25
-10.78
0.16
7.95
13.35
17.1
19.6
21.07
21.75
22.13
22.96
24.88
28.06
32.07
36.02
38.94
40.19
39.66
37.72
34.92
31.77
28.57
25.35
21.95
18.18
13.96
9.4
4.75
0.27
-3.9
-7.78
-11.43
-14.86
-17.95
-20.58
-22.89
-25.42
-29.04
-34.62
-42.6
-52.66
-63.62
-73.78
-81.32
-84.78
-83.35
-76.91
-65.93
-51.3
-34.25
-16.25
1.14
16.49
28.82
37.77
43.57
46.79
48.11
48.06
47.02
45.25
42.94
40.29
37.53
34.96
33
32.01
32.07
32.85
33.5
33.02
30.69
26.45
21.01
15.48
10.87
7.7
5.84
4.68
3.37
1.15
-2.42
-7.29
-12.75
-17.59
-20.5
-20.74
-18.75
-16.25
-15.65
-19.04
-27.09
-38.55
-50.6
-59.87
-63.75
-61.1
-52.32
-38.8
-22.15
-3.79
15.04
32.97
48.29
59.17
64.21
63.12
56.92
47.76
38.19
30.38
25.59
24.04
25
27.09
28.68
28.35
25.42
20.26
14.27
9.35
7.1
8.11
11.85
17.11
22.68
27.84
32.25
35.55
36.82
34.63
27.58
15
-2.53
-23.2
-44.46
-63.67
-78.63
-88.06
-91.79
-90.76
-86.59
-80.9
-74.49
-66.97
-57.1
-43.67
-26.58
-7.18
12.12
29
42.19
51.78
58.74
64.02
67.82
69.65
68.89
65.45
60.08
54.01
48.19
42.95
37.92
32.57
26.75
21.01
16.3
13.41
12.48
12.89
13.69
14.09
13.81
13
11.79
10.05
7.42
3.56
-1.46
-7.15
-12.87
-18.23
-23.27
-28.31
-33.56
-38.9
-43.93
-48.28
-51.86
-54.98
-58.07
-61.16
-63.8
-65.03
-63.67
-58.78
-49.89
-37.12
-21.21
-3.44
14.52
30.84
43.89
52.63
56.76
56.72
53.4
47.82
40.94
33.67
26.88
21.44
18.08
17.1
18.36
21.28
25.15
29.35
33.42
36.94
39.45
40.48
39.76
37.46
34.1
30.42
26.89
23.5
19.82
15.27
9.52
2.65
-4.89
-12.58
-20
-26.91
-33.18
-38.76
-43.66
-48.07
-52.31
-56.76
-61.57
-66.47
-70.68
-73.1
-72.58
-68.24
-59.7
-47.27
-31.87
-14.93
1.92
17.22
30
39.94
47.21
52.25
55.46
57.08
57.18
55.86
53.35
50.04
46.41
42.91
39.96
37.9
36.96
37.14
38.12
39.25
39.7
38.79
36.17
31.99
26.75
21.07
15.58
10.74
6.81
3.86
1.75
0.12
-1.44
-3.36
-5.92
-9.18
-13.07
-17.48
-22.34
-27.69
-33.59
-40.01
-46.71
-53.24
-58.97
-63.38
-66.21
-67.62
-68.14
-68.56
-69.69
-72.16
-76.22
-81.56
-87.27
-91.86
-93.55
-90.78
-82.68
-69.43
-52.18
-32.7
-12.86
5.74
22.02
35.27
45.18
51.76
55.37
56.63
56.21
54.55
51.8
47.93
42.99
37.44
32.1
27.96
25.75
25.64
27.22
29.67
32.18
34.11
35.2
35.44
34.86
33.43
31.07
27.72
23.51
18.87
14.52
11.18
9.3
8.89
9.4
10.05
10.1
9.16
7.33
4.96
2.41
-0.14
-2.71
-5.5
-8.65
-12.23
-16.2
-20.48
-25
-29.61
-34.06
-37.94
-40.91
-42.85
-44.14
-45.61
-48.29
-52.86
-59.26
-66.43
-72.6
-75.87
-74.85
-69.19
-59.51
-47.05
-33.11
-18.7
-4.43
9.22
21.63
32
39.56
43.88
45.16
44.15
41.87
39.23
36.8
34.77
33.14
31.91
31.15
30.87
30.9
30.9
30.57
29.97
29.6
30.23
32.38
35.97
40.17
43.74
45.65
45.46
43.41
40.14
36.22
31.98
27.5
22.82
18.11
13.61
9.41
5.46
1.51
-2.66
-7.1
-11.67
-16.19
-20.57
-24.83
-28.98
-32.92
-36.41
-39.27
-41.5
-43.44
-45.62
-48.54
-52.36
-56.76
-60.95
-63.97
-64.94
-63.35
-59.11
-52.51
-44.01
-34.21
-23.66
-12.93
-2.64
6.57
14.14
19.68
23.13
24.83
25.4
25.57
25.91
26.66
27.62
28.29
28.16
27.01
25.09
23.07
21.78
21.75
22.96
24.77
26.19
26.32
24.74
21.75
18.15
14.92
12.77
11.92
12.11
12.75
13.3
13.32
12.63
11.15
8.82
5.54
1.13
-4.51
-11.34
-19.16
-27.61
-36.16
-44.17
-50.85
-55.42
-57.18
-55.74
-51.11
-43.71
-34.23
-23.38
-11.79
0.05
11.65
22.38
31.56
38.56
43.05
45.07
45
43.41
40.83
37.74
34.53
31.56
29.15
27.52
26.77
26.87
27.73
29.25
31.34
33.75
35.99
37.41
37.38
35.59
32.18
27.73
22.98
18.52
14.55
10.91
7.18
2.92
-2.06
-7.62
-13.33
-18.64
-23.1
-26.62
-29.57
-32.66
-36.74
-42.39
-49.6
-57.68
-65.43
-71.52
-74.78
-74.5
-70.43
-62.79
-52.12
-39.35
-25.6
-12.06
0.29
10.92
19.77
27.09
32.99
37.19
39.05
37.97
33.88
27.6
20.68
14.82
11.31
10.59
12.24
15.28
18.58
21.22
22.54
22.41
21.01
18.97
17.02
15.89
15.96
17.07
18.57
19.41
18.67
15.81
11.08
5.53
0.76
-1.69
-1.13
1.77
5.01
6.03
2.83
-5
-16.06
-27.74
-37.39
-43.49
-46.09
-46.57
-46.79
-48.32
-51.88
-57.48
-64.74
-73.09
-81.95
-90.44
-97.35
-101.2
-100.51
-94.33
-82.64
-66.53
-47.91
-29.07
-12.21
0.94
9.32
12.44
10.52
4.42
-4.34
-13.79
-21.91
-27.14
-28.77
-26.99
-22.54
-16.27
-8.91
-1.03
6.79
13.95
20.12
25.7
31.95
40.71
53.43
70.25
89.56
108.36
123.48
132.83
136.19
134.89
130.84
125.41
118.8
110.24
98.81
84.17
67.02
48.7
30.64
13.7
-2
-16.8
-31.09
-44.98
-58.28
-70.76
-82.2
-92.32
-100.27
-104.41
-102.51
-92.72
-74.65
-50.14
-23.09
1.5
19.12
26.93
24.44
13.19
-3.84
-23.15
-41.4
-55.9
-65
-68.24
-66.28
-60.52
-52.55
-43.53
-33.96
-23.6
-11.72
2.71
20.68
42.72
68.52
96.58
124.28
148.39
165.96
175.2
175.86
169.08
156.65
140.11
120.24
97.02
70.18
40.01
7.89
-23.63
-51.43
-72.82
-86.44
-92.87
-94.4
-94.24
-95.41
-99.77
-107.66
-118.06
-129.25
-139.39
-147.03
-151.19
-151.3
-147.13
-138.85
-127.15
-113.27
-98.92
-85.85
-75.39
-68.06
-63.43
-60.35
-57.35
-53.18
-47.08
-38.9
-28.98
-17.98
-6.66
4.23
13.98
22.11
28.31
32.51
34.71
34.95
33.27
29.81
24.99
19.53
14.32
10.12
7.26
5.57
4.45
3.25
1.5
-0.96
-4.07
-7.7
-11.79
-16.3
-21.09
-25.91
-30.47
-34.64
-38.72
-43.41
-49.64
-58.15
-68.95
-81.22
-93.49
-104.28
-112.76
-119.15
-124.55
-130.29
-137.01
-144.02
-149.11
-149.09
-140.62
-121.03
-88.9
-44.13
12.03
76.95
146.61
215.85
279.1
331.52
370.07
394.12
405.13
405.7
398.43
385.22
367.27
345.63
321.59
296.82
272.93
251
231.26
213.29
196.48
180.54
165.66
152.4
141.3
132.41
125.08
117.88
108.93
96.33
78.56
54.75
24.87
-10.36
-49.52
-90.65
-131.47
-169.55
-202.56
-228.45
-245.61
-253.06
-250.59
-238.93
-219.72
-195.22
-167.84
-139.58
-111.73
-84.96
-59.65
-36.36
-15.93
0.62
12.56
19.8
23
23.39
22.29
20.66
18.84
16.51
12.93
7.23
-1.28
-12.89
-27.47
-44.48
-63.16
-82.6
-101.78
-119.51
-134.55
-145.7
-152.06
-153.3
-149.69
-142
-131.26
-118.47
-104.44
-89.8
-75.16
-61.14
-48.31
-37.05
-27.37
-18.84
-10.77
-2.49
6.44
16.05
26
35.74
44.68
52.39
58.76
63.98
68.49
72.85
77.48
82.59
88.11
93.73
99.09
103.89
107.89
110.89
112.58
112.59
110.44
105.82
98.67
89.28
78.19
66.1
53.69
41.52
30.09
19.82
11.06
4.12
-0.93
-4.23
-6.14
-7.19
-7.87
-8.55
-9.38
-10.31
-11.22
-11.96
-12.46
-12.73
-12.78
-12.63
-12.23
-11.49
-10.36
-8.86
-7.2
-5.72
-4.95
-5.44
-7.6
-11.54
-16.97
-23.21
-29.31
-34.25
-37.18
-37.58
-35.32
-30.66
-24.15
-16.48
-8.32
-0.26
7.24
13.86
19.31
23.36
25.81
26.65
26.02
24.3
22
19.56
17.29
15.28
13.46
11.73
10.02
8.43
7.14
6.35
6.17
6.5
7.02
7.26
6.79
5.37
3.12
0.45
-2.1
-4.12
-5.54
-6.72
-8.3
-10.98
-15.11
-20.52
-26.56
-32.27
-36.79
-39.61
-40.77
-40.77
-40.37
-40.33
-41.11
-42.71
-44.63
-45.89
-45.36
-42.07
-35.67
-26.55
-15.8
-4.86
4.99
12.93
18.71
22.55
24.79
25.82
25.9
25.27
24.19
22.88
21.51
20.16
18.74
17.12
15.2
13
10.7
8.58
6.92
5.86
5.32
4.99
4.46
3.37
1.59
-0.79
-3.51
-6.3
-8.98
-11.54
-14
-16.4
-18.63
-20.51
-21.85
-22.58
-22.73
-22.47
-21.99
-21.45
-20.87
-20.17
-19.24
-17.99
-16.54
-15.14
-14.2
-14.17
-15.48
-18.38
-22.84
-28.55
-34.85
-40.85
-45.56
-48.09
-47.85
-44.65
-38.71
-30.61
-21.09
-11.01
-1.19
7.71
15.15
20.9
24.96
27.56
29.09
29.94
30.45
30.91
31.53
32.5
33.96
36
38.6
41.69
45.13
48.77
52.47
56.07
59.36
62.14
64.21
65.46
65.95
65.88
65.49
64.91
64.1
62.74
60.29
56.18
49.92
41.32
30.57
18.24
5.17
-7.73
-19.67
-30.12
-38.93
-46.35
-52.97
-59.6
-67.14
-76.39
-87.85
-101.53
-116.78
-132.28
-146.27
-156.89
-162.62
-162.68
-157.21
-147.27
-134.5
-120.77
-107.72
-96.53
-87.9
-82.14
-79.4
-79.81
-83.35
-89.74
-98.14
-107.13
-114.98
-120.05
-121.35
-118.8
-113.25
-106.05
-98.53
-91.47
-84.71
-77.25
-67.57
-54.17
-36.09
-13.23
13.8
43.89
75.86
108.63
141.28
172.92
202.67
229.79
253.82
274.77
292.98
308.81
322.26
332.79
339.42
341.07
336.92
326.77
311.04
290.74
267.21
241.84
215.85
190.17
165.5
142.4
121.39
102.79
86.52
71.9
57.65
42.28
24.63
4.47
-17.34
-39.1
-58.85
-75.1
-87.27
-95.6
-100.91
-104.08
-105.76
-106.3
-105.88
-104.73
-103.19
-101.65
-100.44
-99.68
-99.29
-99.19
-99.44
-100.36
-102.51
-106.48
-112.64
-120.98
-131.09
-142.27
-153.78
-165.04
-175.75
-185.78
-194.95
-202.87
-208.87
-212.14
-211.99
-208.11
-200.74
-190.53
-178.29
-164.78
-150.41
-135.28
-119.17
-101.73
-82.57
-61.39
-38.13
-13.17
12.57
37.62
60.16
78.46
91.3
98.31
100.02
97.53
92.17
85.02
76.84
68.06
59.06
50.36
42.81
37.36
34.91
35.9
40.22
47.16
55.68
64.67
73.2
80.62
86.48
90.41
92.1
91.34
88.26
83.37
77.58
71.85
66.93
63.15
60.4
58.4
56.83
55.55
54.49
53.57
52.59
51.26
49.3
46.59
43.24
39.54
35.79
32.19
28.72
25.26
21.58
17.55
13.17
8.55
3.89
-0.68
-5.17
-9.77
-14.8
-20.66
-27.65
-35.93
-45.38
-55.46
-65.18
-73.19
-78.01
-78.43
-73.83
-64.4
-50.99
-34.94
-17.72
-0.75
14.71
27.62
37.21
43.07
45.16
43.75
39.32
32.35
23.29
12.59
0.88
-11.04
-22.14
-31.35
-37.77
-40.84
-40.38
-36.65
-30.24
-22.03
-13.09
-4.47
2.9
8.37
11.69
13
12.7
11.32
9.31
6.84
3.8
-0.18
-5.54
-12.52
-20.98
-30.31
-39.58
-47.77
-54.05
-58
-59.69
-59.59
-58.37
-56.77
-55.46
-54.92
-55.36
-56.65
-58.19
-59.02
-57.97
-54
-46.52
-35.59
-21.9
-6.5
9.45
24.98
39.38
52.18
63.03
71.62
77.75
81.35
82.61
81.95
79.99
77.37
74.62
72.05
69.68
67.27
64.35
60.41
55.12
48.45
40.78
32.75
25.08
18.31
12.68
8.15
4.5
1.47
-1.21
-3.75
-6.42
-9.44
-12.97
-17.02
-21.39
-25.76
-29.78
-33.16
-35.74
-37.49
-38.52
-39.05
-39.43
-40.1
-41.56
-44.22
-48.29
-53.62
-59.61
-65.27
-69.36
-70.64
-68.19
-61.64
-51.3
-38.07
-23.2
-8.03
6.32
19.1
29.97
38.87
45.86
51.02
54.37
55.95
55.94
54.65
52.55
50.14
47.82
45.8
44.12
42.71
41.47
40.36
39.39
38.54
37.74
36.82
35.58
33.87
31.66
29.11
26.5
24.12
22.2
20.76
19.61
18.33
16.35
13.07
8
0.96
-7.82
-17.68
-27.68
-36.86
-44.42
-50.01
-53.74
-56.14
-57.98
-60
-62.7
-66.1
-69.69
-72.49
-73.35
-71.27
-65.72
-56.77
-45.11
-31.75
-17.83
-4.35
7.89
18.34
26.68
32.78
36.69
38.66
39.08
38.46
37.28
35.94
34.68
33.56
32.49
31.37
30.13
28.83
27.7
27.01
27.03
27.8
29.05
30.26
30.79
30.08
27.92
24.47
20.23
15.77
11.5
7.51
3.54
-0.81
-5.91
-11.86
-18.5
-25.47
-32.38
-38.93
-44.95
-50.37
-55.15
-59.25
-62.61
-65.18
-66.85
-67.45
-66.66
-64.13
-59.55
-52.84
-44.28
-34.44
-24.04
-13.76
-4.05
4.85
12.84
19.83
25.7
30.24
33.3
34.86
35.12
34.45
33.37
32.36
31.74
31.6
31.78
32.01
32.05
31.8
31.27
30.56
29.7
28.62
27.18
25.16
22.46
19.09
15.2
11
6.73
2.6
-1.27
-4.84
-8.22
-11.58
-15.18
-19.28
-24.08
-29.67
-35.94
-42.59
-49.06
-54.62
-58.43
-59.73
-58.03
-53.2
-45.58
-35.87
-24.99
-13.89
-3.38
5.96
13.8
20.02
24.6
27.57
28.99
29.05
28.07
26.52
24.9
23.65
23.03
23.07
23.61
24.4
25.17
25.69
25.81
25.43
24.53
23.18
21.48
19.57
17.53
15.37
12.94
10.1
6.69
2.68
-1.89
-6.84
-11.99
-17.17
-22.26
-27.2
-32
-36.74
-41.54
-46.49
-51.48
-56.15
-59.85
-61.73
-60.98
-57.1
-50.12
-40.57
-29.42
-17.77
-6.61
3.34
11.68
18.29
23.2
26.58
28.63
29.57
29.71
29.37
28.88
28.51
28.38
28.45
28.51
28.36
27.83
26.98
26.02
25.23
24.84
24.89
25.21
25.5
25.46
24.89
23.7
21.84
19.24
15.81
11.52
6.53
1.24
-3.84
-8.24
-11.78
-14.63
-17.26
-20.28
-24.17
-29.24
-35.48
-42.57
-49.81
-56.21
-60.55
-61.67
-58.79
-51.77
-41.24
-28.44
-14.86
-1.83
9.74
19.44
27.29
33.43
38.04
41.22
43.04
43.66
43.33
42.44
41.36
40.39
39.64
39.02
38.39
37.61
36.69
35.71
34.85
34.19
33.64
32.97
31.87
30.13
27.75
24.94
21.99
19.12
16.37
13.59
10.54
7.08
3.19
-1.01
-5.38
-9.84
-14.35
-18.96
-23.65
-28.35
-32.94
-37.37
-41.71
-46.14
-50.94
-56.37
-62.59
-69.57
-77.04
-84.44
-90.91
-95.36
-96.62
-93.78
-86.46
-74.97
-60.32
-43.97
-27.5
-12.28
0.77
11.22
19.1
24.7
28.43
30.73
32.01
32.63
32.95
33.26
33.82
34.72
35.94
37.34
38.72
39.93
40.86
41.51
41.88
42
41.89
41.58
41.11
40.51
39.77
38.82
37.57
35.95
33.97
31.7
29.29
26.85
24.43
22.05
19.64
17.18
14.64
12.01
9.32
6.57
3.7
0.62
-2.85
-6.81
-11.29
-16.11
-20.92
-25.33
-29.06
-32.09
-34.62
-37.05
-39.74
-42.95
-46.82
-51.33
-56.32
-61.38
-65.82
-68.64
-68.8
-65.52
-58.64
-48.71
-36.79
-24.17
-11.89
-0.59
9.49
18.3
25.75
31.65
35.76
37.99
38.55
37.94
36.78
35.7
35.06
34.97
35.33
35.95
36.65
37.35
37.98
38.53
38.97
39.24
39.29
39.02
38.32
37.16
35.52
33.49
31.22
28.84
26.41
23.94
21.33
18.5
15.39
12.05
8.61
5.27
2.22
-0.43
-2.72
-4.8
-6.96
-9.47
-12.55
-16.2
-20.25
-24.37
-28.21
-31.49
-34.14
-36.31
-38.4
-40.88
-44.23
-48.73
-54.31
-60.52
-66.47
-71.05
-73.14
-71.87
-66.94
-58.65
-47.87
-35.7
-23.22
-11.2
-0.1
9.84
18.42
25.39
30.51
33.68
35.05
35.07
34.35
33.54
33.1
33.27
34.06
35.34
36.87
38.45
39.88
41.02
41.79
42.13
42.06
41.58
40.75
39.68
38.46
37.18
35.81
34.2
32.13
29.34
25.72
21.28
16.23
10.82
5.22
-0.59
-6.78
-13.53
-20.85
-28.42
-35.62
-41.72
-46.16
-48.76
-49.84
-50.15
-50.58
-51.92
-54.65
-58.74
-63.67
-68.45
-71.74
-72.2
-68.79
-61.09
-49.56
-35.31
-19.9
-4.79
8.94
20.75
30.55
38.41
44.39
48.41
50.33
50.08
47.79
43.93
39.17
34.35
30.2
27.26
25.73
25.45
26.02
26.98
27.91
28.59
28.92
28.88
28.47
27.72
26.69
25.44
24.11
22.74
21.29
19.57
17.3
14.24
10.29
5.6
0.56
-4.25
-8.26
-11.16
-12.97
-14.1
-15.14
-16.61
-18.76
-21.57
-24.82
-28.42
-32.5
-37.4
-43.49
-50.9
-59.35
-68.16
-76.37
-83
-87.17
-88.26
-85.88
-79.92
-70.54
-58.23
-43.82
-28.35
-12.9
1.66
14.8
26.33
36.25
44.51
50.92
55.19
57.09
56.69
54.46
51.15
47.62
44.48
42.07
40.41
39.31
38.56
38
37.52
37.07
36.58
36.01
35.34
34.54
33.65
32.66
31.54
30.22
28.66
26.81
24.72
22.48
20.2
17.97
15.86
13.93
12.26
10.95
10.03
9.44
8.98
8.37
7.31
5.67
3.46
0.86
-1.94
-4.82
-7.79
-10.98
-14.53
-18.5
-22.79
-27.16
-31.3
-34.95
-37.99
-40.52
-42.84
-45.4
-48.69
-53.14
-58.93
-65.94
-73.62
-81
-86.82
-89.7
-88.53
-82.71
-72.43
-58.64
-42.76
-26.4
-10.86
3.04
14.96
24.96
33.15
39.63
44.38
47.39
48.83
49.06
48.67
48.25
48.22
48.73
49.64
50.66
51.53
52.12
52.36
52.25
51.66
50.37
48.11
44.71
40.25
35.09
29.78
24.88
20.8
17.71
15.52
14.01
12.95
12.16
11.53
11.03
10.64
10.33
10.1
9.91
9.71
9.44
8.96
8.17
6.98
5.36
3.32
0.93
-1.82
-4.92
-8.38
-12.2
-16.33
-20.67
-25.07
-29.38
-33.45
-37.23
-40.7
-43.97
-47.26
-50.89
-55.28
-60.79
-67.61
-75.45
-83.53
-90.5
-94.8
-95.06
-90.58
-81.51
-68.84
-54.04
-38.64
-23.85
-10.42
1.29
11.15
19.11
25.12
29.17
31.4
32.17
32.05
31.67
31.54
31.89
32.59
33.34
33.81
33.91
33.78
33.72
34
34.7
35.64
36.47
36.87
36.61
35.73
34.38
32.8
31.16
29.52
27.85
26.08
24.13
22.01
19.74
17.34
14.89
12.43
10.04
7.72
5.46
3.1
0.42
-2.77
-6.57
-10.87
-15.39
-19.84
-24
-27.86
-31.64
-35.7
-40.46
-46.24
-53.16
-60.94
-68.91
-75.98
-80.88
-82.44
-79.9
-73.16
-62.78
-49.81
-35.56
-21.26
-7.85
4.09
14.34
22.84
29.6
34.58
37.72
39.09
38.98
37.95
36.73
36.03
36.32
37.68
39.84
42.32
44.63
46.42
47.59
48.16
48.29
48.08
47.57
46.72
45.48
43.82
41.76
39.4
36.84
34.17
31.42
28.6
25.71
22.72
19.61
16.39
13.07
9.7
6.35
3.09
-0.11
-3.37
-6.94
-11.1
-16.04
-21.74
-27.96
-34.3
-40.28
-45.5
-49.8
-53.26
-56.22
-59.18
-62.75
-67.45
-73.55
-80.84
-88.51
-95.21
-99.29
-99.23
-94.1
-83.86
-69.34
-52.07
-33.78
-16.05
0
13.76
25.04
33.92
40.6
45.32
48.35
50.03
50.75
50.92
50.92
50.99
51.21
51.52
51.77
51.85
51.73
51.45
51.1
50.72
50.27
49.63
48.62
47.08
44.98
42.43
39.66
36.9
34.33
31.89
29.41
26.67
23.58
20.2
16.79
13.62
10.87
8.58
6.69
5.11
3.81
2.78
1.94
1.12
0.03
-1.62
-3.99
-6.93
-10.12
-13.13
-15.67
-17.78
-19.74
-21.99
-24.85
-28.39
-32.37
-36.42
-40.26
-43.76
-47.09
-50.55
-54.52
-59.34
-65.23
-72.13
-79.61
-86.69
-91.92
-93.67
-90.59
-82.1
-68.66
-51.63
-32.92
-14.42
2.46
16.96
28.88
38.37
45.67
51.01
54.58
56.59
57.38
57.34
56.9
56.42
56.1
55.92
55.77
55.52
55.08
54.48
53.81
53.09
52.19
50.86
48.76
45.66
41.56
36.73
31.62
26.77
22.61
19.38
17.03
15.3
13.83
12.28
10.45
8.38
6.26
4.36
2.89
1.87
1.13
0.37
-0.71
-2.28
-4.33
-6.66
-9.01
-11.14
-12.97
-14.65
-16.46
-18.77
-21.83
-25.65
-29.96
-34.31
-38.28
-41.6
-44.35
-46.91
-49.89
-54
-59.81
-67.62
-77.22
-87.76
-97.71
-105.1
-107.94
-104.91
-95.73
-81.4
-63.82
-45.2
-27.41
-11.51
2.18
13.82
23.67
31.8
38.11
42.53
45.18
46.48
47
47.29
47.68
48.26
48.95
49.62
50.2
50.67
51.04
51.25
51.14
50.51
49.19
47.15
44.55
41.72
38.98
36.58
34.58
32.84
31.1
29.13
26.82
24.22
21.5
18.87
16.47
14.32
12.42
10.7
9.07
7.47
5.78
3.86
1.55
-1.24
-4.5
-8.13
-11.95
-15.78
-19.49
-23.01
-26.4
-29.84
-33.61
-38.12
-43.81
-51.06
-60.05
-70.55
-81.74
-92.22
-100.21
-103.99
-102.38
-95.16
-83.08
-67.65
-50.62
-33.53
-17.46
-3.06
9.33
19.48
27.23
32.6
35.87
37.59
38.41
38.94
39.5
40.2
40.96
41.69
42.35
42.97
43.64
44.34
44.97
45.37
45.35
44.78
43.65
42.06
40.13
37.99
35.71
33.33
30.88
28.37
25.87
23.45
21.15
18.96
16.83
14.64
12.31
9.78
7.08
4.27
1.46
-1.26
-3.8
-6.17
-8.43
-10.81
-13.55
-16.88
-20.82
-25.12
-29.38
-33.13
-36.11
-38.43
-40.59
-43.3
-47.28
-52.97
-60.34
-68.83
-77.35
-84.43
-88.49
-88.16
-82.67
-72.15
-57.59
-40.63
-23.13
-6.7
7.63
19.41
28.66
35.62
40.56
43.74
45.39
45.82
45.38
44.49
43.53
42.76
42.31
42.19
42.33
42.62
42.98
43.32
43.54
43.47
42.89
41.62
39.56
36.82
33.72
30.68
28.15
26.35
25.24
24.52
23.76
22.57
20.79
18.53
16.07
13.77
11.86
10.38
9.11
7.73
5.87
3.31
0
-3.84
-7.88
-11.71
-15
-17.65
-19.76
-21.62
-23.55
-25.75
-28.25
-30.91
-33.52
-35.95
-38.25
-40.64
-43.49
-47.17
-51.98
-58.05
-65.21
-72.82
-79.79
-84.64
-85.9
-82.55
-74.39
-62.17
-47.34
-31.65
-16.6
-3.17
8.22
17.55
24.94
30.47
34.27
36.53
37.61
38
38.24
38.72
39.61
40.86
42.26
43.62
44.77
45.66
46.23
46.41
46.12
45.24
43.74
41.69
39.28
36.77
34.32
32.01
29.79
27.57
25.26
22.82
20.26
17.58
14.81
11.94
9
6.01
3.07
0.22
-2.53
-5.28
-8.18
-11.36
-14.78
-18.31
-21.8
-25.21
-28.73
-32.67
-37.34
-42.86
-49.14
-55.88
-62.79
-69.6
-76.03
-81.69
-85.87
-87.69
-86.22
-80.91
-71.79
-59.55
-45.36
-30.51
-16.11
-2.88
8.85
19.04
27.73
34.91
40.48
44.37
46.61
47.42
47.24
46.61
46.02
45.79
46.01
46.52
47.04
47.32
47.2
46.68
45.85
44.78
43.51
41.98
40.11
37.9
35.43
32.85
30.3
27.85
25.4
22.83
20
16.94
13.76
10.68
7.89
5.52
3.59
2.03
0.71
-0.55
-1.96
-3.67
-5.74
-8.1
-10.59
-13.06
-15.47
-17.9
-20.52
-23.51
-26.88
-30.46
-33.94
-37
-39.48
-41.39
-42.96
-44.52
-46.54
-49.47
-53.78
-59.71
-67.08
-75.12
-82.36
-87.01
-87.34
-82.36
-72.15
-57.9
-41.51
-25
-9.91
2.98
13.58
22.26
29.42
35.27
39.82
43
44.88
45.73
46.03
46.21
46.56
47.09
47.64
48.07
48.36
48.72
49.33
50.25
51.23
51.84
51.6
50.25
47.84
44.72
41.35
38.1
35.17
32.54
30.12
27.77
25.46
23.18
20.96
18.78
16.63
14.46
12.23
9.87
7.3
4.4
1.07
-2.73
-6.89
-11.2
-15.36
-19.11
-22.32
-25.07
-27.59
-30.16
-33.02
-36.2
-39.58
-42.83
-45.54
-47.32
-47.97
-47.63
-46.82
-46.34
-47.11
-49.9
-55.05
-62.32
-70.78
-78.93
-84.97
-87.2
-84.53
-76.81
-64.8
-50.05
-34.33
-19.2
-5.71
5.77
15.24
22.94
29.01
33.48
36.32
37.58
37.52
36.62
35.52
34.75
34.59
35.02
35.75
36.41
36.7
36.45
35.68
34.46
32.89
31.03
28.96
26.8
24.7
22.82
21.25
20.04
19.12
18.36
17.56
16.53
15.15
13.41
11.43
9.39
7.49
5.83
4.42
3.17
1.94
0.58
-1
-2.82
-4.83
-6.95
-9.05
-11.06
-12.99
-14.92
-17.13
-19.94
-23.74
-28.85
-35.33
-42.84
-50.52
-57.09
-61.06
-61.16
-56.77
-48.13
-36.28
-22.76
-9.14
3.39
14.12
22.86
29.65
34.58
37.73
39.14
38.96
37.44
34.98
31.96
28.71
25.42
22.2
19.13
16.35
14.1
12.6
12.04
12.4
13.51
15.05
16.64
17.94
18.7
18.82
18.31
17.37
16.2
14.99
13.82
12.57
11.04
9.03
6.45
3.39
0.1
-3.13
-6.06
-8.58
-10.75
-12.75
-14.87
-17.4
-20.5
-24.15
-28.03
-31.64
-34.48
-36.3
-37.26
-37.95
-39.12
-41.52
-45.55
-51.31
-58.4
-66.01
-72.93
-77.66
-78.73
-75.14
-66.69
-54.13
-39.01
-23.14
-8.13
5.02
15.95
24.77
31.78
37.25
41.32
44.12
45.83
46.71
47.15
47.49
47.98
48.63
49.25
49.55
49.33
48.6
47.59
46.61
45.89
45.42
44.98
44.27
43.07
41.43
39.56
37.74
36.17
34.83
33.58
32.21
30.64
28.92
27.18
25.58
24.2
23.04
22.03
21.03
19.93
18.61
17.03
15.2
13.24
11.31
9.49
7.77
5.95
3.72
0.84
-2.81
-7.01
-11.4
-15.5
-19.02
-21.97
-24.63
-27.45
-30.84
-34.98
-39.72
-44.7
-49.46
-53.66
-57.21
-60.24
-63.1
-66.25
-70.16
-75.17
-81.34
-88.2
-94.66
-99.14
-99.93
-95.78
-86.36
-72.45
-55.67
-37.96
-21.04
-6
6.68
16.95
24.92
30.78
34.73
37.1
38.36
39.04
39.57
40.21
40.98
41.74
42.31
42.58
42.49
42.15
41.72
41.4
41.35
41.58
41.96
42.19
41.98
41.12
39.63
37.73
35.75
33.97
32.45
31.03
29.41
27.31
24.66
21.63
18.57
15.82
13.55
11.65
9.82
7.67
4.91
1.54
-2.2
-5.9
-9.19
-11.88
-14.04
-15.84
-17.48
-19.05
-20.56
-21.99
-23.39
-24.91
-26.78
-29.24
-32.48
-36.65
-41.86
-48.1
-55.11
-62.2
-68.27
-71.94
-72.01
-67.82
-59.56
-48.19
-35.1
-21.71
-9.1
2.08
11.53
19.17
24.95
28.87
31.04
31.71
31.34
30.52
29.78
29.51
29.9
30.89
32.28
33.78
35.15
36.25
37.04
37.56
37.86
37.93
37.67
36.88
35.44
33.3
30.62
27.69
24.82
22.24
20.04
18.16
16.51
14.95
13.39
11.69
9.72
7.37
4.62
1.53
-1.71
-4.9
-7.95
-10.88
-13.84
-17.02
-20.52
-24.32
-28.26
-32.17
-35.89
-39.41
-42.87
-46.56
-50.81
-55.96
-62.2
-69.47
-77.3
-84.73
-90.47
-93.08
-91.39
-84.89
-73.96
-59.81
-44.13
-28.57
-14.37
-2.12
8.08
16.43
23.13
28.28
31.94
34.21
35.45
36.16
36.86
37.96
39.54
41.41
43.24
44.75
45.82
46.53
47.08
47.63
48.18
48.6
48.61
48.01
46.73
44.86
42.65
40.36
38.21
36.32
34.69
33.26
32
30.89
29.97
29.25
28.68
28.1
27.27
25.97
24.09
21.67
18.88
15.97
13.11
10.4
7.81
5.25
2.65
-0.04
-2.78
-5.46
-7.98
-10.28
-12.47
-14.84
-17.85
-21.91
-27.25
-33.67
-40.59
-47.17
-52.6
-56.41
-58.57
-59.54
-60.09
-61.11
-63.4
-67.47
-73.35
-80.41
-87.38
-92.48
-93.91
-90.42
-81.72
-68.63
-52.75
-35.92
-19.67
-4.96
7.8
18.55
27.36
34.31
39.54
43.31
45.98
47.93
49.46
50.74
51.81
52.61
53.09
53.23
53.07
52.74
52.38
52.12
51.94
51.69
51.09
49.92
48.11
45.76
43.11
40.43
37.88
35.46
33.08
30.6
27.93
25.07
22.11
19.17
16.34
13.7
11.28
9.08
7.09
5.31
3.74
2.33
1
-0.37
-1.88
-3.58
-5.48
-7.5
-9.58
-11.69
-13.8
-15.86
-17.85
-19.76
-21.66
-23.66
-25.86
-28.27
-30.77
-33.15
-35.23
-37.07
-39.02
-41.7
-45.73
-51.52
-58.87
-66.93
-74.24
-79.05
-79.84
-75.79
-67.03
-54.62
-40.18
-25.4
-11.62
0.42
10.55
18.85
25.47
30.44
33.67
35.18
35.16
34.09
32.57
31.23
30.57
30.88
32.25
34.58
37.69
41.27
44.96
48.31
50.82
52.09
51.91
50.34
47.71
44.49
41.11
37.87
34.79
31.71
28.45
24.93
21.25
17.62
14.28
11.29
8.54
5.81
2.83
-0.53
-4.27
-8.24
-12.26
-16.15
-19.8
-23.16
-26.25
-29.12
-31.89
-34.67
-37.54
-40.51
-43.57
-46.7
-49.97
-53.55
-57.71
-62.7
-68.65
-75.25
-81.73
-86.81
-89.06
-87.26
-80.87
-70.25
-56.56
-41.44
-26.4
-12.54
-0.34
10.12
18.98
26.28
31.99
36.08
38.64
39.97
40.54
40.8
41.11
41.61
42.29
43.03
43.74
44.37
44.94
45.5
46.01
46.42
46.58
46.3
45.46
44.03
42.12
39.94
37.76
35.79
34.07
32.53
30.97
29.19
27.09
24.74
22.3
19.96
17.84
15.92
14.09
12.25
10.36
8.49
6.74
5.2
3.8
2.35
0.58
-1.66
-4.4
-7.4
-10.42
-13.24
-15.86
-18.49
-21.41
-24.88
-28.91
-33.31
-37.69
-41.67
-45.08
-47.98
-50.71
-53.77
-57.7
-62.91
-69.53
-77.22
-85.07
-91.65
-95.25
-94.38
-88.28
-77.24
-62.55
-46.09
-29.71
-14.71
-1.71
9.29
18.48
26.05
32.03
36.41
39.31
41.05
42.07
42.78
43.48
44.26
45.05
45.77
46.4
46.98
47.6
48.27
48.92
49.36
49.36
48.76
47.51
45.72
43.59
41.32
39.1
36.98
34.93
32.88
30.74
28.49
26.13
23.75
21.42
19.16
16.98
14.87
12.83
10.89
9.07
7.38
5.72
3.96
1.96
-0.34
-2.9
-5.55
-8.1
-10.42
-12.51
-14.53
-16.75
-19.39
-22.57
-26.19
-29.98
-33.62
-36.82
-39.47
-41.7
-43.86
-46.47
-50.01
-54.84
-60.94
-67.82
-74.45
-79.44
-81.36
-79.15
-72.5
-61.94
-48.68
-34.22
-19.96
-6.85
4.59
14.22
22.03
28.03
32.28
34.89
36.12
36.35
36.01
35.52
35.17
35.09
35.27
35.56
35.81
35.94
36
36.12
36.38
36.75
37.02
36.86
36.03
34.39
32.08
29.32
26.39
23.51
20.81
18.31
16.02
13.9
11.81
9.58
7.05
4.16
1.04
-2.1
-5
-7.57
-9.88
-12.2
-14.85
-18.07
-21.9
-26.17
-30.53
-34.65
-38.31
-41.48
-44.37
-47.33
-50.84
-55.29
-60.92
-67.56
-74.49
-80.51
-84.11
-83.9
-79.09
-69.79
-56.95
-42.11
-26.85
-12.44
0.37
11.3
20.31
27.48
32.88
36.65
39.01
40.28
40.87
41.14
41.33
41.59
41.93
42.31
42.73
43.21
43.8
44.51
45.26
45.89
46.17
45.92
45.07
43.68
41.91
39.93
37.87
35.78
33.68
31.51
29.24
26.82
24.23
21.5
18.68
15.93
13.43
11.3
9.51
7.84
5.96
3.57
0.57
-2.89
-6.43
-9.74
-12.7
-15.48
-18.45
-21.95
-26.08
-30.63
-35.21
-39.43
-43.08
-46.26
-49.31
-52.63
-56.69
-61.84
-68.26
-75.78
-83.67
-90.62
-94.92
-94.93
-89.68
-79.24
-64.78
-48.14
-31.23
-15.53
-1.77
9.85
19.46
27.2
33.15
37.41
40.17
41.85
42.9
43.77
44.7
45.68
46.56
47.18
47.49
47.58
47.67
47.98
48.59
49.4
50.14
50.49
50.18
49.1
47.28
44.94
42.33
39.69
37.19
34.86
32.63
30.38
27.98
25.4
22.68
19.92
17.24
14.69
12.26
9.86
7.33
4.53
1.42
-1.92
-5.26
-8.32
-10.91
-13.05
-15.01
-17.22
-20.06
-23.72
-28.04
-32.58
-36.85
-40.47
-43.39
-45.86
-48.4
-51.57
-55.89
-61.62
-68.62
-76.23
-83.2
-87.94
-88.83
-84.8
-75.7
-62.4
-46.53
-29.94
-14.19
-0.2
11.65
21.37
29.04
34.76
38.64
40.92
41.97
42.31
42.38
42.49
42.77
43.16
43.59
43.95
44.22
44.42
44.59
44.77
44.91
44.92
44.64
43.88
42.55
40.61
38.18
35.45
32.61
29.78
27
24.24
21.45
18.65
15.87
13.18
10.59
8.04
5.4
2.6
-0.36
-3.33
-6.08
-8.44
-10.39
-12.14
-14.05
-16.45
-19.48
-23.04
-26.8
-30.42
-33.61
-36.33
-38.71
-41.07
-43.81
-47.36
-52.06
-57.92
-64.43
-70.49
-74.54
-75.02
-70.91
-62.15
-49.71
-35.24
-20.53
-6.96
4.71
14.3
21.92
27.74
31.85
34.35
35.4
35.33
34.59
33.61
32.74
32.18
31.98
32.12
32.54
33.21
34.07
35.02
35.93
36.54
36.62
35.95
34.49
32.34
29.75
27.03
24.36
21.76
19.11
16.18
12.83
9.09
5.16
1.33
-2.16
-5.27
-8.15
-11.07
-14.28
-17.88
-21.75
-25.65
-29.28
-32.52
-35.42
-38.23
-41.37
-45.23
-50.12
-56.13
-63.02
-70.08
-76.19
-79.91
-79.9
-75.31
-66.13
-53.26
-38.24
-22.79
-8.36
4.21
14.65
23.06
29.67
34.68
38.22
40.41
41.46
41.68
41.44
41.07
40.85
40.89
41.13
41.45
41.67
41.7
41.55
41.29
41.02
40.71
40.26
39.43
38.03
35.97
33.32
30.34
27.33
24.59
22.18
20
17.79
15.24
12.18
8.63
4.85
1.21
-1.98
-4.62
-6.85
-9.03
-11.6
-14.81
-18.7
-23.02
-27.37
-31.39
-34.88
-37.89
-40.68
-43.61
-47.1
-51.5
-57.05
-63.76
-71.14
-78.22
-83.53
-85.5
-82.93
-75.41
-63.56
-48.8
-32.94
-17.61
-3.92
7.7
17.26
25
31.11
35.68
38.74
40.41
41
40.93
40.66
40.51
40.59
40.85
41.16
41.47
41.86
42.5
43.5
44.82
46.15
47.05
47.08
46.03
43.97
41.24
38.31
35.54
33.08
30.84
28.59
26.14
23.47
20.7
18.04
15.65
13.48
11.37
9.1
6.52
3.64
0.59
-2.44
-5.3
-7.97
-10.49
-13
-15.67
-18.64
-22.01
-25.78
-29.79
-33.81
-37.6
-40.99
-44.01
-46.86
-49.92
-53.6
-58.31
-64.23
-71.15
-78.29
-84.29
-87.47
-86.28
-79.93
-68.68
-53.84
-37.28
-20.89
-5.98
6.84
17.48
26.08
32.75
37.49
40.38
41.67
41.84
41.52
41.23
41.24
41.56
41.96
42.23
42.29
42.22
42.21
42.42
42.85
43.28
43.4
42.89
41.6
39.58
37.06
34.33
31.66
29.17
26.89
24.75
22.66
20.55
18.4
16.2
14
11.81
9.62
7.41
5.11
2.68
0.14
-2.42
-4.91
-7.28
-9.59
-12
-14.71
-17.87
-21.45
-25.27
-29.02
-32.4
-35.26
-37.65
-39.87
-42.34
-45.52
-49.8
-55.28
-61.71
-68.28
-73.79
-76.77
-76
-70.81
-61.43
-48.89
-34.71
-20.43
-7.21
4.28
13.79
21.3
26.81
30.34
32
32.1
31.14
29.74
28.47
27.68
27.51
27.84
28.51
29.31
30.13
30.89
31.55
32.02
32.2
31.94
31.17
29.86
28.08
25.92
23.46
20.78
17.9
14.89
11.85
8.87
6
3.18
0.26
-2.93
-6.48
-10.32
-14.21
-17.89
-21.17
-24.08
-26.82
-29.73
-33.09
-37.11
-41.9
-47.48
-53.71
-60.14
-65.91
-69.83
-70.61
-67.31
-59.78
-48.66
-35.31
-21.29
-7.89
4.1
14.36
22.88
29.68
34.7
37.9
39.36
39.38
38.48
37.25
36.17
35.53
35.38
35.58
35.93
36.28
36.58
36.88
37.22
37.55
37.66
37.25
36.06
34.02
31.3
28.25
25.26
22.55
20.07
17.57
14.76
11.44
7.63
3.57
-0.45
-4.2
-7.6
-10.75
-13.88
-17.23
-20.92
-24.94
-29.06
-33
-36.46
-39.3
-41.63
-43.79
-46.33
-49.79
-54.56
-60.7
-67.77
-74.87
-80.64
-83.56
-82.3
-76.18
-65.41
-51.12
-34.99
-18.76
-3.8
9.19
20.01
28.74
35.51
40.36
43.39
44.83
45.14
44.9
44.62
44.58
44.79
45.11
45.36
45.45
45.4
45.32
45.3
45.37
45.44
45.4
45.11
44.44
43.3
41.74
39.82
37.69
35.51
33.38
31.32
29.28
27.13
24.8
22.28
19.64
17.06
14.68
12.59
10.74
8.96
6.98
4.59
1.68
-1.67
-5.26
-8.77
-11.98
-14.77
-17.29
-19.84
-22.75
-26.23
-30.25
-34.54
-38.72
-42.5
-45.79
-48.69
-51.54
-54.72
-58.62
-63.55
-69.56
-76.25
-82.63
-87.18
-88.29
-84.74
-76.25
-63.57
-48.27
-32.14
-16.68
-2.81
9.12
19.09
27.16
33.4
37.85
40.66
42.11
42.62
42.65
42.61
42.77
43.18
43.74
44.23
44.53
44.62
44.62
44.69
44.89
45.08
44.98
44.28
42.8
40.62
37.99
35.26
32.72
30.55
28.75
27.19
25.68
24.02
22.09
19.84
17.37
14.82
12.34
10.02
7.88
5.84
3.77
1.6
-0.73
-3.19
-5.74
-8.31
-10.83
-13.27
-15.63
-18.02
-20.59
-23.49
-26.74
-30.2
-33.58
-36.63
-39.21
-41.43
-43.57
-46.02
-49.12
-53.16
-58.27
-64.34
-70.85
-76.77
-80.63
-80.94
-76.64
-67.64
-54.87
-40.01
-24.88
-10.92
1.16
11.22
19.41
25.84
30.51
33.34
34.44
34.21
33.26
32.24
31.58
31.45
31.74
32.26
32.82
33.37
33.93
34.53
35.13
35.61
35.77
35.43
34.47
32.89
30.81
28.44
26.04
23.79
21.73
19.77
17.67
15.24
12.35
9.09
5.67
2.39
-0.53
-3.01
-5.15
-7.18
-9.38
-11.98
-15.06
-18.53
-22.17
-25.69
-28.85
-31.58
-34.02
-36.49
-39.45
-43.36
-48.51
-54.77
-61.5
-67.51
-71.3
-71.48
-67.24
-58.68
-46.79
-33.09
-19.14
-6.12
5.31
14.96
22.81
28.82
32.92
35.14
35.69
35.06
33.87
32.7
31.92
31.59
31.61
31.78
32.02
32.34
32.83
33.53
34.32
34.94
35.07
34.42
32.91
30.64
27.9
25.03
22.32
19.91
17.77
15.74
13.53
10.95
7.89
4.47
0.96
-2.29
-5.04
-7.27
-9.21
-11.25
-13.81
-17.13
-21.21
-25.76
-30.39
-34.7
-38.47
-41.73
-44.77
-48.07
-52.17
-57.47
-63.97
-71.09
-77.61
-81.9
-82.44
-78.29
-69.49
-57.04
-42.53
-27.59
-13.49
-0.92
9.88
18.89
26.1
31.5
35.18
37.38
38.51
39.07
39.48
39.99
40.68
41.49
42.3
43.05
43.72
44.36
45.02
45.7
46.28
46.57
46.35
45.49
43.98
41.98
39.73
37.47
35.33
33.33
31.35
29.24
26.87
24.22
21.37
18.54
15.92
13.62
11.57
9.53
7.19
4.34
1.02
-2.54
-5.96
-8.97
-11.52
-13.86
-16.41
-19.57
-23.51
-28.06
-32.87
-37.49
-41.6
-45.14
-48.3
-51.49
-55.17
-59.79
-65.55
-72.32
-79.43
-85.68
-89.54
-89.54
-84.77
-75.22
-61.85
-46.29
-30.28
-15.2
-1.83
9.61
19.23
27.14
33.38
37.97
41
42.73
43.62
44.16
44.73
45.57
46.68
47.9
49.05
49.96
50.58
50.94
51.13
51.16
50.95
50.33
49.12
47.21
44.67
41.76
38.82
36.17
33.94
32.06
30.28
28.34
26.09
23.52
20.79
18.12
15.68
13.52
11.57
9.67
7.64
5.31
2.62
-0.36
-3.5
-6.56
-9.35
-11.76
-13.87
-15.89
-18.12
-20.79
-23.98
-27.6
-31.37
-34.99
-38.25
-41.08
-43.68
-46.39
-49.64
-53.82
-59.09
-65.21
-71.46
-76.65
-79.35
-78.31
-72.85
-63.11
-50.08
-35.25
-20.17
-6.07
6.32
16.73
25.12
31.5
35.86
38.27
39
38.51
37.42
36.29
35.52
35.24
35.34
35.64
36
36.36
36.77
37.25
37.73
38.05
38.01
37.46
36.38
34.84
33.01
31.08
29.13
27.18
25.18
23.05
20.75
18.3
15.78
13.3
10.94
8.71
6.53
4.26
1.76
-0.98
-3.88
-6.78
-9.53
-12.07
-14.5
-17
-19.82
-23.12
-26.93
-31.14
-35.5
-39.74
-43.68
-47.28
-50.75
-54.43
-58.79
-64.26
-70.98
-78.62
-86.25
-92.44
-95.52
-94.12
-87.58
-76.2
-61.18
-44.23
-27.06
-11
3.17
15.2
25.11
33.01
39.06
43.45
46.43
48.33
49.51
50.27
50.79
51.14
51.31
51.24
50.95
50.54
50.22
50.16
50.47
51.03
51.57
51.75
51.31
50.14
48.35
46.19
43.89
41.63
39.44
37.31
35.17
32.93
30.55
28.01
25.41
22.88
20.61
18.69
17.13
15.78
14.45
13
11.33
9.47
7.52
5.57
3.68
1.82
-0.11
-2.23
-4.63
-7.36
-10.34
-13.46
-16.53
-19.44
-22.16
-24.81
-27.59
-30.73
-34.39
-38.58
-43.14
-47.75
-52.09
-55.9
-59.18
-62.15
-65.25
-69.04
-73.98
-80.23
-87.45
-94.61
-100.14
-102.25
-99.49
-91.26
-78.07
-61.39
-43.19
-25.36
-9.2
4.67
16.15
25.4
32.6
37.91
41.52
43.75
45.06
45.97
46.88
48.01
49.34
50.68
51.8
52.54
52.95
53.17
53.42
53.84
54.39
54.83
54.87
54.24
52.82
50.72
48.2
45.62
43.24
41.15
39.22
37.2
34.88
32.23
29.4
26.65
24.25
22.29
20.69
19.23
17.7
15.99
14.09
12.07
9.97
7.83
5.66
3.47
1.33
-0.77
-2.88
-5.1
-7.52
-10.14
-12.86
-15.55
-18.11
-20.64
-23.38
-26.64
-30.56
-35.04
-39.63
-43.71
-46.79
-48.68
-49.67
-50.4
-51.68
-54.25
-58.55
-64.6
-71.95
-79.58
-86
-89.53
-88.69
-82.69
-71.78
-57.22
-40.88
-24.67
-9.97
2.53
12.77
20.96
27.34
31.99
34.97
36.42
36.67
36.23
35.61
35.19
35.13
35.37
35.75
36.12
36.43
36.74
37.13
37.61
38.09
38.37
38.25
37.55
36.26
34.47
32.36
30.16
28.02
25.98
24.02
22.04
19.96
17.78
15.56
13.38
11.26
9.14
6.93
4.56
2.04
-0.5
-2.89
-5.06
-7.08
-9.19
-11.69
-14.74
-18.34
-22.25
-26.14
-29.7
-32.81
-35.54
-38.08
-40.78
-43.98
-48
-53.03
-58.99
-65.31
-70.91
-74.37
-74.28
-69.76
-60.78
-48.26
-33.74
-18.9
-5.06
7.02
17.14
25.32
31.62
35.99
38.39
38.97
38.2
36.75
35.3
34.29
33.85
33.81
33.95
34.1
34.25
34.49
34.86
35.28
35.57
35.52
35.02
34.05
32.69
31.03
29.1
26.93
24.54
22.02
19.48
17.01
14.68
12.44
10.21
7.88
5.35
2.64
-0.18
-3.01
-5.79
-8.49
-11.22
-14.09
-17.22
-20.67
-24.34
-28.04
-31.57
-34.78
-37.65
-40.35
-43.14
-46.37
-50.35
-55.36
-61.51
-68.54
-75.75
-81.91
-85.49
-85.08
-79.89
-70.05
-56.61
-41.21
-25.57
-11.03
1.65
12.21
20.73
27.44
32.53
36.19
38.63
40.05
40.69
40.82
40.68
40.52
40.5
40.65
40.95
41.3
41.63
41.94
42.25
42.54
42.67
42.44
41.64
40.22
38.31
36.16
34
31.98
30.04
28.02
25.76
23.2
20.43
17.63
14.99
12.6
10.42
8.32
6.12
3.71
1.07
-1.71
-4.49
-7.12
-9.58
-11.96
-14.49
-17.43
-20.91
-24.88
-29.08
-33.14
-36.75
-39.82
-42.52
-45.26
-48.5
-52.66
-57.98
-64.41
-71.48
-78.23
-83.26
-84.99
-82.21
-74.42
-62.19
-46.97
-30.62
-14.89
-0.93
10.79
20.33
27.99
34
38.48
41.5
43.16
43.71
43.49
42.83
41.97
41.04
40.1
39.2
38.48
38.12
38.25
38.89
39.86
40.83
41.43
41.36
40.48
38.87
36.74
34.37
32.01
29.83
27.84
25.95
24.02
21.96
19.72
17.33
14.88
12.43
10.06
7.76
5.48
3.17
0.77
-1.76
-4.36
-6.97
-9.53
-12.1
-14.81
-17.82
-21.22
-24.92
-28.66
-32.14
-35.18
-37.79
-40.23
-42.86
-46.11
-50.31
-55.61
-61.84
-68.35
-74.03
-77.43
-77.19
-72.5
-63.43
-50.96
-36.67
-22.2
-8.81
2.83
12.53
20.4
26.54
31
33.8
35.09
35.2
34.62
33.82
33.16
32.81
32.77
32.97
33.31
33.72
34.14
34.49
34.69
34.62
34.23
33.47
32.33
30.83
28.97
26.81
24.4
21.83
19.17
16.43
13.6
10.64
7.51
4.27
0.99
-2.3
-5.58
-8.92
-12.36
-15.9
-19.49
-23.05
-26.48
-29.78
-32.99
-36.21
-39.61
-43.38
-47.74
-52.89
-58.86
-65.25
-71.14
-75.19
-75.95
-72.39
-64.34
-52.53
-38.4
-23.59
-9.44
3.26
14.24
23.47
30.98
36.67
40.45
42.39
42.78
42.17
41.18
40.32
39.88
39.87
40.14
40.46
40.71
40.85
40.96
41.13
41.34
41.48
41.31
40.64
39.35
37.46
35.1
32.45
29.65
26.81
23.96
21.12
18.33
15.64
13.13
10.78
8.53
6.22
3.69
0.83
-2.35
-5.65
-8.86
-11.8
-14.49
-17.15
-20.09
-23.55
-27.56
-31.87
-36.13
-40.02
-43.47
-46.71
-50.19
-54.41
-59.73
-66.24
-73.57
-80.9
-86.92
-90.14
-89.21
-83.39
-72.84
-58.6
-42.36
-25.87
-10.56
2.74
13.78
22.69
29.68
34.97
38.73
41.19
42.63
43.42
43.89
44.28
44.68
45.05
45.3
45.42
45.47
45.59
45.89
46.33
46.76
46.9
46.44
45.22
43.26
40.77
38.09
35.55
33.33
31.47
29.82
28.18
26.34
24.21
21.84
19.37
16.98
14.83
12.97
11.35
9.8
8.09
6.05
3.59
0.77
-2.21
-5.14
-7.91
-10.53
-13.2
-16.15
-19.55
-23.39
-27.49
-31.57
-35.37
-38.77
-41.9
-45.06
-48.67
-53.13
-58.67
-65.24
-72.3
-78.82
-83.37
-84.51
-81.17
-73.11
-61.02
-46.32
-30.76
-15.85
-2.58
8.66
17.95
25.47
31.41
35.82
38.79
40.45
41.08
41.05
40.71
40.33
40
39.74
39.51
39.36
39.37
39.68
40.33
41.2
42.07
42.6
42.52
41.66
40.03
37.83
35.35
32.98
30.97
29.4
28.07
26.65
24.77
22.26
19.25
16.09
13.18
10.75
8.75
6.91
4.92
2.58
-0.07
-2.84
-5.53
-8.07
-10.52
-13.05
-15.84
-18.94
-22.32
-25.85
-29.35
-32.7
-35.85
-38.8
-41.6
-44.37
-47.31
-50.72
-54.96
-60.21
-66.27
-72.34
-77.08
-78.96
-76.78
-70.1
-59.46
-46.15
-31.78
-17.74
-4.93
6.24
15.66
23.27
28.98
32.73
34.56
34.82
34.06
32.91
31.95
31.51
31.63
32.15
32.82
33.42
33.89
34.28
34.66
35.06
35.34
35.28
34.63
33.27
31.24
28.78
26.14
23.54
21.04
18.57
15.99
13.15
10.05
6.74
3.4
0.15
-2.95
-5.98
-9.1
-12.43
-15.99
-19.66
-23.23
-26.49
-29.34
-31.9
-34.46
-37.42
-41.18
-45.94
-51.7
-58.15
-64.66
-70.3
-73.98
-74.57
-71.3
-63.96
-53.05
-39.68
-25.29
-11.32
1.13
11.43
19.46
25.38
29.5
32.17
33.67
34.29
34.31
34.04
33.76
33.69
33.96
34.54
35.34
36.24
37.18
38.13
39.07
39.91
40.47
40.49
39.79
38.35
36.33
34.03
31.71
29.53
27.45
25.34
23.05
20.56
17.97
15.46
13.16
11.04
8.95
6.72
4.21
1.45
-1.41
-4.17
-6.7
-9.04
-11.37
-13.93
-16.93
-20.43
-24.3
-28.3
-32.15
-35.68
-38.86
-41.84
-44.89
-48.36
-52.6
-57.83
-64.04
-70.8
-77.17
-81.77
-83.14
-80.14
-72.43
-60.59
-45.99
-30.37
-15.3
-1.87
9.45
18.64
25.94
31.59
35.75
38.58
40.24
40.99
41.18
41.14
41.16
41.33
41.61
41.87
41.95
41.82
41.59
41.4
41.39
41.56
41.75
41.75
41.32
40.35
38.84
36.93
34.81
32.66
30.59
28.64
26.74
24.82
22.78
20.63
18.44
16.3
14.28
12.39
10.63
8.97
7.35
5.74
4.06
2.21
0.06
-2.43
-5.16
-7.93
-10.51
-12.74
-14.64
-16.4
-18.34
-20.71
-23.63
-27.01
-30.63
-34.17
-37.4
-40.26
-42.87
-45.54
-48.67
-52.65
-57.77
-64.04
-71.02
-77.75
-82.82
-84.74
-82.33
-75.18
-63.81
-49.53
-34.02
-18.87
-5.19
6.48
16.02
23.59
29.4
33.62
36.39
37.89
38.41
38.28
37.91
37.63
37.64
37.95
38.45
38.99
39.49
39.95
40.43
40.93
41.32
41.35
40.75
39.37
37.25
34.63
31.88
29.32
27.14
25.3
23.65
21.91
19.9
17.56
14.97
12.37
9.98
7.93
6.18
4.53
2.7
0.47
-2.19
-5.09
-7.95
-10.5
-12.61
-14.4
-16.11
-18.04
-20.39
-23.21
-26.39
-29.7
-32.92
-35.86
-38.47
-40.83
-43.17
-45.87
-49.3
-53.73
-59.03
-64.58
-69.21
-71.49
-70.15
-64.57
-54.97
-42.46
-28.58
-14.86
-2.43
8.16
16.84
23.73
28.97
32.63
34.74
35.44
35.06
34.09
33.06
32.39
32.29
32.7
33.39
34.09
34.65
35.06
35.42
35.81
36.17
36.33
36.01
35.05
33.42
31.25
28.77
26.2
23.66
21.18
18.75
16.34
13.95
11.55
9.06
6.39
3.45
0.24
-3.09
-6.3
-9.22
-11.79
-14.16
-16.6
-19.4
-22.68
-26.36
-30.18
-33.85
-37.19
-40.23
-43.16
-46.28
-49.89
-54.3
-59.7
-66.1
-73.12
-79.86
-85.02
-87.11
-84.97
-78.13
-67.08
-53.1
-37.82
-22.78
-9
3.05
13.28
21.81
28.68
33.88
37.41
39.44
40.3
40.47
40.4
40.41
40.63
40.99
41.4
41.77
42.1
42.43
42.8
43.19
43.53
43.7
43.58
43.06
42.07
40.62
38.77
36.68
34.57
32.6
30.87
29.31
27.77
26.04
24.01
21.66
19.13
16.59
14.24
12.2
10.49
8.97
7.46
5.7
3.51
0.86
-2.13
-5.26
-8.29
-11.1
-13.7
-16.25
-18.96
-21.99
-25.43
-29.24
-33.26
-37.29
-41.15
-44.77
-48.23
-51.82
-56.01
-61.25
-67.81
-75.5
-83.52
-90.49
-94.69
-94.6
-89.32
-78.99
-64.7
-48.19
-31.31
-15.56
-1.78
9.76
19.19
26.74
32.64
36.99
39.95
41.73
42.66
43.16
43.57
44.11
44.78
45.47
46.01
46.36
46.64
47.04
47.72
48.65
49.59
50.16
50.05
49.12
47.45
45.3
42.95
40.63
38.45
36.42
34.49
32.55
30.55
28.46
26.25
23.93
21.55
19.18
16.91
14.82
12.89
11.02
9.05
6.82
4.23
1.31
-1.82
-5.01
-8.16
-11.22
-14.27
-17.45
-20.88
-24.67
-28.84
-33.21
-37.52
-41.45
-44.75
-47.45
-49.79
-52.21
-55.18
-59.1
-64.16
-70.33
-77.18
-83.8
-88.83
-90.69
-88.03
-80.22
-67.72
-51.98
-34.99
-18.66
-4.28
7.68
17.3
24.92
30.8
34.98
37.48
38.41
38.13
37.23
36.28
35.74
35.77
36.3
37.12
38.02
38.86
39.59
40.19
40.59
40.7
40.39
39.64
38.46
36.95
35.22
33.4
31.52
29.6
27.61
25.47
23.15
20.61
17.83
14.84
11.71
8.56
5.58
2.93
0.67
-1.32
-3.31
-5.65
-8.61
-12.23
-16.34
-20.56
-24.55
-28.08
-31.13
-33.88
-36.59
-39.59
-43.23
-47.82
-53.46
-59.86
-66.19
-71.17
-73.32
-71.48
-65.24
-55.08
-42.17
-28.02
-13.99
-1.04
10.29
19.78
27.32
32.86
36.42
38.12
38.26
37.27
35.66
33.92
32.47
31.57
31.31
31.67
32.5
33.67
35.03
36.47
37.82
38.81
39.12
38.5
36.87
34.43
31.55
28.66
26.04
23.71
21.48
18.99
15.97
12.34
8.26
4.04
0.04
-3.51
-6.57
-9.3
-12.01
-14.98
-18.41
-22.37
-26.73
-31.3
-35.85
-40.22
-44.34
-48.36
-52.57
-57.41
-63.29
-70.36
-78.26
-86.03
-92.15
-94.9
-92.86
-85.42
-73.02
-57.04
-39.35
-21.8
-5.7
8.26
19.95
29.5
37.07
42.76
46.64
48.89
49.88
50.1
50.05
50.13
50.47
51.02
51.59
51.99
52.16
52.15
52.11
52.13
52.15
51.97
51.26
49.77
47.44
44.41
41.01
37.6
34.42
31.57
28.95
26.32
23.46
20.2
16.58
12.71
8.83
5.12
1.71
-1.44
-4.49
-7.64
-11.15
-15.16
-19.67
-24.53
-29.42
-34
-38.03
-41.49
-44.64
-47.94
-51.93
-57.06
-63.56
-71.21
-79.28
-86.48
-91.16
-91.73
-87.13
-77.31
-63.21
-46.49
-29.02
-12.34
2.61
15.42
26.03
34.49
40.87
45.33
48.12
49.62
50.26
50.44
50.51
50.67
51.03
51.57
52.17
52.67
52.93
52.87
52.53
51.97
51.22
50.23
48.88
47.07
44.76
42.08
39.23
36.44
33.86
31.48
29.17
26.72
24.01
21.04
17.99
15.1
12.58
10.44
8.47
6.34
3.77
0.71
-2.66
-5.99
-8.99
-11.6
-14.01
-16.54
-19.49
-22.98
-26.84
-30.78
-34.47
-37.73
-40.56
-43.17
-45.92
-49.24
-53.56
-59.19
-66.05
-73.59
-80.58
-85.41
-86.41
-82.45
-73.37
-60.07
-44.22
-27.68
-11.98
2
13.95
23.9
31.94
37.99
41.94
43.79
43.83
42.66
41.04
39.64
38.84
38.68
38.97
39.41
39.86
40.32
40.84
41.49
42.15
42.55
42.41
41.48
39.75
37.35
34.54
31.57
28.63
25.78
23.02
20.26
17.41
14.37
11.08
7.54
3.87
0.25
-3.07
-5.93
-8.31
-10.43
-12.65
-15.4
-18.95
-23.3
-28.14
-32.99
-37.36
-40.99
-43.94
-46.56
-49.4
-53.04
-57.91
-64.23
-71.77
-79.73
-86.75
-91.05
-90.99
-85.54
-74.74
-59.71
-42.33
-24.6
-8.07
6.44
18.74
28.95
37.2
43.48
47.73
50.02
50.65
50.17
49.2
48.28
47.72
47.53
47.53
47.5
47.35
47.11
46.94
46.96
47.15
47.31
47.11
46.24
44.57
42.16
39.31
36.35
33.57
31.09
28.85
26.71
24.48
22.03
19.34
16.48
13.61
10.92
8.51
6.43
4.59
2.82
0.96
-1.15
-3.58
-6.32
-9.31
-12.41
-15.49
-18.47
-21.36
-24.29
-27.46
-31.04
-35.07
-39.34
-43.54
-47.35
-50.63
-53.49
-56.29
-59.54
-63.77
-69.37
-76.41
-84.46
-92.46
-98.78
-101.58
-99.34
-91.42
-78.32
-61.56
-43.15
-24.98
-8.4
5.94
17.91
27.66
35.37
41.18
45.23
47.75
49.07
49.59
49.71
49.7
49.72
49.77
49.8
49.78
49.77
49.89
50.23
50.77
51.29
51.46
50.98
49.74
47.85
45.59
43.28
41.11
39.14
37.24
35.27
33.09
30.63
27.98
25.26
22.6
20.11
17.81
15.64
13.5
11.29
9.02
6.76
4.65
2.75
1.02
-0.72
-2.71
-5.13
-7.99
-11.09
-14.16
-16.94
-19.35
-21.59
-24.01
-26.97
-30.69
-35.06
-39.74
-44.23
-48.11
-51.23
-53.69
-55.83
-58.11
-60.99
-64.86
-69.94
-76.13
-82.86
-88.98
-92.9
-92.99
-88.14
-78.23
-64.2
-47.77
-30.86
-15.04
-1.17
10.51
20.1
27.76
33.57
37.55
39.84
40.75
40.78
40.44
40.15
40.09
40.25
40.46
40.59
40.56
40.45
40.38
40.44
40.61
40.72
40.52
39.81
38.49
36.6
34.28
31.68
28.93
26.08
23.18
20.24
17.3
14.38
11.45
8.47
5.37
2.17
-1.02
-4.06
-6.82
-9.3
-11.7
-14.32
-17.46
-21.29
-25.74
-30.47
-35.09
-39.24
-42.81
-46
-49.18
-52.82
-57.36
-63.05
-69.88
-77.44
-84.81
-90.62
-93.3
-91.54
-84.73
-73.24
-58.33
-41.74
-25.17
-9.85
3.59
14.93
24.12
31.13
35.93
38.61
39.51
39.19
38.27
37.31
36.61
36.22
35.96
35.63
35.09
34.38
33.71
33.37
33.57
34.33
35.41
36.35
36.63
35.92
34.19
31.72
29.04
26.65
24.84
23.6
22.63
21.51
19.89
17.6
14.76
11.61
8.47
5.6
3.06
0.77
-1.57
-4.28
-7.63
-11.74
-16.47
-21.46
-26.31
-30.7
-34.52
-37.93
-41.3
-45.11
-49.81
-55.64
-62.57
-70.1
-77.24
-82.57
-84.52
-81.84
-74.07
-61.78
-46.41
-29.8
-13.57
1.33
14.7
26.79
37.89
48.04
56.91
64.1
69.31
72.55
74.1
74.36
73.64
72.09
69.77
66.73
63.23
59.66
56.48
54.07
52.46
51.44
50.5
49.14
47.03
44.05
40.36
36.22
31.94
27.73
23.72
19.92
16.24
12.5
8.57
4.41
0.13
-3.98
-7.64
-10.64
-13.04
-15.1
-17.28
-19.95
-23.32
-27.31
-31.62
-35.9
-39.81
-43.26
-46.32
-49.24
-52.41
-56.18
-60.85
-66.48
-72.73
-78.78
-83.38
-85.13
-82.83
-75.92
-64.63
-49.91
-33.19
-16
0.35
14.88
26.99
36.41
43.11
47.31
49.45
50.2
50.26
50.2
50.39
50.88
51.47
51.92
52
51.7
51.17
50.61
50.14
49.72
49.18
48.29
46.9
45
42.67
40.03
37.13
33.97
30.55
26.87
23.02
19.11
15.27
11.56
7.94
4.33
0.64
-3.18
-7.14
-11.17
-15.23
-19.27
-23.23
-27.1
-30.87
-34.56
-38.28
-42.24
-46.75
-52.09
-58.34
-65.15
-71.69
-76.71
-78.89
-77.29
-71.63
-62.4
-50.62
-37.56
-24.39
-12.01
-1
8.24
15.46
20.47
23.26
23.99
23.03
20.89
18.17
15.37
12.9
10.99
9.76
9.28
9.56
10.51
11.95
13.54
14.82
15.41
15.09
13.9
12.1
10.06
8.03
6.13
4.25
2.2
-0.15
-2.82
-5.72
-8.69
-11.6
-14.41
-17.22
-20.16
-23.42
-27.15
-31.45
-36.24
-41.18
-45.61
-48.58
-49.1
-46.41
-40.24
-31
-19.59
-7.21
5
16.16
25.69
33.24
38.57
41.58
42.3
41.02
38.34
34.97
31.63
28.82
26.74
25.35
24.48
24.04
24.01
24.42
25.19
26.06
26.6
26.35
25.02
22.58
19.28
15.52
11.68
7.96
4.33
0.61
-3.46
-7.96
-12.82
-17.77
-22.47
-26.65
-30.23
-33.41
-36.52
-39.98
-44.16
-49.34
-55.55
-62.52
-69.53
-75.41
-78.72
-78.12
-72.8
-62.81
-49.07
-33.06
-16.4
-0.43
13.98
26.33
36.37
43.9
48.84
51.3
51.65
50.55
48.74
46.84
45.25
44.03
43.08
42.27
41.56
41
40.71
40.73
41
41.36
41.54
41.22
40.15
38.21
35.47
32.21
28.81
25.62
22.78
20.17
17.47
14.31
10.53
6.29
1.97
-1.95
-5.16
-7.68
-9.84
-12.13
-15.01
-18.7
-23.13
-27.99
-32.88
-37.46
-41.57
-45.22
-48.6
-52.01
-55.88
-60.68
-66.8
-74.25
-82.47
-90.18
-95.56
-96.75
-92.49
-82.58
-68
-50.53
-32.15
-14.48
1.54
15.52
27.3
36.74
43.6
47.76
49.38
49.05
47.62
45.98
44.73
44.1
43.98
44.12
44.28
44.41
44.63
45.1
45.88
46.85
47.71
48.08
47.65
46.35
44.37
42.01
39.57
37.19
34.82
32.33
29.58
26.56
23.35
20.09
16.86
13.71
10.6
7.53
4.51
1.58
-1.25
-3.99
-6.75
-9.65
-12.82
-16.38
-20.36
-24.72
-29.33
-34.04
-38.64
-42.95
-46.93
-50.67
-54.48
-58.82
-64.17
-70.82
-78.57
-86.57
-93.37
-97.28
-96.79
-91.11
-80.36
-65.55
-48.19
-29.9
-12.09
4.19
18.23
29.53
37.83
43.1
45.56
45.71
44.24
41.86
39.18
36.65
34.52
32.98
32.1
31.95
32.51
33.67
35.19
36.73
37.95
38.56
38.42
37.54
36.03
34.06
31.78
29.34
26.84
24.34
21.89
19.51
17.18
14.86
12.51
10.11
7.66
5.19
2.75
0.38
-1.91
-4.15
-6.44
-8.83
-11.36
-14.01
-16.76
-19.64
-22.75
-26.26
-30.39
-35.32
-41.11
-47.74
-55.15
-63.24
-71.91
-80.83
-89.38
-96.51
-100.87
-101.15
-96.43
-86.56
-72.16
-54.51
-35.17
-15.65
2.82
19.34
33.27
44.17
51.76
56.05
57.34
56.23
53.55
50.13
46.73
43.84
41.73
40.41
39.76
39.6
39.77
40.13
40.55
40.9
40.96
40.51
39.35
37.39
34.7
31.47
27.95
24.35
20.73
17.08
13.31
9.36
5.26
1.17
-2.75
-6.34
-9.57
-12.53
-15.46
-18.62
-22.18
-26.16
-30.36
-34.51
-38.33
-41.7
-44.68
-47.47
-50.35
-53.57
-57.45
-62.23
-67.96
-74.27
-80.19
-84.27
-84.86
-80.69
-71.24
-56.94
-39
-19.02
1.37
20.81
38.24
52.9
64.28
72.14
76.54
77.83
76.62
73.64
69.64
65.3
61.15
57.55
54.66
52.53
51.07
50.12
49.45
48.82
48
46.82
45.2
43.15
40.71
37.92
34.75
31.15
27.06
22.47
17.46
12.23
7.02
2.11
-2.26
-5.96
-9
-11.48
-13.62
-15.66
-17.82
-20.27
-23.11
-26.33
-29.87
-33.69
-37.79
-42.37
-47.71
-54.08
-61.43
-69.19
-76.18
-80.89
-81.79
-77.91
-69.05
-55.82
-39.41
-21.23
-2.64
15.21
31.28
44.74
54.91
61.43
64.36
64.21
61.85
58.29
54.41
50.8
47.76
45.26
43.18
41.39
39.82
38.48
37.39
36.57
35.93
35.26
34.34
32.91
30.81
27.99
24.54
20.66
16.59
12.51
8.54
4.69
0.87
-3.01
-7.02
-11.17
-15.38
-19.56
-23.57
-27.33
-30.81
-34.06
-37.23
-40.55
-44.35
-48.93
-54.42
-60.58
-66.67
-71.53
-73.82
-72.4
-66.72
-56.92
-43.78
-28.47
-12.25
3.72
18.46
31.12
41.04
47.77
51.14
51.39
49.09
45.04
40.12
35.13
30.63
26.95
24.12
22.02
20.46
19.27
18.3
17.47
16.62
15.57
14.15
12.24
9.84
7.06
4.02
0.78
-2.66
-6.34
-10.26
-14.26
-18.11
-21.56
-24.51
-27.05
-29.44
-32.01
-35.08
-38.81
-43.14
-47.72
-51.93
-54.91
-55.74
-53.6
-48.03
-39.07
-27.23
-13.39
1.34
15.85
29.08
40.15
48.35
53.31
54.99
53.71
50.15
45.12
39.48
33.98
29.09
25.08
21.94
19.53
17.59
15.91
14.29
12.64
10.92
9.12
7.23
5.17
2.82
0.01
-3.4
-7.46
-12.11
-17.1
-22.16
-27.02
-31.51
-35.67
-39.71
-43.94
-48.73
-54.31
-60.62
-67.2
-73.1
-77.01
-77.54
-73.62
-64.82
-51.54
-34.91
-16.53
1.88
18.87
33.36
44.74
52.77
57.56
59.41
58.8
56.29
52.47
47.92
43.15
38.63
34.7
31.58
29.31
27.78
26.75
25.93
25.05
23.88
22.29
20.24
17.69
14.68
11.22
7.34
3.08
-1.51
-6.32
-11.21
-16.02
-20.64
-24.99
-29.16
-33.33
-37.78
-42.77
-48.45
-54.72
-61.12
-66.79
-70.6
-71.38
-68.19
-60.59
-48.76
-33.49
-16.03
2.14
19.55
34.93
47.32
56.19
61.4
63.24
62.24
59.14
54.73
49.78
44.95
40.69
37.29
34.78
33.05
31.9
31.1
30.46
29.86
29.15
28.2
26.84
24.9
22.32
19.13
15.5
11.67
7.83
4.08
0.35
-3.52
-7.69
-12.17
-16.86
-21.52
-25.91
-29.92
-33.53
-36.85
-40.12
-43.66
-47.87
-53.06
-59.17
-65.57
-70.96
-73.68
-72.19
-65.59
-53.97
-38.33
-20.21
-1.23
17.17
33.83
47.84
58.46
65.22
68.05
67.4
64.19
59.56
54.54
49.86
45.86
42.59
39.95
37.88
36.37
35.44
35.04
34.96
34.88
34.42
33.28
31.34
28.67
25.48
22.03
18.56
15.16
11.81
8.43
4.92
1.25
-2.54
-6.33
-10.01
-13.51
-16.82
-20.02
-23.21
-26.49
-29.93
-33.54
-37.25
-40.95
-44.52
-47.88
-51.01
-54.05
-57.23
-60.89
-65.38
-70.9
-77.23
-83.56
-88.53
-90.43
-87.76
-79.64
-66.18
-48.49
-28.35
-7.78
11.42
27.92
40.95
50.19
55.71
57.85
57.21
54.54
50.73
46.62
42.88
39.92
37.82
36.46
35.62
35.13
34.92
34.95
35.15
35.35
35.27
34.64
33.29
31.24
28.64
25.74
22.74
19.74
16.77
13.82
10.89
7.93
4.96
1.96
-0.99
-3.83
-6.46
-8.87
-11.14
-13.43
-15.92
-18.69
-21.68
-24.72
-27.6
-30.2
-32.58
-34.96
-37.67
-41.09
-45.53
-51.03
-57.23
-63.24
-67.73
-69.18
-66.39
-58.81
-46.78
-31.39
-14.17
3.29
19.63
33.81
45.09
53.02
57.41
58.42
56.6
52.77
47.94
43.04
38.75
35.42
33.11
31.64
30.79
30.38
30.31
30.51
30.9
31.27
31.4
31.03
29.95
28.1
25.54
22.46
19.11
15.72
12.49
9.48
6.64
3.78
0.72
-2.66
-6.28
-9.94
-13.35
-16.3
-18.83
-21.18
-23.73
-26.77
-30.37
-34.37
-38.47
-42.39
-46
-49.38
-52.76
-56.48
-60.9
-66.37
-72.99
-80.43
-87.76
-93.44
-95.61
-92.66
-83.76
-69.17
-50.21
-28.86
-7.23
12.85
30.06
43.58
53.06
58.55
60.46
59.58
56.9
53.42
49.92
46.88
44.46
42.63
41.32
40.49
40.13
40.26
40.79
41.5
42.1
42.24
41.68
40.35
38.33
35.84
33.14
30.47
27.97
25.69
23.56
21.49
19.33
17
14.48
11.86
9.28
6.85
4.62
2.47
0.22
-2.34
-5.3
-8.56
-11.92
-15.11
-17.98
-20.56
-23.12
-25.98
-29.4
-33.44
-37.92
-42.49
-46.84
-50.81
-54.45
-58
-61.74
-65.98
-70.98
-76.89
-83.53
-90.26
-95.78
-98.39
-96.4
-88.75
-75.43
-57.54
-36.96
-15.82
4.05
21.39
35.48
46.09
53.26
57.24
58.45
57.47
55
51.77
48.42
45.48
43.25
41.82
41.1
40.93
41.11
41.47
41.89
42.28
42.47
42.32
41.65
40.4
38.56
36.24
33.63
30.93
28.35
26.06
24.06
22.26
20.42
18.32
15.87
13.16
10.44
7.98
5.96
4.34
2.93
1.46
-0.26
-2.31
-4.67
-7.24
-9.96
-12.78
-15.64
-18.49
-21.34
-24.24
-27.36
-30.85
-34.77
-38.98
-43.17
-47.02
-50.35
-53.26
-56.11
-59.44
-63.79
-69.46
-76.34
-83.73
-90.35
-94.49
-94.45
-89.04
-78
-62.12
-43.04
-22.75
-3.1
14.5
29.18
40.51
48.36
52.86
54.4
53.64
51.35
48.36
45.29
42.59
40.47
39.02
38.22
38.01
38.28
38.88
39.63
40.37
40.96
41.27
41.16
40.49
39.18
37.21
34.73
32.03
29.4
27.02
24.9
22.88
20.75
18.43
16.01
13.64
11.5
9.6
7.8
5.9
3.8
1.48
-0.98
-3.45
-5.93
-8.45
-11.09
-13.92
-17
-20.35
-23.94
-27.72
-31.56
-35.32
-38.89
-42.23
-45.42
-48.6
-51.99
-55.85
-60.4
-65.77
-71.74
-77.6
-82.15
-83.89
-81.49
-74.26
-62.39
-46.94
-29.45
-11.58
5.31
20.19
32.43
41.68
47.81
50.93
51.44
49.92
47.11
43.79
40.67
38.26
36.81
36.33
36.62
37.4
38.46
39.62
40.81
41.88
42.61
42.72
41.99
40.39
38.11
35.47
32.84
30.44
28.3
26.34
24.4
22.38
20.22
17.88
15.38
12.71
9.93
7.14
4.45
1.91
-0.55
-3.1
-5.99
-9.36
-13.23
-17.42
-21.66
-25.71
-29.43
-32.8
-35.95
-39.04
-42.27
-45.9
-50.21
-55.49
-61.78
-68.7
-75.27
-80.04
-81.38
-78.01
-69.41
-56.04
-39.22
-20.74
-2.38
14.38
28.51
39.47
47.09
51.48
52.98
52.15
49.7
46.37
42.87
39.78
37.43
35.93
35.19
35.04
35.29
35.74
36.26
36.69
36.86
36.64
35.92
34.68
32.98
30.9
28.5
25.85
22.99
20.02
17.1
14.39
12
9.93
8.04
6.17
4.13
1.8
-0.82
-3.68
-6.64
-9.55
-12.29
-14.85
-17.31
-19.88
-22.78
-26.13
-29.86
-33.75
-37.51
-40.93
-43.97
-46.77
-49.66
-53.07
-57.37
-62.82
-69.31
-76.29
-82.64
-86.9
-87.51
-83.28
-73.77
-59.51
-41.86
-22.67
-3.83
13.12
27.24
38.13
45.79
50.45
52.42
52.15
50.23
47.4
44.42
41.92
40.23
39.35
39.05
39.06
39.18
39.37
39.62
39.94
40.21
40.26
39.9
38.97
37.46
35.41
32.93
30.19
27.33
24.53
21.91
19.55
17.46
15.56
13.76
11.98
10.17
8.32
6.42
4.42
2.24
-0.24
-3.03
-6.03
-9.04
-11.88
-14.5
-17
-19.66
-22.7
-26.17
-29.91
-33.63
-37.08
-40.18
-43.08
-46.07
-49.44
-53.47
-58.32
-63.98
-70.19
-76.28
-81.14
-83.38
-81.67
-75.18
-63.92
-48.78
-31.31
-13.27
3.75
18.61
30.65
39.65
45.63
48.81
49.59
48.48
46.17
43.36
40.71
38.69
37.48
37.02
37.06
37.29
37.51
37.63
37.63
37.52
37.27
36.78
35.9
34.53
32.59
30.16
27.37
24.45
21.58
18.9
16.46
14.22
12.07
9.93
7.76
5.56
3.37
1.21
-0.92
-3.03
-5.14
-7.23
-9.35
-11.57
-14.02
-16.81
-19.96
-23.36
-26.8
-30.04
-32.94
-35.51
-37.93
-40.48
-43.5
-47.32
-52.09
-57.65
-63.4
-68.25
-70.82
-69.82
-64.49
-54.88
-41.85
-26.77
-11.14
3.73
16.96
27.99
36.5
42.3
45.33
45.75
44.02
40.88
37.2
33.81
31.33
30.01
29.77
30.29
31.18
32.12
32.94
33.54
33.87
33.83
33.26
32.02
30.01
27.26
23.91
20.2
16.36
12.61
9.05
5.75
2.72
-0.09
-2.75
-5.36
-8.06
-10.94
-14.02
-17.23
-20.47
-23.64
-26.76
-29.96
-33.36
-37.09
-41.24
-45.89
-51.09
-56.84
-62.81
-68.22
-71.88
-72.36
-68.56
-60.06
-47.41
-31.92
-15.34
0.69
14.98
26.86
36.14
42.83
47.07
49.03
49.01
47.46
44.99
42.22
39.68
37.73
36.45
35.78
35.57
35.69
36.07
36.62
37.2
37.63
37.67
37.11
35.87
33.98
31.52
28.62
25.39
21.96
18.46
15.03
11.8
8.79
5.92
2.93
-0.44
-4.38
-8.93
-13.9
-19.02
-24
-28.69
-33.1
-37.41
-41.9
-46.9
-52.74
-59.61
-67.34
-75.24
-82.06
-86.15
-85.94
-80.4
-69.53
-54.35
-36.7
-18.62
-1.89
12.34
23.63
31.98
37.6
40.69
41.49
40.4
38.03
35.17
32.58
30.79
29.91
29.7
29.76
29.76
29.57
29.24
28.87
28.5
28.05
27.33
26.19
24.53
22.34
19.68
16.62
13.3
9.87
6.51
3.36
0.48
-2.22
-4.94
-7.9
-11.24
-14.96
-18.86
-22.69
-26.21
-29.29
-32.04
-34.69
-37.63
-41.27
-45.95
-51.84
-58.75
-66.03
-72.54
-76.81
-77.4
-73.31
-64.31
-51.07
-34.93
-17.56
-0.54
14.91
27.99
38.3
45.68
50.19
52.09
51.82
50.02
47.39
44.6
42.17
40.38
39.33
38.93
39
39.37
39.88
40.35
40.68
40.7
40.27
39.2
37.39
34.87
31.78
28.41
25.08
22.01
19.29
16.79
14.25
11.41
8.12
4.44
0.62
-3.02
-6.21
-8.88
-11.19
-13.46
-15.97
-18.9
-22.14
-25.47
-28.65
-31.57
-34.37
-37.35
-40.87
-45.27
-50.71
-57.02
-63.62
-69.53
-73.42
-73.92
-70
-61.26
-48.12
-31.77
-13.82
4.05
20.35
34.01
44.39
51.24
54.69
55.18
53.36
50.04
46.01
42
38.56
36.03
34.59
34.19
34.64
35.6
36.72
37.64
38.12
38.04
37.38
36.24
34.73
32.93
30.92
28.72
26.35
23.82
21.18
18.48
15.8
13.19
10.69
8.32
6.05
3.83
1.57
-0.82
-3.41
-6.19
-9.14
-12.18
-15.24
-18.26
-21.27
-24.37
-27.71
-31.45
-35.64
-40.21
-44.96
-49.59
-53.86
-57.65
-61.08
-64.47
-68.29
-73.08
-79.18
-86.54
-94.44
-101.51
-105.84
-105.5
-99.17
-86.53
-68.47
-46.85
-23.98
-1.99
17.48
33.51
45.79
54.4
59.67
62.1
62.33
61.05
58.95
56.61
54.43
52.63
51.24
50.24
49.59
49.32
49.42
49.84
50.4
50.85
50.93
50.4
49.18
47.29
44.85
42.03
39.04
36.1
33.38
30.96
28.82
26.85
24.93
22.98
21.03
19.12
17.33
15.65
14.07
12.54
11.1
9.74
8.47
7.2
5.8
4.16
2.22
0.1
-2.03
-3.99
-5.73
-7.35
-9.08
-11.15
-13.7
-16.68
-19.92
-23.15
-26.18
-28.97
-31.67
-34.58
-37.96
-41.91
-46.33
-50.95
-55.44
-59.55
-63.19
-66.5
-69.83
-73.71
-78.76
-85.37
-93.51
-102.38
-110.43
-115.61
-115.84
-109.68
-96.77
-77.93
-54.95
-30.14
-5.8
16.16
34.41
48.32
57.86
63.46
65.84
65.88
64.4
62.12
59.6
57.22
55.2
53.66
52.6
51.97
51.71
51.75
51.98
52.29
52.5
52.43
51.92
50.88
49.3
47.24
44.86
42.3
39.74
37.25
34.88
32.55
30.15
27.6
24.9
22.16
19.62
17.44
15.7
14.33
13.11
11.82
10.29
8.47
6.43
4.28
2.1
-0.08
-2.27
-4.51
-6.81
-9.18
-11.64
-14.14
-16.64
-19.1
-21.53
-24
-26.64
-29.59
-32.93
-36.58
-40.37
-44.05
-47.41
-50.4
-53.16
-56.08
-59.66
-64.39
-70.51
-77.79
-85.35
-91.73
-95.18
-94.12
-87.65
-75.72
-59.26
-39.82
-19.2
0.84
18.92
34.06
45.7
53.65
58.07
59.38
58.28
55.58
52.1
48.6
45.64
43.57
42.52
42.4
43.02
44.12
45.44
46.74
47.84
48.59
48.87
48.59
47.71
46.18
44.04
41.4
38.39
35.21
32.01
28.89
25.92
23.11
20.46
17.91
15.33
12.56
9.46
6
2.27
-1.56
-5.35
-9.13
-13.05
-17.31
-22.02
-27.1
-32.32
-37.36
-42.01
-46.22
-50.11
-53.9
-57.87
-62.32
-67.56
-73.78
-80.85
-88.12
-94.34
-97.85
-97
-90.69
-78.75
-62.04
-42.24
-21.34
-1.19
16.81
31.78
43.3
51.25
55.77
57.26
56.35
53.87
50.67
47.49
44.79
42.73
41.21
40.03
39.06
38.31
37.88
37.92
38.4
39.13
39.72
39.78
39.02
37.39
35.01
32.15
29
25.7
22.28
18.69
14.95
11.11
7.29
3.64
0.22
-2.97
-6.01
-9.04
-12.24
-15.71
-19.5
-23.54
-27.72
-31.85
-35.79
-39.46
-42.91
-46.36
-50.2
-54.86
-60.67
-67.53
-74.78
-81.13
-84.91
-84.54
-79.04
-68.32
-53.19
-35.11
-15.79
3.12
20.26
34.62
45.52
52.66
56.17
56.56
54.62
51.26
47.34
43.46
40
37.1
34.78
33
31.73
30.95
30.63
30.7
30.98
31.22
31.17
30.61
29.46
27.78
25.76
23.63
21.58
19.65
17.78
15.84
13.68
11.26
8.65
5.99
3.43
1.03
-1.29
-3.7
-6.42
-9.58
-13.22
-17.27
-21.57
-25.97
-30.34
-34.6
-38.74
-42.89
-47.32
-52.41
-58.52
-65.7
-73.49
-80.75
-85.9
-87.24
-83.56
-74.5
-60.68
-43.43
-24.48
-5.45
12.28
27.72
40.12
49
54.18
55.83
54.52
51.08
46.45
41.48
36.83
32.9
29.91
27.9
26.82
26.6
27.11
28.21
29.74
31.45
33.02
34.07
34.32
33.64
32.07
29.85
27.22
24.38
21.43
18.4
15.31
12.19
9.08
6.04
3.03
0.04
-3.02
-6.18
-9.48
-12.95
-16.61
-20.44
-24.4
-28.42
-32.47
-36.54
-40.74
-45.2
-50.11
-55.59
-61.57
-67.7
-73.27
-77.23
-78.42
-75.86
-69.1
-58.36
-44.55
-29
-13.15
1.78
14.9
25.65
33.73
38.97
41.41
41.32
39.26
35.98
32.3
28.92
26.3
24.59
23.73
23.53
23.78
24.23
24.65
24.85
24.66
24.01
22.88
21.26
19.13
16.4
13.02
9
4.52
-0.12
-4.6
-8.7
-12.38
-15.82
-19.24
-22.87
-26.82
-31.19
-36.03
-41.37
-47.06
-52.62
-57.16
-59.52
-58.56
-53.55
-44.48
-32
-17.29
-1.69
13.62
27.67
39.76
49.33
55.91
59.23
59.32
56.64
52.02
46.56
41.35
37.16
34.34
32.78
32.05
31.64
31.15
30.36
29.24
27.82
26.16
24.26
22.03
19.36
16.09
12.1
7.37
1.98
-3.82
-9.7
-15.3
-20.42
-25.08
-29.53
-34.19
-39.52
-45.89
-53.31
-61.39
-69.17
-75.27
-78.15
-76.48
-69.6
-57.65
-41.61
-23.03
-3.66
14.88
31.29
44.72
54.69
61.11
64.23
64.55
62.74
59.5
55.42
51.01
46.6
42.47
38.79
35.68
33.18
31.21
29.67
28.36
27.1
25.66
23.82
21.4
18.29
14.46
10.01
5.11
-0.11
-5.52
-11.02
-16.49
-21.79
-26.77
-31.34
-35.6
-39.83
-44.45
-49.93
-56.59
-64.38
-72.74
-80.5
-86.04
-87.6
-83.82
-74.13
-59.03
-39.95
-18.89
2.11
21.38
37.81
50.84
60.33
66.38
69.27
69.45
67.5
64.14
60.07
55.94
52.18
48.98
46.29
43.96
41.84
39.91
38.21
36.81
35.69
34.66
33.41
31.58
28.92
25.35
21.02
16.22
11.31
6.58
2.21
-1.79
-5.51
-9.11
-12.78
-16.62
-20.67
-24.87
-29.07
-33.15
-37.09
-41.03
-45.3
-50.36
-56.68
-64.56
-73.81
-83.65
-92.57
-98.63
-99.87
-94.92
-83.41
-66.22
-45.18
-22.64
-0.81
18.63
34.76
47.29
56.36
62.26
65.32
65.95
64.66
62.09
58.96
55.92
53.36
51.4
49.9
48.65
47.53
46.6
45.97
45.73
45.75
45.74
45.35
44.35
42.71
40.57
38.15
35.63
33.11
30.58
28.02
25.41
22.73
19.93
17
13.9
10.7
7.55
4.67
2.18
0.05
-1.94
-4.13
-6.83
-10.18
-14.08
-18.25
-22.31
-26.01
-29.32
-32.43
-35.73
-39.54
-44.04
-49.12
-54.45
-59.6
-64.26
-68.31
-71.91
-75.46
-79.47
-84.48
-90.79
-98.24
-106
-112.5
-115.71
-113.72
-105.28
-90.33
-70.02
-46.43
-21.95
1.26
21.58
38.1
50.43
58.64
63.13
64.52
63.62
61.29
58.38
55.49
52.99
50.97
49.33
47.89
46.5
45.18
43.98
43
42.23
41.52
40.64
39.41
37.75
35.75
33.62
31.57
29.7
28.02
26.41
24.74
22.91
20.89
18.74
16.51
14.25
11.94
9.52
6.92
4.11
1.14
-1.86
-4.76
-7.45
-9.91
-12.2
-14.52
-17.08
-20.05
-23.49
-27.3
-31.23
-35
-38.41
-41.46
-44.35
-47.46
-51.25
-56.08
-62.05
-68.74
-75.15
-79.8
-81.01
-77.46
-68.57
-54.76
-37.36
-18.21
0.83
18.22
32.99
44.64
53.02
58.16
60.27
59.7
57.06
53.15
48.79
44.71
41.33
38.74
36.78
35.21
33.91
32.89
32.33
32.32
32.8
33.47
33.87
33.57
32.32
30.12
27.21
23.96
20.67
17.52
14.48
11.4
8.1
4.5
0.68
-3.13
-6.66
-9.75
-12.43
-14.96
-17.7
-20.96
-24.87
-29.34
-34.07
-38.75
-43.09
-46.96
-50.39
-53.61
-56.96
-60.95
-66.1
-72.68
-80.51
-88.66
-95.52
-99.14
-97.8
-90.58
-77.66
-60.31
-40.46
-20.14
-1.08
15.54
29.1
39.36
46.37
50.41
51.92
51.53
49.9
47.71
45.48
43.55
42.09
41.13
40.64
40.56
40.82
41.31
41.93
42.55
43.06
43.35
43.29
42.73
41.54
39.66
37.16
34.23
31.18
28.24
25.49
22.81
19.95
16.69
12.97
8.93
4.86
1.02
-2.43
-5.56
-8.61
-11.89
-15.66
-20.06
-25.03
-30.36
-35.71
-40.74
-45.2
-49.05
-52.49
-55.97
-60.05
-65.27
-71.86
-79.48
-87.05
-92.9
-95.11
-92.1
-83.19
-68.81
-50.4
-29.96
-9.5
9.38
25.58
38.57
48.16
54.38
57.48
57.89
56.2
53.14
49.43
45.71
42.42
39.78
37.82
36.42
35.44
34.78
34.43
34.4
34.64
34.97
35.08
34.65
33.45
31.43
28.77
25.77
22.78
20.03
17.54
15.14
12.56
9.54
6.02
2.11
-1.87
-5.62
-8.92
-11.74
-14.28
-16.82
-19.67
-23.01
-26.87
-31.09
-35.43
-39.58
-43.35
-46.68
-49.71
-52.76
-56.21
-60.48
-65.81
-72.13
-78.81
-84.68
-88.11
-87.43
-81.49
-69.99
-53.76
-34.46
-14.19
5.1
21.95
35.51
45.51
52
55.25
55.67
53.75
50.12
45.4
40.21
35.07
30.35
26.27
22.92
20.33
18.48
17.37
16.93
17.01
17.29
17.32
16.71
15.3
13.36
11.63
11.08
12.67
16.94
23.86
32.79
42.7
52.43
60.94
67.47
71.55
72.89
71.29
66.6
58.79
48.08
35
20.46
5.53
-8.76
-21.67
-32.92
-42.62
-51.22
-59.31
-67.45
-76.02
-85.03
-93.92
-101.56
-106.33
-106.59
-101.19
-89.96
-73.8
-54.48
-34.09
-14.52
2.82
17.12
28
35.37
39.31
40.18
38.58
35.36
31.48
27.78
24.82
22.81
21.63
21.03
20.78
20.77
21.05
21.72
22.77
24
25.03
25.38
24.66
22.76
19.85
16.36
12.78
9.49
6.61
3.98
1.29
-1.78
-5.37
-9.38
-13.52
-17.45
-20.97
-24.12
-27.19
-30.61
-34.84
-40.17
-46.6
-53.66
-60.46
-65.7
-67.99
-66.21
-59.87
-49.29
-35.51
-20.01
-4.33
10.24
22.79
32.74
39.73
43.55
44.18
41.86
37.16
30.97
24.3
18.11
13.04
9.35
6.89
5.27
4.07
3.01
1.97
0.9
-0.25
-1.66
-3.57
-6.17
-9.42
-13.05
-16.58
-19.55
-21.68
-23.02
-23.87
-24.66
-25.78
-27.38
-29.47
-31.86
-34.39
-36.94
-39.53
-42.32
-45.58
-49.69
-55.01
-61.7
-69.43
-77.21
-83.4
-86.08
-83.6
-75.15
-61.04
-42.67
-22.04
-1.16
18.3
35.27
49.17
59.78
67.03
71.03
72.06
70.66
67.61
63.8
60.06
57.02
54.95
53.76
53.13
52.65
52.04
51.22
50.24
49.19
48.11
46.95
45.57
43.83
41.65
39.02
35.99
32.64
29.07
25.33
21.52
17.7
13.95
10.3
6.71
3.09
-0.72
-4.86
-9.38
-14.23
-19.27
-24.33
-29.27
-34.03
-38.68
-43.42
-48.56
-54.48
-61.48
-69.54
-78.05
-85.72
-90.71
-91.14
-85.68
-74.05
-57.19
-36.96
-15.61
4.83
22.93
37.94
49.61
57.97
63.18
65.51
65.38
63.43
60.44
57.21
54.36
52.23
50.86
50.12
49.77
49.67
49.76
50.01
50.39
50.77
50.94
50.66
49.75
48.16
46
43.47
40.8
38.21
35.84
33.74
31.88
30.2
28.58
26.85
24.87
22.59
20.04
17.42
14.95
12.78
10.91
9.15
7.23
4.89
2.01
-1.32
-4.89
-8.42
-11.66
-14.52
-17.03
-19.38
-21.85
-24.69
-28.11
-32.15
-36.68
-41.45
-46.15
-50.54
-54.53
-58.28
-62.16
-66.71
-72.48
-79.73
-88.09
-96.42
-102.92
-105.57
-102.71
-93.59
-78.64
-59.36
-37.82
-16.21
3.69
20.69
34.23
44.26
51.06
55.09
56.83
56.76
55.28
52.79
49.7
46.4
43.28
40.6
38.49
36.99
36.14
35.97
36.54
37.79
39.51
41.34
42.85
43.68
43.63
42.7
41.03
38.84
36.3
33.54
30.61
27.55
24.38
21.11
17.8
14.51
11.32
8.29
5.48
2.9
0.52
-1.75
-3.98
-6.26
-8.62
-11.11
-13.78
-16.69
-19.89
-23.34
-26.96
-30.56
-34
-37.23
-40.38
-43.76
-47.73
-52.61
-58.46
-64.96
-71.3
-76.24
-78.4
-76.59
-70.16
-59.25
-44.73
-27.98
-10.52
6.29
21.42
34.2
44.28
51.58
56.25
58.64
59.23
58.54
57.01
54.95
52.58
50.03
47.49
45.14
43.25
42.01
41.5
41.6
42.03
42.38
42.28
41.46
39.81
37.44
34.54
31.35
28.02
24.61
21.07
17.27
13.09
8.46
3.42
-1.9
-7.35
-12.78
-18.17
-23.55
-29
-34.53
-40.05
-45.37
-50.33
-54.85
-59.09
-63.47
-68.57
-74.93
-82.78
-91.73
-100.73
-108.17
-112.25
-111.56
-105.41
-94.05
-78.55
-60.42
-41.28
-22.53
-5.26
9.8
22.2
31.8
38.68
43.14
45.6
46.52
46.33
45.41
44.07
42.5
40.81
39.04
37.23
35.53
34.16
33.35
33.24
33.72
34.43
34.91
34.73
33.63
31.61
28.91
25.83
22.66
19.53
16.4
13.11
9.48
5.42
0.98
-3.6
-8.08
-12.2
-15.89
-19.21
-22.36
-25.62
-29.31
-33.74
-39.13
-45.49
-52.39
-58.9
-63.71
-65.34
-62.64
-55.13
-43.16
-27.86
-10.75
6.58
22.83
37.06
48.73
57.57
63.51
66.64
67.24
65.76
62.77
58.93
54.8
50.83
47.25
44.12
41.37
38.92
36.76
34.92
33.44
32.31
31.4
30.42
29.06
27.01
24.1
20.42
16.21
11.81
7.49
3.37
-0.63
-4.67
-8.95
-13.52
-18.3
-23.08
-27.65
-31.89
-35.8
-39.54
-43.4
-47.77
-53.01
-59.27
-66.29
-73.23
-78.73
-81.21
-79.34
-72.47
-60.84
-45.52
-28.06
-10.1
7
22.24
34.97
44.82
51.63
55.47
56.65
55.7
53.25
49.92
46.15
42.27
38.46
34.85
31.56
28.72
26.43
24.72
23.57
22.85
22.35
21.85
21.09
19.82
17.9
15.3
12.18
8.8
5.41
2.14
-1.04
-4.34
-7.97
-12.04
-16.45
-20.96
-25.27
-29.17
-32.67
-35.98
-39.48
-43.61
-48.75
-55.04
-62.2
-69.38
-75.22
-78.1
-76.61
-70.06
-58.72
-43.78
-26.95
-9.92
5.95
19.83
31.3
40.16
46.32
49.74
50.57
49.15
46.05
41.98
37.59
33.42
29.81
26.96
24.85
23.41
22.44
21.74
21.09
20.33
19.36
18.12
16.58
14.69
12.36
9.51
6.08
2.11
-2.28
-6.93
-11.68
-16.41
-21.05
-25.59
-30.03
-34.46
-39.1
-44.24
-50.09
-56.6
-63.16
-68.64
-71.52
-70.42
-64.56
-54.02
-39.8
-23.43
-6.56
9.45
23.65
35.46
44.54
50.72
53.93
54.37
52.46
48.86
44.34
39.56
35.04
31.08
27.78
25.15
23.11
21.55
20.32
19.21
18.02
16.58
14.84
12.82
10.58
8.17
5.49
2.39
-1.27
-5.51
-10.16
-14.92
-19.45
-23.58
-27.28
-30.75
-34.3
-38.29
-43.06
-48.83
-55.6
-62.89
-69.72
-74.62
-75.99
-72.55
-63.83
-50.27
-33.22
-14.44
4.25
21.34
35.83
47.14
55.09
59.76
61.48
60.76
58.23
54.55
50.25
45.77
41.42
37.38
33.84
30.91
28.65
27.01
25.83
24.86
23.85
22.59
20.98
19
16.7
14.13
11.23
7.93
4.17
-0.03
-4.51
-9.1
-13.61
-17.94
-22.12
-26.28
-30.59
-35.27
-40.54
-46.61
-53.57
-61.12
-68.37
-73.83
-75.73
-72.53
-63.61
-49.51
-31.85
-12.83
5.43
21.44
34.43
44.25
51.05
55.02
56.36
55.31
52.25
47.74
42.42
36.9
31.67
27.07
23.31
20.44
18.44
17.12
16.22
15.44
14.49
13.21
11.57
9.65
7.54
5.22
2.55
-0.66
-4.54
-9.03
-13.9
-18.81
-23.46
-27.68
-31.51
-35.13
-38.82
-42.83
-47.46
-52.96
-59.45
-66.64
-73.71
-79.22
-81.45
-78.89
-70.81
-57.58
-40.58
-21.77
-3.16
13.68
27.76
38.6
46.08
50.26
51.42
50.06
46.87
42.67
38.18
33.91
30.13
26.92
24.27
22.18
20.67
19.74
19.29
19.13
19
18.61
17.75
16.3
14.26
11.72
8.79
5.56
2.07
-1.66
-5.63
-9.8
-14.04
-18.18
-22.11
-25.83
-29.47
-33.3
-37.65
-42.81
-48.81
-55.28
-61.34
-65.68
-66.83
-63.59
-55.48
-42.89
-27.08
-9.71
7.49
23.16
36.38
46.65
53.72
57.57
58.37
56.53
52.68
47.61
42.13
36.93
32.48
29
26.51
24.91
24.05
23.75
23.84
24.1
24.25
23.99
23.09
21.42
19.04
16.08
12.73
9.08
5.12
0.85
-3.68
-8.32
-12.8
-16.93
-20.62
-23.98
-27.24
-30.69
-34.61
-39.22
-44.64
-50.72
-56.91
-62.16
-65.06
-64.21
-58.71
-48.49
-34.45
-18.1
-1.2
14.72
28.57
39.65
47.57
52.13
53.36
51.57
47.42
41.87
35.91
30.41
25.9
22.59
20.39
19.05
18.3
17.91
17.67
17.46
17.17
16.71
15.97
14.82
13.11
10.67
7.43
3.38
-1.31
-6.4
-11.58
-16.58
-21.28
-25.67
-29.86
-34.11
-38.76
-44.18
-50.62
-58.01
-65.66
-72.3
-76.25
-75.88
-70.23
-59.32
-44.25
-26.83
-9.05
7.44
21.52
32.66
40.71
45.64
47.58
46.76
43.64
38.94
33.47
28.06
23.33
19.65
17.06
15.44
14.59
14.3
14.33
14.51
14.63
14.47
13.89
12.77
11.12
8.95
6.28
3.1
-0.66
-4.97
-9.71
-14.64
-19.42
-23.75
-27.51
-30.83
-34.06
-37.72
-42.28
-48.01
-54.7
-61.59
-67.37
-70.45
-69.35
-63.15
-51.85
-36.37
-18.36
0.23
17.62
32.52
44.2
52.41
57.24
58.96
58.02
55
50.59
45.56
40.59
36.23
32.77
30.29
28.71
27.87
27.54
27.48
27.44
27.14
26.36
24.9
22.67
19.67
16
11.83
7.39
2.87
-1.59
-5.96
-10.28
-14.62
-18.97
-23.28
-27.41
-31.26
-34.82
-38.29
-42.02
-46.5
-52.18
-59.29
-67.49
-75.83
-82.72
-86.34
-85.16
-78.47
-66.64
-50.97
-33.21
-15.07
2.18
17.66
30.83
41.2
48.36
52.12
52.71
50.82
47.49
43.81
40.6
38.31
37
36.52
36.63
37.09
37.74
38.4
38.93
39.18
38.98
38.2
36.71
34.47
31.48
27.85
23.77
19.48
15.26
11.29
7.65
4.26
0.92
-2.65
-6.66
-11.13
-15.85
-20.47
-24.64
-28.21
-31.31
-34.3
-37.68
-41.92
-47.36
-54.08
-61.75
-69.46
-75.77
-78.88
-77.17
-69.74
-56.75
-39.5
-20
-0.39
17.61
32.91
45.01
53.75
59.1
61.19
60.34
57.22
52.76
47.99
43.77
40.59
38.53
37.33
36.68
36.35
36.29
36.51
37.01
37.62
38.03
37.9
37
35.27
32.88
30.1
27.22
24.45
21.88
19.49
17.12
14.55
11.59
8.16
4.36
0.46
-3.23
-6.44
-9.09
-11.38
-13.65
-16.25
-19.38
-22.99
-26.83
-30.59
-34.05
-37.13
-39.97
-42.85
-46.16
-50.38
-55.85
-62.59
-69.99
-76.74
-80.96
-80.79
-74.96
-63.32
-46.94
-27.8
-8.16
10.04
25.52
37.66
46.29
51.5
53.48
52.6
49.43
44.8
39.65
34.86
31.04
28.5
27.18
26.81
27.07
27.63
28.25
28.69
28.67
27.89
26.03
22.9
18.61
13.61
8.64
4.46
1.6
0.13
-0.39
-0.66
-1.37
-2.89
-5.14
-7.78
-10.39
-12.79
-15.06
-17.5
-20.43
-23.96
-27.98
-32.18
-36.23
-39.89
-43.18
-46.31
-49.67
-53.69
-58.79
-65.21
-72.88
-81.14
-88.74
-93.9
-94.71
-89.74
-78.54
-61.87
-41.48
-19.65
1.46
20.27
35.83
47.75
55.98
60.7
62.3
61.4
58.84
55.53
52.27
49.61
47.8
46.82
46.52
46.71
47.24
47.97
48.76
49.46
49.87
49.87
49.34
48.23
46.54
44.28
41.52
38.35
34.94
31.47
28.1
24.93
21.92
18.98
16
12.88
9.57
6.05
2.34
-1.5
-5.37
-9.13
-12.65
-15.93
-19.12
-22.52
-26.41
-30.91
-35.91
-41.11
-46.15
-50.75
-54.83
-58.53
-62.19
-66.35
-71.62
-78.53
-87.09
-96.51
-105.08
-110.41
-110.19
-102.94
-88.61
-68.6
-45.29
-21.28
1.28
20.99
37.17
49.6
58.3
63.46
65.47
65
62.93
60.22
57.66
55.75
54.61
54.07
53.85
53.69
53.52
53.43
53.61
54.14
54.88
55.46
55.39
54.28
52
48.75
45.02
41.35
38.13
35.52
33.35
31.33
29.15
26.65
23.86
20.91
17.99
15.24
12.71
10.35
8.03
5.57
2.81
-0.34
-3.8
-7.42
-10.98
-14.34
-17.54
-20.79
-24.37
-28.51
-33.24
-38.36
-43.5
-48.31
-52.54
-56.19
-59.48
-62.84
-66.87
-72.15
-79.05
-87.43
-96.36
-104.14
-108.59
-107.64
-100.05
-85.81
-66.26
-43.58
-20.29
1.46
20.22
35.25
46.38
53.77
57.73
58.72
57.35
54.4
50.77
47.29
44.6
42.95
42.27
42.26
42.56
42.93
43.29
43.66
44.04
44.33
44.31
43.67
42.22
39.92
36.94
33.61
30.28
27.21
24.49
22.06
19.76
17.45
15.11
12.84
10.8
9.08
7.65
6.32
4.84
3.02
0.81
-1.69
-4.28
-6.81
-9.26
-11.74
-14.43
-17.48
-20.91
-24.63
-28.46
-32.27
-35.97
-39.55
-43.11
-46.86
-51.13
-56.33
-62.76
-70.26
-78.03
-84.51
-87.75
-85.98
-78.26
-64.86
-47.2
-27.4
-7.6
10.55
26.07
38.5
47.69
53.58
56.22
55.87
53.13
48.92
44.3
40.22
37.32
35.77
35.39
35.8
36.61
37.57
38.57
39.56
40.49
41.17
41.29
40.55
38.75
35.86
32.11
27.87
23.61
19.7
16.38
13.65
11.31
9.05
6.51
3.48
-0.1
-4.08
-8.21
-12.23
-15.99
-19.54
-23.12
-27.02
-31.46
-36.47
-41.8
-47.08
-51.89
-56.01
-59.45
-62.49
-65.59
-69.32
-74.25
-80.71
-88.58
-97.03
-104.47
-108.77
-107.85
-100.35
-86.14
-66.38
-43.27
-19.32
3.24
22.88
38.84
50.97
59.44
64.61
66.89
66.85
65.18
62.67
60.06
57.89
56.42
55.6
55.2
54.95
54.72
54.5
54.4
54.44
54.57
54.61
54.3
53.41
51.77
49.35
46.28
42.8
39.21
35.81
32.81
30.19
27.82
25.42
22.76
19.76
16.53
13.33
10.46
8.06
6.06
4.14
1.91
-0.96
-4.56
-8.69
-13.01
-17.11
-20.81
-24.13
-27.35
-30.81
-34.82
-39.47
-44.63
-49.96
-55.06
-59.54
-63.24
-66.23
-68.89
-71.88
-75.95
-81.68
-89.21
-97.88
-106.16
-111.85
-112.67
-106.95
-94.2
-75.35
-52.45
-28.07
-4.62
16.15
33.34
46.68
56.34
62.63
65.91
66.65
65.44
62.99
60.07
57.36
55.28
54
53.37
53.15
53.13
53.19
53.35
53.64
53.97
54.14
53.82
52.72
50.7
47.9
44.6
41.21
38.06
35.3
32.89
30.64
28.32
25.85
23.23
20.53
17.86
15.27
12.73
10.21
7.69
5.19
2.74
0.35
-2.02
-4.46
-7.05
-9.82
-12.78
-15.88
-19.05
-22.26
-25.47
-28.73
-32.12
-35.69
-39.5
-43.51
-47.59
-51.58
-55.3
-58.67
-61.71
-64.61
-67.75
-71.63
-76.73
-83.3
-91.05
-98.94
-105.26
-107.96
-105.26
-96.26
-81.26
-61.66
-39.56
-17.17
3.68
21.77
36.46
47.53
55
59.1
60.21
58.97
56.2
52.81
49.61
47.18
45.74
45.21
45.35
45.87
46.56
47.37
48.25
49.11
49.74
49.86
49.18
47.54
45
41.75
38.12
34.45
31.01
27.97
25.34
22.96
20.61
18.07
15.23
12.1
8.85
5.69
2.77
0.11
-2.41
-5.04
-8.05
-11.58
-15.64
-20.05
-24.53
-28.79
-32.6
-35.95
-39.04
-42.28
-46.22
-51.43
-58.24
-66.52
-75.47
-83.57
-88.85
-89.45
-84.15
-72.86
-56.61
-37.32
-17.13
2.04
18.9
32.72
43.24
50.39
54.23
54.99
53.13
49.46
44.97
40.69
37.37
35.35
34.5
34.45
34.77
35.22
35.77
36.52
37.49
38.53
39.31
39.41
38.49
36.48
33.6
30.28
27
24.12
21.75
19.74
17.79
15.61
13.03
10.05
6.85
3.69
0.83
-1.58
-3.55
-5.27
-7.03
-9.1
-11.64
-14.56
-17.58
-20.36
-22.69
-24.59
-26.36
-28.39
-30.99
-34.24
-38.01
-41.94
-45.72
-49.11
-52.13
-55
-58.14
-62.07
-67.31
-74.17
-82.57
-91.77
-100.32
-106.2
-107.31
-102.09
-90.12
-72.29
-50.58
-27.51
-5.46
13.85
29.48
41.23
49.33
54.21
56.38
56.44
55.05
52.91
50.69
48.89
47.77
47.38
47.54
48.07
48.78
49.59
50.53
51.67
52.99
54.37
55.54
56.2
56.04
54.91
52.82
49.94
46.54
42.89
39.19
35.54
31.9
28.17
24.2
19.9
15.28
10.42
5.5
0.67
-3.97
-8.49
-13.04
-17.89
-23.25
-29.22
-35.71
-42.4
-48.93
-54.94
-60.3
-65.13
-69.78
-74.77
-80.67
-87.93
-96.66
-106.47
-116.28
-124.41
-128.89
-128
-120.76
-107.27
-88.7
-66.95
-44.13
-22.07
-2.16
14.74
28.16
37.9
44.04
46.87
47.03
45.41
43.14
41.35
40.87
42.01
44.47
47.44
50.01
51.48
51.62
50.56
48.63
46.08
43.04
39.6
36.01
32.65
29.92
27.99
26.7
25.58
24.16
22.22
19.82
17.31
14.93
12.75
10.55
8.03
5
1.49
-2.32
-6.17
-9.93
-13.57
-17.13
-20.67
-24.29
-28.21
-32.75
-38.29
-44.98
-52.44
-59.58
-64.78
-66.36
-63.16
-54.97
-42.59
-27.52
-11.48
4.07
17.99
29.49
37.97
43.06
44.71
43.4
40.1
36.03
32.32
29.69
28.33
28.05
28.55
29.6
31.08
32.91
34.94
36.89
38.42
39.3
39.44
38.93
37.92
36.49
34.61
32.1
28.84
24.76
19.96
14.68
9.15
3.6
-1.89
-7.31
-12.76
-18.37
-24.3
-30.62
-37.27
-43.86
-49.63
-53.53
-54.43
-51.47
-44.36
-33.53
-20.04
-5.35
9.07
22.02
32.7
40.71
45.96
48.54
48.68
46.79
43.42
39.27
35.09
31.46
28.71
26.9
25.89
25.43
25.33
25.46
25.68
25.85
25.75
25.17
23.98
22.17
19.82
17.04
13.86
10.3
6.33
2.02
-2.47
-6.86
-10.88
-14.38
-17.41
-20.17
-23.05
-26.48
-30.9
-36.6
-43.6
-51.41
-58.96
-64.69
-66.94
-64.39
-56.58
-43.99
-27.93
-10.07
7.92
24.74
39.53
51.75
61.14
67.63
71.37
72.71
72.17
70.36
67.82
64.98
62.08
59.17
56.22
53.16
50.01
46.86
43.86
41.18
38.88
36.94
35.23
33.59
31.89
30.04
28.02
25.84
23.5
21
18.38
15.69
13.06
10.6
8.42
6.56
5
3.65
2.48
1.53
0.85
0.47
0.32
0.18
-0.22
-1.09
-2.46
-4.13
-5.8
-7.21
-8.24
-8.99
-9.67
-10.48
-11.47
-12.58
-13.71
-14.86
-16.14
-17.76
-19.85
-22.4
-25.21
-28
-30.52
-32.76
-34.94
-37.46
-40.73
-44.96
-50.06
-55.64
-61.17
-66.11
-70.17
-73.38
-76.08
-78.87
-82.41
-87.29
-93.71
-101.26
-108.74
-114.31
-115.86
-111.61
-100.61
-83.16
-60.64
-35.24
-9.35
14.87
35.87
52.78
65.43
74.15
79.61
82.56
83.7
83.55
82.45
80.66
78.36
75.72
72.88
69.92
66.91
63.95
61.15
58.62
56.4
54.4
52.43
50.23
47.62
44.53
41.06
37.38
33.66
30.01
26.5
23.16
20.02
17.13
14.47
11.99
9.56
7.09
4.53
1.96
-0.45
-2.57
-4.31
-5.77
-7.18
-8.82
-10.89
-13.41
-16.23
-19.11
-21.85
-24.39
-26.85
-29.41
-32.26
-35.47
-38.97
-42.61
-46.2
-49.6
-52.7
-55.48
-57.99
-60.39
-63.03
-66.33
-70.71
-76.3
-82.72
-88.91
-93.31
-94.19
-90.15
-80.59
-65.83
-47.09
-26.16
-4.95
14.85
31.99
45.76
55.9
62.54
66.13
67.24
66.49
64.46
61.65
58.44
55.13
51.95
49.1
46.78
45.12
44.17
43.84
43.91
44.07
43.96
43.32
41.99
39.97
37.38
34.43
31.35
28.3
25.35
22.44
19.46
16.26
12.8
9.14
5.44
1.85
-1.51
-4.63
-7.59
-10.5
-13.46
-16.48
-19.54
-22.55
-25.51
-28.49
-31.66
-35.18
-39.16
-43.49
-47.96
-52.22
-56.01
-59.23
-62.03
-64.77
-67.97
-72.17
-77.7
-84.45
-91.73
-98.23
-102.25
-102.06
-96.46
-85.09
-68.64
-48.64
-27.11
-6.08
12.84
28.68
41.15
50.41
56.91
61.08
63.31
63.86
63.08
61.36
59.14
56.84
54.71
52.84
51.19
49.7
48.34
47.21
46.36
45.82
45.47
45.11
44.51
43.47
41.9
39.84
37.43
34.81
32.16
29.56
27.06
24.66
22.34
20.08
17.86
15.69
13.61
11.63
9.76
7.94
6.04
3.93
1.53
-1.08
-3.74
-6.26
-8.5
-10.57
-12.67
-15.05
-17.84
-20.97
-24.2
-27.28
-30.08
-32.69
-35.32
-38.24
-41.58
-45.3
-49.26
-53.27
-57.16
-60.89
-64.47
-68.04
-71.87
-76.28
-81.62
-88
-95.05
-101.82
-106.79
-108.28
-104.87
-95.86
-81.48
-62.85
-41.66
-19.8
0.98
19.36
34.5
46.09
54.22
59.28
61.81
62.38
61.58
59.93
57.87
55.78
53.91
52.38
51.21
50.38
49.86
49.66
49.76
50.14
50.68
51.18
51.37
50.97
49.85
47.97
45.53
42.75
39.9
37.13
34.46
31.88
29.33
26.82
24.44
22.28
20.42
18.87
17.57
16.42
15.27
13.99
12.46
10.57
8.24
5.36
1.83
-2.45
-7.48
-13.14
-19.25
-25.57
-31.98
-38.42
-44.91
-51.46
-57.91
-64.06
-69.69
-74.66
-79.02
-82.94
-86.71
-90.63
-95.02
-100.02
-105.49
-110.79
-114.79
-116.05
-113.22
-105.48
-92.78
-75.84
-55.94
-34.54
-13.08
7.26
25.48
40.9
53.13
62.15
68.21
71.84
73.55
73.87
73.2
71.89
70.34
68.89
67.88
67.49
67.74
68.5
69.51
70.47
71.06
70.98
70.01
68.03
65.09
61.34
56.96
52.15
47
41.54
35.82
29.92
23.96
18.11
12.44
6.99
1.79
-3.15
-7.79
-12.12
-16.15
-19.97
-23.59
-26.98
-30.07
-32.75
-35.06
-37.19
-39.43
-42.04
-45.11
-48.52
-51.97
-55.19
-58.01
-60.54
-63.09
-66.15
-70.21
-75.55
-82.03
-88.97
-95.12
-98.88
-98.68
-93.42
-82.76
-67.28
-48.25
-27.42
-6.58
12.66
29.15
42.2
51.61
57.58
60.6
61.31
60.36
58.38
55.84
53.13
50.52
48.15
46.14
44.52
43.38
42.8
42.8
43.28
44.01
44.62
44.77
44.27
43.06
41.25
39
36.45
33.68
30.8
27.88
25.02
22.26
19.61
16.99
14.31
11.48
8.45
5.27
2
-1.25
-4.36
-7.25
-9.93
-12.52
-15.25
-18.37
-22.06
-26.34
-31.03
-35.87
-40.59
-45.01
-49.12
-53.08
-57.18
-61.81
-67.32
-73.92
-81.44
-89.21
-96
-100.22
-100.27
-95.04
-84.25
-68.6
-49.55
-28.98
-8.68
9.89
25.8
38.52
47.86
53.85
56.73
56.95
55.17
52.18
48.75
45.48
42.76
40.71
39.32
38.47
38.05
37.97
38.13
38.46
38.81
39.03
38.94
38.35
37.1
35.08
32.33
28.96
25.19
21.25
17.32
13.48
9.75
6.09
2.47
-1.15
-4.82
-8.55
-12.36
-16.21
-20.04
-23.73
-27.26
-30.65
-34.04
-37.63
-41.65
-46.34
-51.82
-57.95
-64.25
-69.8
-73.33
-73.58
-69.65
-61.3
-49.07
-34.09
-17.72
-1.29
14.11
27.66
38.75
46.97
52.07
54.09
53.35
50.44
46.13
41.28
36.65
32.85
30.18
28.65
27.99
27.8
27.72
27.48
27.01
26.35
25.53
24.52
23.23
21.5
19.2
16.22
12.56
8.27
3.51
-1.53
-6.67
-11.76
-16.72
-21.54
-26.25
-30.96
-35.87
-41.25
-47.27
-53.83
-60.32
-65.57
-68.18
-66.85
-60.91
-50.57
-36.8
-21.03
-4.7
10.98
25.1
37.01
46.21
52.34
55.29
55.26
52.8
48.71
43.82
38.86
34.35
30.6
27.73
25.69
24.34
23.47
22.83
22.16
21.31
20.14
18.56
16.52
13.91
10.65
6.67
2.01
-3.17
-8.62
-14.06
-19.25
-24.1
-28.63
-32.98
-37.37
-42.11
-47.51
-53.83
-61.14
-69.07
-76.73
-82.78
-85.64
-83.99
-77.1
-65.13
-49.05
-30.39
-10.87
7.91
24.7
38.63
49.24
56.42
60.4
61.62
60.71
58.31
55
51.27
47.5
44.01
41.03
38.72
37.12
36.15
35.64
35.31
34.9
34.13
32.77
30.7
27.89
24.46
20.57
16.4
12.07
7.57
2.8
-2.38
-7.97
-13.82
-19.65
-25.11
-29.97
-34.24
-38.17
-42.26
-47.07
-53.04
-60.27
-68.25
-75.85
-81.49
-83.45
-80.39
-71.76
-57.97
-40.29
-20.53
-0.56
18.06
34.22
47.29
57.01
63.34
66.5
66.95
65.36
62.54
59.26
56.11
53.4
51.2
49.45
48.05
47.02
46.42
46.27
46.5
46.87
47.06
46.79
45.91
44.46
42.61
40.54
38.39
36.17
33.86
31.41
28.8
26.08
23.3
20.52
17.75
15
12.28
9.68
7.32
5.28
3.59
2.16
0.75
-0.9
-3.02
-5.75
-9.03
-12.67
-16.39
-19.88
-22.99
-25.73
-28.32
-31.08
-34.3
-38.1
-42.41
-46.95
-51.4
-55.54
-59.25
-62.65
-65.98
-69.64
-74.12
-79.84
-86.89
-94.71
-101.99
-106.78
-107.02
-101.16
-88.78
-70.65
-48.62
-24.97
-1.93
18.77
36.01
49.28
58.51
63.96
66.17
65.82
63.72
60.63
57.19
53.92
51.15
49.07
47.72
47.03
46.86
47.03
47.37
47.77
48.14
48.39
48.38
47.94
46.86
44.98
42.32
39.08
35.6
32.25
29.26
26.68
24.36
22.05
19.53
16.71
13.67
10.59
7.74
5.31
3.36
1.74
0.2
-1.59
-3.82
-6.49
-9.41
-12.31
-14.97
-17.39
-19.73
-22.23
-25.11
-28.45
-32.2
-36.18
-40.15
-43.88
-47.22
-50.15
-52.79
-55.46
-58.61
-62.68
-67.86
-73.86
-79.79
-84.21
-85.52
-82.41
-74.28
-61.43
-44.96
-26.43
-7.53
10.25
25.75
38.18
47.12
52.49
54.63
54.13
51.8
48.45
44.76
41.21
38.09
35.59
33.81
32.82
32.58
32.94
33.65
34.42
35
35.18
34.92
34.18
33
31.39
29.33
26.83
23.94
20.79
17.6
14.57
11.82
9.35
7
4.57
1.9
-1.07
-4.25
-7.47
-10.54
-13.35
-15.91
-18.36
-20.96
-23.93
-27.41
-31.34
-35.51
-39.62
-43.4
-46.71
-49.61
-52.28
-55.07
-58.42
-62.72
-68.23
-74.81
-81.74
-87.72
-91.11
-90.34
-84.39
-73.17
-57.48
-38.88
-19.21
-0.23
16.68
30.63
41.23
48.5
52.76
54.46
54.18
52.47
49.89
46.95
44.07
41.59
39.69
38.41
37.68
37.43
37.57
38.04
38.74
39.52
40.16
40.41
40.06
39.03
37.34
35.14
32.63
30
27.39
24.9
22.56
20.38
18.34
16.42
14.61
12.85
11.12
9.37
7.56
5.66
3.68
1.63
-0.45
-2.51
-4.54
-6.58
-8.69
-10.99
-13.53
-16.29
-19.18
-22.06
-24.89
-27.72
-30.73
-34.12
-38.01
-42.32
-46.84
-51.29
-55.45
-59.24
-62.79
-66.42
-70.58
-75.71
-82.03
-89.28
-96.56
-102.38
-104.98
-102.82
-95.08
-81.91
-64.39
-44.2
-23.21
-3.11
14.81
29.7
41.17
49.15
53.9
55.88
55.72
54.13
51.8
49.35
47.23
45.69
44.76
44.31
44.15
44.16
44.3
44.62
45.15
45.8
46.35
46.53
46.12
45.04
43.36
41.3
39.1
36.91
34.79
32.7
30.55
28.31
26.03
23.75
21.58
19.51
17.54
15.64
13.78
11.99
10.29
8.66
7.09
5.49
3.8
1.95
-0.12
-2.43
-4.98
-7.72
-10.58
-13.43
-16.14
-18.68
-21.1
-23.56
-26.25
-29.31
-32.76
-36.51
-40.33
-44
-47.36
-50.41
-53.34
-56.55
-60.52
-65.74
-72.35
-80.01
-87.74
-94
-97.01
-95.23
-87.84
-74.98
-57.71
-37.8
-17.21
2.3
19.41
33.4
44.04
51.43
55.89
57.81
57.64
55.89
53.17
50.1
47.23
44.96
43.44
42.62
42.35
42.47
42.88
43.56
44.43
45.36
46.11
46.42
46.07
44.96
43.14
40.8
38.22
35.68
33.41
31.47
29.8
28.21
26.5
24.49
22.15
19.56
16.88
14.24
11.76
9.45
7.29
5.25
3.26
1.24
-0.89
-3.18
-5.64
-8.19
-10.75
-13.25
-15.7
-18.18
-20.8
-23.59
-26.46
-29.27
-31.87
-34.21
-36.37
-38.53
-40.97
-43.98
-47.82
-52.66
-58.41
-64.56
-70.09
-73.54
-73.36
-68.41
-58.32
-43.76
-26.19
-7.53
10.42
26.25
39.13
48.72
54.99
58.06
58.27
56.09
52.24
47.57
42.96
39.11
36.4
34.88
34.38
34.56
35.18
36.05
37.1
38.22
39.2
39.74
39.53
38.34
36.14
33.08
29.49
25.73
22.07
18.68
15.56
12.63
9.79
6.94
4.03
1.03
-2.06
-5.27
-8.62
-12.09
-15.56
-18.86
-21.8
-24.34
-26.62
-28.95
-31.71
-35.15
-39.24
-43.71
-48.13
-52.1
-55.43
-58.2
-60.68
-63.29
-66.51
-70.77
-76.35
-83.13
-90.4
-96.81
-100.56
-99.86
-93.49
-81.28
-64.15
-43.94
-22.75
-2.54
15.29
29.99
41.27
49.18
53.95
55.95
55.69
53.81
50.96
47.78
44.75
42.17
40.17
38.8
38.01
37.75
37.95
38.48
39.21
39.95
40.5
40.66
40.3
39.36
37.86
35.89
33.57
30.99
28.27
25.49
22.75
20.16
17.78
15.56
13.42
11.2
8.87
6.5
4.28
2.36
0.78
-0.64
-2.2
-4.22
-6.82
-9.91
-13.22
-16.42
-19.36
-22.05
-24.71
-27.62
-31.01
-34.91
-39.19
-43.51
-47.55
-51.09
-54.09
-56.79
-59.62
-63.09
-67.68
-73.69
-80.96
-88.79
-95.87
-100.44
-100.71
-95.39
-84.05
-67.37
-46.94
-24.88
-3.32
16.02
32.03
44.3
52.91
58.27
60.91
61.38
60.17
57.78
54.78
51.75
49.2
47.47
46.59
46.35
46.49
46.77
47.12
47.57
48.13
48.69
49.01
48.76
47.71
45.84
43.32
40.51
37.76
35.31
33.23
31.34
29.43
27.29
24.83
22.14
19.39
16.79
14.45
12.42
10.59
8.82
6.92
4.72
2.11
-0.93
-4.29
-7.74
-11.08
-14.13
-16.94
-19.71
-22.76
-26.37
-30.61
-35.29
-40.04
-44.44
-48.25
-51.49
-54.45
-57.64
-61.59
-66.79
-73.43
-81.23
-89.24
-95.88
-99.21
-97.45
-89.58
-75.71
-57.14
-35.97
-14.49
5.36
22.34
35.87
45.88
52.55
56.21
57.26
56.27
53.91
50.94
48.06
45.77
44.32
43.64
43.56
43.86
44.43
45.27
46.39
47.73
49.05
50.01
50.21
49.39
47.53
44.85
41.7
38.49
35.51
32.88
30.61
28.58
26.65
24.71
22.68
20.53
18.31
16.07
13.91
11.92
10.15
8.53
6.95
5.2
3.1
0.56
-2.36
-5.51
-8.64
-11.59
-14.3
-16.89
-19.61
-22.69
-26.29
-30.38
-34.77
-39.12
-43.12
-46.58
-49.52
-52.27
-55.4
-59.57
-65.23
-72.35
-80.13
-87.02
-91.06
-90.36
-83.75
-71.18
-53.77
-33.46
-12.53
6.97
23.55
36.44
45.48
50.97
53.49
53.73
52.4
50.16
47.57
45.07
42.96
41.4
40.45
40.03
40.03
40.31
40.77
41.36
41.99
42.55
42.83
42.61
41.74
40.18
38.04
35.52
32.84
30.17
27.56
25.03
22.55
20.1
17.68
15.29
12.93
10.57
8.17
5.78
3.45
1.29
-0.7
-2.59
-4.54
-6.72
-9.21
-11.92
-14.67
-17.24
-19.56
-21.72
-23.95
-26.48
-29.46
-32.91
-36.62
-40.36
-43.81
-46.78
-49.19
-51.21
-53.17
-55.58
-58.97
-63.7
-69.79
-76.69
-83.29
-88.01
-89.17
-85.42
-76.18
-61.88
-43.88
-24.14
-4.66
12.88
27.47
38.69
46.57
51.36
53.39
53.08
50.93
47.61
43.88
40.49
37.97
36.55
36.14
36.42
37.07
37.81
38.52
39.18
39.76
40.18
40.29
39.88
38.75
36.79
34.03
30.66
27.03
23.53
20.48
18.01
16.05
14.33
12.57
10.58
8.29
5.83
3.37
1.07
-0.99
-2.84
-4.62
-6.53
-8.77
-11.44
-14.52
-17.88
-21.32
-24.65
-27.74
-30.6
-33.32
-36.12
-39.29
-43.18
-48.13
-54.27
-61.29
-68.28
-73.77
-76.08
-73.81
-66.34
-54.08
-38.34
-20.93
-3.66
12.06
25.35
35.77
43.2
47.64
49.28
48.45
45.75
41.93
37.81
34.11
31.32
29.64
29.03
29.24
29.99
31
32.11
33.2
34.17
34.88
35.15
34.8
33.7
31.83
29.33
26.45
23.45
20.57
17.92
15.51
13.27
11.13
9.02
6.86
4.62
2.25
-0.29
-3.01
-5.84
-8.71
-11.47
-14.09
-16.6
-19.19
-22.12
-25.64
-29.83
-34.57
-39.53
-44.36
-48.76
-52.7
-56.38
-60.23
-64.8
-70.56
-77.7
-85.89
-94.09
-100.64
-103.57
-101.22
-92.78
-78.65
-60.36
-40.07
-19.98
-1.78
13.54
25.63
34.55
40.49
43.76
44.74
44.04
42.36
40.46
38.96
38.18
38.14
38.64
39.4
40.2
40.96
41.69
42.44
43.2
43.86
44.25
44.15
43.43
42.05
40.08
37.72
35.26
32.92
30.85
29.07
27.48
25.89
24.19
22.37
20.53
18.83
17.41
16.31
15.4
14.49
13.36
11.89
10.12
8.21
6.36
4.71
3.24
1.73
-0.14
-2.67
-5.94
-9.79
-13.86
-17.71
-21.06
-23.87
-26.39
-29
-32.03
-35.62
-39.67
-43.89
-48.01
-51.8
-55.27
-58.55
-61.9
-65.7
-70.4
-76.42
-83.88
-92.35
-100.62
-106.8
-108.74
-104.71
-94.03
-77.38
-56.6
-34.15
-12.4
6.87
22.7
34.86
43.57
49.31
52.6
54.01
54.07
53.32
52.26
51.27
50.61
50.38
50.54
50.97
51.52
52.07
52.58
53.05
53.46
53.71
53.62
52.97
51.56
49.39
46.63
43.66
40.9
38.65
36.94
35.55
34.11
32.31
30.05
27.5
24.94
22.65
20.77
19.22
17.79
16.23
14.4
12.28
10.02
7.83
5.85
4.15
2.58
0.89
-1.22
-3.94
-7.26
-10.95
-14.6
-17.88
-20.6
-22.91
-25.16
-27.8
-31.16
-35.25
-39.79
-44.34
-48.45
-51.96
-54.98
-57.9
-61.25
-65.57
-71.26
-78.35
-86.33
-93.99
-99.55
-101.01
-96.76
-86.21
-70.01
-49.91
-28.28
-7.38
11.08
26.18
37.65
45.65
50.57
52.89
53.17
52.07
50.27
48.43
47.03
46.33
46.32
46.8
47.49
48.15
48.67
49.06
49.37
49.59
49.62
49.26
48.31
46.66
44.38
41.72
39.05
36.66
34.7
33.01
31.28
29.08
26.17
22.5
18.34
14.12
10.26
7
4.39
2.25
0.3
-1.76
-4.1
-6.74
-9.52
-12.2
-14.58
-16.62
-18.49
-20.52
-23
-26.07
-29.55
-33.09
-36.3
-38.97
-41.15
-43.2
-45.61
-48.87
-53.38
-59.25
-66.17
-73.3
-79.27
-82.4
-81.14
-74.55
-62.65
-46.51
-27.91
-8.86
8.93
24.31
36.69
45.91
52
55.13
55.6
53.94
50.9
47.35
44.13
41.8
40.53
40.16
40.31
40.59
40.76
40.75
40.57
40.25
39.74
38.94
37.69
35.86
33.35
30.21
26.56
22.66
18.85
15.42
12.54
10.14
7.97
5.68
3
-0.16
-3.63
-7.11
-10.27
-12.93
-15.16
-17.22
-19.52
-22.36
-25.88
-29.92
-34.14
-38.15
-41.68
-44.69
-47.38
-50.14
-53.49
-57.93
-63.76
-70.9
-78.67
-85.72
-90.23
-90.34
-84.77
-73.25
-56.71
-36.99
-16.38
3.05
19.85
33.35
43.55
50.82
55.63
58.39
59.41
59
57.51
55.43
53.27
51.46
50.21
49.46
49.02
48.7
48.42
48.25
48.27
48.41
48.48
48.15
47.17
45.42
43.04
40.29
37.49
34.85
32.47
30.32
28.31
26.32
24.26
22.09
19.85
17.66
15.64
13.9
12.42
11.07
9.65
7.98
6.03
3.94
1.93
0.2
-1.19
-2.43
-3.84
-5.72
-8.24
-11.34
-14.78
-18.28
-21.58
-24.61
-27.42
-30.19
-33.19
-36.59
-40.47
-44.71
-49.01
-53.07
-56.63
-59.73
-62.69
-66.06
-70.5
-76.51
-84.22
-93.1
-101.87
-108.63
-111.24
-107.93
-97.89
-81.65
-60.93
-38.25
-16.14
3.47
19.51
31.83
40.79
46.99
50.99
53.2
54.01
53.8
52.98
51.96
51.05
50.43
50.09
49.92
49.78
49.57
49.25
48.85
48.35
47.72
46.84
45.57
43.8
41.5
38.7
35.59
32.36
29.22
26.31
23.72
21.45
19.45
17.65
15.99
14.4
12.86
11.38
9.95
8.54
7.1
5.55
3.82
1.93
-0.03
-1.99
-3.97
-6.07
-8.45
-11.16
-14.13
-17.11
-19.85
-22.23
-24.38
-26.63
-29.32
-32.58
-36.23
-39.88
-43.09
-45.56
-47.38
-48.89
-50.64
-53.18
-56.93
-62.08
-68.47
-75.49
-81.99
-86.37
-86.9
-82.22
-71.87
-56.48
-37.71
-17.71
1.45
18.25
31.95
42.39
49.77
54.38
56.48
56.39
54.56
51.6
48.22
45.08
42.65
41.11
40.39
40.26
40.49
40.89
41.35
41.78
42.06
42.01
41.45
40.25
38.37
35.89
33.02
29.98
27.04
24.37
22.09
20.17
18.44
16.65
14.58
12.16
9.5
6.9
4.64
2.88
1.52
0.26
-1.29
-3.43
-6.26
-9.63
-13.24
-16.75
-19.94
-22.75
-25.32
-27.94
-30.94
-34.51
-38.67
-43.19
-47.77
-52.13
-56.13
-59.84
-63.48
-67.47
-72.24
-78.19
-85.4
-93.42
-101
-106.31
-107.28
-102.31
-90.86
-73.76
-52.93
-30.86
-9.81
8.64
23.76
35.52
44.22
50.27
54.04
55.91
56.33
55.83
54.98
54.23
53.78
53.64
53.65
53.64
53.5
53.28
53.12
53.14
53.39
53.73
53.89
53.53
52.38
50.38
47.68
44.63
41.6
38.86
36.49
34.36
32.25
30.01
27.62
25.22
22.99
21.11
19.64
18.54
17.68
16.88
15.96
14.81
13.41
11.78
10.05
8.31
6.63
5.03
3.5
2
0.47
-1.12
-2.78
-4.47
-6.15
-7.76
-9.34
-11
-12.92
-15.28
-18.1
-21.26
-24.53
-27.67
-30.58
-33.36
-36.3
-39.66
-43.61
-48.02
-52.6
-56.96
-60.82
-64.14
-67.15
-70.27
-74.11
-79.25
-86.07
-94.46
-103.6
-111.81
-116.86
-116.54
-109.39
-95.29
-75.61
-52.78
-29.51
-8.09
10.1
24.62
35.65
43.67
49.15
52.49
54.07
54.32
53.74
52.82
51.97
51.4
51.17
51.19
51.34
51.59
51.99
52.62
53.52
54.59
55.59
56.21
56.15
55.21
53.38
50.83
47.87
44.86
42.07
39.61
37.41
35.3
33.12
30.86
28.61
26.53
24.71
23.12
21.61
20
18.19
16.13
13.89
11.47
8.9
6.15
3.27
0.35
-2.44
-4.94
-7.02
-8.69
-10.07
-11.41
-12.95
-14.91
-17.32
-20.07
-22.89
-25.49
-27.68
-29.48
-31.13
-32.99
-35.37
-38.36
-41.78
-45.23
-48.33
-50.84
-52.75
-54.32
-55.89
-57.91
-60.78
-64.89
-70.4
-76.96
-83.49
-88.21
-89.05
-84.28
-73.2
-56.45
-35.9
-13.98
7.01
25.41
40.45
52.02
60.41
65.97
69.05
70.01
69.25
67.22
64.42
61.3
58.22
55.38
52.82
50.51
48.42
46.57
44.99
43.68
42.58
41.51
40.18
38.31
35.77
32.59
29
25.39
22.13
19.44
17.33
15.6
13.91
11.91
9.48
6.69
3.85
1.32
-0.57
-1.71
-2.24
-2.49
-2.86
-3.69
-5.12
-7.07
-9.29
-11.49
-13.47
-15.19
-16.71
-18.21
-19.84
-21.73
-23.93
-26.47
-29.28
-32.24
-35.19
-38.02
-40.74
-43.56
-46.89
-51.17
-56.65
-63.1
-69.61
-74.71
-76.66
-74.02
-66.11
-53.33
-36.99
-18.93
-0.99
15.44
29.54
40.94
49.5
55.16
57.88
57.88
55.65
52
47.92
44.27
41.6
40.04
39.34
39.12
39.02
38.93
38.9
39.11
39.6
40.2
40.56
40.21
38.85
36.38
33.02
29.15
25.21
21.51
18.16
15.07
12.07
8.93
5.56
1.98
-1.66
-5.15
-8.38
-11.36
-14.25
-17.28
-20.64
-24.39
-28.45
-32.68
-36.9
-40.97
-44.85
-48.56
-52.31
-56.43
-61.4
-67.62
-75.14
-83.34
-90.83
-95.67
-95.95
-90.41
-78.93
-62.6
-43.31
-23.21
-4.13
12.74
26.82
37.97
46.21
51.66
54.51
55.16
54.12
52.07
49.65
47.34
45.39
43.88
42.73
41.86
41.25
40.9
40.82
41.01
41.34
41.61
41.58
41
39.74
37.78
35.24
32.35
29.39
26.57
24.01
21.71
19.58
17.46
15.24
12.84
10.24
7.55
4.87
2.4
0.26
-1.51
-3
-4.4
-5.94
-7.82
-10.09
-12.66
-15.33
-17.91
-20.32
-22.64
-25.06
-27.76
-30.85
-34.24
-37.75
-41.14
-44.26
-47.07
-49.69
-52.37
-55.53
-59.59
-64.88
-71.34
-78.34
-84.61
-88.37
-87.88
-81.91
-70.19
-53.55
-33.69
-12.75
7.25
24.75
38.82
49.17
55.99
59.76
61.12
60.7
59.1
56.85
54.35
51.89
49.64
47.63
45.83
44.22
42.81
41.7
40.99
40.74
40.83
41.02
40.97
40.35
39
36.92
34.31
31.43
28.58
25.95
23.65
21.65
19.85
18.13
16.38
14.55
12.63
10.69
8.77
6.97
5.35
4.01
2.96
2.17
1.48
0.67
-0.48
-2.05
-3.95
-5.91
-7.58
-8.74
-9.35
-9.64
-10.01
-10.89
-12.55
-14.98
-17.89
-20.68
-22.66
-23.28
-22.49
-20.87
-19.68
-20.52
-24.8
-33.21
-45.27
-59.33
-72.84
-83.04
-87.62
-85.32
-76.13
-61.21
-42.55
-22.46
-3.17
13.47
26.27
34.68
38.83
39.39
37.45
34.23
30.83
28.01
26.15
25.25
25.13
25.49
26.07
26.66
27.1
27.36
27.5
27.61
27.74
27.85
27.8
27.38
26.49
25.13
23.51
21.87
20.43
19.3
18.49
17.95
17.66
17.57
17.6
17.56
17.15
15.95
13.63
9.95
4.94
-1.16
-7.87
-14.62
-20.85
-26.12
-30.25
-33.28
-35.49
-37.15
-38.48
-39.57
-40.34
-40.71
-40.72
-40.6
-40.79
-41.84
-44.2
-48.04
-52.99
-58.1
-61.93
-62.95
-59.9
-52.28
-40.49
-25.84
-10.13
4.73
17.24
26.54
32.48
35.47
36.26
35.64
34.23
32.48
30.6
28.68
26.79
24.93
23.1
21.24
19.34
17.48
15.96
15.18
15.58
17.36
20.43
24.36
28.52
32.26
35.06
36.64
36.98
36.23
34.69
32.74
30.7
28.84
27.16
25.44
23.31
20.35
16.27
11
4.71
-2.28
-9.52
-16.49
-22.66
-27.54
-30.86
-32.66
-33.38
-33.76
-34.62
-36.54
-39.68
-43.72
-48.13
-52.32
-55.98
-59.11
-61.99
-64.97
-68.31
-72.02
-75.93
-79.72
-83.13
-86.09
-88.75
-91.49
-94.88
-99.5
-105.76
-113.54
-121.98
-129.43
-133.71
-132.62
-124.74
-109.87
-89.23
-65.14
-40.36
-17.4
2
17.02
27.59
34.22
37.62
38.61
37.97
36.47
34.83
33.59
33.12
33.5
34.55
35.97
37.42
38.73
39.89
41.04
42.33
43.83
45.44
46.96
48.09
48.59
48.31
47.27
45.68
43.9
42.34
41.26
40.72
40.51
40.27
39.7
38.7
37.43
36.19
35.27
34.75
34.48
34.16
33.49
32.38
30.9
29.35
28.09
27.41
27.43
28.07
29.02
29.89
30.35
30.3
29.93
29.75
30.35
32.13
35.16
39.01
43
46.41
48.27
48.23
46.83
45.31
45.19
48.03
55.27
68.18
87.43
112.41
141.8
174.03
207.59
241.13
273.43
303.25
329.05
348.75
359.03
357.56
344.47
322.3
294.8
265.51
236.87
209.93
184.44
156.51
123.93
88.1
53.03
22.25
-3.06
-23.8
-41.72
-58.93
-83.13
-118.06
-160.59
-202.93
-238.74
-266.04
