135.02
151.97
170.06
183.05
185.86
177.54
162.3
145.47
130.15
116.67
103.86
90.71
77.04
64.48
55.12
50.54
49.61
50.7
52.29
53.13
52.82
51.66
51.07
52.33
55.56
59.25
61.01
60.47
56.87
50.01
40.29
29.11
18.1
8.5
0.63
-5.82
-11.69
-18.4
-27.34
-39.67
-55.91
-75.95
-99.13
-124.34
-149.92
-173.99
-195.07
-212.23
-225.26
-234.46
-240.45
-243.87
-245.33
-245.32
-244.08
-241.4
-236.3
-227.15
-212.45
-191.78
-166.49
-139.48
-114.19
-93.14
-77.23
-65.55
-56.34
-48.12
-40.34
-33.4
-28
-24.46
-22.52
-21.54
-20.98
-20.67
-20.79
-21.67
-23.53
-26.38
-30.1
-34.51
-39.47
-44.76
-49.88
-53.97
-55.82
-54.13
-47.85
-36.5
-20.43
-0.73
20.95
42.8
63.13
80.68
94.75
105.16
112.16
116.2
117.79
117.33
115.15
111.57
107.01
101.97
96.93
92.24
87.93
83.78
79.41
74.55
69.16
63.44
57.7
52.17
46.79
41.24
35.11
28.07
20.13
11.57
2.89
-5.42
-13.14
-20.32
-27.24
-34.2
-41.27
-48.29
-54.74
-59.89
-62.88
-62.83
-58.94
-50.66
-37.88
-20.98
-0.82
21.49
44.76
67.88
89.81
109.56
126.14
138.81
147.21
151.65
153.05
152.7
151.82
151.19
150.96
150.75
149.87
147.68
143.7
137.68
129.61
119.65
108.2
95.65
82.38
68.61
54.41
39.78
24.7
9.2
-6.62
-22.68
-38.86
-55.13
-71.48
-87.89
-104.25
-120.22
-135.16
-147.99
-157.4
-162.02
-160.84
-153.5
-140.47
-122.87
-102.16
-79.82
-57.18
-35.37
-15.43
1.71
15.31
24.92
30.59
32.79
32.38
30.34
27.54
24.64
21.94
19.6
17.61
16.02
14.96
14.56
14.9
15.86
17.11
18.12
18.36
17.49
15.5
12.7
9.52
6.35
3.3
0.23
-3.21
-7.31
-12.2
-17.74
-23.55
-29.2
-34.37
-38.96
-43.12
-47.22
-51.7
-56.99
-63.31
-70.51
-78.01
-84.71
-89.19
-90.01
-86.07
-76.93
-62.93
-45.08
-24.75
-3.38
17.79
37.74
55.68
70.93
82.9
91.19
95.62
96.38
94.05
89.48
83.65
77.48
71.62
66.49
62.21
58.8
56.19
54.29
52.95
51.95
51.01
49.79
48.03
45.57
42.39
38.56
34.24
29.61
24.87
20.21
15.78
11.7
7.99
4.59
1.37
-1.81
-5.05
-8.36
-11.62
-14.69
-17.41
-19.76
-21.82
-23.86
-26.14
-28.87
-32.16
-35.87
-39.79
-43.64
-47.2
-50.37
-53.21
-55.93
-58.89
-62.53
-67.2
-73.05
-79.72
-86.33
-91.46
-93.52
-91.13
-83.54
-70.85
-53.99
-34.47
-13.97
5.94
24.05
39.52
51.81
60.68
66.15
68.46
68.13
65.88
62.48
58.66
54.97
51.73
49.03
46.86
45.12
43.73
42.62
41.7
40.87
39.97
38.78
37.09
34.73
31.62
27.81
23.47
18.75
13.81
8.71
3.45
-1.96
-7.44
-12.84
-18
-22.81
-27.26
-31.45
-35.49
-39.46
-43.42
-47.43
-51.61
-56.25
-61.56
-67.58
-73.87
-79.46
-83.04
-83.27
-79.26
-70.8
-58.48
-43.42
-26.93
-10.23
5.75
20.29
32.86
43.01
50.39
54.8
56.33
55.35
52.52
48.59
44.27
40.14
36.49
33.44
30.93
28.91
27.33
26.15
25.3
24.66
24.05
23.21
21.92
20.02
17.39
14.06
10.12
5.73
1.13
-3.45
-7.82
-11.89
-15.73
-19.54
-23.62
-28.21
-33.38
-38.97
-44.65
-49.96
-54.53
-58.17
-61.05
-63.65
-66.6
-70.49
-75.53
-81.37
-87.08
-91.26
-92.5
-89.71
-82.43
-70.81
-55.47
-37.27
-17.2
3.69
24.19
43.07
59.2
71.89
80.96
86.75
89.86
90.84
89.98
87.34
82.95
77.02
70.1
63.04
56.71
51.8
48.57
46.8
45.93
45.24
44.1
42.13
39.24
35.6
31.45
27.01
22.42
17.75
13.07
8.43
3.91
-0.5
-4.85
-9.24
-13.73
-18.34
-23.01
-27.6
-31.93
-35.86
-39.31
-42.24
-44.76
-47.11
-49.67
-52.88
-57.15
-62.62
-69
-75.52
-80.95
-83.88
-83.01
-77.5
-67.27
-52.97
-35.86
-17.45
0.81
17.75
32.58
44.8
54.12
60.4
63.63
64.07
62.2
58.73
54.45
50.05
45.98
42.47
39.5
36.98
34.79
32.82
30.93
28.92
26.54
23.58
19.93
15.62
10.83
5.76
0.57
-4.71
-10.13
-15.79
-21.73
-27.94
-34.28
-40.63
-46.85
-52.85
-58.63
-64.31
-70.15
-76.5
-83.67
-91.68
-100.07
-107.78
-113.29
-114.95
-111.45
-102.29
-87.88
-69.43
-48.65
-27.28
-6.78
11.8
27.8
40.84
50.71
57.4
61.11
62.31
61.63
59.75
57.25
54.47
51.61
48.75
46
43.57
41.66
40.43
39.85
39.68
39.53
39
37.76
35.59
32.46
28.46
23.86
19
14.19
9.55
4.95
0.07
-5.46
-11.84
-18.94
-26.37
-33.58
-40.16
-45.97
-51.16
-56.08
-61.15
-66.79
-73.29
-80.68
-88.58
-96.1
-101.87
-104.34
-102.17
-94.63
-81.78
-64.47
-44.02
-22.01
0.07
20.9
39.43
54.87
66.78
75.02
79.78
81.48
80.71
78.13
74.42
70.2
66
62.23
59.05
56.51
54.49
52.84
51.44
50.16
48.93
47.66
46.24
44.53
42.4
39.74
36.49
32.7
28.51
24.12
19.68
15.21
10.57
5.5
-0.19
-6.54
-13.33
-20.16
-26.59
-32.34
-37.34
-41.81
-46.18
-50.89
-56.32
-62.58
-69.46
-76.28
-82.03
-85.42
-85.15
-80.28
-70.43
-56.02
-38.13
-18.28
1.94
21.09
38.12
52.25
62.95
69.89
73.02
72.64
69.44
64.39
58.48
52.57
47.19
42.53
38.59
35.31
32.62
30.44
28.64
27
25.23
23.05
20.27
16.87
12.94
8.6
3.95
-0.99
-6.23
-11.81
-17.65
-23.62
-29.53
-35.21
-40.58
-45.72
-50.82
-56.17
-62.14
-68.99
-76.71
-84.83
-92.28
-97.52
-98.88
-95.01
-85.31
-70.16
-50.81
-29.06
-6.81
14.31
33.13
48.93
61.32
70.16
75.49
77.53
76.76
73.86
69.68
65
60.45
56.4
52.96
50.1
47.74
45.84
44.39
43.38
42.67
41.97
40.89
39.01
36.03
31.92
26.87
21.34
15.77
10.53
5.7
1.1
-3.64
-8.83
-14.62
-20.84
-27.14
-33.15
-38.64
-43.63
-48.38
-53.25
-58.61
-64.72
-71.7
-79.43
-87.45
-94.83
-100.25
-102.14
-99.05
-90.13
-75.46
-56.06
-33.67
-10.27
12.39
33.07
51
65.8
77.21
85.06
89.32
90.19
88.28
84.44
79.68
74.81
70.35
66.49
63.2
60.39
58.07
56.28
55.02
54.16
53.41
52.41
50.82
48.48
45.43
41.82
37.85
33.63
29.15
24.36
19.24
13.87
8.44
3.14
-1.91
-6.79
-11.7
-16.8
-22.16
-27.6
-32.81
-37.49
-41.54
-45.05
-48.37
-51.93
-56.18
-61.46
-67.93
-75.47
-83.49
-90.91
-96.18
-97.58
-93.71
-83.9
-68.54
-48.95
-27.1
-5.04
15.46
33.18
47.46
58
64.75
67.85
67.65
64.73
59.91
54.16
48.37
43.25
39.19
36.24
34.23
32.9
31.97
31.22
30.46
29.51
28.19
26.33
23.84
20.69
16.95
12.73
8.11
3.17
-2.06
-7.64
-13.6
-19.92
-26.53
-33.24
-39.82
-46.05
-51.87
-57.42
-63.07
-69.3
-76.44
-84.41
-92.5
-99.38
-103.42
-103.05
-97.26
-85.86
-69.54
-49.72
-28.17
-6.66
13.25
30.43
44.15
54.11
60.3
63.05
62.89
60.51
56.66
52.07
47.38
43.01
39.23
36.08
33.55
31.55
29.97
28.7
27.55
26.35
24.88
22.97
20.54
17.54
14.05
10.13
5.81
1.11
-4.02
-9.58
-15.58
-21.89
-28.29
-34.53
-40.37
-45.73
-50.75
-55.77
-61.3
-67.81
-75.53
-84.21
-92.97
-100.35
-104.54
-103.83
-97.13
-84.34
-66.34
-44.79
-21.63
1.28
22.51
41.05
56.3
67.93
75.85
80.22
81.45
80.15
77.07
72.94
68.4
63.9
59.72
55.97
52.69
49.86
47.55
45.8
44.65
44
43.59
43.02
41.86
39.82
36.84
33.08
28.84
24.42
20
15.6
11.01
5.97
0.18
-6.53
-14.12
-22.33
-30.76
-38.95
-46.6
-53.69
-60.46
-67.38
-74.92
-83.33
-92.36
-101.14
-108.17
-111.68
-109.95
-101.91
-87.44
-67.48
-43.77
-18.47
6.33
28.96
48.26
63.61
74.77
81.75
84.83
84.43
81.22
76.02
69.76
63.3
57.32
52.25
48.24
45.19
42.92
41.22
39.85
38.62
37.34
35.88
34.11
31.93
29.25
25.98
22.05
17.45
12.25
6.6
0.71
-5.17
-10.84
-16.18
-21.18
-25.99
-30.82
-36.04
-41.97
-48.86
-56.6
-64.67
-72.02
-77.24
-78.85
-75.61
-66.88
-52.88
-34.6
-13.64
8.16
29.01
47.44
62.39
73.19
79.58
81.69
80.01
75.33
68.59
60.73
52.51
44.5
37.08
30.48
24.99
20.78
17.91
16.25
15.53
15.35
15.26
14.86
13.83
11.97
9.3
6.06
2.62
-0.69
-3.84
-7.13
-11.15
-16.47
-23.33
-31.42
-39.97
-48.08
-55.09
-60.9
-66.03
-71.27
-77.16
-83.55
-89.38
-92.91
-92.24
-86.04
-73.96
-56.77
-36.09
-13.93
7.8
27.49
43.99
56.5
64.52
67.94
67.1
62.76
55.99
47.97
39.66
31.69
24.34
17.66
11.72
6.7
2.96
0.79
0.19
0.82
2.01
3.01
3.37
3
2.2
1.45
1.02
0.9
0.66
-0.25
-2.34
-5.78
-10.36
-15.64
-21.05
-26.23
-31.08
-35.89
-41.15
-47.52
-55.55
-65.5
-77.1
-89.38
-100.74
-109.09
-112.32
-108.84
-98.08
-80.71
-58.52
-33.89
-9.24
13.58
33.46
49.93
62.85
72.15
77.71
79.49
77.75
73.2
66.84
59.77
52.88
46.61
41.04
36.05
31.55
27.65
24.62
22.72
21.99
22.14
22.57
22.53
21.45
19.1
15.68
11.74
7.9
4.6
1.91
-0.45
-2.99
-6.2
-10.34
-15.3
-20.65
-25.8
-30.27
-33.87
-36.86
-39.79
-43.38
-48.22
-54.5
-61.91
-69.55
-76.14
-80.15
-80.19
-75.27
-65.06
-50.01
-31.24
-10.32
11.07
31.42
49.57
64.67
76.21
83.86
87.56
87.51
84.19
78.35
70.89
62.67
54.37
46.44
39.12
32.52
26.77
21.92
17.98
14.77
11.95
9.09
5.84
2.05
-2.22
-6.76
-11.34
-15.86
-20.29
-24.7
-29.08
-33.37
-37.44
-41.18
-44.47
-47.32
-49.86
-52.36
-55.22
-58.82
-63.3
-68.34
-72.99
-75.8
-75.15
-69.7
-58.84
-42.79
-22.59
0.22
23.91
46.84
67.59
85
98.27
107.01
111.26
111.56
108.76
103.89
97.85
91.37
84.89
78.66
72.84
67.5
62.66
58.25
54.1
49.97
45.59
40.76
35.35
29.37
22.95
16.31
9.67
3.18
-3.23
-9.87
-17.11
-25.31
-34.55
-44.59
-55.12
-65.68
-75.66
-84.54
-92.1
-98.56
-104.39
-110.09
-115.87
-121.57
-126.13
-127.62
-123.7
-112.59
-93.78
-68.24
-38.13
-6.11
24.9
52.93
77.53
99.24
118.64
135.87
150.66
162.67
171.82
176.98
177.98
176.43
175.09
176.18
180.62
188.25
198.27
209.44
217.18
217.87
211.19
199.64
185.71
170.58
154.55
137.57
119.56
95.55
62.42
22.33
-18.69
-55.74
-87.46
-115.38
-142.42
-171.89
-213.18
-272.58
-348.39
-432.19
-514.71
-588.59
-648.11
-688.71
-667.71
-566.76
-410.07
-247.05
-113.38
-18.64
43.43
83.5
110.63
130.37
138.8
132.82
115.94
97.01
83.8
79.55
83.72
93.67
105.98
112.37
107.11
90.98
70.17
51.24
38.32
32.43
32.83
37.55
41.08
39.35
32.38
23.66
16.62
12.63
11.24
11.12
10.91
8.26
2.06
-6.77
-15.94
-23.6
-29.2
-33.06
-35.76
-37.77
-39.92
-42.55
-46.24
-50.68
-55.65
-61.1
-66.86
-72.27
-76.15
-76.94
-73.14
-63.71
-48.28
-27.46
-2.69
24
50.35
74.2
93.72
107.69
115.6
117.78
115.08
108.69
99.84
89.66
79.15
69.17
60.41
53.32
48.05
44.33
41.61
39.24
36.74
33.91
30.84
27.73
24.73
21.79
18.66
14.92
10.21
4.37
-2.43
-9.82
-17.28
-24.39
-30.92
-36.92
-42.68
-48.67
-55.41
-63.32
-72.47
-82.37
-91.82
-98.92
-101.45
-97.43
-85.8
-66.8
-42.04
-14.01
14.48
41
63.82
81.98
95.15
103.42
107.11
106.76
103.05
96.81
88.94
80.31
71.7
63.75
56.88
51.33
47.06
43.83
41.22
38.81
36.21
33.21
29.71
25.73
21.31
16.42
11.02
5
-1.67
-8.99
-16.87
-25.12
-33.52
-41.74
-49.45
-56.34
-62.24
-67.3
-71.98
-76.94
-82.64
-88.99
-95.04
-99.13
-99.29
-93.9
-82.21
-64.56
-42.31
-17.4
8.02
32.03
53.04
69.95
82.13
89.5
92.45
91.76
88.4
83.35
77.4
71.1
64.79
58.64
52.76
47.27
42.24
37.69
33.56
29.72
25.99
22.26
18.44
14.48
10.3
5.75
0.67
-5.11
-11.61
-18.78
-26.4
-34.15
-41.66
-48.59
-54.73
-60.1
-65
-70.05
-76
-83.5
-92.73
-103.08
-113.01
-120.3
-122.56
-117.9
-105.53
-86.07
-61.4
-34.1
-6.81
18.34
40.04
57.69
71.1
80.28
85.31
86.38
84.01
79.06
72.71
66.13
60.32
55.82
52.74
50.87
49.92
49.72
50.32
51.87
54.44
57.83
61.48
64.58
66.3
66.06
63.7
59.5
54.03
47.87
41.43
34.86
28.09
20.87
12.9
3.93
-6.2
-17.38
-29.14
-40.54
-50.23
-56.66
-58.47
-54.77
-45.49
-31.38
-13.83
5.43
24.7
42.53
57.8
69.64
77.51
81.1
80.51
76.27
69.32
60.89
52.13
43.98
36.95
31.09
26.2
21.92
17.96
14.13
10.4
6.84
3.52
0.38
-2.75
-6.22
-10.39
-15.56
-21.82
-29.11
-37.23
-45.93
-54.99
-64.16
-73.19
-81.86
-90.14
-98.25
-106.48
-114.91
-123.02
-129.53
-132.51
-129.9
-120.17
-103
-79.49
-51.9
-22.97
4.78
29.53
50.24
66.51
78.37
85.98
89.46
89
85.02
78.28
69.81
60.77
52.05
44.43
38.18
33.08
28.6
24.31
20.02
15.83
11.94
8.44
5.77
3.98
2.37
-0.21
-4.78
-11.74
-20.84
-31.36
-42.43
-52.15
-59.24
-63.88
-67.45
-71.6
-77.33
-84.75
-93.19
-101.27
-105.18
-101.45
-88.82
-68.3
-42.39
-13.66
15.65
43.98
70.55
97.82
128.14
161.31
195.08
226.45
253.27
274.5
289.91
284.59
250.45
192.31
125.24
64.11
15.53
-20.61
-47.29
-67.7
-83.98
-94.66
-98.26
-97.46
-95.62
-96.73
-103.64
-117.66
-138.9
-166.78
-198.37
-223.37
-237.16
-236.89
-221.25
-191.07
-150.53
-107.19
-69.62
-42.94
-27.85
-22.36
-22.08
-22.81
-21.96
-18.75
-13.55
-6.68
2.54
14.74
28.91
42.82
53.62
59.16
58.73
53.27
44.75
35.7
28.11
22.37
18.06
14.34
10.42
6.08
1.64
-2.26
-4.84
-5.62
-4.76
-2.72
0
2.17
3.19
2.95
1.68
-0.23
-2.48
-5.04
-7.93
-11.15
-14.63
-18.14
-21.51
-24.72
-27.93
-31.36
-35.35
-40.22
-46.16
-53.09
-60.4
-66.92
-71.04
-71.02
-65.53
-54.06
-37.16
-16.3
6.54
29.3
50.26
68.11
81.97
91.34
95.97
95.94
91.71
84.16
74.6
64.5
55.22
47.64
42.07
38.2
35.38
32.92
30.4
27.75
25.13
22.74
20.55
18.3
15.59
11.99
7.33
1.7
-4.54
-10.92
-17.04
-22.69
-27.89
-32.93
-38.22
-44.23
-51.32
-59.58
-68.67
-77.65
-85
-88.81
-87.25
-79.04
-63.94
-42.9
-17.87
8.67
34.28
57.07
75.83
90.06
99.69
104.91
106.08
103.67
98.35
90.99
82.53
73.9
65.77
58.56
52.4
47.21
42.84
39.1
35.77
32.67
29.57
26.3
22.72
18.72
14.22
9.12
3.39
-2.89
-9.54
-16.27
-22.77
-28.85
-34.49
-39.87
-45.27
-51.03
-57.48
-64.87
-73.28
-82.46
-91.59
-99.25
-103.59
-102.83
-95.75
-82.19
-63.14
-40.46
-16.41
6.91
27.95
45.76
59.86
70.07
76.35
78.82
77.85
74.09
68.45
61.88
55.25
49.14
43.83
39.33
35.52
32.31
29.64
27.45
25.65
24.1
22.53
20.71
18.43
15.6
12.22
8.37
4.14
-0.35
-5.05
-9.9
-14.86
-19.87
-24.85
-29.76
-34.63
-39.62
-44.95
-50.86
-57.44
-64.41
-71.01
-76
-77.9
-75.34
-67.49
-54.37
-36.87
-16.57
4.65
24.96
42.87
57.29
67.57
73.4
74.88
72.5
67.14
59.97
52.2
44.84
38.48
33.29
29.08
25.58
22.58
20.04
17.98
16.42
15.19
13.98
12.36
9.97
6.59
2.25
-2.82
-8.23
-13.61
-18.72
-23.5
-28.18
-33.18
-38.94
-45.74
-53.36
-60.94
-67.05
-69.96
-68.14
-60.77
-48
-30.92
-11.24
9.17
28.64
45.86
59.91
70.16
76.25
78.12
76.15
71.12
64.14
56.36
48.78
41.98
36.17
31.2
26.79
22.73
19.03
15.82
13.3
11.48
10.12
8.66
6.49
3.09
-1.75
-7.85
-14.75
-21.85
-28.63
-34.82
-40.43
-45.78
-51.3
-57.51
-64.72
-72.9
-81.46
-89.17
-94.42
-95.47
-91.01
-80.58
-64.69
-44.76
-22.69
-0.48
20.18
38.06
52.44
62.98
69.65
72.7
72.57
69.88
65.3
59.49
53.07
46.53
40.29
34.67
29.89
26.01
22.98
20.66
18.82
17.19
15.58
13.8
11.69
9.15
6
2.13
-2.53
-7.91
-13.81
-19.89
-25.8
-31.26
-36.15
-40.6
-44.93
-49.57
-54.94
-61.32
-68.72
-76.76
-84.52
-90.65
-93.5
-91.6
-84.05
-70.86
-53.02
-32.23
-10.54
10.21
28.64
43.93
55.7
63.83
68.34
69.38
67.33
62.86
56.86
50.32
44.06
38.53
33.86
29.86
26.32
23.15
20.44
18.36
17.01
16.25
15.71
14.9
13.35
10.79
7.2
2.74
-2.24
-7.38
-12.38
-17.04
-21.35
-25.43
-29.57
-34.14
-39.49
-45.84
-53
-60.33
-66.65
-70.49
-70.43
-65.53
-55.64
-41.48
-24.4
-6.03
12.08
28.6
42.51
53.05
59.7
62.34
61.28
57.27
51.37
44.63
37.9
31.64
26.04
21.12
16.91
13.47
10.87
9.1
7.99
7.2
6.29
4.77
2.27
-1.4
-6.14
-11.62
-17.38
-22.95
-28.11
-32.88
-37.59
-42.75
-48.83
-56.05
-64.23
-72.66
-80.11
-85.04
-85.91
-81.59
-71.72
-56.86
-38.38
-18.12
2.04
20.53
36.24
48.52
57.07
61.87
63.15
61.33
57.11
51.26
44.64
37.93
31.62
26.01
21.14
17.01
13.55
10.73
8.55
6.93
5.74
4.66
3.28
1.13
-2.15
-6.71
-12.39
-18.74
-25.21
-31.28
-36.71
-41.59
-46.29
-51.36
-57.33
-64.48
-72.7
-81.32
-89.09
-94.41
-95.6
-91.39
-81.27
-65.73
-46.09
-24.25
-2.19
18.4
36.31
50.85
61.66
68.68
71.99
71.92
69.04
64.16
58.19
52
46.27
41.35
37.28
33.9
30.96
28.23
25.64
23.18
20.91
18.87
16.94
14.87
12.3
8.91
4.57
-0.6
-6.27
-12.07
-17.75
-23.22
-28.6
-34.06
-39.78
-45.92
-52.61
-59.95
-67.79
-75.53
-82.06
-85.86
-85.37
-79.49
-67.97
-51.51
-31.59
-10.04
11.34
31.03
47.95
61.35
70.77
76.03
77.23
74.83
69.64
62.76
55.34
48.35
42.38
37.6
33.81
30.7
28.01
25.65
23.63
21.96
20.47
18.83
16.63
13.54
9.48
4.65
-0.56
-5.72
-10.54
-14.98
-19.22
-23.63
-28.6
-34.47
-41.32
-48.85
-56.34
-62.61
-66.23
-65.83
-60.47
-50
-35.12
-17.19
2.1
21.09
38.43
53.15
64.53
72.12
75.63
75.11
71
64.17
55.79
47.06
38.93
31.92
26.17
21.54
17.88
15.03
12.88
11.22
9.71
7.91
5.39
1.89
-2.58
-7.72
-13.16
-18.51
-23.58
-28.42
-33.3
-38.66
-44.93
-52.47
-61.26
-70.77
-79.87
-86.9
-90.04
-87.82
-79.51
-65.4
-46.7
-25.21
-2.87
18.64
38.03
54.43
67.24
76.05
80.65
81.14
78.03
72.2
64.79
56.92
49.54
43.16
37.91
33.6
29.95
26.72
23.8
21.19
18.89
16.8
14.62
11.93
8.28
3.39
-2.7
-9.63
-16.83
-23.75
-30
-35.58
-40.81
-46.23
-52.37
-59.61
-68
-77.16
-86.27
-94.05
-98.92
-99.31
-94.02
-82.62
-65.68
-44.67
-21.65
1.23
22.17
39.95
53.93
63.88
69.83
71.94
70.54
66.26
60
52.89
46.02
40.22
35.86
32.87
30.86
29.38
28.16
27.13
26.41
26.07
26.06
26.12
25.81
24.64
22.29
18.61
13.78
8.15
2.17
-3.77
-9.36
-14.46
-19.07
-23.31
-27.42
-31.77
-36.73
-42.48
-48.78
-54.77
-59.04
-59.98
-56.28
-47.39
-33.74
-16.66
2.07
20.59
37.34
51.19
61.44
67.68
69.76
67.78
62.08
53.35
42.48
30.5
18.44
7.18
-2.67
-10.78
-17.1
-21.75
-24.9
-26.74
-27.45
-27.23
-26.39
-25.37
-24.66
-24.68
-25.65
-27.45
-29.71
-31.91
-33.63
-34.75
-35.55
-36.6
-38.56
-41.91
-46.69
-52.4
-58
-62.11
-63.32
-60.42
-52.75
-40.33
-23.89
-4.63
16
36.56
55.81
72.77
86.67
96.87
102.93
104.73
102.61
97.42
90.36
82.71
75.43
69.02
63.45
58.37
53.41
48.35
43.25
38.32
33.74
29.52
25.46
21.18
16.31
10.6
4.01
-3.27
-10.87
-18.41
-25.61
-32.39
-38.9
-45.51
-52.69
-60.79
-69.84
-79.26
-87.83
-93.88
-95.69
-91.97
-82.35
-67.51
-48.95
-28.55
-8.1
11.04
27.96
42.02
52.72
59.67
62.7
62.03
58.33
52.62
45.98
39.35
33.33
28.15
23.79
20.15
17.09
14.54
12.43
10.68
9.2
7.83
6.38
4.65
2.44
-0.35
-3.69
-7.48
-11.49
-15.55
-19.55
-23.55
-27.72
-32.32
-37.64
-43.84
-50.93
-58.6
-66.16
-72.52
-76.31
-76.16
-71.05
-60.66
-45.53
-26.92
-6.54
13.86
32.83
49.36
62.87
73
79.57
82.47
81.83
78.06
71.87
64.22
56.07
48.25
41.3
35.4
30.56
26.63
23.43
20.86
18.81
17.2
15.89
14.64
13.16
11.06
8.06
3.98
-1.08
-6.83
-12.86
-18.75
-24.25
-29.31
-34.07
-38.81
-43.81
-49.37
-55.63
-62.51
-69.62
-76.1
-80.78
-82.29
-79.44
-71.56
-58.72
-41.79
-22.22
-1.76
17.9
35.34
49.53
59.75
65.64
67.08
64.37
58.15
49.48
39.61
29.77
20.89
13.39
7.21
1.96
-2.78
-7.17
-11.1
-14.26
-16.45
-17.73
-18.47
-19.21
-20.33
-21.9
-23.7
-25.35
-26.59
-27.41
-28.06
-28.98
-30.64
-33.4
-37.51
-42.9
-49.02
-54.71
-58.37
-58.27
-53.13
-42.62
-27.49
-9.37
9.78
28.17
44.48
57.86
67.76
73.74
75.53
73.16
67.2
58.73
49.2
40.01
32.14
25.9
21.01
16.86
12.93
9.06
5.42
2.37
0.12
-1.43
-2.77
-4.61
-7.55
-11.9
-17.48
-23.84
-30.43
-36.75
-42.62
-48.08
-53.47
-59.28
-66
-74.01
-83.36
-93.59
-103.61
-111.73
-116.02
-114.81
-107.21
-93.18
-73.73
-50.57
-25.86
-1.63
20.47
39.21
53.76
63.59
68.84
70.09
68.19
64.01
58.4
52.12
45.74
39.48
33.38
27.9
23.71
21.29
20.7
21.62
23.56
25.76
27.52
28.41
29.14
31.16
36
44.6
57.18
73.27
91.46
110.22
124.13
128.25
120.91
104.98
85.15
65.04
46.63
30.14
15.58
2.78
-7.87
-15.87
-20.92
-23.47
-24.36
-25.33
-28.47
-35.35
-47.05
-63.58
-84.43
-108.74
-135.22
-161.27
-176.64
-175.87
-156.81
-121.97
-78.05
-34
2.32
26.82
40.02
45.43
45.89
42.92
36.33
25.76
12.2
-1.68
-12.67
-18.56
-19.23
-17.19
-15.15
-15.13
-17.57
-20.98
-23.32
-23.16
-20.12
-14.97
-9.63
-5.82
-4.5
-5.5
-7.52
-8.46
-6.43
-0.33
9.56
21.48
33.06
42.15
47.44
48.75
46.84
42.59
36.59
29.05
20.03
9.96
-0.2
-9.02
-16.42
-21.64
-24.48
-25.26
-24.67
-23.39
-21.89
-20.3
-18.64
-16.88
-14.92
-12.97
-11.44
-10.79
-11.39
-13.37
-16.64
-20.84
-25.54
-30.25
-34.83
-39.49
-44.62
-50.65
-57.76
-65.74
-73.83
-80.72
-84.59
-83.71
-76.8
-63.5
-44.49
-21.37
3.74
28.66
51.55
71.09
86.32
96.62
101.67
101.56
96.9
88.82
78.79
68.35
58.73
50.66
44.3
39.43
35.66
32.62
30.15
28.16
26.6
25.29
23.9
21.94
18.94
14.64
9.09
2.68
-4
-10.4
-16.22
-21.58
-26.95
-33.04
-40.5
-49.6
-60.03
-70.79
-80.25
-86.46
-87.52
-82.07
-69.66
-50.88
-27.27
-0.98
25.66
50.55
72.1
89.26
101.5
108.74
111.25
109.62
104.7
97.49
89.06
80.35
72.12
64.79
58.5
53.15
48.51
44.35
40.51
36.94
33.62
30.5
27.4
23.96
19.75
14.43
7.91
0.42
-7.55
-15.45
-22.86
-29.68
-36.19
-42.92
-50.48
-59.31
-69.41
-80.15
-90.19
-97.68
-100.59
-97.29
-86.98
-70.07
-48.06
-23.15
2.23
26
46.69
63.48
75.99
84.12
87.91
87.58
83.66
76.97
68.64
59.84
51.59
44.52
38.84
34.38
30.83
27.87
25.32
23.1
21.17
19.39
17.51
15.18
12.08
8.01
3.05
-2.53
-8.33
-14
-19.37
-24.44
-29.38
-34.39
-39.71
-45.56
-52.18
-59.72
-68.01
-76.35
-83.41
-87.38
-86.48
-79.49
-66.24
-47.68
-25.63
-2.21
20.59
41.2
58.51
71.76
80.38
84.1
83.06
77.96
69.99
60.68
51.51
43.56
37.28
32.59
29.03
26.13
23.64
21.56
19.99
18.92
18.12
17.07
15.19
12.06
7.61
2.16
-3.78
-9.62
-15.02
-19.96
-24.71
-29.78
-35.7
-42.83
-51.17
-60.17
-68.77
-75.45
-78.59
-76.84
-69.51
-56.78
-39.66
-19.75
1.12
21.25
39.24
54.07
65.05
71.76
74.1
72.37
67.29
59.95
51.62
43.47
36.29
30.39
25.67
21.85
18.66
15.98
13.78
12.01
10.45
8.77
6.54
3.42
-0.71
-5.75
-11.4
-17.3
-23.1
-28.52
-33.5
-38.16
-42.85
-48.09
-54.45
-62.26
-71.33
-80.8
-89.13
-94.38
-94.7
-88.87
-76.66
-58.97
-37.51
-14.39
8.36
29.11
46.79
60.77
70.79
76.81
79.02
77.85
73.96
68.16
61.33
54.24
47.48
41.44
36.25
31.96
28.52
25.83
23.72
21.96
20.26
18.37
16.07
13.24
9.83
5.79
1.12
-4.15
-9.89
-15.9
-21.86
-27.5
-32.67
-37.42
-42.03
-46.95
-52.69
-59.6
-67.72
-76.53
-84.94
-91.34
-93.93
-91.19
-82.34
-67.6
-48.2
-26.04
-3.23
18.31
37.19
52.52
63.91
71.28
74.78
74.83
72.04
67.23
61.28
54.97
48.85
43.18
38.04
33.46
29.5
26.25
23.76
21.94
20.54
19.23
17.66
15.61
12.96
9.71
5.92
1.61
-3.18
-8.38
-13.95
-19.77
-25.7
-31.57
-37.17
-42.34
-46.99
-51.22
-55.3
-59.67
-64.78
-70.83
-77.52
-83.95
-88.68
-90.06
-86.65
-77.68
-63.33
-44.72
-23.7
-2.32
17.64
34.87
48.65
58.71
65
67.66
66.91
63.2
57.26
50.08
42.64
35.68
29.58
24.37
19.93
16.11
12.86
10.3
8.57
7.52
6.68
5.32
2.74
-1.39
-7.03
-13.77
-20.79
-27.17
-32.47
-36.95
-41.42
-46.77
-53.44
-61.41
-70.25
-79.03
-86.7
-92.7
-97.1
-100.11
-101.61
-100.59
-95.7
-85.75
-69.75
-47.21
-18.75
13.67
47.29
78.86
105.98
126.88
138.34
137.09
123.59
102.94
81.46
63.07
48.12
36.18
26.81
20.05
16.29
15.85
17.9
20.17
20.05
13.89
0.82
-18.88
-43.8
-70.96
-95.7
-112.9
-118.58
-106.7
-81.32
-51.15
-25.87
-11.97
-10.28
-16.45
-24.2
-28.72
-28.39
-25.12
-20.71
-15.81
-9.63
-1.25
10.26
23.75
36.58
46.09
49.9
48.07
42.32
34.97
28.06
22.62
18.52
14.92
10.99
6.01
0.35
-4.93
-8.7
-10.26
-9.56
-7.21
-4.52
-2.57
-2.22
-3.55
-6.09
-9.13
-12.07
-14.56
-16.72
-18.94
-21.63
-25.18
-29.61
-34.66
-39.91
-45.05
-50.03
-55.14
-60.88
-67.59
-75.22
-83.11
-89.94
-94.04
-93.69
-87.61
-75.32
-57.32
-35
-10.35
14.52
37.74
57.95
74.34
86.56
94.54
98.46
98.71
95.92
90.89
84.49
77.52
70.56
64
58.1
52.97
48.74
45.4
42.84
40.79
38.89
36.81
34.33
31.41
28.14
24.6
20.8
16.65
11.95
6.54
0.39
-6.32
-13.18
-19.7
-25.42
-30.14
-33.94
-37.26
-40.76
-45.12
-50.84
-58.05
-66.22
-74.16
-80.11
-82.12
-78.56
-68.58
-52.48
-31.63
-8.11
15.78
38.02
57.2
72.52
83.72
90.84
94.07
93.64
89.95
83.61
75.56
66.94
58.88
52.21
47.2
43.57
40.77
38.26
35.84
33.59
31.71
30.22
28.79
26.89
23.96
19.75
14.42
8.44
2.31
-3.59
-9.18
-14.56
-19.96
-25.59
-31.62
-38.25
-45.59
-53.6
-61.81
-69.22
-74.36
-75.62
-71.7
-62
-46.91
-27.6
-5.83
16.5
37.61
56
70.52
80.42
85.39
85.59
81.68
74.7
65.92
56.62
47.86
40.29
34.15
29.32
25.48
22.3
19.55
17.17
15.12
13.34
11.62
9.59
6.84
2.99
-2.16
-8.52
-15.75
-23.3
-30.64
-37.37
-43.43
-49.11
-54.93
-61.52
-69.23
-77.98
-87.08
-95.25
-100.79
-101.92
-97.24
-86.11
-68.94
-47.14
-22.8
1.79
24.6
44.22
59.9
71.38
78.71
82.06
81.72
78.15
72.08
64.49
56.47
48.96
42.6
37.54
33.61
30.42
27.58
24.89
22.33
19.96
17.81
15.73
13.43
10.49
6.54
1.46
-4.61
-11.28
-18.08
-24.59
-30.64
-36.28
-41.81
-47.61
-54.06
-61.42
-69.67
-78.36
-86.57
-92.84
-95.54
-93.16
-84.81
-70.56
-51.47
-29.41
-6.51
15.23
34.34
49.94
61.61
69.25
72.9
72.78
69.38
63.46
56.02
48.12
40.62
34.09
28.7
24.38
20.92
18.14
15.89
14.07
12.54
11.13
9.6
7.66
5.08
1.7
-2.54
-7.53
-13.12
-19.06
-25.12
-31.13
-37.02
-42.87
-48.94
-55.64
-63.38
-72.3
-81.97
-91.28
-98.51
-101.7
-99.17
-90.08
-74.63
-54.01
-30.11
-5.02
19.34
41.46
60.28
75.14
85.75
92.12
94.63
93.94
90.96
86.72
82.09
77.71
73.81
70.26
66.78
63.05
58.93
54.41
49.6
44.52
39.08
33.1
26.4
18.95
10.95
2.78
-5.19
-12.71
-19.78
-26.68
-33.82
-41.61
-50.23
-59.51
-68.84
-77.16
-83.07
-85.09
-82.02
-73.35
-59.43
-41.49
-21.36
-1.02
17.8
33.82
46.3
54.87
59.47
60.27
57.66
52.37
45.36
37.71
30.41
24.12
19.13
15.35
12.45
10.1
8.09
6.35
4.87
3.63
2.43
0.89
-1.42
-4.85
-9.52
-15.26
-21.64
-28.13
-34.29
-39.87
-44.97
-49.98
-55.46
-61.94
-69.61
-78.03
-86
-91.78
-93.48
-89.57
-79.45
-63.56
-43.34
-20.8
1.96
23.19
41.67
56.71
68.03
75.59
79.48
79.94
77.4
72.52
66.13
59.13
52.28
46.04
40.59
35.85
31.71
28.1
25.02
22.49
20.39
18.46
16.33
13.64
10.15
5.76
0.59
-5.18
-11.26
-17.37
-23.32
-29.04
-34.67
-40.51
-46.96
-54.28
-62.52
-71.27
-79.66
-86.39
-89.96
-89
-82.59
-70.62
-53.8
-33.62
-11.97
9.27
28.51
44.71
57.27
65.99
70.85
72.02
69.83
64.91
58.17
50.64
43.35
36.98
31.8
27.7
24.38
21.58
19.22
17.37
16.16
15.53
15.2
14.64
13.27
10.65
6.65
1.51
-4.26
-10.1
-15.53
-20.35
-24.64
-28.7
-32.94
-37.75
-43.43
-50.11
-57.54
-65.07
-71.51
-75.36
-75.11
-69.72
-58.98
-43.62
-25.05
-5.04
14.71
32.84
48.29
60.28
68.25
71.85
71.17
66.78
59.68
51.16
42.49
34.65
28.19
23.26
19.66
17.05
15.12
13.63
12.44
11.41
10.36
8.95
6.83
3.72
-0.45
-5.41
-10.68
-15.76
-20.32
-24.42
-28.47
-33.06
-38.79
-45.9
-54.25
-63.18
-71.61
-78.16
-81.37
-80.07
-73.56
-61.85
-45.73
-26.56
-6.07
13.99
32.12
47.23
58.67
66.19
69.89
70.13
67.47
62.62
56.39
49.57
42.86
36.84
31.85
28
25.15
23.03
21.3
19.74
18.24
16.79
15.33
13.66
11.38
8.01
3.29
-2.73
-9.63
-16.8
-23.67
-29.93
-35.6
-40.96
-46.4
-52.3
-58.92
-66.39
-74.5
-82.68
-89.83
-94.47
-95.01
-90.19
-79.52
-63.47
-43.48
-21.52
0.36
20.46
37.73
51.68
62.2
69.35
73.19
73.85
71.63
67.13
61.17
54.72
48.62
43.4
39.25
36.03
33.45
31.21
29.08
26.94
24.74
22.44
19.97
17.18
13.9
9.95
5.27
-0.07
-5.84
-11.72
-17.44
-22.85
-27.98
-33
-38.13
-43.64
-49.75
-56.55
-63.94
-71.39
-77.98
-82.35
-83.06
-78.96
-69.56
-55.28
-37.35
-17.43
2.77
21.81
38.67
52.64
63.2
70
72.85
71.95
67.93
61.78
54.71
47.77
41.63
36.51
32.31
28.79
25.81
23.38
21.53
20.28
19.41
18.51
17.14
14.89
11.59
7.33
2.37
-2.94
-8.28
-13.42
-18.24
-22.81
-27.3
-32.01
-37.32
-43.5
-50.59
-58.23
-65.51
-71.1
-73.53
-71.51
-64.34
-52.17
-35.98
-17.34
1.91
20.09
35.9
48.46
57.28
62.19
63.28
60.94
55.89
49.1
41.6
34.26
27.62
21.9
17.09
13.12
10
7.7
6.14
5
3.85
2.23
-0.17
-3.42
-7.42
-11.93
-16.76
-21.8
-27.02
-32.51
-38.44
-45
-52.35
-60.4
-68.62
-75.97
-80.99
-82.1
-78.09
-68.47
-53.79
-35.42
-15.31
4.6
22.73
38.04
49.99
58.32
62.95
63.93
61.55
56.44
49.53
41.91
34.51
28.01
22.67
18.48
15.29
12.87
11
9.36
7.61
5.42
2.6
-0.83
-4.72
-8.86
-13.18
-17.74
-22.77
-28.58
-35.36
-43.13
-51.61
-60.13
-67.6
-72.67
-73.88
-70.13
-60.98
-46.86
-29.02
-9.25
10.52
28.63
43.86
55.5
63.3
67.25
67.59
64.71
59.16
51.71
43.21
34.57
26.6
19.88
14.67
10.94
8.39
6.58
5.09
3.55
1.75
-0.43
-2.99
-5.93
-9.2
-12.76
-16.66
-20.98
-25.95
-31.82
-38.71
-46.42
-54.25
-60.98
-65.1
-65.1
-60
-49.59
-34.59
-16.42
3.01
21.82
38.41
51.68
61.01
66.25
67.53
65.23
59.91
52.39
43.65
34.75
26.61
19.88
14.76
11.08
8.42
6.32
4.36
2.25
-0.15
-2.97
-6.26
-10.06
-14.33
-18.97
-23.9
-29.15
-34.9
-41.37
-48.67
-56.5
-63.97
-69.69
-71.99
-69.45
-61.38
-48.06
-30.69
-11.05
8.94
27.66
43.88
56.81
65.89
70.76
71.28
67.68
60.61
51.2
40.79
30.66
21.76
14.49
8.84
4.44
0.85
-2.35
-5.44
-8.61
-11.94
-15.45
-19.09
-22.84
-26.71
-30.77
-35.2
-40.25
-46.2
-53.2
-61.07
-69.14
-76.17
-80.5
-80.4
-74.57
-62.57
-45.04
-23.57
-0.29
22.6
43.28
60.5
73.57
82.31
86.85
87.59
85.14
80.22
73.65
66.15
58.36
50.76
43.74
37.57
32.43
28.26
24.84
21.75
18.54
14.88
10.63
5.84
0.69
-4.66
-10.11
-15.73
-21.69
-28.25
-35.69
-44.17
-53.53
-63.1
-71.6
-77.3
-78.44
-73.7
-62.72
-46.23
-25.89
-3.83
17.78
37.2
53.26
65.31
73.11
76.73
76.47
72.85
66.55
58.39
49.23
39.89
31.04
23.16
16.54
11.26
7.27
4.4
2.39
0.9
-0.46
-2.12
-4.46
-7.7
-11.84
-16.72
-22.03
-27.5
-32.94
-38.43
-44.26
-50.84
-58.37
-66.57
-74.46
-80.5
-82.82
-79.84
-70.72
-55.74
-36.26
-14.23
8.2
29.15
47.12
61.1
70.53
75.2
75.23
71.05
63.66
54.4
44.55
34.97
26.14
18.3
11.53
5.77
0.86
-3.01
-5.64
-7.23
-8.57
-10.62
-13.97
-18.7
-24.62
-31.45
-38.26
-44.11
-48.71
-52.78
-57.32
-62.74
-68.55
-73.47
-75.82
-72.9
-62.1
-42.18
-13.89
20.57
58.6
97.66
135.46
163.78
174.55
165.47
142.27
113.72
86.11
62.07
42.25
26.81
16.05
10.96
11.79
16.66
21.59
22.29
16.49
4.76
-10.1
-24.54
-35.07
-39.79
-39.27
-36.27
-34.09
-35.08
-39.9
-48.19
-58.05
-66.8
-71.98
-72.29
-67.87
-59.48
-47.92
-33.69
-16.62
1.37
18.55
33.58
45.63
54.42
60.31
63.4
63.08
58.02
47.84
32.91
15.34
-1.88
-16.44
-26.92
-33.42
-35.74
-35.1
-32.19
-27.17
-20.73
-14.68
-12.51
-16.18
-26.82
-44.05
-66.03
-89.33
-109.18
-120.45
-116.79
-98.13
-68.27
-34.56
-5.14
14.09
21.98
21.78
18.74
17.08
17.69
19.31
19.75
18.11
15.4
14.12
16.51
23.18
32.64
41.64
47.24
47.28
41.5
31.44
19.94
10.04
3.82
1.81
2.7
4.63
5.78
5.33
3.49
1.16
-0.89
-2.5
-4.15
-6.74
-10.72
-15.97
-21.81
-27.32
-31.85
-35.21
-37.69
-39.88
-42.31
-45.21
-48.6
-52.3
-56.16
-60.25
-64.73
-69.6
-74.49
-78.45
-79.97
-77.34
-68.98
-54.24
-33.75
-9.28
16.71
41.71
63.7
81.44
94.39
102.56
106.2
105.63
101.28
93.67
83.56
71.92
59.89
48.62
38.97
31.4
25.87
22.07
19.51
17.82
16.73
16.07
15.65
15.18
14.27
12.55
9.81
6.08
1.64
-3.11
-7.77
-12.12
-16.13
-20
-24.07
-28.69
-34.16
-40.68
-48.12
-55.96
-63.12
-68.03
-68.94
-64.37
-53.6
-36.99
-15.93
7.46
30.87
52.29
70.2
83.6
92.03
95.38
93.95
88.49
80.1
70.14
59.9
50.38
42.18
35.46
30.16
26.16
23.36
21.65
20.8
20.37
19.78
18.41
15.81
11.87
6.79
1
-5.01
-10.9
-16.52
-21.99
-27.62
-33.81
-40.96
-49.24
-58.37
-67.51
-75.16
-79.51
-78.84
-72.08
-59.2
-41.3
-20.29
1.58
22.23
40.11
54.2
63.95
69.14
69.87
66.61
60.19
51.83
42.84
34.43
27.42
22.15
18.53
16.25
14.97
14.44
14.47
14.88
15.37
15.53
14.9
13.06
9.82
5.29
-0.16
-6.02
-11.8
-17.18
-22.08
-26.69
-31.41
-36.74
-43.1
-50.6
-58.9
-67.01
-73.39
-76.24
-74
-65.85
-52.06
-33.84
-13.1
8.09
27.95
45.26
59.36
69.88
76.52
78.98
77.15
71.29
62.23
51.22
39.91
29.95
22.43
17.55
14.67
12.75
10.87
8.5
5.59
2.71
0.57
-0.39
-0.53
-0.86
-2.36
-5.51
-10.15
-15.54
-20.42
-23.46
-23.49
-19.94
-12.62
-1.48
13.12
29.79
44.03
49.92
43.43
26.07
3.67
-17.14
-31.68
-38.23
-37.86
-33.37
-27.54
-22.54
-18.92
-16.6
-15.27
-14.54
-14.14
-13.96
-14.32
-15.51
-18.91
-24.93
-34.4
-48.31
-66.84
-88.33
-108.81
-122.74
-121.42
-103.01
-70.64
-31.96
3.63
28.59
39.82
38.9
30.26
18.73
7
-3.53
-12.55
-19.78
-24.54
-26.04
-24.09
-19.8
-14.34
-9.67
-7.04
-6.75
-8.2
-10.05
-10.61
-8.42
-2.74
6.24
16.97
27.69
36.73
43.03
46.27
46.82
45.28
42.09
37.4
30.9
22.63
13.09
3.36
-5.29
-11.77
-15.57
-16.85
-16.25
-14.85
-13.28
-11.79
-10.3
-8.63
-6.74
-4.8
-3.13
-2.07
-1.92
-2.83
-4.87
-7.93
-11.77
-15.98
-20.2
-24.17
-27.94
-31.85
-36.36
-41.91
-48.62
-56.11
-63.45
-69.25
-71.9
-69.93
-62.42
-49.26
-31.3
-10.19
11.95
33.04
51.37
65.84
75.9
81.47
82.77
80.23
74.44
66.23
56.64
46.88
38.09
31.14
26.33
23.38
21.64
20.36
18.99
17.4
15.7
14.07
12.5
10.72
8.3
4.84
0.24
-5.32
-11.42
-17.57
-23.44
-28.9
-34.03
-39.1
-44.45
-50.48
-57.49
-65.52
-74.17
-82.43
-88.79
-91.42
-88.71
-79.72
-64.54
-44.33
-20.95
3.41
26.79
47.68
65.12
78.56
87.74
92.64
93.49
90.82
85.47
78.43
70.76
63.32
56.69
51.14
46.7
43.22
40.53
38.38
36.56
34.81
32.87
30.52
27.57
23.91
19.46
14.23
8.27
1.67
-5.38
-12.63
-19.79
-26.63
-33.03
-39.05
-44.9
-50.91
-57.4
-64.63
-72.57
-80.78
-88.34
-93.86
-95.79
-92.74
-83.97
-69.62
-50.75
-29.04
-6.39
15.54
35.48
52.55
66.08
75.55
80.62
81.29
78.11
72.14
64.75
57.23
50.5
44.9
40.34
36.52
33.25
30.52
28.45
27.1
26.31
25.72
24.83
23.18
20.47
16.65
11.88
6.53
1.05
-4.17
-8.91
-13.19
-17.32
-21.77
-27
-33.35
-40.86
-49.24
-57.79
-65.41
-70.7
-72.12
-68.43
-59.02
-44.22
-25.31
-4.22
16.89
36.1
51.98
63.67
70.79
73.39
71.83
66.85
59.49
50.96
42.43
34.8
28.59
23.89
20.55
18.27
16.78
15.85
15.27
14.78
14.02
12.59
10.14
6.56
1.95
-3.37
-9.04
-14.72
-20.27
-25.72
-31.29
-37.28
-44.07
-51.89
-60.66
-69.75
-77.88
-83.32
-84.31
-79.61
-68.91
-52.93
-33.2
-11.62
9.98
30.03
47.28
60.79
69.9
74.34
74.33
70.56
64.07
56.09
47.73
39.88
33.07
27.54
23.25
19.99
17.52
15.57
13.98
12.63
11.38
10.02
8.26
5.76
2.29
-2.19
-7.46
-13.12
-18.76
-24.08
-29.01
-33.73
-38.56
-43.95
-50.29
-57.83
-66.44
-75.47
-83.66
-89.32
-90.63
-86.19
-75.44
-58.91
-38.09
-15.08
7.91
29.03
46.99
61.09
71.14
77.18
79.43
78.27
74.24
68.15
60.91
53.48
46.61
40.76
36.06
32.47
29.8
27.89
26.57
25.66
24.85
23.84
22.31
20.03
16.93
13.02
8.38
3.11
-2.7
-8.91
-15.34
-21.74
-27.87
-33.53
-38.71
-43.54
-48.29
-53.33
-59.01
-65.54
-72.8
-80.21
-86.65
-90.56
-90.25
-84.42
-72.6
-55.36
-34.26
-11.42
11.06
31.47
48.72
62.21
71.67
76.98
78.21
75.7
70.19
62.78
54.79
47.39
41.35
36.88
33.72
31.35
29.3
27.28
25.31
23.52
22.03
20.77
19.42
17.53
14.7
10.73
5.79
0.24
-5.47
-11
-16.22
-21.23
-26.21
-31.36
-36.84
-42.76
-49.15
-55.83
-62.22
-67.3
-69.69
-67.99
-61.27
-49.4
-33.21
-14.26
5.57
24.47
41.01
54.18
63.32
68.07
68.43
64.82
58.12
49.61
40.69
32.6
26.08
21.33
18.06
15.75
13.9
12.19
10.55
9.03
7.61
6.14
4.3
1.71
-1.87
-6.47
-11.85
-17.65
-23.49
-29.15
-34.6
-39.97
-45.52
-51.55
-58.32
-65.93
-74.02
-81.71
-87.54
-89.78
-86.85
-77.92
-63.17
-43.85
-21.92
0.43
21.29
39.32
53.74
64.27
70.92
73.87
73.44
70.12
64.58
57.67
50.32
43.39
37.55
33.11
30.06
28.11
26.85
25.9
24.99
23.95
22.64
20.94
18.7
15.79
12.16
7.84
2.99
-2.26
-7.75
-13.36
-19.01
-24.61
-30.04
-35.26
-40.28
-45.2
-50.24
-55.68
-61.84
-68.89
-76.64
-84.35
-90.67
-93.88
-92.28
-84.81
-71.4
-53.09
-31.72
-9.43
11.87
30.77
46.43
58.45
66.67
71.12
72.07
70.06
65.92
60.6
54.98
49.62
44.81
40.58
36.9
33.8
31.44
29.96
29.34
29.31
29.34
28.84
27.32
24.6
20.81
16.37
11.76
7.33
3.17
-0.82
-4.87
-9.16
-13.73
-18.49
-23.29
-28.02
-32.64
-37.2
-41.76
-46.44
-51.45
-57.04
-63.37
-70.32
-77.2
-82.76
-85.32
-83.3
-75.73
-62.57
-44.86
-24.28
-2.76
17.98
36.62
52.26
64.3
72.35
76.19
75.9
71.98
65.34
57.21
48.86
41.39
35.46
31.27
28.6
27.02
26.03
25.27
24.49
23.56
22.46
21.08
19.34
17.04
14.05
10.27
5.7
0.52
-5.02
-10.62
-16.06
-21.27
-26.37
-31.61
-37.28
-43.61
-50.71
-58.42
-66.25
-73.32
-78.45
-80.28
-77.65
-69.92
-57.22
-40.44
-21.13
-1.09
17.95
34.63
48.02
57.64
63.3
65.13
63.49
58.98
52.45
44.89
37.35
30.71
25.54
21.99
19.82
18.54
17.63
16.66
15.43
13.88
12.03
9.83
7.16
3.85
-0.26
-5.15
-10.67
-16.57
-22.52
-28.29
-33.75
-38.92
-44.02
-49.35
-55.21
-61.86
-69.35
-77.42
-85.36
-92.01
-95.87
-95.39
-89.42
-77.6
-60.57
-39.84
-17.39
4.79
25.13
42.6
56.65
67.02
73.63
76.56
76.12
72.88
67.62
61.21
54.45
47.97
42.21
37.41
33.66
30.9
28.98
27.61
26.5
25.29
23.69
21.5
18.59
14.95
10.69
5.93
0.82
-4.55
-10.14
-15.95
-21.91
-27.88
-33.67
-39.17
-44.41
-49.56
-54.97
-60.99
-67.85
-75.52
-83.53
-90.91
-96.19
-97.68
-93.89
-83.97
-68.12
-47.59
-24.41
-0.82
21.22
40.35
55.8
67.31
74.83
78.52
78.74
76.08
71.33
65.4
59.09
52.94
47.24
42.07
37.49
33.57
30.44
28.2
26.82
26.07
25.56
24.87
23.64
21.7
19.04
15.77
12.01
7.88
3.49
-1.03
-5.55
-9.93
-14.17
-18.32
-22.56
-27.13
-32.31
-38.32
-45.29
-53.12
-61.31
-68.88
-74.43
-76.42
-73.6
-65.46
-52.39
-35.7
-17.15
1.44
18.58
33.21
44.67
52.58
56.72
57.08
53.96
48.08
40.46
32.27
24.53
17.91
12.59
8.44
5.21
2.73
0.98
0.04
-0.11
0.33
0.91
1.11
0.45
-1.29
-4.04
-7.48
-11.17
-14.81
-18.27
-21.73
-25.57
-30.26
-36.13
-43.23
-51.15
-58.97
-65.3
-68.54
-67.18
-60.29
-47.77
-30.53
-10.26
10.99
31.24
48.99
63.27
73.62
79.81
81.85
79.97
74.71
66.97
57.9
48.63
40.06
32.64
26.37
20.97
16.06
11.37
6.89
2.71
-1
-4.23
-7.17
-10.17
-13.62
-17.76
-22.62
-27.94
-33.38
-38.57
-43.3
-47.51
-51.37
-55.18
-59.31
-64.16
-70.02
-76.91
-84.44
-91.6
-96.85
-98.35
-94.46
-84.24
-67.79
-46.27
-21.64
3.88
28.29
50.1
68.39
82.72
92.91
98.97
101.1
99.82
95.9
90.37
84.28
78.48
73.5
69.47
66.25
63.59
61.22
58.92
56.49
53.74
50.45
46.45
41.59
35.8
29.07
21.43
12.97
3.73
-6.21
-16.76
-27.78
-39.04
-50.19
-60.85
-70.77
-79.95
-88.76
-97.81
-107.7
-118.61
-129.92
-140.18
-147.29
-149.13
-144.14
-131.81
-112.93
-89.26
-63.21
-37.1
-12.85
8.37
25.99
39.86
50.01
56.49
59.46
59.25
56.52
52.2
47.35
42.89
39.49
37.39
36.56
36.75
37.63
38.87
40.07
40.87
40.97
40.17
38.35
35.39
31.19
25.64
18.72
10.68
2
-6.75
-15.09
-22.84
-30.15
-37.42
-45.05
-53.34
-62.4
-72.07
-81.94
-91.11
-98.26
-101.61
-99.4
-90.41
-74.51
-52.84
-27.58
-1.29
23.8
46.23
65.34
80.99
93.12
101.63
106.39
107.64
106.04
102.55
98.16
93.67
89.45
85.49
81.63
77.87
74.63
72.37
71.29
70.97
70.6
69.16
65.78
60.14
52.55
44
35.55
27.73
20.38
13.01
5.17
-3.3
-12.36
-21.86
-31.13
-39.74
-47.56
-54.71
-60.22
-62.33
-59.19
-49.71
-34.03
-12.46
13.29
40.16
63.82
81.9
93.86
100.52
103.22
103.33
103.68
106.01
110.05
112.84
112.83
110.1
106.33
103.81
104.69
112.69
129.71
154.51
181.67
205.91
223.77
234.21
237.78
221.25
179.58
121.11
72.42
36.09
4.21
-31.27
-70.99
-111.52
-148.71
-177.94
-197.77
-210.87
-224.31
-247.02
-284.43
-336.3
-397.94
-462.95
-523.11
-570.78
-600.21
-580.93
-499.56
-371.92
-233.88
-116.15
-31.02
25.23
62.55
89.87
111.22
123.71
124.35
114.27
98.44
82.4
70.14
63.25
61.38
62.7
62.24
56.8
47.22
37.21
30.26
27.97
29.85
34.11
38.5
39.28
34.46
25.15
14.49
5.39
-0.77
-4.15
-5.77
-6.72
-8.79
-13.57
-20.64
-28.4
-35.33
-40.73
-44.83
-48.37
-52.08
-56.71
-62.09
-66.75
-68.5
-65.25
-55.74
-39.95
-19.08
4.8
29.24
52
71.45
86.62
97.09
102.9
104.31
101.79
95.99
87.72
78.05
68.12
59.03
51.54
46.03
42.41
40.22
38.86
37.75
36.5
34.9
32.91
30.48
27.56
24.09
19.99
15.3
10.09
4.58
-1
-6.43
-11.57
-16.39
-20.96
-25.44
-30.03
-34.93
-40.34
-46.35
-52.86
-59.39
-64.99
-68.27
-67.62
-61.71
-49.98
-32.91
-11.94
10.89
33.51
54.17
71.65
85.14
94.1
98.29
97.83
93.3
85.86
76.95
68
60.05
53.59
48.52
44.39
40.73
37.17
33.63
30.16
26.86
23.73
20.58
17.06
12.8
7.57
1.36
-5.56
-12.74
-19.74
-26.27
-32.27
-37.96
-43.71
-49.97
-57.09
-65.22
-74.09
-82.88
-90.22
-94.31
-93.38
-86.2
-72.59
-53.53
-30.99
-7.36
15.18
35.09
51.61
64.52
73.88
79.71
82.05
81
76.98
70.73
63.24
55.54
48.44
42.46
37.78
34.39
32.18
30.93
30.36
30.07
29.61
28.55
26.64
23.83
20.19
15.88
11
5.61
-0.23
-6.4
-12.76
-19.12
-25.38
-31.48
-37.47
-43.45
-49.63
-56.28
-63.66
-71.85
-80.42
-88.34
-93.94
-95.33
-90.98
-80.24
-63.66
-42.82
-19.94
2.73
23.37
40.82
54.6
64.66
71.16
74.36
74.51
72.04
67.54
61.81
55.71
49.98
45.1
41.22
38.28
36.11
34.56
33.5
32.73
32.01
30.98
29.32
26.83
23.56
19.73
15.59
11.26
6.74
1.88
-3.48
-9.35
-15.59
-21.87
-27.86
-33.31
-38.23
-42.8
-47.37
-52.34
-57.97
-64.3
-70.96
-77.15
-81.65
-83.04
-80.02
-71.79
-58.35
-40.59
-20.13
1.05
21.02
38.28
51.82
61.18
66.24
67.18
64.42
58.67
50.94
42.45
34.43
27.84
23.12
20.19
18.56
17.64
17.03
16.66
16.64
17.11
17.94
18.7
18.77
17.56
14.78
10.56
5.3
-0.42
-6.19
-11.82
-17.41
-23.19
-29.45
-36.35
-43.97
-52.15
-60.52
-68.36
-74.61
-77.93
-77.02
-70.99
-59.65
-43.7
-24.58
-4.14
15.75
33.53
48.12
58.88
65.56
68.2
67.17
63.07
56.81
49.36
41.64
34.34
27.82
22.19
17.39
13.32
9.92
7.1
4.76
2.65
0.43
-2.22
-5.49
-9.37
-13.62
-17.89
-21.85
-25.32
-28.4
-31.44
-34.96
-39.48
-45.3
-52.31
-59.8
-66.52
-70.91
-71.48
-67.21
-57.89
-44.19
-27.43
-9.23
8.87
25.64
40.21
52.02
60.75
66.22
68.45
67.73
64.6
59.85
54.26
48.5
42.97
37.82
33.04
28.64
24.68
21.32
18.61
16.4
14.31
11.84
8.59
4.4
-0.51
-5.69
-10.64
-15.05
-18.9
-22.52
-26.46
-31.33
-37.62
-45.55
-54.86
-64.75
-73.89
-80.59
-83.17
-80.41
-71.94
-58.35
-41.06
-21.97
-2.96
14.51
29.5
41.62
50.72
56.81
59.9
60.13
57.81
53.45
47.78
41.6
35.61
30.31
25.94
22.55
20.02
18.23
17.02
16.27
15.81
15.39
14.69
13.32
10.95
7.4
2.71
-2.85
-8.85
-14.83
-20.47
-25.67
-30.6
-35.59
-41.04
-47.28
-54.53
-62.65
-71.18
-79.17
-85.23
-87.75
-85.29
-76.93
-62.68
-43.55
-21.35
1.76
23.73
43.04
58.76
70.58
78.51
82.8
83.82
82.01
77.93
72.18
65.39
58.14
50.93
44.16
38.1
32.96
28.8
25.56
23.06
21.04
19.27
17.51
15.63
13.52
11.12
8.39
5.25
1.63
-2.58
-7.44
-12.92
-18.9
-25.11
-31.22
-36.95
-42.15
-46.89
-51.45
-56.3
-61.92
-68.56
-76.09
-83.75
-90.14
-93.5
-92.13
-84.89
-71.64
-53.34
-31.76
-9.06
12.69
31.89
47.52
59.12
66.65
70.39
70.84
68.71
64.84
60.01
54.89
49.83
44.94
40.14
35.41
30.83
26.74
23.53
21.49
20.65
20.68
20.99
20.93
19.98
17.92
14.86
11.1
6.99
2.78
-1.42
-5.73
-10.33
-15.38
-20.9
-26.71
-32.5
-37.97
-42.89
-47.32
-51.5
-55.86
-60.85
-66.71
-73.29
-79.92
-85.44
-88.36
-87.32
-81.4
-70.42
-55.05
-36.58
-16.67
3.09
21.35
37.15
49.82
58.99
64.49
66.35
64.87
60.65
54.51
47.39
40.22
33.73
28.36
24.2
21.07
18.72
16.89
15.43
14.27
13.36
12.54
11.57
10.1
7.79
4.5
0.32
-4.44
-9.33
-13.97
-18.12
-21.8
-25.25
-28.8
-32.76
-37.38
-42.64
-48.25
-53.56
-57.63
-59.36
-57.79
-52.34
-43.06
-30.56
-15.92
-0.38
14.79
28.41
39.48
47.21
51.16
51.37
48.38
43.13
36.74
30.14
23.99
18.58
13.96
10.1
6.99
4.62
2.92
1.69
0.6
-0.77
-2.73
-5.51
-9.08
-13.28
-17.84
-22.51
-27.18
-31.88
-36.79
-42.17
-48.28
-55.25
-62.86
-70.53
-77.23
-81.63
-82.39
-78.49
-69.62
-56.26
-39.66
-21.46
-3.35
13.27
27.4
38.47
46.17
50.34
51.03
48.49
43.24
36.07
27.9
19.65
12.05
5.59
0.46
-3.4
-6.18
-8.22
-9.79
-11.16
-12.51
-13.98
-15.66
-17.63
-19.96
-22.71
-25.94
-29.73
-34.26
-39.75
-46.26
-53.54
-60.74
-66.44
-68.95
-66.78
-59.13
-46.17
-29.01
-9.32
11.05
30.51
47.78
61.98
72.49
78.92
81.18
79.57
74.72
67.55
59.09
50.33
42.03
34.7
28.61
23.75
19.92
16.81
14.03
11.26
8.23
4.82
0.95
-3.46
-8.47
-14.12
-20.42
-27.4
-35.15
-43.8
-53.45
-63.9
-74.43
-83.7
-89.88
-91.16
-86.19
-74.59
-57.09
-35.35
-11.54
12.14
33.83
52.2
66.44
76.2
81.49
82.61
80.12
74.82
67.58
59.3
50.74
42.42
34.68
27.77
21.85
17.09
13.59
11.27
9.86
8.86
7.69
5.84
3.02
-0.73
-5.13
-9.75
-14.28
-18.74
-23.56
-29.47
-37.21
-47.22
-59.21
-72.04
-83.75
-91.99
-94.49
-89.76
-77.41
-58.33
-34.4
-8
18.49
43.12
64.52
81.85
94.71
102.99
106.82
106.54
102.79
96.36
88.18
79.18
70.12
61.55
53.75
46.8
40.63
35.19
30.48
26.55
23.46
21.19
19.54
18.14
16.5
14.17
10.8
6.3
0.78
-5.5
-12.24
-19.2
-26.22
-33.28
-40.49
-48.13
-56.54
-66
-76.38
-86.92
-96.08
-101.87
-102.27
-95.95
-82.66
-63.38
-39.99
-14.78
10.11
33.01
52.86
69.03
81.18
89.19
93.06
93.07
89.79
84.07
76.93
69.31
61.94
55.21
49.24
44.03
39.56
35.94
33.26
31.57
30.72
30.31
29.77
28.5
25.98
21.93
16.34
9.41
1.5
-6.98
-15.63
-24.14
-32.36
-40.31
-48.2
-56.39
-65.26
-74.89
-84.92
-94.28
-101.34
-104.22
-101.25
-91.49
-75.07
-53.19
-27.85
-1.39
23.97
46.46
64.91
78.72
87.7
91.96
91.9
88.1
81.43
72.89
63.57
54.4
46.04
38.8
32.73
27.74
23.73
20.63
18.36
16.76
15.55
14.32
12.66
10.25
6.87
2.49
-2.83
-8.9
-15.43
-22.04
-28.38
-34.18
-39.4
-44.2
-48.95
-54.12
-60.15
-67.24
-75.24
-83.38
-90.3
-94.19
-93.21
-86.13
-72.69
-53.8
-31.27
-7.28
16.13
37.43
55.54
69.81
79.77
85.21
86.2
83.26
77.27
69.34
60.5
51.52
42.91
34.91
27.76
21.63
16.68
12.86
9.87
7.19
4.23
0.53
-4.08
-9.53
-15.58
-21.99
-28.56
-35.1
-41.47
-47.56
-53.4
-59.22
-65.4
-72.35
-80.12
-88.14
-95.12
-99.24
-98.63
-91.96
-78.87
-60.06
-37.15
-12.25
12.55
35.42
55.03
70.48
81.29
87.33
88.76
86.09
80.06
71.6
61.67
51.17
40.85
31.28
22.81
15.66
9.92
5.61
2.66
0.82
-0.33
-1.35
-2.78
-5.04
-8.26
-12.35
-16.98
-21.88
-26.89
-32.08
-37.79
-44.4
-52.19
-60.96
-69.95
-77.79
-82.67
-82.83
-76.97
-64.65
-46.5
-24.05
0.52
24.95
47.2
65.81
79.95
89.32
94
94.36
91
84.7
76.38
66.98
57.3
47.86
38.94
30.62
23.05
16.46
11.18
7.42
5.11
3.79
2.72
1.13
-1.49
-5.28
-10.02
-15.29
-20.75
-26.22
-31.79
-37.69
-44.29
-52
-61.1
-71.61
-82.94
-93.83
-102.34
-106.28
-103.77
-93.9
-77.03
-54.69
-29.24
-3.16
21.39
42.89
60.43
73.52
81.95
85.73
85.14
80.85
73.89
65.47
56.71
48.38
40.75
33.74
27.22
21.23
16.06
12.14
9.71
8.65
8.38
8.02
6.69
3.85
-0.63
-6.43
-12.99
-19.75
-26.35
-32.72
-39.09
-45.88
-53.61
-62.71
-73.26
-84.69
-95.69
-104.24
-107.99
-104.96
-94.14
-75.94
-52.06
-25.06
2.31
27.69
49.42
66.5
78.47
85.21
86.93
84.17
77.86
69.18
59.42
49.7
40.85
33.32
27.21
22.45
18.82
16.04
13.78
11.68
9.4
6.69
3.42
-0.38
-4.55
-8.91
-13.34
-17.8
-22.42
-27.45
-33.19
-39.96
-47.9
-56.84
-66.08
-74.38
-80.08
-81.44
-77.08
-66.41
-49.82
-28.66
-4.92
19.16
41.53
60.53
75.05
84.5
88.78
88.24
83.53
75.6
65.53
54.44
43.36
33.15
24.4
17.4
12.06
8.01
4.73
1.69
-1.46
-4.89
-8.61
-12.59
-16.86
-21.5
-26.61
-32.27
-38.56
-45.64
-53.68
-62.81
-72.82
-82.95
-91.71
-97.14
-97.26
-90.67
-77.01
-57.16
-32.94
-6.74
19.06
42.45
62.02
76.91
86.77
91.69
92.07
88.59
82.11
73.53
63.74
53.51
43.47
34.08
25.67
18.46
12.59
8.06
4.7
2.12
-0.23
-2.93
-6.39
-10.7
-15.61
-20.73
-25.71
-30.51
-35.37
-40.78
-47.24
-55.08
-64.18
-73.86
-82.81
-89.18
-90.97
-86.49
-74.92
-56.67
-33.35
-7.38
18.64
42.49
62.69
78.43
89.42
95.65
97.31
94.82
88.89
80.52
70.84
60.82
51.14
42.12
33.83
26.29
19.58
13.91
9.43
6.13
3.69
1.55
-0.98
-4.42
-9.01
-14.63
-20.83
-27.11
-33.02
-38.37
-43.31
-48.29
-53.94
-60.83
-69.14
-78.44
-87.54
-94.6
-97.55
-94.62
-84.88
-68.56
-46.99
-22.27
3.28
27.57
49.07
66.76
80.07
88.7
92.57
91.9
87.31
79.79
70.57
60.88
51.62
43.3
36.01
29.62
23.99
19.11
15.1
12.08
10.01
8.59
7.27
5.41
2.44
-1.87
-7.39
-13.68
-20.14
-26.25
-31.79
-36.83
-41.75
-47.05
-53.24
-60.62
-69.12
-78.1
-86.32
-91.99
-93.17
-88.33
-76.8
-59.07
-36.72
-12.02
12.68
35.37
54.67
69.78
80.31
86.17
87.52
84.83
78.95
70.97
62.04
53.13
44.83
37.36
30.71
24.86
19.86
15.89
13.13
11.51
10.66
9.96
8.7
6.36
2.73
-1.92
-7.1
-12.23
-16.95
-21.25
-25.45
-30.1
-35.78
-42.8
-51.06
-59.87
-67.92
-73.48
-74.72
-70.23
-59.5
-43.11
-22.66
-0.4
21.41
40.89
56.82
68.58
75.95
78.99
77.95
73.36
66.05
57.08
47.57
38.46
30.29
23.23
17.2
12.07
7.82
4.49
2.09
0.44
-0.91
-2.54
-4.97
-8.5
-13.04
-18.22
-23.55
-28.61
-33.24
-37.63
-42.16
-47.41
-53.86
-61.72
-70.64
-79.62
-87.01
-90.83
-89.23
-81.13
-66.52
-46.55
-23.21
1.21
24.61
45.39
62.48
75.21
83.29
86.68
85.71
81.08
73.82
65.1
55.99
47.28
39.41
32.5
26.51
21.37
17.07
13.64
11.08
9.26
7.87
6.42
4.43
1.5
-2.52
-7.5
-13.1
-18.88
-24.52
-29.87
-35.11
-40.62
-46.92
-54.39
-63.14
-72.66
-81.76
-88.71
-91.53
-88.61
-79.13
-63.48
-43.1
-20.12
3.22
25.04
44.09
59.65
71.35
79
82.46
81.86
77.62
70.61
61.97
52.92
44.43
37.08
31.01
26.01
21.81
18.2
15.15
12.73
10.97
9.75
8.71
7.3
4.99
1.4
-3.49
-9.4
-15.78
-22.1
-27.95
-33.26
-38.23
-43.26
-48.81
-55.24
-62.58
-70.5
-78.12
-84.15
-87.05
-85.4
-78.25
-65.48
-47.85
-26.85
-4.34
17.8
37.94
54.83
67.61
75.83
79.46
78.85
74.78
68.27
60.42
52.25
44.47
37.51
31.55
26.59
22.6
19.54
17.36
15.89
14.87
13.9
12.52
10.33
7.13
2.92
-2.04
-7.38
-12.77
-18.02
-23.19
-28.51
-34.39
-41.15
-48.92
-57.34
-65.55
-72.22
-75.8
-74.9
-68.66
-57.02
-40.72
-21.2
-0.22
20.39
39.01
54.34
65.49
71.98
73.81
71.47
65.88
58.23
49.75
41.47
34.08
27.84
22.69
18.46
14.95
12.1
9.86
8.15
6.7
5.05
2.7
-0.76
-5.42
-11.07
-17.26
-23.48
-29.35
-34.71
-39.68
-44.62
-50.02
-56.38
-63.99
-72.62
-81.36
-88.67
-92.58
-91.26
-83.6
-69.53
-50.14
-27.33
-3.35
19.7
40.18
57.01
69.58
77.65
81.29
80.88
77.12
70.98
63.5
55.69
48.27
41.66
35.91
30.9
26.44
22.44
18.95
16.13
14.1
12.78
11.81
10.59
8.48
5.08
0.37
-5.23
-11.1
-16.67
-21.69
-26.31
-30.92
-36.04
-42.09
-49.3
-57.64
-66.66
-75.47
-82.67
-86.6
-85.66
-78.84
-66.09
-48.41
-27.55
-5.57
15.66
34.77
50.87
63.47
72.27
77.15
78.2
75.77
70.56
63.46
55.4
47.23
39.55
32.71
26.86
21.98
17.98
14.78
12.31
10.49
9.16
7.98
6.54
4.32
1.01
-3.42
-8.66
-14.14
-19.3
-23.77
-27.55
-30.94
-34.49
-38.79
-44.32
-51.29
-59.48
-68.2
-76.21
-81.89
-83.6
-80.03
-70.71
-56.07
-37.39
-16.43
4.97
25.2
43.03
57.6
68.38
75.08
77.7
76.51
72.11
65.32
57.17
48.67
40.69
33.85
28.39
24.24
21.09
18.61
16.56
14.8
13.29
11.93
10.51
8.69
6.12
2.6
-1.84
-6.93
-12.32
-17.68
-22.78
-27.59
-32.21
-36.88
-41.99
-47.9
-54.82
-62.57
-70.4
-76.93
-80.48
-79.4
-72.67
-60.19
-42.91
-22.48
-0.91
19.91
38.42
53.54
64.6
71.28
73.58
71.83
66.75
59.34
50.76
42.1
34.19
27.52
22.2
18.1
15
12.68
10.96
9.67
8.6
7.41
5.69
3.06
-0.73
-5.67
-11.51
-17.82
-24.14
-30.16
-35.73
-40.96
-46.13
-51.62
-57.83
-64.98
-73
-81.33
-88.79
-93.77
-94.5
-89.56
-78.36
-61.33
-39.92
-16.15
7.82
30.16
49.58
65.28
76.86
84.15
87.21
86.35
82.17
75.58
67.69
59.6
52.18
45.94
40.97
37.07
33.9
31.16
28.64
26.25
23.95
21.65
19.19
16.34
12.84
8.46
3.06
-3.29
-10.36
-17.76
-24.99
-31.63
-37.49
-42.7
-47.73
-53.21
-59.69
-67.45
-76.23
-85.13
-92.67
-97.04
-96.47
-89.81
-76.78
-58.19
-35.72
-11.45
12.52
34.53
53.45
68.58
79.56
86.27
88.78
87.44
82.88
75.98
67.71
59.05
50.85
43.69
37.89
33.46
30.21
27.83
25.96
24.32
22.71
20.94
18.84
16.2
12.8
8.5
3.27
-2.79
-9.42
-16.31
-23.16
-29.74
-35.91
-41.75
-47.47
-53.42
-59.96
-67.34
-75.54
-84.05
-91.82
-97.28
-98.67
-94.45
-83.81
-67
-45.32
-20.83
4.17
27.63
48.08
64.68
77.06
85.11
88.9
88.67
84.9
78.41
70.24
61.49
53.12
45.77
39.72
34.97
31.33
28.56
26.42
24.71
23.25
21.91
20.51
18.85
16.67
13.7
9.7
4.61
-1.37
-7.87
-14.41
-20.58
-26.18
-31.26
-36.1
-41.15
-46.88
-53.63
-61.42
-69.72
-77.4
-82.82
-84.19
-80.01
-69.58
-53.24
-32.37
-9.04
14.42
35.93
53.95
67.6
76.52
80.78
80.72
76.9
70.11
61.41
52.02
43.1
35.59
29.91
26.02
23.47
21.72
20.29
18.9
17.46
15.92
14.2
12.13
9.46
5.96
1.51
-3.89
-10.03
-16.63
-23.31
-29.8
-35.95
-41.77
-47.44
-53.27
-59.57
-66.58
-74.29
-82.28
-89.59
-94.83
-96.33
-92.64
-82.95
-67.31
-46.76
-23.07
1.64
25.32
46.26
63.34
75.94
83.95
87.56
87.27
83.72
77.75
70.25
62.12
54.15
46.94
40.83
35.97
32.3
29.67
27.86
26.6
25.6
24.58
23.33
21.68
19.53
16.75
13.22
8.82
3.53
-2.5
-9
-15.58
-21.92
-27.83
-33.36
-38.68
-44.07
-49.84
-56.25
-63.42
-71.19
-78.94
-85.53
-89.4
-88.88
-82.71
-70.49
-52.85
-31.36
-8.1
14.84
35.74
53.43
67.22
76.87
82.35
83.85
81.74
76.6
69.23
60.56
51.61
43.25
36.09
30.4
26.14
23.07
20.91
19.43
18.42
17.62
16.74
15.44
13.43
10.6
7.02
2.85
-1.75
-6.72
-12.06
-17.75
-23.61
-29.4
-34.85
-39.83
-44.45
-49.01
-53.88
-59.44
-65.84
-72.98
-80.23
-86.57
-90.5
-90.48
-85.25
-74.28
-58.02
-37.76
-15.34
7.34
28.68
47.46
62.83
74.18
81.12
83.48
81.54
76.02
68.07
59.03
50.15
42.35
36.05
31.22
27.53
24.6
22.14
20.08
18.43
17.24
16.37
15.48
14.18
12.11
9.11
5.27
0.86
-3.84
-8.59
-13.3
-17.97
-22.65
-27.44
-32.43
-37.77
-43.6
-49.96
-56.69
-63.27
-68.8
-72.05
-71.73
-66.79
-56.85
-42.31
-24.38
-4.79
14.56
31.98
46.16
56.27
61.91
63.09
60.25
54.2
46.09
37.16
28.52
20.94
14.77
10
6.43
3.84
2.07
0.96
0.29
-0.27
-1.13
-2.7
-5.23
-8.77
-13.12
-17.95
-22.9
-27.78
-32.57
-37.55
-43.11
-49.66
-57.36
-65.99
-74.7
-82.14
-86.63
-86.59
-80.95
-69.49
-52.93
-32.78
-10.98
10.57
30.3
47.13
60.38
69.67
74.84
75.92
73.28
67.64
59.99
51.44
42.97
35.24
28.5
22.79
18.03
14.15
11.15
8.98
7.44
6.13
4.54
2.19
-1.21
-5.67
-10.92
-16.56
-22.2
-27.59
-32.8
-38.14
-44.11
-51.18
-59.55
-68.91
-78.28
-86.16
-90.71
-90.26
-83.77
-71.2
-53.47
-32.3
-9.74
12.32
32.41
49.59
63.34
73.29
79.25
81.15
79.27
74.3
67.33
59.62
52.31
46.08
41.07
37.04
33.58
30.39
27.41
24.75
22.51
20.63
18.82
16.61
13.6
9.56
4.56
-1.08
-6.92
-12.56
-17.81
-22.72
-27.56
-32.75
-38.74
-45.84
-54.1
-63.19
-72.27
-80.05
-84.89
-85.21
-79.94
-68.83
-52.63
-32.88
-11.5
9.66
29.15
45.95
59.45
69.25
75.18
77.26
75.83
71.54
65.26
57.93
50.43
43.42
37.3
32.23
28.16
24.89
22.25
20.1
18.36
16.95
15.69
14.26
12.22
9.15
4.82
-0.66
-6.91
-13.31
-19.28
-24.54
-29.1
-33.34
-37.77
-42.89
-48.98
-56.05
-63.76
-71.36
-77.74
-81.48
-81.17
-75.77
-64.93
-49.2
-29.94
-8.9
12.1
31.58
48.41
61.86
71.4
76.79
78.1
75.82
70.8
64.14
56.88
49.88
43.64
38.37
34.11
30.77
28.29
26.54
25.41
24.65
23.97
22.93
21.11
18.14
13.9
8.53
2.44
-3.87
-9.94
-15.6
-20.92
-26.22
-31.9
-38.29
-45.49
-53.29
-61.1
-67.95
-72.6
-73.78
-70.5
-62.33
-49.51
-32.92
-13.95
5.86
24.92
41.83
55.42
64.91
69.88
70.35
66.85
60.29
51.89
42.95
34.57
27.48
21.92
17.75
14.59
12.08
10.01
8.33
7.08
6.19
5.43
4.34
2.41
-0.71
-5.1
-10.48
-16.3
-22
-27.13
-31.57
-35.48
-39.24
-43.3
-48.03
-53.71
-60.39
-67.75
-75.04
-80.95
-83.84
-82.09
-74.65
-61.32
-42.99
-21.28
1.77
24.2
44.39
61.23
74.02
82.52
86.77
87.13
84.24
78.91
72.03
64.45
56.88
49.83
43.69
38.63
34.67
31.7
29.48
27.69
25.99
24.04
21.62
18.61
15.04
10.99
6.6
1.93
-3.02
-8.31
-14.03
-20.2
-26.76
-33.49
-40.12
-46.36
-52.04
-57.15
-61.97
-66.96
-72.57
-79.07
-86.16
-92.92
-97.85
-99.24
-95.61
-86.23
-71.31
-51.99
-29.96
-7.09
14.96
34.87
51.7
64.84
73.93
78.93
80.11
78.05
73.57
67.56
60.88
54.23
48.14
42.97
38.92
36.03
34.17
33.11
32.5
31.99
31.27
30.14
28.5
26.33
23.6
20.32
16.47
12.07
7.18
1.95
-3.44
-8.81
-14.02
-19.07
-24.05
-29.09
-34.27
-39.57
-44.86
-49.9
-54.48
-58.51
-62.04
-65.34
-68.78
-72.8
-77.73
-83.67
-90.33
-96.93
-102.22
-104.65
-102.7
-95.25
-81.99
-63.55
-41.38
-17.42
6.33
28.23
47.11
62.31
73.53
80.7
83.95
83.65
80.46
75.28
69.11
62.83
57.05
52.07
47.89
44.41
41.52
39.19
37.37
36.01
34.95
33.9
32.55
30.62
27.92
24.42
20.18
15.33
9.99
4.27
-1.72
-7.88
-14.12
-20.35
-26.51
-32.58
-38.66
-44.9
-51.45
-58.34
-65.29
-71.6
-76.15
-77.59
-74.7
-66.74
-53.77
-36.66
-16.97
3.5
22.98
40.1
53.89
63.85
69.77
71.72
70
65.17
58.06
49.67
41.07
33.2
26.77
22.09
19.11
17.47
16.66
16.17
15.59
14.69
13.36
11.6
9.42
6.73
3.4
-0.74
-5.75
-11.56
-17.91
-24.43
-30.79
-36.76
-42.34
-47.66
-52.98
-58.56
-64.66
-71.48
-79.12
-87.35
-95.45
-102.09
-105.52
-103.98
-96.21
-82
-62.22
-38.68
-13.59
10.94
33.27
52.34
67.56
78.68
85.61
88.48
87.65
83.78
77.76
70.58
63.14
56.13
49.99
44.9
40.92
37.98
35.93
34.52
33.41
32.22
30.65
28.48
25.65
22.16
18.02
13.23
7.78
1.71
-4.88
-11.81
-18.81
-25.67
-32.25
-38.51
-44.59
-50.73
-57.28
-64.54
-72.64
-81.3
-89.68
-96.39
-99.68
-97.84
-89.77
-75.35
-55.58
-32.4
-8.15
14.99
35.41
52.21
65.03
73.88
78.84
80.11
77.97
72.95
65.84
57.6
49.23
41.54
35.05
29.9
25.96
22.98
20.75
19.09
17.95
17.23
16.72
16.03
14.7
12.33
8.68
3.81
-1.99
-8.28
-14.62
-20.74
-26.54
-32.12
-37.65
-43.39
-49.55
-56.35
-63.88
-72.02
-80.19
-87.34
-91.91
-92.24
-86.98
-75.65
-58.79
-37.91
-15.03
7.81
29
47.41
62.32
73.22
79.77
81.86
79.77
74.25
66.51
57.86
49.49
42.18
36.24
31.62
28.09
25.42
23.49
22.21
21.44
20.91
20.15
18.65
15.99
12.04
7.01
1.35
-4.42
-9.99
-15.3
-20.55
-26.07
-32.16
-39.02
-46.63
-54.73
-62.78
-69.83
-74.61
-75.7
-71.91
-62.68
-48.28
-29.82
-8.96
12.43
32.63
50.22
64.08
73.48
78.04
77.86
73.53
66.1
56.9
47.25
38.28
30.71
24.81
20.49
17.37
14.98
12.95
10.99
8.97
6.75
4.15
0.96
-3.08
-8.06
-13.9
-20.27
-26.8
-33.17
-39.26
-45.19
-51.28
-57.9
-65.33
-73.63
-82.43
-90.87
-97.55
-100.74
-98.77
-90.49
-75.73
-55.4
-31.32
-5.73
19.17
41.67
60.65
75.54
86.1
92.29
94.24
92.33
87.21
79.84
71.32
62.71
54.87
48.3
43.1
39.09
35.95
33.35
31.04
28.9
26.8
24.61
22.13
19.09
15.23
10.36
4.47
-2.25
-9.46
-16.74
-23.72
-30.22
-36.33
-42.33
-48.69
-55.87
-64.13
-73.34
-82.87
-91.49
-97.57
-99.37
-95.44
-85.08
-68.59
-47.17
-22.73
2.6
26.88
48.57
66.64
80.5
89.92
94.97
95.98
93.55
88.48
81.69
74.12
66.52
59.45
53.26
48.1
44.01
40.92
38.7
37.06
35.59
33.83
31.39
28.04
23.83
19
13.86
8.59
3.22
-2.41
-8.5
-15.15
-22.24
-29.48
-36.5
-43.02
-48.98
-54.48
-59.83
-65.39
-71.51
-78.36
-85.8
-93.22
-99.42
-102.83
-101.71
-94.75
-81.46
-62.48
-39.42
-14.52
9.96
32.2
51
65.83
76.52
83.09
85.66
84.55
80.32
73.86
66.27
58.61
51.68
45.89
41.32
37.79
35.08
32.99
31.37
30.02
28.73
27.24
25.28
22.68
19.34
15.25
10.49
5.18
-0.5
-6.42
-12.42
-18.43
-24.38
-30.29
-36.15
-42.02
-48
-54.16
-60.55
-66.93
-72.72
-76.87
-78.04
-74.97
-66.85
-53.62
-36.1
-15.81
5.38
25.65
43.52
57.92
68.27
74.36
76.3
74.51
69.7
62.81
54.95
47.18
40.36
34.95
30.99
28.14
25.91
23.81
21.57
19.11
16.49
13.8
11.03
8.06
4.71
0.78
-3.82
-9.12
-15.01
-21.33
-27.82
-34.22
-40.3
-45.9
-51.01
-55.82
-60.72
-66.16
-72.47
-79.59
-86.86
-93.01
-96.31
-95.04
-88.03
-74.99
-56.67
-34.74
-11.24
11.79
32.72
50.51
64.58
74.72
80.91
83.28
82.18
78.21
72.27
65.35
58.42
52.2
47.01
42.87
39.61
37
34.92
33.37
32.31
31.66
31.19
30.55
29.33
27.17
23.88
19.47
14.23
8.56
2.92
-2.37
-7.25
-11.91
-16.68
-21.85
-27.5
-33.43
-39.31
-44.78
-49.69
-54.11
-58.27
-62.55
-67.33
-72.89
-79.27
-86.15
-92.65
-97.41
-98.77
-95.21
-85.85
-70.79
-51.12
-28.64
-5.39
16.84
36.74
53.49
66.67
76.06
81.61
83.42
81.89
77.68
71.74
65.05
58.45
52.53
47.54
43.55
40.48
38.22
36.67
35.64
34.89
34.17
33.24
31.97
30.24
27.97
25.1
21.54
17.33
12.57
7.52
2.41
-2.54
-7.23
-11.68
-16
-20.33
-24.78
-29.44
-34.27
-39.14
-43.85
-48.17
-51.99
-55.35
-58.48
-61.79
-65.7
-70.53
-76.33
-82.68
-88.66
-92.93
-93.89
-90.19
-81.04
-66.52
-47.64
-26.06
-3.69
17.67
36.63
52.26
64.06
71.84
75.65
75.77
72.69
67.15
60.04
52.33
44.92
38.45
33.31
29.56
27.05
25.53
24.72
24.35
24.18
23.89
23.19
21.76
19.38
16
11.78
7.02
2.06
-2.8
-7.46
-11.97
-16.5
-21.26
-26.4
-32.04
-38.23
-44.92
-51.92
-58.7
-64.34
-67.6
-67.21
-62.25
-52.48
-38.52
-21.62
-3.39
14.66
31.22
45.34
56.31
63.63
67.02
66.54
62.61
56.07
48.02
39.64
31.94
25.64
21
17.95
16.15
15.12
14.41
13.69
12.73
11.41
9.64
7.36
4.51
1.11
-2.84
-7.34
-12.41
-18.05
-24.19
-30.66
-37.17
-43.4
-49.18
-54.49
-59.6
-64.9
-70.78
-77.48
-84.8
-92.05
-98.02
-101.12
-99.74
-92.68
-79.6
-61.19
-39.11
-15.56
7.24
27.61
44.59
57.86
67.5
73.69
76.59
76.41
73.51
68.56
62.42
55.98
49.95
44.72
40.4
36.91
34.18
32.13
30.67
29.63
28.73
27.62
26.04
23.83
20.98
17.54
13.59
9.12
4.11
-1.49
-7.65
-14.28
-21.13
-27.92
-34.38
-40.33
-45.8
-51.04
-56.49
-62.61
-69.72
-77.76
-86.11
-93.58
-98.55
-99.32
-94.58
-83.83
-67.6
-47.4
-25.27
-3.29
16.89
34.24
48.32
58.99
66.22
70
70.4
67.68
62.47
55.63
48.13
40.84
34.34
28.89
24.47
20.93
18.04
15.63
13.56
11.72
9.93
7.97
5.55
2.39
-1.67
-6.64
-12.35
-18.49
-24.69
-30.58
-35.8
-39.93
-42.47
-42.89
-40.75
-36.06
-29.4
-22.02
-15.54
-11.49
-10.96
-14.26
-20.99
-30.21
-40.68
-50.99
-59.59
-64.97
-65.76
-61.15
-51.06
-36.29
-18.35
0.95
19.9
37.14
51.8
63.37
71.6
76.38
77.76
75.9
71.13
63.92
54.87
44.63
33.89
23.3
13.5
5.01
-1.8
-6.69
-9.59
-10.57
-9.8
-7.61
-4.44
-0.88
2.44
4.96
6.34
6.5
5.62
4
1.93
-0.28
-2.42
-4.31
-5.93
-7.48
-9.39
-12.17
-16.1
-20.96
-25.96
-29.87
-31.45
-29.86
-24.9
-17.07
-7.28
3.32
13.57
22.32
28.53
31.36
30.33
25.55
17.72
8
-2.3
-12.02
-20.36
-26.94
-31.71
-34.84
-36.64
-37.42
-37.52
-37.19
-36.55
-35.63
-34.44
-33.16
-32.17
-32.04
-33.32
-36.25
-40.7
-46.08
-51.63
-56.73
-61.13
-65.08
-69.16
-74.1
-80.45
-88.29
-97.06
-105.43
-111.53
-113.19
-108.57
-96.63
-77.53
-52.7
-24.47
4.52
31.86
55.79
75.34
90.11
100.15
105.77
107.54
106.34
103.27
99.55
96.21
93.91
92.81
92.75
93.39
94.5
96
97.91
100.27
102.94
105.62
107.92
109.47
109.98
109.28
107.26
103.82
98.93
92.59
84.96
76.3
66.99
57.36
47.55
37.44
26.69
14.91
1.87
-12.19
-26.48
-39.67
-50.13
-56.3
-57.03
-51.9
-41.22
-26.01
-7.7
12.05
31.62
49.59
64.79
76.42
84.02
87.52
87.3
84.09
78.95
73.07
67.61
63.48
61.22
60.94
62.31
64.68
67.17
68.72
68.31
65.07
58.6
49.07
37.27
24.47
12.04
1.04
-8.07
-15.47
-21.82
-27.88
-34.19
-40.89
-47.77
-54.44
-60.5
-65.71
-69.98
-73.36
-76.01
-78.18
-80.22
-82.47
-85.21
-88.58
-92.54
-96.96
-101.71
-106.7
-111.81
-116.72
-120.7
-122.65
-121.2
-115.13
-103.73
-87.07
-65.99
-42
-16.82
7.85
30.57
50.23
65.96
77.18
83.58
85.3
82.94
77.62
70.65
63.32
56.49
50.52
45.23
40.22
35.11
29.81
24.54
19.66
15.46
11.96
8.85
5.56
1.49
-3.83
-10.51
-18.38
-27
-35.86
-44.48
-52.55
-59.96
-66.83
-73.49
-80.27
-87.31
-94.28
-100.17
-103.48
-102.54
-96.01
-83.45
-65.41
-43.4
-19.37
4.62
26.84
45.93
60.92
71.2
76.51
77.02
73.4
66.79
58.6
50.2
42.67
36.54
31.82
28.11
24.88
21.77
18.69
15.78
13.25
11.2
9.45
7.59
5.1
1.59
-3.06
-8.66
-14.82
-21.15
-27.38
-33.4
-39.25
-45.04
-51.02
-57.5
-64.82
-73.18
-82.28
-91.17
-98.24
-101.5
-99.18
-90.32
-75.05
-54.6
-30.87
-5.94
18.39
40.8
60.4
76.59
88.93
97.12
101.1
101.17
98.01
92.56
85.86
78.79
71.96
65.67
60.05
55.15
51.05
47.79
45.35
43.5
41.81
39.76
36.87
32.94
28.08
22.7
17.24
11.96
6.85
1.59
-4.2
-10.82
-18.26
-26.21
-34.23
-41.8
-48.59
-54.55
-59.84
-64.88
-70.15
-76.08
-82.89
-90.45
-98.15
-104.88
-109.12
-109.19
-103.73
-92.07
-74.58
-52.61
-28.16
-3.42
19.82
40.37
57.64
71.37
81.44
87.75
90.34
89.49
85.81
80.12
73.26
66.01
58.94
52.54
47.15
43.05
40.35
38.87
38.2
37.74
36.91
35.3
32.77
29.39
25.38
20.97
16.36
11.69
7.03
2.39
-2.35
-7.31
-12.61
-18.28
-24.23
-30.22
-36
-41.44
-46.6
-51.82
-57.53
-63.97
-70.93
-77.52
-82.34
-83.76
-80.4
-71.6
-57.58
-39.45
-18.8
2.57
23.04
41.34
56.51
67.92
75.21
78.33
77.62
73.76
67.73
60.62
53.46
47.02
41.68
37.5
34.33
31.93
30.13
28.83
27.94
27.27
26.47
25.11
22.77
19.3
14.82
9.7
4.34
-0.99
-6.29
-11.74
-17.53
-23.77
-30.35
-37.03
-43.51
-49.58
-55.13
-60.28
-65.28
-70.52
-76.34
-82.88
-89.87
-96.48
-101.45
-103.22
-100.4
-92.11
-78.23
-59.55
-37.47
-13.82
9.6
31.25
50.04
65.3
76.76
84.37
88.29
88.81
86.41
81.75
75.63
68.89
62.3
56.44
51.63
47.96
45.35
43.63
42.61
42.09
41.82
41.51
40.81
39.37
36.98
33.6
29.43
24.83
20.14
15.6
11.2
6.77
2.09
-2.95
-8.28
-13.64
-18.76
-23.41
-27.6
-31.51
-35.43
-39.58
-44.03
-48.65
-53.17
-57.32
-61.01
-64.34
-67.63
-71.33
-75.84
-81.43
-88.04
-95.23
-102.06
-107.17
-108.97
-105.95
-97.16
-82.49
-62.8
-39.75
-15.36
8.43
30.12
48.71
63.68
74.77
81.86
85.03
84.59
81.17
75.69
69.16
62.47
56.2
50.61
45.72
41.51
38.04
35.45
33.87
33.24
33.2
33.19
32.62
31.1
28.54
25.13
21.18
16.98
12.65
8.21
3.6
-1.23
-6.26
-11.43
-16.63
-21.68
-26.43
-30.7
-34.41
-37.66
-40.72
-44.04
-48.07
-53.15
-59.19
-65.61
-71.3
-74.8
-74.64
-69.79
-59.94
-45.65
-28.2
-9.26
9.5
26.65
41.15
52.35
59.93
63.87
64.38
61.91
57.09
50.69
43.55
36.51
30.24
25.18
21.49
19.01
17.45
16.44
15.7
14.95
13.98
12.62
10.69
8.11
4.91
1.2
-2.9
-7.32
-12.04
-17.07
-22.35
-27.75
-33.09
-38.26
-43.25
-48.17
-53.27
-58.84
-65.1
-72.05
-79.32
-86.04
-90.97
-92.66
-89.83
-81.8
-68.62
-51.16
-30.83
-9.31
11.81
31.14
47.7
60.79
70.11
75.59
77.47
76.16
72.28
66.55
59.71
52.51
45.56
39.34
34.12
30
26.95
24.8
23.34
22.26
21.24
19.95
18.14
15.7
12.6
8.88
4.63
-0.06
-5.13
-10.49
-16.06
-21.73
-27.39
-32.92
-38.21
-43.21
-47.98
-52.75
-57.88
-63.79
-70.69
-78.39
-86.14
-92.61
-96.23
-95.46
-89.32
-77.58
-60.91
-40.68
-18.64
3.46
24.16
42.36
57.36
68.68
76.04
79.41
79.02
75.47
69.61
62.4
54.73
47.28
40.5
34.63
29.83
26.18
23.7
22.29
21.71
21.57
21.38
20.67
19.1
16.51
13
8.81
4.31
-0.22
-4.69
-9.17
-13.85
-18.92
-24.43
-30.23
-36.03
-41.52
-46.54
-51.15
-55.65
-60.46
-65.94
-72.16
-78.78
-84.93
-89.3
-90.44
-87.08
-78.52
-64.86
-46.96
-26.32
-4.64
16.42
35.49
51.57
63.99
72.42
76.79
77.36
74.65
69.46
62.76
55.53
48.65
42.73
38.08
34.69
32.31
30.58
29.16
27.84
26.53
25.2
23.76
22.04
19.74
16.61
12.5
7.48
1.79
-4.22
-10.22
-15.97
-21.42
-26.65
-31.9
-37.45
-43.62
-50.56
-58.15
-65.82
-72.56
-77.01
-77.73
-73.56
-63.97
-49.27
-30.61
-9.69
11.54
31.32
48.34
61.78
71.24
76.57
77.79
75.18
69.31
61.12
51.82
42.68
34.68
28.4
23.95
21.11
19.54
18.83
18.55
18.27
17.59
16.23
14.03
11.06
7.45
3.33
-1.28
-6.39
-12.01
-18.03
-24.24
-30.33
-36.12
-41.6
-46.95
-52.53
-58.73
-65.84
-73.88
-82.48
-90.75
-97.38
-100.74
-99.29
-91.93
-78.42
-59.47
-36.67
-12.09
12.14
34.25
53.07
68.01
78.94
86
89.44
89.56
86.79
81.67
74.89
67.24
59.52
52.46
46.59
42.19
39.27
37.51
36.44
35.52
34.27
32.38
29.75
26.42
22.5
18.12
13.31
8.04
2.25
-4.12
-10.99
-18.23
-25.54
-32.64
-39.29
-45.41
-51.12
-56.71
-62.55
-69
-76.17
-83.7
-90.66
-95.6
-96.82
-92.86
-82.89
-67.11
-46.68
-23.5
0.27
22.63
42.13
57.88
69.58
77.3
81.28
81.89
79.58
74.94
68.72
61.71
54.69
48.27
42.8
38.43
35.19
33.03
31.86
31.46
31.47
31.36
30.62
28.86
25.95
22.02
17.38
12.36
7.2
1.99
-3.3
-8.72
-14.28
-19.91
-25.51
-30.97
-36.28
-41.55
-46.98
-52.8
-59.14
-65.9
-72.64
-78.49
-82.22
-82.48
-78.13
-68.62
-54.22
-36.02
-15.64
5.14
24.8
42.17
56.44
66.98
73.32
75.21
72.83
66.94
58.85
50.05
41.95
35.39
30.63
27.41
25.25
23.7
22.49
21.51
20.73
20.04
19.21
17.84
15.53
12.02
7.25
1.48
-4.86
-11.3
-17.55
-23.55
-29.47
-35.66
-42.43
-49.99
-58.35
-67.24
-76.05
-83.78
-89.16
-90.81
-87.61
-79.01
-65.31
-47.56
-27.36
-6.48
13.48
31.3
46.14
57.51
65.12
68.87
68.87
65.54
59.64
52.25
44.48
37.36
31.52
27.17
24.09
21.94
20.35
19.12
18.19
17.53
17.01
16.34
15.09
12.87
9.43
4.81
-0.72
-6.69
-12.68
-18.38
-23.71
-28.82
-33.96
-39.46
-45.59
-52.53
-60.19
-68.07
-75.21
-80.2
-81.43
-77.52
-67.76
-52.41
-32.67
-10.43
12.25
33.58
52.29
67.61
79.2
86.88
90.63
90.61
87.22
81.19
73.43
64.91
56.48
48.72
41.93
36.15
31.27
27.13
23.6
20.57
17.98
15.7
13.52
11.1
8.04
4.04
-1.03
-7.04
-13.7
-20.64
-27.56
-34.26
-40.66
-46.73
-52.53
-58.17
-63.88
-69.92
-76.43
-83.27
-89.79
-94.85
-97.02
-94.97
-87.8
-75.38
-58.32
-37.93
-15.86
6.17
26.62
44.33
58.47
68.64
74.7
76.82
75.45
71.3
65.27
58.36
51.47
45.32
40.26
36.38
33.47
31.28
29.56
28.14
26.93
25.84
24.67
23.15
20.92
17.68
13.32
8.02
2.22
-3.63
-9.15
-14.27
-19.25
-24.47
-30.34
-37.07
-44.65
-52.81
-61
-68.38
-73.86
-76.15
-74.14
-67.1
-55.09
-38.92
-20.07
-0.28
18.77
35.72
49.57
59.68
65.66
67.45
65.42
60.35
53.35
45.66
38.3
31.97
26.88
22.97
19.99
17.72
16
14.69
13.66
12.68
11.47
9.67
6.96
3.09
-1.97
-8.05
-14.77
-21.65
-28.24
-34.29
-39.84
-45.19
-50.81
-57.15
-64.38
-72.14
-79.48
-84.95
-86.9
-83.94
-75.39
-61.46
-43.22
-22.32
-0.62
20.18
38.71
54.04
65.59
73.16
76.82
76.91
73.96
68.66
61.82
54.21
46.57
39.5
33.42
28.54
24.92
22.45
20.89
19.96
19.32
18.65
17.65
16.07
13.71
10.47
6.33
1.35
-4.28
-10.35
-16.58
-22.76
-28.77
-34.58
-40.26
-45.94
-51.81
-58.05
-64.86
-72.34
-80.3
-88.09
-94.52
-98.04
-97.06
-90.43
-77.8
-59.86
-38.09
-14.44
9.1
30.85
49.61
64.6
75.42
81.95
84.36
83.15
79.06
73.08
66.2
59.24
52.78
47.1
42.27
38.28
35.14
32.87
31.43
30.66
30.26
29.82
28.89
27.14
24.31
20.34
15.35
9.64
3.64
-2.31
-7.99
-13.47
-19.02
-24.9
-31.21
-37.78
-44.24
-50.21
-55.53
-60.37
-65.16
-70.41
-76.52
-83.52
-91.06
-98.26
-103.81
-106.14
-103.72
-95.5
-81.25
-61.74
-38.63
-14.03
9.94
31.55
49.67
63.71
73.51
79.13
80.83
79.09
74.61
68.29
61.11
54.01
47.65
42.39
38.32
35.39
33.49
32.53
32.35
32.71
33.24
33.53
33.19
31.98
29.81
26.77
22.96
18.54
13.6
8.19
2.38
-3.76
-10.08
-16.39
-22.51
-28.36
-34.06
-39.87
-46.15
-53.12
-60.6
-67.91
-73.84
-76.94
-75.84
-69.67
-58.3
-42.43
-23.42
-3.02
16.98
35.04
50.04
61.25
68.34
71.27
70.26
65.86
58.91
50.45
41.66
33.6
27.08
22.5
19.8
18.58
18.22
18.1
17.71
16.76
15.18
13.06
10.53
7.66
4.4
0.61
-3.9
-9.19
-15.19
-21.63
-28.13
-34.36
-40.13
-45.54
-50.88
-56.63
-63.22
-70.81
-79.14
-87.39
-94.15
-97.74
-96.49
-89.31
-75.95
-57.2
-34.69
-10.48
13.37
35.18
53.78
68.47
78.86
84.79
86.38
84.04
78.54
70.93
62.36
53.84
46.09
39.55
34.39
30.62
28.16
26.8
26.23
26.09
25.93
25.36
24.1
21.93
18.8
14.75
9.95
4.62
-1.05
-6.94
-13.06
-19.46
-26.13
-32.94
-39.63
-45.9
-51.62
-56.89
-62.09
-67.72
-74.24
-81.68
-89.47
-96.36
-100.57
-100.22
-93.9
-81.14
-62.59
-39.87
-15.11
9.53
32.26
51.83
67.43
78.64
85.31
87.62
86.11
81.65
75.27
67.97
60.55
53.52
47.17
41.7
37.29
34.11
32.21
31.45
31.42
31.5
31.09
29.71
27.19
23.61
19.25
14.4
9.27
3.95
-1.59
-7.42
-13.56
-19.96
-26.5
-32.99
-39.25
-45.21
-50.88
-56.45
-62.23
-68.58
-75.71
-83.44
-91.08
-97.35
-100.6
-99.17
-91.9
-78.48
-59.69
-37.11
-12.88
10.86
32.34
50.36
64.27
73.82
79.07
80.27
77.93
72.77
65.7
57.74
49.85
42.77
36.97
32.61
29.63
27.82
26.88
26.47
26.23
25.82
24.92
23.36
21.05
18.06
14.5
10.49
6.1
1.34
-3.76
-9.15
-14.67
-20.16
-25.49
-30.64
-35.73
-41.03
-46.83
-53.36
-60.61
-68.2
-75.33
-80.81
-83.2
-81.15
-73.77
-60.98
-43.52
-22.89
-0.97
20.34
39.43
55.07
66.48
73.23
75.27
72.97
67.11
58.87
49.62
40.66
32.98
27.1
23.05
20.52
19.09
18.36
18.08
18.08
18.18
18.11
17.48
15.93
13.18
9.16
4.04
-1.81
-7.95
-13.96
-19.62
-24.98
-30.35
-36.18
-42.93
-50.8
-59.54
-68.36
-75.94
-80.6
-80.72
-75.17
-63.65
-46.85
-26.3
-4.06
17.84
37.67
54.27
66.93
75.32
79.37
79.25
75.49
68.95
60.75
52.09
43.98
37.05
31.56
27.43
24.42
22.26
20.7
19.51
18.48
17.33
15.81
13.68
10.74
6.85
1.95
-3.89
-10.43
-17.29
-24.02
-30.22
-35.76
-40.8
-45.73
-51.1
-57.39
-64.9
-73.49
-82.56
-90.86
-96.72
-98.34
-94.24
-83.82
-67.53
-46.81
-23.68
-0.24
21.8
41.25
57.37
69.77
78.19
82.62
83.27
80.62
75.48
68.74
61.3
53.88
47.01
41.06
36.23
32.66
30.25
28.76
27.78
26.86
25.61
23.78
21.31
18.15
14.28
9.64
4.24
-1.84
-8.38
-15.09
-21.67
-27.96
-33.9
-39.53
-45.03
-50.62
-56.63
-63.37
-70.98
-79.22
-87.23
-93.59
-96.48
-94.26
-85.9
-71.37
-51.7
-28.74
-4.7
18.35
38.8
55.62
68.33
76.82
81.29
82.1
79.78
75.01
68.59
61.34
54.04
47.28
41.52
36.97
33.67
31.46
30.04
28.96
27.78
26.11
23.74
20.66
17.05
13.1
8.94
4.54
-0.25
-5.6
-11.63
-18.24
-25.21
-32.22
-38.95
-45.19
-50.9
-56.23
-61.48
-67.05
-73.28
-80.28
-87.68
-94.53
-99.33
-100.31
-95.95
-85.42
-68.93
-47.74
-23.84
0.54
23.4
43.26
59.23
70.85
78.03
80.87
79.81
75.55
69.11
61.67
54.28
47.75
42.45
38.45
35.61
33.67
32.42
31.6
30.97
30.29
29.35
27.93
25.88
23.07
19.44
15.04
10.05
4.77
-0.54
-5.76
-10.96
-16.38
-22.25
-28.73
-35.83
-43.44
-51.38
-59.29
-66.55
-72.11
-74.65
-72.84
-65.79
-53.4
-36.53
-16.78
3.91
23.61
40.8
54.41
63.84
68.84
69.52
66.34
60.09
51.89
43
34.6
27.54
22.17
18.42
15.88
14.04
12.55
11.26
10.11
9.05
7.83
6.1
3.45
-0.35
-5.23
-10.84
-16.68
-22.31
-27.55
-32.53
-37.71
-43.63
-50.75
-59.17
-68.45
-77.5
-84.7
-88.16
-86.22
-77.92
-63.36
-43.75
-21.09
2.35
24.49
43.84
59.45
70.87
77.91
80.62
79.28
74.49
67.21
58.58
49.75
41.64
34.82
29.41
25.26
22.08
19.59
17.63
16.11
14.94
13.9
12.58
10.45
7.07
2.24
-3.83
-10.65
-17.58
-24.08
-29.94
-35.32
-40.68
-46.6
-53.64
-62.07
-71.74
-82
-91.6
-98.83
-101.82
-99
-89.59
-73.87
-53.21
-29.68
-5.48
17.46
37.83
54.84
68.08
77.29
82.35
83.36
80.77
75.4
68.36
60.78
53.54
47.15
41.74
37.19
33.35
30.1
27.43
25.35
23.78
22.45
20.96
18.76
15.4
10.62
4.5
-2.58
-10.05
-17.34
-24.09
-30.25
-36.09
-42.03
-48.51
-55.82
-64.03
-72.85
-81.6
-89.13
-93.94
-94.45
-89.37
-78.12
-61.15
-39.82
-16.11
7.87
30.29
49.85
65.73
77.54
85.12
88.5
87.99
84.15
77.84
70.1
61.95
54.23
47.49
41.91
37.41
33.75
30.7
28.06
25.69
23.48
21.23
18.66
15.45
11.32
6.12
-0.09
-7.02
-14.26
-21.43
-28.24
-34.6
-40.59
-46.46
-52.46
-58.85
-65.87
-73.6
-81.86
-90.05
-97.03
-101.22
-100.94
-94.9
-82.6
-64.67
-42.64
-18.58
5.45
27.74
47.15
62.97
74.79
82.35
85.56
84.65
80.23
73.31
65.13
56.91
49.58
43.65
39.16
35.85
33.36
31.41
29.82
28.51
27.35
26.13
24.5
22.08
18.58
13.88
8.1
1.58
-5.23
-11.92
-18.21
-24.07
-29.71
-35.48
-41.79
-48.91
-56.85
-65.19
-73.03
-79.03
-81.6
-79.35
-71.43
-57.92
-39.84
-18.93
2.77
23.43
41.61
56.36
67.11
73.56
75.66
73.67
68.28
60.52
51.67
42.93
35.22
28.98
24.22
20.63
17.81
15.41
13.22
11.12
9.05
6.9
4.47
1.54
-2.18
-6.89
-12.63
-19.25
-26.39
-33.6
-40.51
-46.93
-52.99
-59.04
-65.57
-72.95
-81.23
-89.98
-98.21
-104.39
-106.74
-103.56
-93.81
-77.46
-55.63
-30.36
-4.03
21.21
43.76
62.68
77.49
87.94
93.94
95.59
93.36
88.07
80.82
72.68
64.5
56.85
49.96
43.99
38.97
34.98
31.97
29.77
28.05
26.35
24.19
21.21
17.25
12.33
6.69
0.59
-5.71
-12.12
-18.66
-25.44
-32.51
-39.77
-46.94
-53.7
-59.79
-65.2
-70.17
-75.14
-80.56
-86.76
-93.66
-100.72
-106.83
-110.49
-109.98
-103.87
-91.38
-72.71
-49.03
-22.17
5.79
33
58.06
80.09
98.54
113.07
123.47
129.71
132.06
131.1
127.73
122.96
117.7
112.61
108.02
104.06
100.72
97.97
95.78
94.05
92.5
90.65
87.9
83.67
77.63
69.82
60.62
50.64
40.49
30.62
21.22
12.25
3.57
-4.98
-13.47
-21.9
-30.2
-38.36
-46.36
-54.15
-61.67
-68.8
-75.47
-81.75
-87.79
-93.89
-100.31
-107.19
-114.38
-121.35
-127.12
-130.34
-129.54
-123.49
-111.57
-94.05
-72.12
-47.61
-22.57
1.13
22.17
39.74
53.47
63.27
69.2
71.45
70.48
66.98
61.9
56.18
50.62
45.73
41.66
38.36
35.7
33.61
32.06
30.98
30.18
29.36
28.13
26.19
23.45
20
16.1
11.93
7.6
3.05
-1.8
-6.97
-12.34
-17.7
-22.83
-27.63
-32.23
-36.91
-42.07
-48.01
-54.7
-61.67
-67.92
-72.16
-73.02
-69.52
-61.3
-48.77
-32.97
-15.29
2.83
20.15
35.68
48.62
58.35
64.42
66.65
65.23
60.77
54.26
46.8
39.39
32.79
27.39
23.3
20.41
18.44
17.05
15.9
14.64
13.09
11.15
8.84
6.14
3.02
-0.62
-4.88
-9.79
-15.22
-21
-26.93
-32.9
-38.84
-44.72
-50.56
-56.48
-62.71
-69.47
-76.8
-84.27
-90.8
-94.82
-94.69
-89.21
-78.04
-61.86
-42.17
-20.82
0.47
20.33
37.84
52.41
63.64
71.26
75.19
75.61
73.04
68.29
62.29
55.89
49.67
43.94
38.86
34.49
30.93
28.22
26.34
25.03
23.91
22.57
20.71
18.25
15.24
11.79
7.91
3.48
-1.61
-7.39
-13.7
-20.19
-26.49
-32.35
-37.77
-42.96
-48.24
-53.89
-60.08
-66.8
-73.88
-80.91
-87.18
-91.63
-93.01
-90.1
-82.11
-68.98
-51.42
-30.87
-9.07
12.24
31.62
48.1
61.08
70.37
75.95
78.05
77.06
73.55
68.25
61.96
55.46
49.36
44
39.48
35.66
32.37
29.46
26.86
24.52
22.33
20.1
17.56
14.5
10.84
6.69
2.25
-2.27
-6.86
-11.65
-16.88
-22.72
-29.11
-35.75
-42.23
-48.17
-53.37
-57.91
-62.08
-66.31
-71.01
-76.4
-82.42
-88.48
-93.57
-96.31
-95.22
-89.18
-77.77
-61.51
-41.71
-20.14
1.35
21.29
38.64
52.82
63.5
70.56
73.99
73.97
71.01
65.88
59.54
52.99
47.01
42.09
38.35
35.67
33.81
32.51
31.57
30.83
30.11
29.22
27.92
26.04
23.44
20.09
16.03
11.34
6.14
0.61
-5.05
-10.61
-15.95
-21.04
-26
-31.05
-36.42
-42.31
-48.7
-55.33
-61.53
-66.28
-68.36
-66.63
-60.41
-49.71
-35.27
-18.39
-0.6
16.63
32.13
44.95
54.42
60.07
61.75
59.75
54.82
48.07
40.7
33.72
27.72
22.86
18.94
15.66
12.78
10.23
8.02
6.1
4.29
2.23
-0.47
-4.14
-8.88
-14.49
-20.57
-26.67
-32.4
-37.65
-42.57
-47.55
-53.07
-59.54
-67.1
-75.41
-83.58
-90.21
-93.69
-92.57
-86.01
-74.02
-57.45
-37.74
-16.54
4.65
24.65
42.56
57.61
69.21
76.92
80.61
80.56
77.45
72.24
65.88
59.21
52.76
46.77
41.34
36.41
31.98
28.04
24.6
21.6
18.92
16.32
13.47
10.03
5.74
0.49
-5.62
-12.29
-19.16
-25.87
-32.22
-38.27
-44.28
-50.69
-57.9
-66.14
-75.19
-84.29
-92.17
-97.21
-97.83
-92.93
-82.19
-66.16
-46.19
-24
-1.31
20.41
40.07
56.97
70.57
80.54
86.64
88.88
87.59
83.44
77.37
70.34
63.24
56.61
50.71
45.57
41.12
37.32
34.16
31.61
29.54
27.7
25.71
23.18
19.78
15.32
9.77
3.23
-4.07
-11.83
-19.72
-27.49
-35
-42.31
-49.64
-57.31
-65.65
-74.79
-84.55
-94.27
-102.78
-108.54
-109.97
-105.84
-95.7
-80.01
-60.05
-37.58
-14.42
7.87
28.12
45.42
59.1
68.63
73.78
74.68
71.95
66.52
59.48
51.8
44.2
37.11
30.8
25.42
21.1
17.96
16
15.05
14.81
14.83
14.61
13.77
12.05
9.42
6.04
2.19
-1.82
-5.73
-9.44
-12.98
-16.57
-20.57
-25.42
-31.4
-38.45
-45.89
-52.46
-56.48
-56.39
-51.18
-40.73
-25.83
-7.94
11.3
30.32
47.83
62.77
74.29
81.75
84.86
83.75
79.02
71.69
62.9
53.73
44.96
37.05
30.17
24.32
19.42
15.39
12.13
9.43
6.95
4.28
1.01
-3.11
-8.05
-13.53
-19.15
-24.51
-29.42
-33.87
-38.07
-42.36
-47.14
-52.71
-59.23
-66.46
-73.69
-79.7
-82.98
-82.03
-75.86
-64.29
-48.03
-28.52
-7.56
13.09
32.05
48.39
61.57
71.27
77.31
79.62
78.34
73.84
66.86
58.34
49.31
40.65
32.94
26.42
21.02
16.5
12.59
9.08
5.78
2.5
-0.95
-4.78
-9.12
-14
-19.32
-24.89
-30.59
-36.48
-42.81
-49.91
-57.94
-66.64
-75.17
-82.1
-85.79
-84.73
-78.05
-65.73
-48.63
-28.24
-6.36
15.25
35.1
52.08
65.47
74.87
80.2
81.67
79.73
75.02
68.32
60.41
52.04
43.82
36.2
29.51
23.92
19.43
15.89
13
10.38
7.55
4.17
-0
-4.95
-10.51
-16.4
-22.4
-28.39
-34.41
-40.73
-47.64
-55.39
-63.86
-72.4
-79.77
-84.26
-84.17
-78.28
-66.29
-48.98
-28.04
-5.55
16.47
36.45
53.34
66.54
75.7
80.66
81.46
78.5
72.6
64.93
56.71
48.92
42.03
36
30.47
25.13
19.97
15.26
11.39
8.57
6.58
4.86
2.72
-0.39
-4.64
-9.87
-15.69
-21.68
-27.51
-33.02
-38.18
-43.08
-47.97
-53.25
-59.27
-66.21
-73.74
-80.98
-86.52
-88.67
-85.96
-77.51
-63.32
-44.33
-22.17
1.16
23.68
43.77
60.26
72.49
80.23
83.52
82.73
78.48
71.68
63.42
54.82
46.8
39.93
34.36
29.95
26.43
23.58
21.3
19.44
17.78
15.92
13.43
9.96
5.47
0.23
-5.29
-10.68
-15.75
-20.61
-25.64
-31.32
-38.06
-45.99
-54.73
-63.37
-70.45
-74.24
-73.21
-66.46
-54.04
-37.01
-17.06
3.87
24.04
42.05
56.89
67.86
74.48
76.64
74.65
69.29
61.7
53.08
44.44
36.4
29.24
23.02
17.73
13.41
10.05
7.57
5.69
3.99
1.99
-0.75
-4.48
-9.23
-14.81
-20.87
-27.05
-33.07
-38.88
-44.66
-50.8
-57.73
-65.71
-74.54
-83.43
-91.03
-95.56
-95.33
-89.15
-76.76
-58.89
-37.17
-13.61
9.8
31.44
50.18
65.34
76.54
83.58
86.53
85.69
81.65
75.25
67.48
59.28
51.43
44.4
38.38
33.28
28.91
25.07
21.64
18.61
15.94
13.52
11.08
8.2
4.47
-0.4
-6.4
-13.2
-20.27
-27.07
-33.22
-38.71
-43.86
-49.26
-55.48
-62.93
-71.62
-81.05
-90.16
-97.46
-101.26
-100.03
-92.8
-79.46
-60.84
-38.51
-14.5
9.16
30.8
49.19
63.64
73.84
79.77
81.67
79.98
75.34
68.57
60.59
52.29
44.45
37.58
31.88
27.33
23.74
20.92
18.75
17.11
15.85
14.68
13.2
10.97
7.66
3.14
-2.44
-8.73
-15.26
-21.6
-27.48
-32.79
-37.65
-42.33
-47.21
-52.64
-58.89
-66.01
-73.65
-80.98
-86.69
-89.14
-86.82
-78.67
-64.58
-45.4
-22.84
1
24.03
44.57
61.43
73.9
81.66
84.77
83.63
78.99
71.88
63.45
54.77
46.64
39.57
33.7
28.96
25.19
22.19
19.84
18.01
16.48
14.92
12.92
10.08
6.16
1.19
-4.5
-10.45
-16.24
-21.66
-26.86
-32.31
-38.5
-45.81
-54.16
-62.95
-71.01
-76.81
-78.81
-75.78
-67.18
-53.31
-35.22
-14.51
7.04
27.74
46.16
61.24
72.24
78.74
80.67
78.4
72.72
64.73
55.66
46.63
38.44
31.52
25.95
21.52
17.98
15.07
12.62
10.52
8.64
6.8
4.68
1.92
-1.8
-6.66
-12.55
-19.15
-25.96
-32.57
-38.73
-44.49
-50.18
-56.36
-63.57
-72.06
-81.54
-90.97
-98.68
-102.64
-101.09
-93.03
-78.52
-58.7
-35.42
-10.79
13.28
35.27
54.1
69.01
79.56
85.58
87.22
85.03
79.85
72.75
64.78
56.84
49.52
43.1
37.58
32.81
28.68
25.1
22.09
19.6
17.49
15.41
12.9
9.51
5.01
-0.57
-6.86
-13.37
-19.61
-25.35
-30.62
-35.71
-41.06
-47.07
-54.06
-62.09
-70.88
-79.69
-87.28
-91.99
-92.14
-86.45
-74.51
-56.93
-35.24
-11.52
12.11
33.84
52.38
66.91
77.02
82.6
83.85
81.27
75.66
68.03
59.44
50.88
43.05
36.39
31
26.79
23.54
21
18.96
17.24
15.64
13.94
11.91
9.26
5.78
1.38
-3.92
-9.89
-16.2
-22.47
-28.39
-33.86
-38.95
-43.95
-49.25
-55.25
-62.21
-70.09
-78.38
-86.03
-91.56
-93.32
-89.9
-80.58
-65.54
-45.87
-23.25
0.39
23.24
43.79
60.88
73.65
81.57
84.47
82.72
77.16
69.08
59.87
50.76
42.62
35.85
30.52
26.48
23.5
21.36
19.84
18.64
17.41
15.82
13.57
10.53
6.73
2.31
-2.58
-7.77
-13.18
-18.78
-24.56
-30.62
-37.13
-44.29
-52.19
-60.56
-68.56
-74.79
-77.6
-75.5
-67.69
-54.37
-36.63
-16.19
5.07
25.44
43.54
58.29
68.92
74.95
76.32
73.45
67.28
59.05
50.07
41.47
33.98
27.93
23.31
19.86
17.3
15.34
13.7
12.17
10.47
8.3
5.33
1.33
-3.73
-9.67
-16.08
-22.51
-28.65
-34.48
-40.23
-46.3
-53.09
-60.82
-69.36
-78.2
-86.31
-92.28
-94.46
-91.38
-82.21
-67.02
-46.9
-23.71
0.37
23.36
43.72
60.47
73.08
81.31
85.17
84.95
81.24
74.96
67.26
59.24
51.8
45.45
40.35
36.37
33.24
30.72
28.6
26.75
25.05
23.36
21.44
18.99
15.69
11.27
5.68
-0.91
-8.08
-15.3
-22.15
-28.42
-34.22
-39.93
-46.02
-52.91
-60.81
-69.58
-78.65
-87.01
-93.21
-95.64
-92.95
-84.4
-70.13
-51.18
-29.2
-6.03
16.64
37.49
55.6
70.32
81.16
87.81
90.2
88.62
83.75
76.61
68.42
60.28
53
46.98
42.22
38.51
35.59
33.25
31.33
29.65
27.96
25.96
23.39
20.08
16.03
11.37
6.23
0.73
-5.1
-11.24
-17.67
-24.27
-30.84
-37.17
-43.03
-48.32
-53.17
-57.88
-62.93
-68.76
-75.52
-82.8
-89.56
-94.21
-95.04
-90.67
-80.51
-64.9
-45.09
-22.84
-0.07
21.51
40.59
56.27
68.06
75.76
79.41
79.32
76.09
70.53
63.62
56.37
49.65
44.02
39.66
36.46
34.14
32.42
31.09
30.06
29.26
28.55
27.63
26.17
23.88
20.59
16.35
11.37
5.96
0.44
-4.97
-10.1
-14.98
-19.73
-24.53
-29.64
-35.26
-41.5
-48.28
-55.28
-61.79
-66.79
-69.09
-67.54
-61.39
-50.56
-35.71
-18.13
0.54
18.7
34.92
48.17
57.69
63.1
64.35
61.78
56.16
48.59
40.32
32.5
25.96
21.08
17.8
15.69
14.23
12.97
11.65
10.21
8.67
7.05
5.18
2.79
-0.42
-4.64
-9.77
-15.53
-21.47
-27.2
-32.52
-37.48
-42.34
-47.47
-53.26
-59.88
-67.24
-74.8
-81.52
-86.03
-86.87
-82.91
-73.62
-59.36
-41.24
-20.88
-0.01
19.81
37.36
51.82
62.69
69.76
73.06
72.93
69.96
64.97
58.84
52.4
46.24
40.72
35.98
32.04
28.93
26.63
25.08
24.09
23.29
22.28
20.67
18.27
15.11
11.34
7.19
2.74
-2.04
-7.26
-13.01
-19.23
-25.72
-32.19
-38.34
-44
-49.12
-53.83
-58.38
-63.15
-68.57
-74.9
-82.01
-89.17
-95.02
-97.8
-95.79
-87.9
-74.04
-55.23
-33.28
-10.26
11.93
31.95
49.01
62.75
72.97
79.57
82.51
81.99
78.55
73.04
66.5
59.92
54.03
49.14
45.24
42.1
39.48
37.27
35.51
34.27
33.51
32.98
32.27
30.85
28.35
24.6
19.77
14.26
8.53
2.96
-2.34
-7.48
-12.77
-18.48
-24.72
-31.36
-38.06
-44.43
-50.16
-55.15
-59.54
-63.69
-68.03
-72.96
-78.73
-85.26
-92.05
-98.14
-102.16
-102.65
-98.29
-88.39
-73.02
-53.19
-30.57
-7.14
15.22
35.11
51.67
64.47
73.4
78.48
79.86
77.91
73.31
66.99
60
53.28
47.42
42.72
39.22
36.83
35.46
34.93
34.97
35.12
34.89
33.87
31.86
28.93
25.32
21.31
17.04
12.55
7.8
2.77
-2.49
-7.84
-13.19
-18.48
-23.76
-29.09
-34.56
-40.22
-46.12
-52.29
-58.58
-64.54
-69.31
-71.67
-70.36
-64.44
-53.68
-38.7
-20.83
-1.78
16.77
33.43
47.2
57.44
63.71
65.87
64.05
58.84
51.27
42.64
34.22
26.99
21.45
17.6
15.14
13.64
12.72
12.1
11.57
10.89
9.82
8.09
5.49
1.9
-2.64
-7.96
-13.77
-19.76
-25.66
-31.38
-37
-42.79
-49.05
-56.02
-63.68
-71.71
-79.39
-85.69
-89.34
-89.09
-83.96
-73.53
-58.14
-38.86
-17.33
4.6
25.24
43.26
57.83
68.49
75.08
77.66
76.54
72.29
65.8
58.1
50.24
43.02
36.94
32.17
28.68
26.26
24.64
23.45
22.31
20.91
19.04
16.66
13.83
10.59
6.85
2.44
-2.82
-8.96
-15.74
-22.76
-29.55
-35.82
-41.58
-47.11
-52.86
-59.31
-66.77
-75.25
-84.26
-92.76
-99.22
-101.89
-99.2
-90.25
-75.1
-54.85
-31.37
-6.85
16.7
37.72
55.27
68.84
78.24
83.46
84.65
82.25
76.99
69.87
62.01
54.42
47.82
42.54
38.53
35.54
33.2
31.18
29.19
27.06
24.67
22
19.04
15.79
12.16
8.01
3.19
-2.37
-8.6
-15.31
-22.22
-29.11
-35.84
-42.42
-48.88
-55.33
-61.92
-68.89
-76.43
-84.5
-92.56
-99.39
-103.23
-102.23
-95.08
-81.47
-62.26
-39.24
-14.57
9.7
31.97
51.1
66.3
77.05
83.11
84.59
82.05
76.48
69.08
61.04
53.33
46.59
41.16
37.06
34.15
32.17
30.85
29.89
29.08
28.18
26.97
25.18
22.5
18.74
13.89
8.18
2.03
-4.08
-9.85
-15.26
-20.56
-26.15
-32.44
-39.68
-47.88
-56.7
-65.38
-72.74
-77.29
-77.53
-72.38
-61.51
-45.52
-25.86
-4.41
16.92
36.45
52.92
65.39
73.27
76.34
74.83
69.49
61.5
52.26
43.04
34.78
27.98
22.72
18.83
16.04
14.09
12.72
11.69
10.7
9.39
7.37
4.31
0.08
-5.23
-11.3
-17.69
-24.03
-30.16
-36.2
-42.56
-49.77
-58.24
-67.99
-78.43
-88.24
-95.61
-98.53
-95.44
-85.54
-69.17
-47.64
-22.97
2.6
27.02
48.71
66.55
79.91
88.51
92.34
91.72
87.3
80.06
71.22
61.96
53.31
45.83
39.67
34.66
30.55
27.18
24.48
22.44
20.86
19.29
17.13
13.79
8.93
2.69
-4.47
-11.86
-18.96
-25.56
-31.8
-38.12
-45.01
-52.87
-61.89
-71.96
-82.52
-92.46
-100.13
-103.57
-100.97
-91.28
-74.62
-52.37
-26.8
-0.45
24.5
46.53
64.82
78.96
88.75
94.1
95.08
92.12
86.04
78.04
69.41
61.22
54.14
48.34
43.62
39.64
36.09
32.86
29.97
27.51
25.42
23.41
21.05
17.79
13.27
7.37
0.32
-7.39
-15.24
-22.8
-29.93
-36.74
-43.5
-50.49
-57.97
-66.1
-74.9
-84.18
-93.3
-101.11
-105.97
-106.12
-100.13
-87.44
-68.63
-45.31
-19.71
5.85
29.44
49.71
65.86
77.49
84.45
86.84
85.07
79.9
72.45
64.02
55.76
48.49
42.54
37.83
34.08
31.05
28.61
26.82
25.66
25
24.43
23.36
21.19
17.58
12.52
6.43
-0.08
-6.42
-12.27
-17.67
-23
-28.81
-35.52
-43.35
-52.11
-61.16
-69.49
-75.72
-78.41
-76.25
-68.49
-55.22
-37.36
-16.56
5.27
26.29
44.99
60.3
71.49
78.1
80.03
77.58
71.55
63.12
53.69
44.52
36.51
30.09
25.25
21.75
19.24
17.42
16.03
14.83
13.55
11.79
9.14
5.28
0.13
-6.09
-12.87
-19.65
-26.03
-31.94
-37.7
-43.83
-50.87
-59.1
-68.39
-78.03
-86.84
-93.21
-95.42
-92.08
-82.49
-66.94
-46.72
-23.78
-0.24
22.05
41.75
58.02
70.32
78.31
81.87
81.19
76.92
70.13
62.14
54.15
47.01
41.02
36.09
31.93
28.27
25.02
22.18
19.77
17.69
15.65
13.3
10.27
6.3
1.34
-4.44
-10.71
-17.08
-23.2
-28.89
-34.25
-39.63
-45.5
-52.36
-60.42
-69.53
-78.95
-87.38
-93.16
-94.53
-90.13
-79.39
-62.8
-41.82
-18.52
4.94
26.75
45.66
60.99
72.46
79.97
83.56
83.41
79.99
74.01
66.44
58.3
50.51
43.72
38.23
33.97
30.63
27.85
25.28
22.77
20.27
17.8
15.29
12.55
9.3
5.23
0.18
-5.78
-12.38
-19.18
-25.77
-31.91
-37.6
-43.07
-48.65
-54.7
-61.43
-68.92
-76.97
-85.06
-92.29
-97.36
-98.76
-95.14
-85.65
-70.38
-50.41
-27.57
-4
18.27
37.72
53.43
64.93
72.13
75.15
74.4
70.53
64.46
57.26
49.95
43.33
37.85
33.65
30.59
28.43
26.89
25.74
24.81
23.95
23
21.72
19.81
16.93
12.89
7.68
1.61
-4.81
-11.04
-16.75
-21.93
-26.96
-32.44
-38.92
-46.64
-55.34
-64.2
-71.96
-77.11
-78.21
-74.25
-64.84
-50.37
-31.95
-11.2
10.09
30.17
47.59
61.27
70.53
75.05
74.97
70.93
63.99
55.51
46.81
38.92
32.35
27.12
22.9
19.35
16.23
13.53
11.31
9.52
7.94
6.16
3.7
0.22
-4.38
-9.89
-15.94
-22.11
-28.11
-33.84
-39.39
-45.04
-51.15
-58.14
-66.29
-75.51
-85.12
-93.77
-99.5
-100.28
-94.6
-82.01
-63.36
-40.55
-15.99
8.09
30.03
48.86
64.11
75.51
82.86
86.04
85.2
80.89
74.12
66.16
58.22
51.19
45.47
41
37.46
34.48
31.82
29.43
27.35
25.59
23.95
22.08
19.52
15.84
10.86
4.69
-2.31
-9.65
-16.85
-23.65
-29.98
-36
-41.99
-48.27
-55.17
-62.98
-71.79
-81.3
-90.6
-98.17
-102.07
-100.51
-92.4
-77.78
-57.83
-34.56
-10.19
13.3
34.48
52.44
66.64
76.81
82.84
84.85
83.3
78.87
72.48
65.05
57.4
50.18
43.78
38.45
34.28
31.21
29.1
27.66
26.56
25.42
23.88
21.7
18.67
14.69
9.73
3.85
-2.78
-9.9
-17.21
-24.41
-31.3
-37.83
-44.05
-50.11
-56.19
-62.47
-69.15
-76.3
-83.78
-91.1
-97.25
-100.83
-100.29
-94.34
-82.39
-64.83
-42.97
-18.8
5.53
28.13
47.56
62.92
73.71
79.81
81.43
79.15
73.9
66.83
59.09
51.6
44.94
39.39
34.94
31.52
29.02
27.32
26.31
25.84
25.67
25.45
24.71
22.99
19.9
15.38
9.67
3.31
-3.11
-9.21
-14.93
-20.54
-26.46
-33.09
-40.6
-48.9
-57.56
-65.75
-72.31
-75.85
-75.04
-69.03
-57.69
-41.77
-22.69
-2.25
17.74
35.67
50.3
60.76
66.62
67.9
65.06
59.03
50.9
41.91
33.1
25.27
18.89
14.1
10.81
8.75
7.57
6.91
6.37
5.57
4.09
1.6
-2.05
-6.76
-12.17
-17.8
-23.24
-28.37
-33.39
-38.77
-45.06
-52.62
-61.38
-70.7
-79.36
-85.72
-88.05
-84.96
-75.86
-61.05
-41.81
-19.95
2.54
23.87
42.67
57.94
69.02
75.56
77.55
75.44
70.09
62.65
54.29
45.95
38.21
31.31
25.29
20.16
15.98
12.82
10.64
9.2
8.03
6.5
4
0.17
-5.01
-11.19
-17.82
-24.4
-30.65
-36.66
-42.83
-49.7
-57.68
-66.85
-76.69
-86.04
-93.25
-96.47
-94.13
-85.35
-70.25
-49.95
-26.35
-1.65
22.01
42.91
59.87
72.24
79.81
82.73
81.52
77.02
70.29
62.52
54.7
47.54
41.31
35.97
31.33
27.27
23.81
21.02
18.91
17.26
15.63
13.5
10.4
6.14
0.75
-5.5
-12.28
-19.23
-26.11
-32.79
-39.37
-46.1
-53.42
-61.65
-70.82
-80.28
-88.69
-94.17
-94.79
-89.14
-76.8
-58.59
-36.24
-12.03
11.87
33.69
52.22
66.75
76.87
82.4
83.46
80.5
74.4
66.37
57.72
49.52
42.45
36.66
31.96
28.04
24.65
21.7
19.22
17.18
15.47
13.75
11.65
8.77
4.86
-0.09
-5.93
-12.3
-18.84
-25.27
-31.44
-37.42
-43.45
-49.88
-57.01
-64.95
-73.42
-81.62
-88.24
-91.68
-90.37
-83.25
-70.09
-51.62
-29.42
-5.53
17.96
39.25
57.07
70.61
79.46
83.57
83.18
78.9
71.73
62.92
53.81
45.47
38.53
33.11
28.98
25.85
23.49
21.83
20.81
20.23
19.66
18.53
16.31
12.7
7.77
1.87
-4.52
-10.97
-17.15
-23.03
-28.74
-34.6
-41
-48.19
-56.11
-64.23
-71.48
-76.33
-77.2
-72.84
-62.71
-47.18
-27.5
-5.52
16.72
37.31
54.78
68.15
76.94
81.05
80.74
76.62
69.61
60.86
51.61
42.92
35.5
29.57
24.99
21.45
18.64
16.36
14.5
12.88
11.19
8.99
5.84
1.48
-4.05
-10.41
-17.12
-23.69
-29.81
-35.4
-40.67
-45.99
-51.84
-58.64
-66.55
-75.22
-83.67
-90.31
-93.26
-90.84
-82.11
-67.17
-47.21
-24.15
-0.21
22.64
42.9
59.62
72.31
80.76
84.96
85.11
81.68
75.46
67.47
58.89
50.72
43.69
38.07
33.78
30.51
27.98
25.98
24.46
23.38
22.57
21.66
20.12
17.43
13.27
7.66
0.96
-6.31
-13.68
-20.91
-28.06
-35.39
-43.25
-51.91
-61.52
-72.06
-83.28
-94.52
-104.65
-112.11
-115.18
-112.47
-103.35
-88.28
-68.71
-46.75
-24.62
-4.21
13.1
26.52
35.66
40.43
41.02
37.88
31.78
23.62
14.35
4.77
-4.5
-13.12
-20.81
-27.37
-32.63
-36.53
-39.1
-40.55
-41.15
-41.19
-40.86
-40.2
-39.22
-37.9
-36.26
-34.38
-32.37
-30.34
-28.35
-26.45
-24.7
-23.24
-22.27
-22.07
-22.89
-24.93
-28.22
-32.42
-36.82
-40.22
-41.11
-38.01
-29.86
-16.46
1.42
22.17
43.8
64.42
82.67
97.74
109.26
117.08
121.12
121.42
118.28
112.36
104.61
96.1
87.71
80.04
73.38
67.76
63.17
59.56
56.88
54.95
53.46
51.93
49.87
46.89
42.78
37.62
31.71
25.43
19.15
13.12
7.38
1.75
-4.08
-10.47
-17.69
-25.7
-34.03
-41.71
-47.37
-49.6
-47.32
-40.11
-28.41
-13.34
3.62
20.89
37.11
51.11
61.99
69.03
71.84
70.48
65.49
57.89
48.86
39.59
31
23.64
17.79
13.45
10.5
8.69
7.67
6.95
5.9
3.82
0.13
-5.48
-12.88
-21.55
-30.72
-39.58
-47.56
-54.43
-60.33
-65.66
-70.98
-76.82
-83.51
-90.99
-98.64
-105.23
-109.1
-108.63
-102.65
-90.9
-74.12
-53.85
-32
-10.39
9.52
26.75
40.68
50.9
57.16
59.42
58.02
53.75
47.72
41.08
34.76
29.16
24.28
19.83
15.58
11.49
7.71
4.48
1.84
-0.42
-2.73
-5.64
-9.63
-14.98
-21.74
-29.66
-38.35
-47.32
-56.08
-64.26
-71.71
-78.45
-84.73
-90.84
-96.98
-103.02
-108.4
-112
-112.43
-108.28
-98.68
-83.48
-63.52
-40.33
-15.75
8.43
30.86
50.59
67.02
79.74
88.42
92.95
93.53
90.84
85.91
79.91
73.88
68.48
63.93
60.17
56.97
54.12
51.47
48.91
46.31
43.49
40.3
36.59
32.23
27.14
21.32
14.9
8.12
1.35
-5.12
-11.17
-16.91
-22.66
-28.85
-35.79
-43.64
-52.24
-61.09
-69.29
-75.64
-78.76
-77.45
-70.95
-59.22
-42.94
-23.46
-2.39
18.6
38.06
54.79
67.91
76.9
81.57
82.14
79.22
73.74
66.76
59.33
52.31
46.2
41.19
37.19
34.01
31.45
29.36
27.58
25.98
24.32
22.34
19.78
16.43
12.25
7.37
2.03
-3.5
-9
-14.38
-19.76
-25.4
-31.58
-38.53
-46.25
-54.38
-62.14
-68.39
-71.8
-71.15
-65.66
-55.24
-40.56
-22.92
-3.94
14.75
31.79
46.12
57.01
64.01
66.94
65.98
61.71
55.1
47.33
39.58
32.69
27.1
22.84
19.66
17.28
15.49
14.12
13.01
11.89
10.42
8.23
5.05
0.82
-4.27
-9.85
-15.51
-20.96
-26.14
-31.23
-36.6
-42.7
-49.82
-57.94
-66.56
-74.63
-80.7
-83.22
-80.9
-73.09
-59.96
-42.54
-22.42
-1.43
18.72
36.69
51.58
62.81
70.07
73.26
72.6
68.68
62.5
55.27
48.17
42.02
37.12
33.31
30.16
27.33
24.63
22.13
19.95
18.12
16.47
14.68
12.35
9.16
4.95
-0.21
-6.04
-12.16
-18.22
-23.98
-29.46
-34.89
-40.59
-46.9
-54.02
-61.9
-70.1
-77.76
-83.61
-86.15
-84
-76.32
-63.16
-45.48
-25
-3.63
16.88
35.3
50.85
63.07
71.71
76.61
77.86
75.84
71.3
65.24
58.68
52.46
47.08
42.72
39.32
36.71
34.69
33.09
31.71
30.41
28.95
27.13
24.73
21.6
17.64
12.88
7.42
1.46
-4.73
-10.87
-16.72
-22.14
-27.18
-32.1
-37.29
-43.18
-50.02
-57.68
-65.57
-72.57
-77.22
-78.02
-73.88
-64.36
-49.94
-31.87
-11.88
8.19
26.77
42.69
55.25
64.1
69.11
70.4
68.33
63.54
56.91
49.44
42.12
35.6
30.25
26.01
22.65
19.92
17.64
15.76
14.24
12.96
11.62
9.82
7.2
3.56
-1.03
-6.24
-11.66
-16.93
-21.89
-26.62
-31.42
-36.64
-42.59
-49.42
-56.94
-64.61
-71.52
-76.45
-78.14
-75.54
-68.2
-56.4
-41.11
-23.8
-6.02
10.84
25.7
37.78
46.53
51.57
52.8
50.52
45.5
38.83
31.72
25.2
19.87
15.9
13.11
11.22
9.92
9.03
8.36
7.69
6.7
5.02
2.35
-1.43
-6.15
-11.44
-16.8
-21.82
-26.34
-30.51
-34.75
-39.62
-45.56
-52.72
-60.67
-68.44
-74.62
-77.68
-76.38
-70.11
-59.02
-43.95
-26.19
-7.24
11.48
28.71
43.4
54.79
62.36
65.97
65.87
62.68
57.31
50.77
44.03
37.8
32.49
28.2
24.79
22.05
19.82
18.02
16.6
15.45
14.3
12.76
10.43
7.06
2.66
-2.45
-7.8
-12.98
-17.74
-22.2
-26.66
-31.59
-37.44
-44.47
-52.68
-61.66
-70.51
-77.9
-82.24
-82.14
-76.75
-66.1
-51.1
-33.3
-14.45
3.88
20.53
34.72
45.97
53.97
58.54
59.71
57.82
53.5
47.67
41.34
35.36
30.35
26.5
23.72
21.73
20.22
18.99
17.95
17.1
16.4
15.63
14.46
12.49
9.46
5.36
0.46
-4.75
-9.78
-14.32
-18.39
-22.29
-26.49
-31.44
-37.42
-44.46
-52.26
-60.12
-67
-71.56
-72.38
-68.36
-59.05
-44.91
-27.22
-7.8
11.47
29.08
44.05
55.84
64.2
69.03
70.31
68.28
63.53
57.01
49.83
42.97
37.08
32.36
28.7
25.83
23.55
21.71
20.26
19.12
18.08
16.88
15.17
12.71
9.33
5.08
0.17
-5.11
-10.46
-15.7
-20.83
-26.02
-31.55
-37.71
-44.66
-52.4
-60.57
-68.42
-74.82
-78.4
-77.86
-72.38
-61.86
-47.03
-29.29
-10.35
8.08
24.57
38.04
47.78
53.44
55.11
53.3
48.85
42.83
36.26
29.91
24.29
19.55
15.7
12.64
10.3
8.61
7.45
6.63
5.84
4.72
2.9
0.12
-3.69
-8.37
-13.59
-18.95
-24.18
-29.21
-34.25
-39.69
-45.95
-53.32
-61.74
-70.63
-78.93
-85.12
-87.56
-84.87
-76.41
-62.47
-44.27
-23.65
-2.64
17.05
34.18
48.03
58.26
64.74
67.53
66.91
63.42
57.91
51.37
44.73
38.66
33.42
29.02
25.3
22.19
19.72
18
17.01
16.44
15.73
14.17
11.23
6.8
1.2
-4.95
-10.99
-16.48
-21.4
-26.02
-30.85
-36.44
-43.18
-51.23
-60.4
-69.97
-78.73
-85.07
-87.26
-83.97
-74.64
-59.67
-40.43
-18.79
3.28
24.12
42.52
57.75
69.35
77.08
80.91
81.03
78
72.63
65.91
58.8
52.06
46.09
41.05
36.85
33.35
30.38
27.85
25.7
23.87
22.25
20.57
18.46
15.5
11.43
6.19
0.05
-6.47
-12.84
-18.7
-24.02
-29.1
-34.45
-40.61
-47.89
-56.29
-65.36
-74.2
-81.5
-85.7
-85.28
-79.15
-66.99
-49.5
-28.24
-5.32
17.14
37.42
54.44
67.68
76.99
82.37
83.95
81.98
77.06
70.06
62.14
54.41
47.72
42.43
38.45
35.41
32.86
30.49
28.2
26.04
24.02
22.08
19.94
17.28
13.8
9.38
4.14
-1.68
-7.74
-13.77
-19.64
-25.34
-31.01
-36.86
-43.16
-50.14
-57.88
-66.16
-74.29
-81.14
-85.29
-85.29
-80.13
-69.49
-53.97
-34.9
-14.08
6.61
25.57
41.55
53.74
61.66
65.13
64.35
59.94
52.94
44.66
36.33
28.89
22.75
17.9
14.14
11.23
9.13
7.85
7.33
7.27
7.14
6.33
4.38
1.12
-3.27
-8.44
-13.97
-19.5
-24.8
-29.81
-34.71
-39.81
-45.58
-52.39
-60.25
-68.57
-76.06
-80.97
-81.55
-76.66
-66.06
-50.53
-31.59
-11.04
9.37
28.21
44.41
57.15
65.87
70.33
70.68
67.51
61.81
54.76
47.44
40.65
34.74
29.76
25.56
22.04
19.19
17.08
15.7
14.81
13.96
12.51
9.97
6.1
1.06
-4.7
-10.65
-16.39
-21.75
-26.8
-31.76
-36.95
-42.67
-49.25
-56.87
-65.4
-74.15
-81.81
-86.6
-86.7
-80.87
-68.88
-51.65
-30.95
-8.91
12.54
32.01
48.67
62.07
71.87
77.81
79.75
77.9
72.92
65.92
58.15
50.71
44.28
39.06
34.88
31.45
28.54
26.04
23.89
22.05
20.39
18.67
16.64
14.05
10.74
6.66
1.92
-3.26
-8.62
-13.91
-18.99
-23.85
-28.64
-33.61
-39.04
-45.19
-52.23
-60.09
-68.34
-76.06
-81.91
-84.31
-81.87
-73.8
-60.21
-42.11
-21.21
0.55
21.36
39.82
55.08
66.66
74.41
78.37
78.73
75.93
70.66
63.85
56.51
49.59
43.75
39.24
35.99
33.64
31.83
30.25
28.78
27.38
26.02
24.56
22.76
20.34
17.04
12.76
7.63
1.91
-4.07
-10.03
-15.76
-21.2
-26.38
-31.41
-36.49
-41.85
-47.82
-54.6
-62.16
-69.96
-76.86
-81.33
-81.75
-77.01
-66.82
-51.91
-33.75
-14.13
5.27
23.14
38.53
50.77
59.32
63.87
64.39
61.37
55.67
48.48
40.98
34.07
28.22
23.48
19.62
16.35
13.52
11.15
9.39
8.32
7.77
7.3
6.31
4.26
0.96
-3.39
-8.28
-13.19
-17.76
-22.01
-26.22
-30.84
-36.28
-42.75
-50.18
-58.12
-65.68
-71.6
-74.44
-72.93
-66.32
-54.7
-39.01
-20.84
-2.02
15.78
31.31
43.73
52.58
57.63
58.93
56.85
52.12
45.77
38.92
32.51
27.12
22.92
19.71
17.19
15.11
13.33
11.82
10.57
9.49
8.31
6.69
4.24
0.7
-3.95
-9.45
-15.36
-21.19
-26.62
-31.58
-36.33
-41.31
-46.99
-53.7
-61.5
-69.95
-78.13
-84.65
-87.9
-86.4
-79.25
-66.45
-48.98
-28.54
-7.18
13.28
31.43
46.49
58.08
66.1
70.61
71.76
69.91
65.65
59.82
53.36
47.19
41.92
37.84
34.87
32.72
31.05
29.6
28.25
26.94
25.66
24.27
22.5
19.99
16.43
11.67
5.81
-0.76
-7.54
-14.06
-20.08
-25.68
-31.16
-37.04
-43.75
-51.54
-60.31
-69.55
-78.27
-85.07
-88.38
-86.8
-79.49
-66.5
-48.84
-28.24
-6.74
13.83
32.12
47.35
59.18
67.45
72.11
73.21
71.04
66.18
59.54
52.14
44.87
38.33
32.75
28.06
24.08
20.61
17.56
14.89
12.57
10.53
8.62
6.59
4.2
1.25
-2.35
-6.56
-11.17
-15.92
-20.5
-24.74
-28.58
-32.14
-35.61
-39.28
-43.43
-48.33
-54.1
-60.54
-67.05
-72.55
-75.61
-74.81
-69.15
-58.39
-43.16
-24.8
-5.05
14.38
32.03
46.81
58
65.25
68.5
68.03
64.45
58.62
51.55
44.17
37.24
31.23
26.33
22.53
19.65
17.52
15.94
14.76
13.71
12.51
10.8
8.26
4.77
0.45
-4.35
-9.2
-13.79
-18.05
-22.2
-26.68
-31.94
-38.28
-45.74
-53.99
-62.3
-69.53
-74.25
-75.03
-70.8
-61.21
-46.85
-29.12
-9.88
9.06
26.22
40.62
51.69
59.1
62.68
62.52
59.03
53
45.45
37.42
29.72
22.88
17.13
12.61
9.39
7.52
6.87
7.08
7.52
7.45
6.22
3.46
-0.82
-6.28
-12.37
-18.56
-24.49
-30.07
-35.51
-41.23
-47.73
-55.31
-63.82
-72.51
-79.99
-84.51
-84.37
-78.45
-66.62
-49.81
-29.76
-8.57
11.85
30.08
45.22
56.82
64.61
68.5
68.58
65.28
59.41
52.09
44.51
37.61
31.9
27.44
23.98
21.23
19.02
17.36
16.29
15.8
15.66
15.49
14.82
13.26
10.55
6.69
1.85
-3.65
-9.42
-15.14
-20.67
-26.11
-31.78
-38.15
-45.61
-54.28
-63.87
-73.5
-81.82
-87.14
-87.83
-82.71
-71.46
-54.72
-33.99
-11.26
11.48
32.57
50.84
65.64
76.64
83.76
87.15
87.12
84.19
79.07
72.54
65.41
58.4
52.08
46.84
42.85
40.09
38.39
37.44
36.85
36.22
35.18
33.49
31.02
27.79
23.91
19.46
14.53
9.12
3.27
-2.96
-9.39
-15.8
-21.95
-27.71
-33.07
-38.22
-43.44
-49.11
-55.56
-62.94
-70.99
-78.89
-85.18
-88.09
-85.98
-77.87
-63.83
-45.04
-23.4
-1
20.35
39.38
55.26
67.44
75.5
79.23
78.74
74.66
68.04
60.21
52.36
45.36
39.6
35.07
31.56
28.84
26.75
25.19
24.09
23.28
22.48
21.35
19.53
16.77
13
8.38
3.21
-2.11
-7.23
-11.96
-16.31
-20.5
-24.89
-29.88
-35.77
-42.71
-50.58
-58.88
-66.74
-72.94
-76.12
-75.07
-69.06
-58.1
-42.97
-25.03
-5.96
12.62
29.29
42.98
52.99
58.95
60.9
59.27
54.85
48.66
41.68
34.76
28.46
23.04
18.6
15.11
12.53
10.76
9.61
8.77
7.9
6.6
4.56
1.6
-2.32
-7.03
-12.29
-17.77
-23.26
-28.65
-34.1
-39.86
-46.29
-53.65
-61.88
-70.44
-78.18
-83.58
-84.98
-81.08
-71.39
-56.4
-37.48
-16.5
4.56
24.12
41.05
54.65
64.53
70.48
72.5
70.89
66.32
59.74
52.27
44.94
38.47
33.2
29.07
25.77
22.95
20.4
18.06
16.04
14.34
12.78
10.93
8.24
4.32
-0.91
-7.11
-13.68
-20.03
-25.79
-30.93
-35.75
-40.7
-46.27
-52.86
-60.66
-69.52
-78.82
-87.4
-93.61
-95.74
-92.37
-82.84
-67.52
-47.71
-25.31
-2.38
19.28
38.41
54.26
66.49
74.98
79.76
80.98
79.02
74.49
68.22
61.18
54.23
48.07
43.04
39.16
36.24
33.99
32.11
30.37
28.6
26.7
24.58
22.13
19.28
15.91
11.91
7.17
1.66
-4.53
-11.16
-17.88
-24.32
-30.24
-35.62
-40.69
-45.83
-51.48
-57.95
-65.34
-73.41
-81.48
-88.37
-92.55
-92.43
-86.77
-75.16
-58.21
-37.47
-15.02
7.05
27.11
44.15
57.7
67.62
73.88
76.6
76.08
72.89
67.87
61.93
55.93
50.42
45.68
41.75
38.58
36.15
34.44
33.39
32.77
32.24
31.4
29.9
27.52
24.23
20.18
15.59
10.67
5.63
0.58
-4.44
-9.42
-14.41
-19.45
-24.56
-29.74
-34.97
-40.23
-45.55
-51.07
-56.99
-63.54
-70.67
-77.89
-84.11
-87.78
-87.27
-81.43
-70.02
-53.81
-34.4
-13.69
6.58
25.11
41.04
53.82
63.04
68.39
69.86
67.78
62.97
56.57
49.75
43.49
38.36
34.47
31.61
29.48
27.8
26.37
25.14
24.01
22.87
21.51
19.65
17.07
13.65
9.44
4.64
-0.46
-5.6
-10.63
-15.52
-20.34
-25.21
-30.25
-35.57
-41.3
-47.57
-54.39
-61.46
-67.99
-72.78
-74.38
-71.56
-63.72
-51.13
-34.88
-16.61
1.94
19.25
34.19
45.95
54.03
58.21
58.57
55.62
50.32
43.8
37.17
31.21
26.25
22.25
18.91
15.95
13.24
10.79
8.72
7.05
5.65
4.22
2.37
-0.24
-3.73
-8.04
-12.92
-18.06
-23.2
-28.23
-33.18
-38.21
-43.59
-49.64
-56.59
-64.43
-72.67
-80.23
-85.59
-87.12
-83.53
-74.36
-60.1
-42.09
-22.18
-2.17
16.43
32.59
45.69
55.34
61.32
63.6
62.41
58.35
52.37
45.55
38.89
33.08
28.37
24.66
21.65
19.05
16.72
14.67
12.97
11.6
10.36
8.91
6.83
3.77
-0.43
-5.66
-11.56
-17.66
-23.5
-28.78
-33.47
-37.84
-42.32
-47.38
-53.31
-60.04
-67.09
-73.49
-77.89
-78.8
-74.9
-65.39
-50.26
-30.4
-7.31
17.11
41.01
62.86
81.54
96.3
106.74
112.68
114.25
111.87
106.29
98.46
89.38
79.95
70.85
62.52
55.17
48.79
43.23
38.17
33.19
27.89
21.97
15.29
7.89
-0.08
-8.45
-17.1
-25.85
-34.48
-42.7
-50.17
-56.65
-62.09
-66.63
-70.63
-74.57
-78.94
-84.09
-90.12
-96.69
-102.94
-107.5
-108.78
-105.39
-96.59
-82.58
-64.42
-43.81
-22.52
-2.13
16.24
31.8
44.02
52.56
57.26
58.31
56.3
52.22
47.14
42.06
37.59
33.92
30.92
28.34
26.02
23.94
22.2
20.91
20.05
19.39
18.57
17.13
14.75
11.26
6.76
1.58
-3.83
-9.05
-13.84
-18.25
-22.57
-27.24
-32.65
-38.97
-46.02
-53.21
-59.55
-63.8
-64.75
-61.41
-53.37
-40.93
-25.07
-7.25
10.93
27.99
42.81
54.57
62.74
67.1
67.68
64.92
59.62
52.8
45.5
38.6
32.64
27.83
24.17
21.53
19.75
18.63
17.95
17.48
16.94
16.06
14.66
12.64
9.99
6.81
3.27
-0.5
-4.46
-8.71
-13.53
-19.25
-26.14
-34.27
-43.32
-52.56
-60.83
-66.72
-68.84
-66.1
-58.08
-45.15
-28.54
-10
8.57
25.52
39.74
50.63
57.97
61.76
62.04
59.01
53.2
45.41
36.72
28.19
20.63
14.42
