-28.89
-8.44
11.43
29.6
45.35
58.24
67.95
74.28
77.28
77.24
74.78
70.73
65.95
61.17
56.89
53.35
50.59
48.57
47.18
46.34
45.89
45.63
45.29
44.6
43.31
41.32
38.61
35.24
31.28
26.81
21.88
16.6
11.13
5.65
0.32
-4.83
-9.88
-14.99
-20.26
-25.64
-30.95
-35.93
-40.44
-44.58
-48.68
-53.21
-58.63
-65.25
-73.01
-81.39
-89.41
-95.66
-98.58
-96.88
-89.86
-77.66
-61.29
-42.28
-22.3
-2.86
14.97
30.47
43.2
52.88
59.36
62.73
63.39
61.98
59.34
56.2
53.1
50.33
47.99
46.14
44.88
44.35
44.61
45.58
46.95
48.26
48.96
48.69
47.22
44.58
40.94
36.55
31.66
26.42
20.91
15.06
8.78
2.03
-5.13
-12.5
-19.75
-26.6
-32.86
-38.54
-43.88
-49.22
-55
-61.48
-68.67
-76.14
-82.99
-87.91
-89.49
-86.56
-78.56
-65.81
-49.46
-31.14
-12.64
4.59
19.54
31.67
40.72
46.63
49.46
49.46
47.11
43.12
38.38
33.65
29.51
26.21
23.73
21.85
20.37
19.12
17.98
16.85
15.52
13.76
11.28
7.92
3.7
-1.16
-6.32
-11.5
-16.56
-21.56
-26.69
-32.06
-37.61
-43.1
-48.19
-52.64
-56.42
-59.74
-63.04
-66.79
-71.38
-76.92
-83.1
-89.17
-93.99
-96.16
-94.34
-87.65
-75.85
-59.54
-40
-18.91
2.02
21.36
38.11
51.74
62.09
69.23
73.46
75.17
74.85
73.03
70.19
66.73
62.97
59.2
55.63
52.48
49.94
48.08
46.87
46.12
45.51
44.67
43.21
40.83
37.4
32.97
27.79
22.21
16.62
11.24
6.09
0.93
-4.51
-10.44
-16.83
-23.44
-29.84
-35.66
-40.71
-45.12
-49.29
-53.74
-59.04
-65.51
-73.17
-81.5
-89.48
-95.6
-98.26
-96.09
-88.43
-75.55
-58.58
-39.24
-19.27
-0.14
17.23
32.39
45.15
55.35
62.83
67.44
69.27
68.69
66.36
63.11
59.65
56.48
53.77
51.51
49.58
47.96
46.66
45.73
45.12
44.63
43.95
42.7
40.58
37.47
33.47
28.89
24.12
19.54
15.26
11.15
6.87
1.99
-3.76
-10.4
-17.61
-24.88
-31.63
-37.35
-41.82
-45.08
-47.52
-49.76
-52.54
-56.48
-61.82
-68.24
-74.75
-79.92
-82.15
-80.17
-73.36
-61.96
-46.97
-29.84
-12.1
4.93
20.25
33.22
43.34
50.32
54.07
54.87
53.35
50.39
46.9
43.52
40.57
38.03
35.8
33.87
32.35
31.47
31.34
31.86
32.68
33.29
33.28
32.41
30.7
28.45
26
23.62
21.34
18.9
15.86
11.85
6.76
0.86
-5.3
-11.18
-16.48
-21.29
-26.05
-31.29
-37.36
-44.28
-51.84
-59.67
-67.31
-74.24
-79.69
-82.63
-81.91
-76.57
-66.34
-51.76
-34.18
-15.32
3.22
20.23
34.99
47.01
55.92
61.32
63
61.18
56.55
50.27
43.65
37.8
33.44
30.75
29.48
29.07
28.87
28.26
26.79
24.28
20.84
16.83
12.6
8.38
4.07
-0.66
-6.25
-12.98
-20.84
-29.46
-38.32
-46.94
-55.04
-62.66
-69.98
-77.23
-84.59
-92.16
-99.89
-107.56
-114.65
-120.27
-123.23
-122.28
-116.51
-105.68
-90.36
-71.83
-51.74
-31.75
-13.19
3.01
16.3
26.44
33.42
37.44
38.94
38.55
37.03
35.1
33.31
31.98
31.15
30.69
30.44
30.23
30
29.7
29.32
28.76
27.9
26.6
24.69
22.07
18.69
14.52
9.65
4.17
-1.71
-7.83
-13.96
-19.98
-25.83
-31.55
-37.29
-43.26
-49.74
-56.93
-64.87
-73.22
-81.16
-87.33
-90.18
-88.3
-80.88
-68.09
-50.94
-31.04
-10.13
10.32
29.27
46.06
60.23
71.45
79.5
84.39
86.39
86.1
84.24
81.52
78.53
75.61
72.97
70.66
68.65
66.87
65.2
63.51
61.66
59.48
56.83
53.57
49.65
45.06
39.86
34.12
27.93
21.33
14.35
7.06
-0.37
-7.74
-14.84
-21.59
-28.1
-34.66
-41.65
-49.37
-57.93
-67.08
-76.15
-84.03
-89.32
-90.62
-86.82
-77.51
-63.1
-44.79
-24.22
-3.13
17.08
35.38
51.17
64.01
73.57
79.62
82.14
81.46
78.17
73.11
67.1
60.81
54.72
49.13
44.29
40.31
37.25
34.93
33.07
31.2
28.9
25.87
21.96
17.24
11.86
5.99
-0.27
-6.88
-13.83
-21.09
-28.54
-35.95
-43.09
-49.78
-56.03
-62.03
-68.16
-74.87
-82.5
-91.15
-100.52
-109.77
-117.59
-122.32
-122.35
-116.52
-104.51
-87
-65.54
-42.14
-18.8
2.82
21.63
37.02
48.7
56.55
60.62
61.22
58.99
54.91
50.07
45.46
41.7
38.96
37.05
35.57
34.18
32.67
30.98
29.09
26.98
24.52
21.49
17.67
12.92
7.26
0.92
-5.73
-12.26
-18.37
-23.96
-29.14
-34.23
-39.54
-45.32
-51.67
-58.54
-65.7
-72.6
-78.24
-81.22
-79.88
-72.82
-59.43
-40.27
-17.01
7.99
32.33
54.19
72.53
86.97
97.48
104.19
107.29
107.17
104.57
100.49
95.97
91.72
87.94
84.32
80.31
75.43
69.55
62.89
55.93
49.19
42.94
37.19
31.68
26.04
19.93
13.18
5.86
-1.79
-9.41
-16.72
-23.54
-29.97
-36.24
-42.77
-49.95
-58.12
-67.45
-77.76
-88.46
-98.38
-105.87
-109.1
-106.47
-97.18
-81.53
-60.9
-37.34
-13.06
10.11
30.97
48.9
63.59
74.83
82.4
86.17
86.3
83.32
78.1
71.65
64.84
58.3
52.34
47.09
42.56
38.72
35.46
32.55
29.64
26.3
22.18
17.1
11.11
4.42
-2.67
-9.92
-17.13
-24.21
-31.11
-37.75
-44.02
-49.81
-55.06
-59.82
-64.36
-69.14
-74.7
-81.47
-89.55
-98.41
-106.86
-113.18
-115.45
-112.1
-102.34
-86.46
-65.72
-42.03
-17.49
6.11
27.5
45.96
61.13
72.78
80.76
85.01
85.74
83.52
79.29
74.05
68.7
63.74
59.34
55.44
51.95
48.97
46.65
45.18
44.6
44.78
45.45
46.27
46.89
46.99
46.29
44.56
41.69
37.73
32.88
27.49
21.88
16.31
10.89
5.56
0.14
-5.64
-12.08
-19.52
-28.23
-38.4
-49.92
-62.25
-74.31
-84.49
-90.95
-92.05
-86.84
-75.35
-58.61
-38.34
-16.55
4.96
24.74
41.82
55.55
65.51
71.49
73.51
71.92
67.38
60.86
53.38
45.91
39.19
33.62
29.32
26.15
23.84
22.07
20.52
18.93
17.07
14.76
11.85
8.26
3.92
-1.12
-6.74
-12.69
-18.71
-24.55
-30.12
-35.49
-40.85
-46.43
-52.39
-58.84
-65.78
-73.13
-80.65
-87.8
-93.64
-96.86
-96.09
-90.27
-79.05
-62.9
-43.11
-21.34
0.67
21.42
39.7
54.58
65.37
71.59
73.18
70.54
64.55
56.49
47.74
39.48
32.48
26.97
22.72
19.3
16.24
13.3
10.48
7.88
5.53
3.31
0.84
-2.29
-6.35
-11.34
-16.99
-22.89
-28.65
-34.07
-39.16
-44.12
-49.26
-54.89
-61.32
-68.68
-76.79
-84.99
-92.03
-96.24
-95.88
-89.69
-77.26
-59.27
-37.19
-12.97
11.53
34.78
55.62
73.19
86.81
95.96
100.41
100.4
96.58
89.99
81.7
72.66
63.47
54.46
45.77
37.45
29.56
22.19
15.38
9.05
3.02
-3.02
-9.34
-16.11
-23.25
-30.56
-37.69
-44.36
-50.39
-55.73
-60.45
-64.69
-68.64
-72.57
-76.74
-81.31
-86.12
-90.57
-93.55
-93.61
-89.4
-80.05
-65.48
-46.48
-24.5
-1.25
21.69
43.06
62.02
77.93
90.3
98.71
102.95
103.17
100
94.4
87.38
79.71
71.82
63.89
56.08
48.74
42.32
37.23
33.46
30.64
28.1
25.27
21.94
18.32
14.85
11.94
9.71
7.98
6.42
4.62
2.18
-1.32
-6.33
-13.31
-22.58
-34.1
-47.4
-61.53
-75.3
-87.39
-96.56
-101.72
-102.04
-97.08
-86.86
-72.02
-53.72
-33.47
-12.8
6.97
24.82
40.04
52.14
60.79
65.8
67.31
65.76
62
57.03
51.87
47.26
43.63
41.02
39.24
38.06
37.24
36.62
36.01
35.03
33.17
29.83
24.62
17.56
9.1
0.01
-8.98
-17.49
-25.6
-33.81
-42.71
-52.7
-63.77
-75.26
-86.06
-94.64
-99.41
-99.06
-92.8
-80.66
-63.42
-42.6
-20.09
2.09
22.2
38.98
51.8
60.61
65.77
67.83
67.34
64.7
60.25
54.37
47.59
40.59
34.05
28.52
24.2
20.96
18.46
16.29
14.16
11.94
9.57
6.97
4.04
0.56
-3.69
-8.94
-15.36
-23.08
-32.18
-42.65
-54.24
-66.3
-77.7
-86.9
-92.26
-92.44
-86.78
-75.53
-59.65
-40.64
-20.04
0.78
20.7
38.77
54.11
65.89
73.47
76.61
75.65
71.44
65.13
57.86
50.5
43.47
36.83
30.46
24.25
18.18
12.35
6.92
1.99
-2.48
-6.64
-10.69
-14.77
-18.93
-23.12
-27.21
-31.16
-35.06
-39.19
-43.8
-49.01
-54.5
-59.57
-63.26
-64.61
-62.84
-57.58
-48.86
-37.08
-22.86
-6.9
9.94
26.65
42.08
54.99
64.2
68.86
68.59
63.57
54.84
43.73
31.68
20.03
9.94
2.3
-2.34
-3.84
-2.45
1.68
8.06
15.97
24.69
33.69
42.64
51.27
59.32
66.58
73.59
80.78
88.39
96.43
104.64
112.44
118.65
121.78
120.47
114.64
104.84
91.88
76.87
61.23
46.57
34.42
26.09
17.33
7.13
-3.15
-11.6
-17.83
-22.89
-27.98
-33.55
-39.25
-44.2
-47.73
-49.53
-50
-49.99
-50.25
-51.27
-53.4
-57.05
-60.98
-63.96
-65.11
-64.12
-61.22
-56.84
-51.57
-46.07
-40.98
-36.71
-33.23
-30.29
-27.78
-25.82
-24.66
-24.63
-26.06
-29.18
-33.95
-40.06
-46.98
-54.24
-61.43
-68.28
-74.64
-80.59
-86.4
-92.44
-99.05
-106.14
-113.12
-118.74
-121.32
-119.13
-110.88
-96.19
-75.62
-50.72
-23.5
3.94
29.7
52.28
70.53
83.79
91.84
94.97
93.95
89.82
83.64
76.21
67.95
59.03
49.58
39.88
30.46
21.94
14.8
9.28
5.26
2.47
0.5
-1.03
-2.53
-4.34
-6.77
-9.96
-13.82
-18.04
-22.25
-26.16
-29.71
-33.03
-36.45
-40.25
-44.56
-49.21
-53.71
-57.24
-58.69
-56.9
-50.92
-40.35
-25.53
-7.59
11.81
30.76
47.51
60.63
69.22
72.82
71.48
65.73
56.51
45
32.47
20.14
9.02
-0.11
-6.72
-10.55
-11.7
-10.61
-8.1
-5.12
-2.53
-0.86
-0.24
-0.46
-1.15
-2.06
-3.12
-4.4
-6.06
-8.3
-11.32
-15.37
-20.67
-27.23
-34.64
-41.88
-47.45
-49.68
-47.2
-39.4
-26.64
-10.13
8.37
27
44.24
59
70.66
78.97
83.9
85.58
84.35
80.77
75.59
69.65
63.67
58.14
53.27
49.04
45.33
42.07
39.17
36.53
33.96
31.15
27.74
23.47
18.2
12.01
5.16
-2.08
-9.4
-16.68
-23.98
-31.6
-39.96
-49.46
-60.19
-71.69
-82.87
-92.09
-97.55
-97.77
-92
-80.4
-64.01
-44.39
-23.24
-2.12
17.73
35.36
50.09
61.44
69.17
73.32
74.25
72.57
69.04
64.37
59.09
53.57
48.01
42.58
37.47
32.85
28.89
25.61
22.87
20.39
17.76
14.57
10.49
5.36
-0.77
-7.67
-15.01
-22.44
-29.73
-36.86
-44.01
-51.53
-59.81
-69.07
-79.15
-89.35
-98.37
-104.54
-106.17
-102.05
-91.79
-75.99
-56.01
-33.66
-10.73
11.26
31.2
48.26
61.91
71.79
77.8
80.12
79.27
75.99
71.09
65.34
59.33
53.46
47.97
43
38.61
34.83
31.59
28.79
26.28
23.78
20.94
17.41
12.87
7.18
0.46
-6.9
-14.43
-21.7
-28.51
-34.93
-41.29
-47.99
-55.41
-63.83
-73.27
-83.39
-93.38
-101.92
-107.36
-108.09
-102.98
-91.71
-74.94
-54.05
-30.88
-7.22
15.36
35.72
53.02
66.7
76.44
82.15
84.06
82.67
78.71
73.01
66.33
59.24
52.11
45.15
38.51
32.32
26.74
21.83
17.53
13.58
9.63
5.36
0.62
-4.55
-9.96
-15.4
-20.78
-26.21
-31.93
-38.3
-45.59
-53.87
-62.87
-71.88
-79.73
-84.96
-86.12
-82.1
-72.49
-57.74
-39.06
-18.17
3.11
23.18
40.86
55.38
66.28
73.38
76.73
76.59
73.51
68.27
61.74
54.7
47.71
41.13
35.08
29.65
24.95
21.04
17.88
15.23
12.65
9.64
5.78
0.92
-4.78
-10.99
-17.33
-23.58
-29.73
-35.98
-42.68
-50.2
-58.72
-68
-77.22
-85
-89.62
-89.47
-83.48
-71.58
-54.61
-34.19
-12.22
9.48
29.43
46.57
60.1
69.56
74.74
75.79
73.29
68.11
61.33
53.92
46.64
39.93
33.97
28.81
24.44
20.84
17.93
15.51
13.28
10.82
7.79
3.95
-0.73
-6.09
-11.86
-17.72
-23.48
-29.14
-34.91
-41.18
-48.28
-56.3
-64.81
-72.75
-78.6
-80.7
-77.72
-69.07
-55.03
-36.77
-15.96
5.45
25.64
43.08
56.66
65.78
70.31
70.53
67.08
60.77
52.56
43.35
34.05
25.41
18.04
12.23
7.98
4.97
2.65
0.44
-2.15
-5.4
-9.34
-13.79
-18.51
-23.28
-28.05
-32.93
-38.16
-44.09
-50.97
-58.89
-67.49
-75.94
-82.86
-86.6
-85.57
-78.71
-65.84
-47.69
-25.82
-2.27
20.94
41.99
59.53
72.77
81.35
85.36
85.25
81.68
75.49
67.54
58.66
49.58
40.91
33.05
26.26
20.62
15.97
12.06
8.45
4.69
0.42
-4.57
-10.24
-16.38
-22.69
-28.94
-35.1
-41.3
-47.86
-55.11
-63.32
-72.48
-82.14
-91.23
-98.18
-101.11
-98.32
-88.82
-72.7
-51.15
-26.16
-0
25.23
47.95
67.04
81.77
91.72
96.79
97.32
94.12
88.34
81.2
73.7
66.41
59.51
52.91
46.51
40.37
34.65
29.57
25.21
21.43
17.85
13.96
9.3
3.58
-3.14
-10.54
-18.14
-25.5
-32.36
-38.77
-45.01
-51.53
-58.8
-67.2
-76.72
-86.84
-96.32
-103.37
-105.96
-102.38
-91.78
-74.49
-51.96
-26.35
-0.02
25.01
47.22
65.61
79.59
88.84
93.34
93.46
89.94
83.86
76.39
68.54
60.93
53.81
47.15
40.84
34.84
29.28
24.3
20
16.36
13.09
9.77
5.92
1.09
-4.94
-12.09
-20
-28.11
-35.92
-43.19
-49.95
-56.54
-63.41
-70.95
-79.38
-88.5
-97.71
-105.92
-111.59
-113.09
-108.94
-98.34
-81.43
-59.3
-33.81
-7.12
18.66
41.82
61.08
75.65
85.17
89.68
89.7
86.12
80.1
72.84
65.36
58.38
52.26
47.11
42.93
39.65
37.19
35.44
34.17
33.05
31.64
29.5
26.33
22.01
16.63
10.47
3.95
-2.56
-8.86
-14.95
-21.09
-27.73
-35.26
-43.87
-53.32
-62.77
-70.87
-75.94
-76.42
-71.23
-60.12
-43.77
-23.65
-1.71
19.98
39.52
55.43
66.72
72.97
74.35
71.53
65.51
57.45
48.48
39.53
31.32
24.27
18.59
14.23
11
8.5
6.32
4.06
1.4
-1.87
-5.87
-10.57
-15.82
-21.38
-27
-32.49
-37.87
-43.39
-49.5
-56.61
-64.88
-74
-82.97
-90.21
-93.87
-92.26
-84.4
-70.31
-51
-28.3
-4.29
19
39.91
57.21
70.05
77.97
80.96
79.45
74.36
66.92
58.37
49.72
41.63
34.36
28
22.53
17.98
14.37
11.58
9.3
7.02
4.12
0.16
-5.05
-11.37
-18.36
-25.54
-32.54
-39.27
-45.92
-52.9
-60.7
-69.61
-79.53
-89.78
-99.07
-105.62
-107.53
-103.23
-92.02
-74.28
-51.41
-25.5
1.13
26.41
48.74
67.08
80.79
89.59
93.56
93.15
89.2
82.81
75.15
67.2
59.6
52.58
46.17
40.32
35.06
30.48
26.66
23.5
20.69
17.74
14.16
9.64
4.09
-2.3
-9.2
-16.29
-23.31
-30.18
-37.02
-44.12
-51.87
-60.67
-70.65
-81.45
-92
-100.61
-105.26
-104.09
-96.01
-80.97
-60.04
-35.09
-8.36
17.96
42.08
62.68
78.88
90.21
96.53
98.08
95.4
89.39
81.2
72.04
63.02
54.91
48.04
42.32
37.39
32.89
28.61
24.59
20.95
17.71
14.69
11.46
7.51
2.48
-3.69
-10.66
-17.94
-25
-31.54
-37.53
-43.24
-49.07
-55.47
-62.79
-71.2
-80.53
-90.14
-98.81
-104.83
-106.31
-101.66
-90.1
-71.91
-48.49
-21.94
5.35
31.15
53.68
71.72
84.57
92.06
94.48
92.6
87.51
80.48
72.7
65.05
58.06
51.86
46.43
41.68
37.57
34.13
31.34
29.09
27.08
24.9
22.12
18.4
13.61
7.87
1.53
-5.02
-11.44
-17.59
-23.6
-29.83
-36.78
-44.78
-53.86
-63.41
-72.25
-78.74
-81.11
-77.99
-68.77
-53.77
-34.24
-12
10.84
32.26
50.53
64.31
72.82
75.89
73.97
68.05
59.44
49.52
39.48
30.21
22.23
15.76
10.8
7.13
4.46
2.34
0.3
-2.08
-5.14
-9.01
-13.67
-18.93
-24.57
-30.39
-36.28
-42.29
-48.62
-55.57
-63.43
-72.27
-81.68
-90.68
-97.65
-100.71
-98.11
-88.81
-72.84
-51.3
-26.19
0.16
25.47
47.91
66.23
79.71
88.14
91.66
90.73
86.11
78.78
69.84
60.36
51.24
43.1
36.22
30.65
26.24
22.68
19.56
16.43
12.79
8.29
2.76
-3.67
-10.67
-17.83
-24.85
-31.73
-38.7
-46.24
-54.81
-64.7
-75.73
-87.18
-97.65
-105.29
-108.15
-104.6
-93.84
-76.15
-52.84
-25.98
2.09
29.14
53.42
73.67
89.1
99.3
104.26
104.34
100.37
93.48
84.98
76.05
67.51
59.75
52.75
46.35
40.41
34.93
30.02
25.74
21.98
18.42
14.6
10.06
4.57
-1.89
-9.04
-16.55
-24.1
-31.54
-38.91
-46.46
-54.56
-63.59
-73.68
-84.49
-94.99
-103.46
-107.75
-105.88
-96.62
-79.93
-57.07
-30.18
-1.81
25.71
50.53
71.4
87.56
98.63
104.59
105.78
102.89
96.91
88.92
79.97
70.93
62.43
54.88
48.43
43.03
38.46
34.39
30.5
26.59
22.59
18.48
14.23
9.72
4.72
-0.95
-7.41
-14.54
-22.12
-29.83
-37.41
-44.69
-51.62
-58.23
-64.7
-71.34
-78.57
-86.76
-95.86
-105.19
-113.26
-118.04
-117.45
-109.92
-94.99
-73.41
-46.99
-18.12
10.78
37.65
60.94
79.61
93.03
100.94
103.47
101.25
95.39
87.29
78.39
69.84
62.32
56
50.77
46.38
42.66
39.55
36.95
34.72
32.62
30.31
27.47
23.84
19.28
13.84
7.67
1.07
-5.62
-12.09
-18.19
-23.93
-29.47
-35.15
-41.32
-48.34
-56.41
-65.43
-74.74
-83.1
-88.79
-90.02
-85.37
-74.34
-57.45
-36.19
-12.58
11.23
33.35
52.31
67.06
76.92
81.65
81.45
77.01
69.49
60.32
50.92
42.36
35.23
29.59
25.11
21.45
18.32
15.66
13.44
11.58
9.77
7.58
4.56
0.42
-4.82
-10.88
-17.31
-23.67
-29.68
-35.31
-40.78
-46.53
-53.09
-60.89
-70
-79.85
-89.18
-96.15
-98.73
-95.28
-84.99
-68.22
-46.38
-21.56
3.94
28.09
49.33
66.68
79.57
87.78
91.39
90.8
86.71
80.1
72.04
63.56
55.47
48.26
42.12
37.02
32.8
29.24
26.17
23.44
20.93
18.49
15.9
12.87
9.07
4.29
-1.53
-8.28
-15.67
-23.34
-30.94
-38.18
-44.89
-51.13
-57.19
-63.53
-70.67
-78.95
-88.23
-97.7
-105.93
-111.02
-111.12
-104.83
-91.65
-72.1
-47.71
-20.64
6.77
32.45
54.82
72.93
86.36
95.07
99.31
99.57
96.52
90.97
83.84
75.94
67.99
60.48
53.75
47.99
43.26
39.5
36.5
33.97
31.54
28.91
25.8
22.1
17.78
12.91
7.57
1.84
-4.22
-10.61
-17.3
-24.25
-31.37
-38.46
-45.35
-51.9
-58.11
-64.16
-70.39
-77.16
-84.67
-92.65
-100.28
-106.11
-108.39
-105.46
-96.27
-80.71
-59.72
-35.08
-8.97
16.52
39.66
59.23
74.5
85.15
91.18
92.97
91.19
86.76
80.67
73.78
66.73
59.92
53.58
47.87
42.92
38.83
35.61
33.13
31.17
29.39
27.45
25.02
21.85
17.83
13
7.6
1.97
-3.6
-8.97
-14.23
-19.66
-25.53
-31.89
-38.59
-45.21
-51.37
-56.85
-61.71
-66.32
-71.19
-76.72
-83.08
-90.04
-96.85
-102.34
-105.01
-103.36
-96.26
-83.25
-64.77
-42.15
-17.32
7.54
30.46
49.95
65.12
75.66
81.71
83.7
82.23
78.06
72.03
65.05
57.95
51.41
45.81
41.24
37.57
34.57
32.05
29.9
28.09
26.56
25.13
23.46
21.15
17.85
13.42
8.01
1.98
-4.18
-10.08
-15.52
-20.58
-25.48
-30.59
-36.26
-42.75
-50.13
-58.15
-66.16
-73.13
-77.77
-78.76
-75.1
-66.38
-52.96
-35.84
-16.54
3.25
21.89
38.01
50.62
59.04
63.04
62.82
59.05
52.76
45.2
37.54
30.62
24.82
20.09
16.15
12.7
9.61
6.88
4.6
2.75
1.11
-0.68
-3.02
-6.21
-10.35
-15.29
-20.73
-26.38
-32
-37.57
-43.22
-49.22
-55.9
-63.42
-71.72
-80.3
-88.16
-93.91
-96.01
-93.1
-84.45
-70.16
-51.19
-29.13
-5.89
16.7
37.12
54.26
67.42
76.26
80.72
81.11
78.04
72.39
65.23
57.63
50.43
44.09
38.67
33.95
29.63
25.52
21.62
18.07
14.98
12.26
9.59
6.45
2.39
-2.82
-9.1
-16.06
-23.2
-30.11
-36.64
-42.93
-49.38
-56.48
-64.59
-73.76
-83.61
-93.31
-101.58
-106.93
-107.83
-103.11
-92.21
-75.43
-53.91
-29.43
-4.09
20.16
41.72
59.58
73.23
82.56
87.73
89.1
87.21
82.74
76.52
69.42
62.24
55.54
49.67
44.71
40.57
37.02
33.86
30.9
28.01
25.04
21.84
18.22
13.97
8.89
2.89
-3.99
-11.5
-19.28
-26.95
-34.21
-41.01
-47.49
-53.97
-60.86
-68.5
-76.99
-86.08
-95
-102.52
-107.06
-107.01
-101.16
-89.04
-71.11
-48.7
-23.76
1.63
25.56
46.61
63.86
76.82
85.29
89.38
89.42
86.01
80.04
72.57
64.64
57.18
50.74
45.53
41.42
38.15
35.39
32.89
30.51
28.16
25.75
23.07
19.85
15.75
10.57
4.35
-2.64
-9.9
-16.92
-23.41
-29.36
-35.1
-41.11
-47.89
-55.69
-64.37
-73.37
-81.65
-87.84
-90.47
-88.22
-80.29
-66.62
-47.92
-25.62
-1.57
22.24
43.99
62.17
75.74
84.13
87.34
85.88
80.71
73.05
64.2
55.29
47.16
40.28
34.78
30.55
27.33
24.82
22.68
20.64
18.35
15.54
11.95
7.47
2.17
-3.67
-9.71
-15.62
-21.3
-26.91
-32.81
-39.4
-47
-55.63
-64.92
-74.02
-81.68
-86.33
-86.43
-80.82
-69.07
-51.76
-30.35
-6.88
16.49
37.81
55.68
69.2
77.95
81.89
81.35
77.04
70
61.5
52.74
44.65
37.7
31.94
27.17
23.12
19.6
16.5
13.67
10.84
7.6
3.51
-1.66
-7.82
-14.61
-21.5
-28.06
-34.13
-39.92
-45.87
-52.58
-60.53
-69.91
-80.35
-90.86
-99.79
-105.15
-105.06
-98.22
-84.39
-64.41
-40.04
-13.48
13.08
37.8
59.34
76.85
89.82
98.05
101.63
100.91
96.58
89.6
81.04
71.99
63.36
55.71
49.28
44.02
39.7
36.06
32.92
30.11
27.52
24.94
22.13
18.77
14.6
9.49
3.45
-3.33
-10.59
-18.06
-25.47
-32.61
-39.34
-45.63
-51.65
-57.72
-64.31
-71.84
-80.48
-89.98
-99.47
-107.54
-112.39
-112.17
-105.49
-91.77
-71.5
-46.24
-18.2
10.16
36.72
59.96
78.98
93.41
103.13
108.23
109
106.02
100.23
92.73
84.62
76.7
69.41
62.86
56.96
51.71
47.15
43.42
40.58
38.48
36.74
34.83
32.23
28.58
23.76
17.94
11.49
4.84
-1.63
-7.79
-13.71
-19.7
-26.03
-32.84
-40
-47.15
-53.81
-59.7
-64.81
-69.54
-74.53
-80.48
-87.74
-96.2
-105.08
-112.97
-118.09
-118.64
-113.21
-101.11
-82.63
-58.97
-32.06
-4.09
22.8
46.91
67.06
82.64
93.44
99.6
101.54
99.9
95.53
89.36
82.31
75.09
68.18
61.86
56.31
51.68
48.09
45.58
43.96
42.8
41.54
39.59
36.62
32.57
27.68
22.3
16.77
11.23
5.63
-0.18
-6.34
-12.86
-19.6
-26.3
-32.7
-38.63
-44.13
-49.38
-54.74
-60.58
-67.25
-74.79
-82.82
-90.4
-96.04
-97.99
-94.64
-85.05
-69.3
-48.51
-24.58
0.31
24.1
45.21
62.55
75.44
83.53
86.8
85.61
80.74
73.31
64.63
55.95
48.24
42.09
37.67
34.81
33.06
31.92
30.85
29.54
27.83
25.75
23.39
20.75
17.69
13.94
9.22
3.4
-3.39
-10.77
-18.25
-25.39
-32
-38.17
-44.2
-50.49
-57.41
-65.15
-73.6
-82.23
-89.99
-95.4
-96.79
-92.73
-82.49
-66.3
-45.34
-21.49
3.14
26.63
47.4
64.36
76.8
84.4
87.28
86
81.52
75.02
67.68
60.42
53.82
48.09
43.23
39.22
36.03
33.67
32.13
31.26
30.75
30.17
29.07
27.06
23.92
19.66
14.53
8.92
3.2
-2.39
-7.85
-13.44
-19.46
-26.11
-33.31
-40.74
-47.88
-54.3
-59.85
-64.72
-69.34
-74.29
-80.03
-86.81
-94.46
-102.36
-109.43
-114.14
-114.88
-110.2
-99.31
-82.3
-60.22
-34.89
-8.49
16.91
39.65
58.64
73.35
83.62
89.59
91.65
90.38
86.53
81.01
74.66
68.24
62.28
57.07
52.71
49.15
46.33
44.13
42.39
40.96
39.62
38.14
36.3
33.93
30.85
26.95
22.23
16.74
10.67
4.27
-2.2
-8.51
-14.58
-20.43
-26.17
-31.91
-37.68
-43.41
-48.95
-54.14
-58.88
-63.19
-67.26
-71.35
-75.79
-80.87
-86.69
-93.03
-99.26
-104.34
-106.93
-105.65
-99.38
-87.58
-70.49
-49.18
-25.31
-0.87
22.27
42.61
59.2
71.58
79.76
83.99
84.77
82.7
78.52
72.99
66.87
60.71
54.92
49.68
45.06
41.12
37.88
35.36
33.5
32.08
30.72
28.98
26.5
23.11
18.93
14.31
9.64
5.19
1.06
-2.9
-6.94
-11.28
-16.03
-21.12
-26.36
-31.53
-36.42
-40.95
-45.18
-49.28
-53.54
-58.26
-63.69
-69.86
-76.41
-82.55
-87.04
-88.48
-85.63
-77.8
-65.05
-48.26
-28.85
-8.46
11.35
29.27
44.31
55.7
62.96
65.94
64.91
60.55
53.88
46.06
38.14
30.96
25
20.46
17.25
15.11
13.69
12.64
11.64
10.46
9
7.2
5.01
2.33
-0.96
-4.98
-9.76
-15.12
-20.75
-26.29
-31.44
-36.15
-40.63
-45.32
-50.71
-57.06
-64.27
-71.63
-77.93
-81.67
-81.36
-75.98
-65.2
-49.54
-30.22
-8.87
12.72
32.95
50.53
64.51
74.32
79.75
80.95
78.51
73.34
66.64
59.58
53.08
47.62
43.23
39.62
36.43
33.43
30.58
28.01
25.8
23.87
21.92
19.49
16.15
11.67
6.08
-0.37
-7.31
-14.41
-21.44
-28.31
-35.01
-41.6
-48.18
-54.96
-62.2
-70.15
-78.77
-87.58
-95.51
-101.05
-102.5
-98.48
-88.32
-72.24
-51.36
-27.47
-2.62
21.21
42.39
59.84
73.02
81.87
86.7
88.01
86.41
82.56
77.17
70.93
64.51
58.42
53.05
48.53
44.84
41.77
39.11
36.57
33.95
31.09
27.88
24.26
20.18
15.58
10.42
4.7
-1.55
-8.17
-14.96
-21.73
-28.31
-34.62
-40.72
-46.75
-52.97
-59.64
-67
-75.13
-83.75
-92.13
-99.01
-102.85
-102.16
-95.86
-83.66
-66.18
-44.75
-21.18
2.72
25.32
45.39
62.07
74.85
83.53
88.23
89.35
87.54
83.59
78.33
72.49
66.67
61.26
56.5
52.51
49.29
46.78
44.78
43.05
41.28
39.17
36.44
32.94
28.63
23.56
17.9
11.87
5.76
-0.22
-5.92
-11.39
-16.79
-22.38
-28.27
-34.39
-40.46
-46.13
-51.18
-55.7
-60.02
-64.63
-69.96
-76.24
-83.34
-90.74
-97.48
-102.31
-103.78
-100.62
-92.01
-77.91
-59.11
-37.06
-13.61
9.46
30.67
48.91
63.51
74.11
80.67
83.38
82.77
79.61
74.82
69.29
63.78
58.79
54.54
51.07
48.29
46.11
44.38
42.94
41.59
40.1
38.26
35.9
32.93
29.35
25.21
20.6
15.56
10.13
4.28
-1.96
-8.54
-15.27
-21.91
-28.25
-34.18
-39.81
-45.42
-51.39
-58
-65.21
-72.54
-79.02
-83.36
-84.22
-80.53
-71.79
-58.27
-40.92
-21.22
-0.84
18.6
35.77
49.7
59.77
65.72
67.64
65.94
61.41
55.07
48.03
41.32
35.7
31.52
28.71
26.94
25.7
24.57
23.23
21.57
19.56
17.19
14.38
11.02
6.93
2
-3.78
-10.25
-17.18
-24.22
-31.07
-37.51
-43.47
-49.04
-54.47
-60.13
-66.38
-73.46
-81.26
-89.2
-96.17
-100.62
-100.98
-95.97
-85.05
-68.56
-47.68
-24.14
0.12
23.32
44
61.21
74.41
83.47
88.58
90.16
88.8
85.17
79.99
73.98
67.71
61.7
56.29
51.7
48.03
45.25
43.26
41.84
40.72
39.57
38.05
35.86
32.71
28.48
23.25
17.28
11.01
4.83
-1
-6.51
-11.95
-17.65
-23.81
-30.38
-37.07
-43.54
-49.49
-54.86
-59.79
-64.62
-69.73
-75.49
-82.16
-89.68
-97.57
-104.76
-109.71
-110.69
-106.21
-95.49
-78.75
-57.25
-32.92
-7.91
15.88
37.09
54.95
69.12
79.55
86.27
89.42
89.36
86.7
82.27
77.02
71.7
66.78
62.38
58.45
54.9
51.77
49.2
47.29
46
45.07
44.18
42.98
41.3
39.07
36.35
33.17
29.55
25.53
21.18
16.59
11.85
6.99
1.98
-3.21
-8.56
-13.92
-19.09
-23.84
-28.09
-31.92
-35.56
-39.25
-43.2
-47.44
-51.88
-56.32
-60.6
-64.68
-68.7
-72.95
-77.82
-83.62
-90.41
-97.77
-104.76
-109.97
-111.84
-108.96
-100.49
-86.34
-67.24
-44.59
-20.2
4.01
26.37
45.62
60.98
72.2
79.37
82.82
83.01
80.54
76.12
70.58
64.78
59.43
54.94
51.45
48.81
46.82
45.33
44.29
43.66
43.32
43.01
42.37
41.05
38.85
35.8
32.07
27.94
23.68
19.44
15.26
11.12
6.98
2.82
-1.35
-5.57
-9.89
-14.42
-19.19
-24.2
-29.33
-34.38
-39.19
-43.71
-48.08
-52.63
-57.69
-63.49
-69.93
-76.44
-82.05
-85.44
-85.31
-80.68
-71.17
-57.12
-39.58
-20.01
-0.04
18.78
35.22
48.36
57.71
63.09
64.7
63.06
58.97
53.42
47.44
41.88
37.29
33.87
31.53
30
28.98
28.24
27.61
26.93
26
24.61
22.59
19.84
16.36
12.22
7.54
2.47
-2.85
-8.28
-13.77
-19.26
-24.78
-30.35
-35.97
-41.61
-47.27
-53.05
-59.19
-66
-73.64
-81.88
-89.96
-96.54
-100.06
-99.12
-92.9
-81.4
-65.39
-46.17
-25.25
-4.05
16.17
34.37
49.7
61.48
69.32
73.19
73.48
70.93
66.49
61.1
55.56
50.4
45.87
42.07
39.03
36.78
35.27
34.33
33.6
32.63
30.96
28.33
24.72
20.37
15.6
10.66
5.68
0.58
-4.76
-10.37
-16.22
-22.13
-27.95
-33.57
-39.01
-44.46
-50.13
-56.3
-63.15
-70.7
-78.71
-86.59
-93.39
-97.85
-98.65
-94.7
-85.41
-70.95
-52.23
-30.74
-8.25
13.48
33
49.28
61.77
70.32
75.13
76.64
75.43
72.14
67.42
61.9
56.13
50.57
45.51
41.15
37.54
34.63
32.29
30.34
28.55
26.64
24.34
21.47
17.98
13.91
9.43
4.65
-0.38
-5.73
-11.46
-17.62
-24.13
-30.79
-37.35
-43.6
-49.44
-54.96
-60.43
-66.23
-72.73
-80.11
-88.13
-96
-102.45
-105.91
-104.9
-98.42
-86.24
-68.98
-47.96
-24.94
-1.71
20.15
39.38
55.16
67.01
74.75
78.55
78.82
76.28
71.82
66.37
60.72
55.47
50.97
47.36
44.61
42.65
41.28
40.27
39.35
38.28
36.91
35.28
33.61
32.27
31.6
31.8
32.7
33.81
34.36
33.54
30.67
25.41
17.71
7.85
-3.76
-16.62
-30.22
-43.94
-57.11
-68.85
-78.11
-83.8
-84.95
-81
-71.99
-58.61
-42.04
-23.7
-4.96
13
29.18
42.68
52.69
58.63
60.29
58.04
52.78
45.78
38.38
31.69
26.39
22.71
20.45
19.2
18.48
17.89
17.16
16.14
14.76
12.9
10.41
7.14
2.97
-2.06
-7.78
-13.97
-20.35
-26.82
-33.37
-40.15
-47.4
-55.42
-64.44
-74.52
-85.4
-96.36
-106.21
-113.42
-116.37
-113.79
-105.04
-90.36
-70.79
-47.99
-23.88
-0.33
21.1
39.35
53.78
64.24
70.86
74.06
74.42
72.66
69.52
65.71
61.79
58.16
55.02
52.42
50.32
48.63
47.23
45.95
44.52
42.69
40.2
36.92
32.92
28.42
23.74
19.12
14.63
10.15
5.48
0.45
-4.95
-10.47
-15.79
-20.61
-24.84
-28.69
-32.64
-37.29
-43.15
-50.43
-58.83
-67.4
-74.68
-78.94
-78.55
-72.48
-60.54
-43.43
-22.58
0.24
23.33
45.26
65
81.82
95.19
104.71
110.17
111.65
109.54
104.58
97.68
89.77
81.63
73.8
66.6
60.19
54.64
49.97
46.13
42.96
40.2
37.56
34.72
31.44
27.6
23.2
18.34
13.23
8.12
3.2
-1.41
-5.77
-10.08
-14.63
-19.67
-25.24
-31.17
-37.05
-42.45
-47.04
-50.76
-53.88
-56.85
-60.26
-64.63
-70.31
-77.33
-85.32
-93.32
-99.97
-103.62
-102.73
-96.32
-84.2
-67.09
-46.36
-23.68
-0.63
21.51
41.84
59.73
74.68
86.29
94.28
98.61
99.52
97.58
93.59
88.46
83.01
77.88
73.37
69.55
66.28
63.37
60.63
57.98
55.32
52.54
49.44
45.76
41.23
35.73
29.33
22.29
14.94
7.53
0.13
-7.36
-15.1
-23.16
-31.46
-39.73
-47.65
-54.96
-61.54
-67.47
-72.86
-77.89
-82.7
-87.44
-92.31
-97.42
-102.63
-107.32
-110.39
-110.42
-106.06
-96.48
-81.7
-62.55
-40.46
-17.09
5.96
27.37
46.05
61.14
72.03
78.4
80.33
78.37
73.46
66.74
59.39
52.39
46.42
41.75
38.32
35.87
33.99
32.29
30.48
28.3
25.65
22.45
18.72
14.5
9.84
4.8
-0.62
-6.43
-12.62
-19.17
-25.93
-32.78
-39.53
-46.06
-52.34
-58.48
-64.7
-71.36
-78.72
-86.79
-95.04
-102.44
-107.49
-108.64
-104.72
-95.23
-80.49
-61.56
-39.91
-17.18
5.1
25.61
43.38
57.72
68.19
74.63
77.1
75.91
71.67
65.23
57.6
49.76
42.46
36.08
30.65
26.04
22.01
18.42
15.27
12.58
10.35
8.54
7.06
5.76
4.58
3.45
2.34
1.21
-0.04
-1.5
-3.26
-5.37
-7.81
-10.48
-13.3
-16.14
-18.94
-21.68
-24.41
-27.27
-30.46
-34.23
-38.91
-44.78
-51.94
-60.16
-68.72
-76.37
-81.51
-82.58
-78.4
-68.56
-53.48
-34.29
-12.5
10.33
32.79
53.78
72.43
88.08
100.31
108.88
113.85
115.52
114.38
111.07
106.22
100.36
93.94
87.28
80.63
74.19
68.04
62.2
56.59
51.02
45.32
39.36
33.14
26.73
20.22
13.69
7.16
0.68
-5.65
-11.69
-17.25
-22.2
-26.51
-30.25
-33.59
-36.75
-39.92
-43.29
-46.98
-50.96
-55.08
-59.13
-62.9
-66.4
-69.93
-74.02
-79.25
-85.95
-93.98
-102.54
-110.34
-115.74
-117.18
-113.48
-104.12
-89.41
-70.37
-48.59
-25.83
-3.74
16.38
33.64
47.52
57.8
64.43
67.6
67.73
65.49
61.73
57.3
52.88
48.81
45.14
41.72
38.41
35.21
32.28
29.84
28.01
26.72
25.68
24.47
22.69
20.14
16.85
13.04
9
4.98
1.06
-2.77
-6.59
-10.46
-14.41
-18.4
-22.38
-26.27
-29.99
-33.47
-36.61
-39.43
-42.02
-44.7
-47.87
-51.88
-56.85
-62.43
-67.69
-71.24
-71.52
-67.2
-57.67
-43.18
-24.84
-4.36
16.4
35.76
52.49
65.85
75.53
81.57
84.28
84.18
82
78.58
74.83
71.53
69.25
68.26
68.53
69.79
71.64
73.64
75.42
76.64
77.03
76.34
74.37
70.97
66.01
59.47
51.4
41.97
31.42
20.05
8.23
-3.72
-15.55
-27.07
-38.2
-48.95
-59.42
-69.74
-80.05
-90.29
-100.08
-108.55
-114.39
-116.06
-112.26
-102.35
-86.64
-66.41
-43.58
-20.31
1.46
20.25
35.06
45.43
51.28
52.92
51.09
46.75
41.06
35.06
29.5
24.72
20.68
17.19
13.99
11.01
8.32
6.07
4.34
3.03
1.87
0.5
-1.34
-3.75
-6.63
-9.79
-13.1
-16.52
-20.15
-24.14
-28.56
-33.33
-38.27
-43.07
-47.52
-51.52
-55.13
-58.59
-62.22
-66.42
-71.53
-77.73
-84.88
-92.33
-98.92
-103.1
-103.27
-98.23
-87.51
-71.58
-51.73
-29.68
-7.22
14.15
33.35
49.68
62.73
72.26
78.25
80.89
80.59
78.01
73.92
69.11
64.28
59.96
56.44
53.78
51.85
50.44
49.32
48.3
47.24
45.95
44.21
41.76
38.39
34.03
28.82
23.05
17.06
11.08
5.16
-0.83
-7.03
-13.49
-20.1
-26.6
-32.73
-38.35
-43.49
-48.36
-53.25
-58.43
-64.1
-70.35
-77.01
-83.66
-89.45
-93.19
-93.49
-89.19
-79.66
-65.08
-46.44
-25.29
-3.4
17.57
36.29
51.81
63.57
71.38
75.39
76.03
74.02
70.17
65.31
60.15
55.2
50.73
46.87
43.62
40.94
38.78
37.05
35.65
34.39
33.04
31.33
29.04
26
22.17
17.66
12.67
7.51
2.42
-2.44
-7.09
-11.69
-16.49
-21.72
-27.41
-33.44
-39.49
-45.23
-50.44
-55.13
-59.58
-64.24
-69.51
-75.49
-81.77
-87.35
-90.78
-90.55
-85.5
-75.2
-60.12
-41.51
-21.07
-0.6
18.39
34.85
48.15
58.06
64.6
67.97
68.52
66.74
63.27
58.83
54.15
49.85
46.33
43.77
42.05
40.93
40.08
39.22
38.12
36.68
34.84
32.53
29.68
26.17
21.87
16.67
10.52
3.48
-4.3
-12.6
-21.14
-29.65
-37.85
-45.52
-52.52
-58.82
-64.52
-69.75
-74.53
-78.62
-81.43
-82.05
-79.48
-72.97
-62.23
-47.66
-30.21
-11.19
8.01
26.17
42.3
55.66
65.71
72.1
74.73
73.86
70.12
64.49
58.05
51.78
46.29
41.75
38.02
34.72
31.54
28.28
24.86
21.31
17.66
13.94
10.13
6.22
2.1
-2.36
-7.28
-12.7
-18.52
-24.53
-30.42
-35.96
-41.11
-46
-50.91
-56.17
-62.06
-68.67
-75.83
-82.95
-89.02
-92.68
-92.54
-87.53
-77.33
-62.45
-44.15
-24.07
-3.86
15.12
31.92
45.97
56.97
64.84
69.69
71.79
71.55
69.49
66.18
62.18
57.98
53.92
50.22
46.95
44.1
41.67
39.63
37.93
36.42
34.85
32.9
30.28
26.86
22.68
17.92
12.78
7.39
1.77
-4.09
-10.13
-16.24
-22.2
-27.83
-33.07
-38.02
-42.95
-48.21
-54.14
-60.98
-68.71
-76.86
-84.53
-90.33
-92.78
-90.59
-83.17
-70.82
-54.66
-36.36
-17.6
0.29
16.52
30.71
42.66
52.16
58.91
62.71
63.63
62.19
59.24
55.76
52.52
49.97
48.15
46.9
46.04
45.47
45.25
45.41
45.89
46.43
46.65
46.21
44.85
42.61
39.65
36.27
32.7
29.03
25.16
20.94
16.2
10.91
5.18
-0.67
-6.3
-11.43
-15.91
-19.82
-23.41
-27.03
-30.94
-35.22
-39.76
-44.28
-48.54
-52.41
-55.95
-59.38
-63.03
-67.25
-72.38
-78.65
-86.08
-94.26
-102.27
-108.68
-111.78
-110.05
-102.55
-89.28
-71.18
-49.91
-27.37
-5.37
14.75
32.14
46.45
57.6
65.72
71.03
73.8
74.41
73.32
71.06
68.17
65.1
62.11
59.35
56.81
54.52
52.51
50.84
49.49
48.29
46.97
45.21
42.77
39.56
35.66
31.25
26.53
21.67
16.85
12.19
7.72
3.44
-0.79
-5.15
-9.8
-14.76
-19.87
-24.85
-29.41
-33.46
-37.09
-40.64
-44.49
-48.98
-54.3
-60.35
-66.81
-73.07
-78.24
-81.21
-80.82
-76.17
-66.88
-53.32
-36.54
-18.05
0.58
17.99
33.23
45.71
55.09
61.21
64.06
63.91
61.28
56.97
51.89
46.88
42.51
39
36.23
33.9
31.62
29.1
26.15
22.71
18.79
14.42
9.59
4.32
-1.37
-7.46
-13.93
-20.73
-27.86
-35.22
-42.71
-50.12
-57.27
-63.99
-70.26
-76.16
-81.91
-87.76
-93.85
-100.14
-106.22
-111.26
-114.06
-113.26
-107.66
-96.59
-80.16
-59.28
-35.45
-10.46
14.03
36.67
56.46
72.74
85.15
93.6
98.28
99.67
98.49
95.57
91.63
87.22
82.67
78.16
73.78
69.7
66.11
63.13
60.72
58.66
56.55
53.94
50.55
46.29
41.31
35.9
30.32
24.73
19.11
13.36
7.38
1.13
-5.32
-11.84
-18.25
-24.46
-30.44
-36.27
-42.2
-48.56
-55.65
-63.61
-72.17
-80.56
-87.54
-91.63
-91.47
-86.24
-75.8
-60.86
-42.71
-22.98
-3.27
15.07
31.03
44.01
53.74
60.15
63.4
63.84
62
58.54
54.2
49.68
45.46
41.83
38.82
36.39
34.39
32.73
31.27
29.89
28.4
26.59
24.3
21.43
17.96
13.96
9.45
4.48
-0.97
-6.9
-13.27
-19.99
-26.88
-33.72
-40.3
-46.42
-51.97
-57.02
-61.83
-66.91
-72.77
-79.76
-87.77
-96.01
-103.07
-107.23
-106.86
-100.95
-89.39
-72.95
-53.07
-31.39
-9.46
11.53
30.71
47.43
61.13
71.36
77.91
80.89
80.87
78.73
75.48
71.97
68.71
65.84
63.25
60.8
58.43
56.24
54.35
52.77
51.34
49.69
47.37
44.01
39.55
34.16
28.26
22.33
16.7
11.41
6.34
1.18
-4.3
-10.18
-16.38
-22.66
-28.75
-34.49
-39.82
-44.88
-49.89
-55.24
-61.24
-68.13
-75.82
-83.77
-90.91
-95.77
-96.83
-92.86
-83.34
-68.61
-49.79
-28.48
-6.37
15.06
34.71
51.82
65.83
76.36
83.17
86.26
86.02
83.16
78.66
73.52
68.55
64.15
60.38
56.99
53.64
50.02
45.94
41.31
36.15
30.56
24.68
18.63
12.5
6.26
-0.15
-6.81
-13.69
-20.59
-27.19
-33.16
-38.28
-42.52
-46
-49
-51.87
-54.93
-58.52
-62.88
-67.97
-73.35
-78
-80.51
-79.4
-73.6
-62.85
-47.8
-29.87
-10.79
7.83
24.76
39.23
50.75
59.01
63.79
65.13
63.38
59.36
54.14
48.77
44.04
40.29
37.45
35.23
33.31
31.44
29.48
27.3
24.82
21.98
18.77
15.25
11.44
7.34
2.82
-2.18
-7.7
-13.61
-19.71
-25.78
-31.64
-37.26
-42.73
-48.25
-54.13
-60.69
-68.15
-76.4
-84.81
-92.11
-96.66
-96.76
-91.23
-79.77
-63.08
-42.69
-20.49
1.72
22.58
41.2
57.11
70.03
79.75
86.11
89.08
88.9
86.1
81.48
75.96
70.33
65.12
60.49
56.38
52.56
48.88
45.31
41.87
38.63
35.5
32.26
28.59
24.18
18.87
12.75
6.08
-0.79
-7.59
-14.24
-20.82
-27.5
-34.38
-41.51
-48.87
-56.49
-64.49
-73
-81.88
-90.5
-97.64
-101.73
-101.2
-95.03
-83
-65.8
-44.81
-21.82
1.38
23.14
42.15
57.54
68.84
76.09
79.72
80.44
79.05
76.31
72.74
68.65
64.12
59.1
53.49
47.24
40.39
33.1
25.58
18.04
10.68
3.64
-2.93
-8.89
-14.05
-18.31
-21.7
-24.46
-26.99
-29.76
-33.12
-37.18
-41.77
-46.53
-51.09
-55.27
-59.08
-62.77
-66.7
-71.23
-76.6
-82.79
-89.36
-95.41
-99.6
-100.4
-96.48
-87.05
-72.19
-52.83
-30.57
-7.24
15.42
36.08
53.87
68.27
79.06
86.16
89.65
89.78
87.08
82.37
76.63
70.8
65.5
60.9
56.76
52.7
48.47
44.12
39.98
36.38
33.45
31
28.57
25.68
22.04
17.6
12.47
6.88
1.03
-4.92
-10.9
-16.84
-22.72
-28.59
-34.53
-40.7
-47.21
-54.07
-61.03
-67.44
-72.29
-74.33
-72.41
-65.79
-54.46
-39.18
-21.3
-2.38
16.14
33.08
47.61
59.07
66.94
70.94
71.16
68.22
63.16
57.24
51.51
46.59
42.56
39.14
35.92
32.71
29.5
26.44
23.64
21.03
18.39
15.36
11.64
7.07
1.71
-4.2
-10.28
-16.2
-21.78
-27.09
-32.41
-38.16
-44.69
-52.17
-60.45
-69.04
-77.11
-83.5
-86.96
-86.28
-80.69
-70.06
-55.04
-36.94
-17.43
1.84
19.55
34.78
46.95
55.74
60.97
62.7
61.27
57.36
51.84
45.58
39.25
33.24
27.67
22.51
17.74
13.33
9.28
5.5
1.81
-1.99
-6.05
-10.49
-15.3
-20.43
-25.79
-31.23
-36.52
-41.33
-45.31
-48.21
-50.08
-51.25
-52.35
-54.07
-56.94
-61.13
-66.34
-71.84
-76.56
-79.28
-78.75
-73.96
-64.34
-49.85
-31.17
-9.48
13.67
36.72
58.33
77.44
93.33
105.5
113.69
117.87
118.34
115.74
110.95
104.91
98.42
92
85.86
80
74.31
68.69
63.18
57.85
52.84
48.23
43.98
39.87
35.59
30.79
25.27
19.01
12.2
5.12
-2.01
-9.09
-16.12
-23.2
-30.34
-37.42
-44.21
-50.42
-55.91
-60.69
-65.03
-69.4
-74.31
-80.21
-87.29
-95.35
-103.74
-111.34
-116.72
-118.36
-114.98
-105.87
-91.13
-71.66
-49
-24.95
-1.18
20.93
40.42
56.64
69.14
77.69
82.3
83.32
81.47
77.73
73.16
68.6
64.56
61.15
58.23
55.58
53.04
50.6
48.28
46.06
43.84
41.4
38.51
35.02
30.92
26.36
21.58
16.8
12.18
7.73
3.33
-1.23
-6.16
-11.58
-17.45
-23.57
-29.68
-35.53
-41
-46.11
-51.02
-55.96
-61.13
-66.74
-72.9
-79.53
-86.19
-91.97
-95.6
-95.67
-91.04
-81.16
-66.32
-47.51
-26.18
-3.87
17.95
38.07
55.48
69.38
79.24
84.88
86.55
84.92
81.02
75.99
70.89
66.44
62.93
60.22
57.93
55.61
52.92
49.69
45.96
41.86
37.53
32.96
28.04
22.57
16.36
9.36
1.68
-6.44
-14.65
-22.67
-30.31
-37.53
-44.47
-51.3
-58.25
-65.49
-73.04
-80.67
-87.83
-93.6
-96.82
-96.34
-91.31
-81.51
-67.46
-50.29
-31.43
-12.27
6.14
23.09
38.05
50.47
59.78
65.46
67.35
65.79
61.64
56.09
50.31
45.12
40.89
37.63
35.19
33.38
32.09
31.22
30.6
29.98
29.07
27.62
25.49
22.64
19.16
15.13
10.63
5.73
0.47
-5.11
-11.01
-17.2
-23.67
-30.32
-37
-43.47
-49.51
-54.95
-59.82
-64.33
-68.86
-73.92
-79.9
-86.97
-94.81
-102.47
-108.45
-110.99
-108.48
-99.93
-85.27
-65.44
-42.05
-17.07
7.69
30.79
51.28
68.62
82.47
92.67
99.19
102.18
102.05
99.46
95.14
89.8
83.98
77.99
72.02
66.21
60.76
55.88
51.7
48.17
45.08
42.05
38.7
34.79
30.25
25.17
19.8
14.33
8.88
3.41
-2.21
-8.12
-14.38
-20.86
-27.33
-33.56
-39.43
-44.98
-50.44
-56.12
-62.31
-69.21
-76.87
-85.01
-92.99
-99.7
-103.73
-103.62
-98.25
-87.21
-70.99
-50.88
-28.69
-6.22
14.98
33.87
49.79
62.41
71.52
77.07
79.16
78.1
74.48
69.08
62.71
56.13
49.87
44.21
39.23
34.9
31.18
28.03
25.41
23.21
21.22
19.15
16.68
13.64
9.96
5.76
1.21
-3.56
-8.51
-13.65
-19
-24.47
-29.93
-35.17
-40.08
-44.74
-49.36
-54.28
-59.81
-66.13
-73.18
-80.58
-87.56
-92.97
-95.46
-93.68
-86.68
-74.21
-56.88
-36.03
-13.44
9.13
30.18
48.62
63.71
74.94
82
84.85
83.89
79.88
73.9
67.06
60.23
53.92
48.3
43.35
38.99
35.18
31.9
29.1
26.66
24.39
22.06
19.42
16.21
12.22
7.32
1.5
-5.01
-11.92
-18.92
-25.83
-32.71
-39.74
-47.19
-55.19
-63.68
-72.3
-80.33
-86.84
-90.68
-90.79
-86.37
-77.16
-63.53
-46.44
-27.23
-7.34
11.89
29.37
44.2
55.67
63.25
66.73
66.32
62.7
56.93
50.2
43.51
37.51
32.42
28.11
24.35
20.93
17.76
14.8
12.02
9.3
6.4
3.08
-0.87
-5.53
-10.81
-16.48
-22.25
-27.85
-33.19
-38.28
-43.3
-48.54
-54.33
-60.94
-68.51
-76.81
-85.16
-92.42
-97.14
-97.88
-93.58
-83.84
-69.01
-50.09
-28.49
-5.74
16.7
37.6
55.96
71.04
82.33
89.56
92.7
92.06
88.25
82.22
75.06
67.78
61.13
55.41
50.56
46.27
42.23
38.28
34.46
30.86
27.47
24.15
20.56
16.32
11.13
4.96
-2.01
-9.38
-16.75
-23.83
-30.59
-37.22
-44.07
-51.54
-59.92
-69.23
-79.09
-88.63
-96.54
-101.28
-101.4
-95.96
-84.77
-68.46
-48.3
-25.81
-2.53
20.22
41.33
59.79
74.74
85.53
91.87
93.95
92.42
88.25
82.47
76.03
69.57
63.47
57.85
52.64
47.74
43.06
38.58
34.34
30.35
26.5
22.6
18.36
13.51
7.93
1.67
-5.09
-12.12
-19.25
-26.37
-33.44
-40.36
-46.98
-53.21
-59.06
-64.8
-70.87
-77.62
-85.07
-92.55
-98.75
-101.94
-100.47
-93.29
-80.28
-62.21
-40.54
-16.98
6.9
29.8
50.68
68.63
82.83
92.61
97.57
97.83
94.07
87.41
79.13
70.42
62.16
54.81
48.49
43.15
38.63
34.79
31.49
28.54
25.7
22.71
19.29
15.26
10.51
5.07
-0.93
-7.31
-13.86
-20.39
-26.79
-32.99
-39.07
-45.23
-51.71
-58.75
-66.39
-74.34
-81.84
-87.77
-90.78
-89.63
-83.5
-72.2
-56.21
-36.64
-14.96
7.19
28.24
46.74
61.53
71.8
77.15
77.75
74.28
67.89
59.98
51.88
44.61
38.67
34.07
30.48
27.46
24.63
21.79
18.84
15.73
12.32
8.43
3.89
-1.38
-7.32
-13.76
-20.48
-27.28
-34.07
-40.83
-47.62
-54.55
-61.79
-69.5
-77.72
-86.2
-94.3
-100.9
-104.52
-103.68
-97.23
-84.77
-66.74
-44.36
-19.36
6.47
31.5
54.45
74.36
90.5
102.32
109.45
111.9
110.14
105.1
98.04
90.26
82.77
76.1
70.4
65.47
61.1
57.16
53.64
50.59
47.97
45.55
42.96
39.73
35.47
30.03
23.57
16.49
9.33
2.5
-3.86
-9.91
-16.05
-22.65
-29.96
-37.85
-45.95
-53.74
-60.77
-66.85
-72.15
-77.14
-82.44
-88.66
-96.11
-104.7
-113.66
-121.59
-126.65
-126.86
-120.73
-107.67
-88.19
-63.79
-36.52
-8.41
18.86
44.07
66.34
84.9
99.06
108.29
112.43
111.9
107.62
100.85
92.86
84.71
77.1
70.41
64.75
60.12
56.45
53.57
51.25
49.22
47.13
44.72
41.82
38.34
34.31
29.75
24.78
19.58
14.44
9.63
5.33
1.52
-2.02
-5.55
-9.29
-13.22
-17.17
-20.96
-24.48
-27.72
-30.74
-33.6
-36.33
-39.02
-41.83
-45.02
-48.82
-53.26
-58.11
-63.01
-67.59
-71.66
-75.32
-78.88
-82.79
-87.48
-93.29
-100.28
-108.07
-115.66
-121.46
-123.6
-120.38
-110.83
-94.97
-73.85
-49.14
-22.76
3.61
28.66
51.42
71.18
87.32
99.36
107.04
110.46
110.14
106.94
101.86
95.83
89.6
83.62
78.1
73.13
68.76
65.01
61.83
59.08
56.46
53.62
50.22
46.06
41.11
35.49
29.44
23.23
17.08
11.09
5.26
-0.57
-6.59
-13
-19.87
-27.13
-34.52
-41.74
-48.48
-54.56
-59.96
-64.81
-69.32
-73.74
-78.3
-83.1
-88.05
-92.74
-96.4
-97.92
-96.09
-89.89
-78.75
-62.82
-42.93
-20.41
3.19
26.31
47.58
65.87
80.27
90.14
95.2
95.62
92.04
85.49
77.24
68.53
60.32
53.22
47.35
42.57
38.53
34.85
31.27
27.6
23.75
19.72
15.52
11.14
6.56
1.76
-3.28
-8.6
-14.17
-19.96
-25.87
-31.79
-37.55
-43.08
-48.32
-53.36
-58.42
-63.82
-69.93
-77
-84.94
-93.15
-100.41
-105.05
-105.35
-100
-88.57
-71.64
-50.63
-27.46
-3.97
18.3
38.32
55.41
69.15
79.27
85.56
88.05
87
83.01
76.9
69.66
62.2
55.25
49.29
44.47
40.73
37.88
35.61
33.63
31.63
29.34
26.53
23.09
18.96
14.13
8.63
2.5
-4.16
-11.19
-18.39
-25.59
-32.62
-39.44
-46.03
-52.53
-59.14
-66.11
-73.63
-81.72
-89.96
-97.44
-102.78
-104.41
-100.99
-91.84
-77.14
-57.95
-35.89
-12.79
9.73
30.41
48.41
63.18
74.33
81.58
84.82
84.2
80.33
74.11
66.71
59.21
52.47
46.93
42.74
39.82
37.98
36.99
36.56
36.36
35.94
34.92
32.96
29.96
25.96
21.13
15.67
9.72
3.34
-3.45
-10.61
-17.99
-25.39
-32.58
-39.41
-45.88
-52.21
-58.72
-65.72
-73.34
-81.31
-88.9
-94.94
-98.02
-96.75
-90.16
-77.92
-60.53
-39.21
-15.69
8.2
30.83
50.93
67.65
80.48
89.09
93.38
93.56
90.24
84.4
77.28
70.01
63.42
57.82
53.12
49
45.14
41.4
37.73
34.2
30.74
27.19
23.21
18.46
12.69
5.89
-1.77
-9.9
-18.05
-25.89
-33.28
-40.3
-47.16
-54.18
-61.62
-69.58
-77.9
-85.99
-92.85
-97.21
-97.72
-93.39
-83.8
-69.24
-50.62
-29.32
-6.93
14.88
34.5
50.46
61.7
67.68
68.65
65.52
59.62
52.41
45.04
38.27
32.45
27.67
23.86
20.94
18.79
17.18
15.78
14.16
11.86
8.49
3.87
-1.94
-8.69
-15.97
-23.35
-30.57
-37.52
-44.34
-51.36
-59.01
-67.71
-77.61
-88.41
-99.18
-108.31
-113.77
-113.53
-106.15
-91.26
-69.64
-43.04
-13.72
16.11
44.52
70.04
91.55
108.25
119.64
125.68
126.84
124.02
118.46
111.44
104
96.84
90.24
84.21
78.62
73.33
68.28
63.46
58.85
54.31
49.57
44.26
37.97
30.38
21.32
10.85
-0.78
-13.18
-25.91
-38.55
-50.76
-62.4
-73.54
-84.39
-95.33
-106.69
-118.57
-130.55
-141.56
-149.92
-153.63
-150.96
-140.94
-123.7
-100.4
-72.87
-43.14
-13.14
15.54
41.59
63.98
81.91
94.94
102.99
106.46
106.03
102.62
97.17
90.58
83.64
76.97
70.99
65.93
61.83
58.59
56.02
53.85
51.78
49.44
46.54
42.87
38.37
33.17
27.48
21.49
15.35
9.17
3.02
-2.97
-8.69
-14.09
-19.27
-24.45
-29.89
-35.75
-41.95
-48.25
-54.33
-59.95
-65.04
-69.74
-74.33
-79.21
-84.8
-91.51
-99.56
-108.79
-118.44
-127.04
-132.62
-133.12
-127.02
-113.72
-93.77
-68.69
-40.47
-11.2
17.24
43.36
66.03
84.46
98.17
107.06
111.37
111.68
108.72
103.36
96.44
88.77
81.03
73.8
67.55
62.58
59.03
56.85
55.76
55.32
54.96
54.11
52.28
49.17
44.67
38.88
32.07
24.54
16.56
8.27
-0.3
-9.15
-18.22
-27.26
-35.93
-43.84
-50.81
-56.98
-62.86
-69.16
-76.4
-84.62
-93.1
-100.42
-104.77
-104.47
-98.44
-86.57
-69.75
-49.58
-27.99
-6.83
12.4
28.64
41.12
49.35
53.1
52.52
48.2
41.19
32.81
24.39
16.94
10.96
6.55
3.45
1.35
-0.03
-0.83
-1.15
-1.08
-0.76
-0.4
-0.28
-0.64
-1.7
-3.58
-6.22
-9.48
-13.09
-16.83
-20.57
-24.37
-28.45
-33.12
-38.69
-45.34
-52.94
-60.96
-68.37
-73.73
-75.41
-72.02
-62.75
-47.72
-27.99
-5.31
18.28
40.93
61.25
78.39
91.87
101.5
107.16
108.94
107.15
102.44
95.75
88.13
80.55
73.66
67.77
62.85
58.71
55.1
51.81
48.65
45.42
41.93
37.96
33.35
27.98
21.81
14.8
7
-1.5
-10.47
-19.63
-28.61
-37.11
-44.92
-52.06
-58.68
-65.11
-71.76
-79.06
-87.24
-96.2
-105.32
-113.33
-118.53
-119.1
-113.69
-101.81
-84.01
-61.79
-37.13
-12.13
11.49
32.47
50.06
63.84
73.62
79.42
81.41
80.04
76.01
70.17
63.41
56.52
50.08
44.5
39.97
36.56
34.2
32.69
31.77
31.11
30.42
29.44
27.99
25.98
23.33
20.09
16.34
12.25
7.99
3.68
-0.63
-4.96
-9.33
-13.73
-18.11
-22.36
-26.47
-30.49
-34.52
-38.69
-43.03
-47.46
-51.84
-56.03
-60
-63.88
-67.99
-72.79
-78.73
-85.98
-94.15
-102.1
-108.09
-110.12
-106.49
-96.35
-79.93
-58.47
-33.84
-8.06
17.04
39.99
59.72
75.52
86.97
94.03
96.99
96.46
93.25
88.23
82.21
75.85
69.65
63.94
58.92
54.74
51.48
49.12
47.52
46.38
45.28
43.73
41.34
37.89
33.41
28.15
22.42
16.52
10.56
4.53
-1.68
-8.14
-14.83
-21.65
-28.45
-35.14
-41.69
-48.16
-54.69
-61.45
-68.53
-75.84
-82.91
-88.84
-92.35
-92.07
-86.96
-76.67
-61.73
-43.38
-23.25
-3.01
15.88
32.28
45.3
54.32
59.01
59.43
56.14
50.13
42.69
35.07
28.25
22.8
18.82
16.11
14.28
12.96
11.83
10.72
9.52
8.15
6.47
4.32
1.47
-2.22
-6.82
-12.22
-18.12
-24.18
-30.06
-35.61
-40.91
-46.22
-51.87
-58.23
-65.51
-73.75
-82.63
-91.38
-98.69
-102.87
-102.2
-95.41
-82.14
-63.13
-40.06
-15.14
9.47
32.02
51.32
66.74
77.99
85.08
88.24
87.95
84.91
79.92
73.79
67.18
60.61
54.44
48.95
44.4
40.94
38.61
37.25
36.51
35.85
34.72
32.69
29.52
25.27
20.15
14.47
8.52
2.42
-3.82
-10.28
-17
-23.93
-30.86
-37.55
-43.84
-49.72
-55.36
-61.14
-67.45
-74.64
-82.82
-91.73
-100.56
-107.95
-112.09
-111.14
-103.8
-89.72
-69.75
-45.7
-19.86
5.58
28.98
49.29
65.96
78.66
87.18
91.51
91.91
89.06
83.89
77.4
70.45
63.64
57.32
51.71
46.96
43.19
40.37
38.27
36.52
34.69
32.4
29.49
25.93
21.82
17.22
12.13
6.51
0.36
-6.23
-13.1
-19.97
-26.62
-32.9
-38.81
-44.5
-50.27
-56.44
-63.3
-70.97
-79.24
-87.4
-94.28
-98.3
-97.87
-91.77
-79.56
-61.77
-39.82
-15.67
8.6
31.15
50.61
66.08
77.06
83.39
85.28
83.22
78.07
70.9
62.85
54.93
47.87
42.06
37.54
34.19
31.74
29.94
28.54
27.29
25.86
23.93
21.13
17.24
12.22
6.26
-0.26
-6.94
-13.46
-19.7
-25.77
-31.92
-38.44
-45.59
-53.52
-62.23
-71.47
-80.6
-88.61
-94.08
-95.51
-91.66
-81.98
-66.83
-47.39
-25.35
-2.6
19.08
38.22
53.61
64.41
70.15
70.92
67.35
60.61
52.14
43.33
35.3
28.66
23.59
19.93
17.36
15.54
14.17
13.02
11.85
10.35
8.2
5.07
0.76
-4.74
-11.21
-18.23
-25.38
-32.33
-38.94
-45.38
-52.01
-59.3
-67.68
-77.31
-87.84
-98.2
-106.69
-111.23
-109.87
-101.33
-85.42
-63.16
-36.51
-7.96
20.13
45.8
67.7
85.03
97.4
104.74
107.26
105.52
100.35
92.87
84.28
75.7
67.94
61.45
56.32
52.37
49.27
46.66
44.24
41.79
39.14
36.2
32.88
29.1
24.76
19.73
13.9
7.19
-0.33
-8.5
-16.97
-25.36
-33.32
-40.65
-47.41
-53.89
-60.57
-67.99
-76.55
-86.29
-96.6
-106.17
-113.04
-115
-110.2
-97.7
-77.87
-52.28
-23.36
6.26
34.27
59
79.45
95.14
105.95
112.06
113.84
111.95
107.3
100.9
93.72
86.58
79.95
74.09
69.01
64.67
61.05
58.14
55.95
54.32
52.96
51.42
49.21
45.92
41.43
35.87
29.58
23
16.48
10.21
4.17
-1.89
-8.26
-15.24
-22.91
-31.12
-39.44
-47.35
-54.39
-60.42
-65.68
-70.66
-76.03
-82.34
-89.83
-98.27
-106.84
-114.11
-118.25
-117.35
-109.94
-95.49
-74.6
-48.96
-20.89
7.16
33.15
55.64
73.81
87.28
95.98
100.06
99.98
96.48
90.55
83.32
75.78
68.68
62.43
57.18
52.87
49.41
46.73
44.72
43.23
41.97
40.56
38.58
35.71
31.85
27.06
21.57
15.62
9.38
2.97
-3.56
-10.14
-16.63
-22.89
-28.86
-34.57
-40.21
-46.04
-52.33
-59.29
-66.91
-74.85
-82.34
-88.15
-90.78
-88.84
-81.48
-68.73
-51.53
-31.51
-10.51
9.73
27.89
42.99
54.32
61.35
63.88
62.1
56.81
49.24
40.87
33.03
26.58
21.83
18.58
16.38
14.76
13.38
12.07
10.75
9.36
7.77
5.78
3.14
-0.35
-4.78
-10.1
-16.02
-22.21
-28.26
-33.91
-39.08
-43.92
-48.8
-54.15
-60.38
-67.66
-75.85
-84.28
-91.85
-97.01
-98.15
-93.96
-83.77
-67.88
-47.44
-24.27
-0.34
22.51
42.82
59.61
72.27
80.57
84.59
84.71
81.64
76.31
69.72
62.84
56.42
50.9
46.46
43
40.37
38.38
36.88
35.75
34.81
33.77
32.22
29.81
26.28
21.65
16.22
10.42
4.66
-0.83
-6.1
-11.42
-17.14
-23.49
-30.47
-37.81
-45.09
-51.85
-57.86
-63.1
-67.84
-72.54
-77.7
-83.77
-90.89
-98.77
-106.47
-112.51
-115.03
-112.27
-103.12
-87.46
-66.31
-41.51
-15.32
10.13
33.18
52.79
68.43
79.94
87.43
91.16
91.58
89.31
85.11
79.79
74.04
68.36
63.06
58.3
54.2
50.91
48.56
47.18
46.63
46.53
46.37
45.63
43.93
41.14
37.42
33.11
28.59
24.13
19.82
15.59
11.18
6.43
1.27
-4.18
-9.68
-14.96
-19.86
-24.38
-28.68
-33.02
-37.57
-42.42
-47.49
-52.54
-57.31
-61.6
-65.44
-69.05
-72.91
-77.57
-83.46
-90.73
-99.04
-107.44
-114.47
-118.3
-117.16
-109.79
-95.79
-75.84
-51.57
-25.12
1.26
25.73
47
64.36
77.54
86.52
91.42
92.56
90.46
85.88
79.8
73.25
67.1
61.93
57.92
54.9
52.52
50.52
48.76
47.24
45.96
44.8
43.35
41.12
37.67
32.91
27.1
20.81
14.63
8.95
3.81
-1.06
-6
-11.3
-16.99
-22.89
-28.69
-34.12
-39.06
-43.56
-47.81
-52.13
-56.8
-62.02
-67.68
-73.3
-77.86
-79.94
-77.98
-70.75
-57.78
-39.53
-17.33
6.95
31.35
54.04
73.53
88.6
98.36
102.35
100.68
94.1
83.86
71.53
58.62
46.32
35.42
26.18
18.56
12.24
6.78
1.73
-3.22
-8.13
-12.82
-16.89
-19.93
-21.79
-22.65
-23.02
-23.57
-24.82
-26.95
-29.75
-32.67
-35.13
-36.71
-37.3
-37.13
-36.71
-36.63
-37.47
-39.56
-42.79
-46.48
-49.4
-49.9
-46.35
-37.61
-23.53
-5.11
15.67
36.36
54.76
69.37
79.6
85.61
87.9
87.01
83.42
77.57
70.03
61.48
52.71
44.39
37
30.81
25.9
22.28
19.87
18.46
17.73
17.22
16.48
15.14
12.96
9.82
5.68
0.53
-5.62
-12.69
-20.56
-29.03
-37.92
-47.01
-56.08
-64.89
-73.22
-80.99
-88.39
-95.89
-104.08
-113.41
-123.76
-134.28
-143.4
-149.19
-149.89
-144.41
-132.64
-115.42
-94.34
-71.31
-48.19
-26.47
-7.19
9.08
22.14
31.99
38.86
43.09
45.17
45.66
45.08
43.85
42.19
40.2
37.96
35.65
33.66
32.42
32.29
33.29
35.02
36.74
37.62
37.02
34.7
30.89
26.1
20.98
15.95
11.09
6.22
0.96
-4.94
-11.48
-18.33
-25.02
-31.11
-36.43
-41.11
-45.6
-50.5
-56.36
-63.52
-71.88
-80.76
-88.92
-94.63
-96.14
-92.01
-81.62
-65.34
-44.47
-20.91
3.3
26.36
46.9
64.04
77.21
86.17
90.92
91.72
89.16
84.1
77.5
70.32
63.27
56.8
51.05
46.02
41.67
37.98
35.01
32.72
30.96
29.38
27.51
24.85
21.04
16.03
10.08
3.69
-2.63
-8.52
-13.94
-19.11
-24.42
-30.14
-36.33
-42.7
-48.73
-53.86
-57.76
-60.45
-62.42
-64.51
-67.7
-72.78
-80.07
-89.13
-98.72
-106.86
-111.3
-109.96
-101.57
-85.93
-64.03
-37.71
-9.24
19.21
45.81
69.28
88.8
103.95
114.59
120.93
123.47
122.95
120.29
116.42
112.08
107.78
103.77
100.12
96.8
93.78
91.09
88.72
86.61
84.57
82.31
79.5
75.91
71.43
66.15
60.25
53.87
47.04
39.67
31.56
22.6
12.81
2.45
-8.05
-18.2
-27.62
-36.13
-43.9
-51.36
-59.06
-67.51
-76.87
-86.76
-96.16
-103.53
-107.18
-105.67
-98.25
-85.02
-66.95
-45.56
-22.63
0.1
21.12
39.19
53.31
62.82
67.5
67.71
64.37
58.81
52.45
46.53
41.85
38.68
36.91
36.23
36.25
36.68
37.26
37.75
37.87
37.35
35.85
33.13
29.13
23.98
18.08
11.92
5.94
0.33
-5.06
-10.63
-16.83
-23.91
-31.76
-39.96
-47.96
-55.35
-62
-68.13
-74.24
-80.93
-88.67
-97.53
-107
-115.85
-122.27
-124.27
-120.16
-109.15
-91.55
-68.8
-42.95
-16.17
9.74
33.49
54.24
71.36
84.33
92.8
96.76
96.7
93.6
88.66
83.02
77.45
72.31
67.63
63.39
59.65
56.59
54.34
52.92
52.08
51.37
50.25
48.19
44.83
40.05
34.02
27.11
19.85
12.75
6.16
0.08
-5.75
-11.78
-18.4
-25.73
-33.52
-41.24
-48.37
-54.61
-60.05
-65.19
-70.69
-77.2
-85.07
-94.24
-104.09
-113.42
-120.53
-123.49
-120.57
-110.74
-94.05
-71.7
-45.75
-18.57
7.65
31.34
51.55
67.81
79.92
87.84
91.65
91.71
88.72
83.65
77.54
71.33
65.64
60.81
56.92
53.91
51.68
50.07
48.88
47.85
46.71
45.18
43.04
40.15
36.46
32.05
27.13
22.01
16.97
12.16
7.48
2.64
-2.74
-8.92
-15.91
-23.41
-30.88
-37.77
-43.7
-48.64
-52.92
-57.19
-62.16
-68.35
-75.93
-84.49
-93.04
-100.1
-103.97
-103.08
-96.36
-83.61
-65.51
-43.58
-19.73
4.05
26.08
45.08
60.15
70.8
76.85
78.54
76.46
71.58
65.03
57.87
50.94
44.81
39.79
36.01
33.41
31.82
30.9
30.24
29.38
28.03
26.03
23.39
20.21
16.61
12.64
8.37
3.84
-0.95
-5.95
-11.15
-16.53
-22.09
-27.81
-33.65
-39.63
-45.86
-52.51
-59.74
-67.52
-75.45
-82.62
-87.71
-89.26
-86
-77.28
-63.33
-45.18
-24.5
-3.15
17.19
35.25
50.21
61.64
69.33
73.25
73.51
70.46
64.83
57.62
50
43.06
37.52
33.63
31.21
29.78
28.85
28.02
27.03
25.7
23.87
21.37
18.05
13.86
8.9
3.33
-2.66
-8.92
-15.34
-21.85
-28.4
-34.85
-41.12
-47.09
-52.78
-58.33
-64.06
-70.38
-77.64
-85.85
-94.44
-102.13
-107.1
-107.43
-101.67
-89.34
-71.1
-48.57
-23.9
0.79
23.78
43.91
60.5
73.28
82.23
87.51
89.44
88.44
85.04
79.84
73.5
66.73
60.21
54.52
49.99
46.71
44.5
43
41.78
40.44
38.68
36.3
33.18
29.31
24.78
19.75
14.42
8.94
3.34
-2.44
-8.53
-15.04
-21.94
-29.09
-36.23
-43.13
-49.72
-56.19
-62.93
-70.39
-78.75
-87.61
-95.85
-101.75
-103.38
-99.19
-88.52
-71.84
-50.61
-26.85
-2.65
20.19
40.41
57.22
70.22
79.27
84.5
86.27
85.16
81.9
77.21
71.72
65.85
59.85
53.88
48.06
42.61
37.81
33.98
31.3
29.71
28.79
27.9
26.33
23.57
19.51
14.43
8.89
3.42
-1.69
-6.5
-11.31
-16.5
-22.26
-28.49
-34.9
-41.08
-46.7
-51.65
-56.04
-60.17
-64.45
-69.3
-75.09
-81.86
-89.18
-96.03
-100.81
-101.71
-97.2
-86.55
-70.17
-49.51
-26.65
-3.71
17.61
36.21
51.54
63.34
71.47
75.88
76.74
74.5
70
64.22
58.14
52.47
47.56
43.5
40.24
37.71
35.85
34.6
33.82
33.25
32.57
31.45
29.63
27
23.59
19.51
14.93
10.04
4.97
-0.19
-5.42
-10.76
-16.23
-21.73
-27.11
-32.2
-36.98
-41.61
-46.48
-51.98
-58.3
-65.21
-71.94
-77.24
-79.62
-77.74
-70.78
-58.66
-42.18
-22.8
-2.31
17.51
35.21
49.78
60.63
67.52
70.46
69.79
66.12
60.35
53.58
46.84
40.92
36.22
32.78
30.41
28.88
28
27.62
27.54
27.45
26.89
25.46
22.9
19.28
14.9
10.16
5.35
0.57
-4.3
-9.43
-14.97
-20.87
-26.99
-33.1
-38.99
-44.53
-49.7
-54.66
-59.65
-65.05
-71.23
-78.34
-86.05
-93.44
-99.01
-100.96
-97.74
-88.5
-73.45
-53.82
-31.54
-8.71
12.85
31.94
47.93
60.59
69.89
75.81
78.43
78
75.04
70.3
64.62
58.74
53.2
48.3
44.16
40.85
38.38
36.69
35.64
34.96
34.27
33.18
31.34
28.52
24.61
19.71
14.09
8.17
2.42
-2.82
-7.48
-11.78
-16.13
-20.97
-26.46
-32.47
-38.6
-44.39
-49.56
-54.15
-58.46
-62.96
-68.05
-73.98
-80.7
-87.74
-94.23
-98.91
-100.31
-97.05
-88.33
-74.17
-55.53
-34.06
-11.71
9.78
29.1
45.49
58.58
68.19
74.28
76.93
76.44
73.41
68.63
63.07
57.51
52.54
48.38
45.01
42.33
40.19
38.52
37.23
36.22
35.26
34.11
32.46
30.09
26.84
22.7
17.77
12.32
6.69
1.2
-3.91
-8.61
-13.07
-17.56
-22.35
-27.49
-32.87
-38.19
-43.19
-47.72
-51.86
-55.83
-59.93
-64.45
-69.59
-75.39
-81.69
-87.96
-93.29
-96.41
-95.87
-90.39
-79.3
-62.79
-41.95
-18.58
5.25
27.66
47.19
62.95
74.48
81.71
84.82
84.24
80.67
75.05
68.47
61.95
56.3
51.93
48.87
46.86
45.52
44.52
43.63
42.68
41.53
39.98
37.79
34.81
31.05
26.67
21.95
17.11
12.21
7.13
1.68
-4.26
-10.64
-17.26
-23.87
-30.26
-36.36
-42.26
-48.18
-54.37
-61
-68.05
-75.09
-81.28
-85.41
-86.18
-82.49
-73.87
-60.61
-43.74
-24.75
-5.29
13.16
29.43
42.72
52.55
58.69
61.16
60.28
56.63
51.03
44.42
37.72
31.66
26.73
23.14
20.85
19.64
19.24
19.3
19.48
19.38
18.61
16.82
13.8
9.5
4.05
-2.28
-9.2
-16.41
-23.7
-30.9
-37.86
-44.41
-50.46
-56.04
-61.39
-66.94
-73.2
-80.56
-89.04
-98.14
-106.71
-113.14
-115.65
-112.72
-103.58
-88.36
-68.19
-44.85
-20.39
3.28
24.67
42.82
57.23
67.74
74.43
77.56
77.58
75.1
70.85
65.61
60.1
54.83
50.1
46.05
42.64
39.86
37.65
35.93
34.53
33.21
31.65
29.58
26.88
23.55
19.73
15.49
10.84
5.74
0.09
-6.08
-12.67
-19.5
-26.42
-33.36
-40.37
-47.65
-55.45
-64.08
-73.7
-84.1
-94.43
-103.16
-108.28
-107.9
-100.88
-87.24
-68.22
-45.82
-22.25
0.59
21.4
39.33
53.84
64.64
71.61
74.94
75.15
72.96
69.18
64.53
59.57
54.75
50.45
47.01
44.65
43.36
42.96
43.03
43.08
42.65
41.37
39.05
35.68
31.39
26.43
21.09
15.57
10
4.41
-1.29
-7.16
-13.23
-19.45
-25.72
-31.92
-37.99
-43.96
-50.04
-56.55
-63.78
-71.73
-79.87
-87.03
-91.5
-91.48
-85.66
-73.64
-56.18
-34.85
-11.7
11.3
32.6
51.06
65.92
76.63
82.9
84.71
82.54
77.29
70.17
62.41
55.01
48.55
43.25
39.03
35.71
33.15
31.21
29.75
28.59
27.44
25.9
23.6
20.24
15.65
9.96
3.47
-3.39
-10.12
-16.4
-22.08
-27.3
-32.39
-37.75
-43.77
-50.64
-58.23
-65.94
-72.72
-77.17
-77.87
-73.68
-64.17
-49.71
-31.41
-10.87
10.16
30.03
47.35
61.02
70.28
74.76
74.62
70.59
63.87
55.94
48.17
41.52
36.38
32.65
29.86
27.55
25.41
23.38
21.53
19.88
18.26
16.27
13.43
9.39
4.04
-2.35
-9.32
-16.31
-22.92
-28.98
-34.66
-40.37
-46.72
-54.3
-63.36
-73.58
-83.83
-92.31
-96.86
-95.67
-87.71
-73.16
-53.3
-30.14
-5.85
17.65
39.01
57.36
72.2
83.18
90.06
92.76
91.53
87.01
80.21
72.31
64.43
57.35
51.42
46.64
42.78
39.54
36.71
34.12
31.61
28.99
26.05
22.58
18.44
13.55
7.9
1.54
-5.41
-12.71
-20.04
-27.1
-33.68
-39.82
-45.77
-52
-58.99
-67.09
-76.33
-86.26
-95.91
-103.78
-108.06
-107.05
-99.58
-85.46
-65.58
-41.73
-16.13
9.1
32.31
52.43
68.89
81.35
89.62
93.62
93.51
89.87
83.69
76.2
68.67
62.02
56.73
52.76
49.75
47.28
45.09
43.1
41.36
39.85
38.4
36.66
34.24
30.82
26.31
20.9
14.98
8.97
3.21
-2.2
-7.38
-12.68
-18.42
-24.82
-31.78
-39.02
-46.06
-52.51
-58.2
-63.21
-67.92
-72.82
-78.39
-84.94
-92.44
-100.4
-107.74
-112.92
-114.16
-109.93
-99.4
-82.77
-61.27
-36.86
-11.69
12.31
33.74
51.78
66.04
76.38
82.82
85.55
84.94
81.65
76.49
70.37
64.09
58.21
53.05
48.7
45.11
42.22
39.97
38.31
37.13
36.23
35.3
34.01
32.07
29.31
25.77
21.64
17.16
12.56
7.98
3.42
-1.18
-5.94
-10.98
-16.35
-22.02
-27.84
-33.57
-38.91
-43.6
-47.56
-50.94
-54.18
-57.87
-62.61
-68.65
-75.71
-82.86
-88.64
-91.36
-89.53
-82.28
-69.58
-52.26
-31.81
-10
11.39
30.86
47.33
60.11
68.88
73.58
74.47
72.01
66.96
60.29
53.07
46.28
40.66
36.54
33.85
32.27
31.33
30.63
29.83
28.76
27.26
25.24
22.65
19.44
15.63
11.25
6.34
0.96
-4.84
-10.95
-17.24
-23.55
-29.75
-35.76
-41.67
-47.7
-54.13
-61.22
-68.95
-76.88
-84.06
-89.14
-90.64
-87.28
-78.42
-64.28
-45.88
-24.88
-3.17
17.51
35.83
50.92
62.3
69.83
73.53
73.64
70.64
65.29
58.52
51.36
44.68
39.04
34.68
31.53
29.33
27.71
26.31
24.84
23.06
20.84
18.11
14.89
11.21
7.05
2.37
-2.91
-8.85
-15.38
-22.28
-29.21
-35.84
-42
-47.78
-53.44
-59.4
-65.98
-73.39
-81.61
-90.34
-98.87
-106.04
-110.23
-109.7
-103.06
-89.81
-70.57
-47.09
-21.71
3.23
25.91
45.25
60.75
72.32
80.02
84.04
84.68
82.45
78.06
72.33
66.08
59.99
54.55
50.04
46.54
43.98
42.14
40.73
39.43
37.91
35.92
33.33
30.07
26.15
21.63
16.5
10.79
4.52
-2.25
-9.37
-16.66
-23.89
-30.9
-37.56
-43.88
-50.01
-56.25
-63.02
-70.72
-79.53
-89.15
-98.67
-106.55
-110.9
-109.98
-102.67
-88.82
-69.3
-45.85
-20.6
4.37
27.32
47.09
63
74.78
82.36
85.9
85.8
82.72
77.58
71.36
64.91
58.84
53.41
48.7
44.78
41.7
39.54
38.22
37.41
36.6
35.21
32.83
29.32
24.84
19.74
14.34
8.89
3.43
-2.14
-7.92
-13.95
-20.14
-26.32
-32.29
-37.94
-43.29
-48.56
-54.1
-60.31
-67.49
-75.59
-84.05
-91.74
-97.03
-98.14
-93.66
-82.97
-66.47
-45.51
-21.99
2.01
24.73
44.79
61.24
73.46
81.08
84.03
82.62
77.64
70.26
61.9
53.87
47.1
42
38.44
36.01
34.22
32.67
31.13
29.54
27.9
26.17
24.25
21.94
19
15.17
10.38
4.67
-1.69
-8.35
-14.95
-21.25
-27.29
-33.25
-39.46
-46.26
-53.9
-62.33
-71.05
-79.04
-84.79
-86.64
-83.18
-73.73
-58.59
-39.01
-16.84
5.91
27.43
46.33
61.63
72.74
79.37
81.56
79.69
74.53
67.14
58.7
50.34
42.93
36.97
32.55
29.39
27.05
25.02
22.93
20.6
18.04
15.32
12.43
9.24
5.48
0.88
-4.69
-11.1
-17.96
-24.81
-31.24
-37.12
-42.55
-47.85
-53.46
-59.78
-67.14
-75.62
-84.94
-94.22
-101.96
-106.26
-105.19
-97.4
-82.61
-61.79
-36.9
-10.47
15.1
37.98
57.12
72.1
82.89
89.62
92.47
91.71
87.79
81.47
73.71
65.51
57.74
50.94
45.41
41.21
38.25
36.34
35.17
34.33
33.33
31.77
29.39
26.13
22.08
17.36
12.07
6.24
-0.12
-6.94
-14.04
-21.2
-28.17
-34.77
-40.94
-46.83
-52.78
-59.25
-66.64
-75.1
-84.25
-93.07
-99.95
-103.06
-100.8
-92.25
-77.52
-57.7
-34.64
-10.5
12.71
33.42
50.65
63.95
73.26
78.76
80.77
79.71
76.16
70.82
64.49
57.99
51.96
46.85
42.78
39.69
37.39
35.65
34.3
33.13
31.9
30.37
28.29
25.49
21.87
17.48
12.34
6.54
0.16
-6.67
-13.72
-20.78
-27.61
-34.09
-40.2
-46.06
-51.9
-58.02
-64.75
-72.32
-80.66
-89.12
-96.45
-100.88
-100.53
-94.1
-81.25
-62.84
-40.7
-17.06
5.96
26.76
44.35
58.22
68.15
74.12
76.29
75.04
70.96
64.9
57.78
50.55
44.03
38.77
34.97
32.46
30.84
29.59
28.33
26.85
25.15
23.27
21.18
18.74
15.69
11.87
7.23
1.93
-3.76
-9.56
-15.23
-20.67
-25.91
-31.06
-36.34
-41.98
-48.22
-55.25
-63.09
-71.41
-79.41
-85.87
-89.26
-88.12
-81.46
-69.16
-52.04
-31.7
-10.11
10.83
29.58
45.13
56.87
64.51
68.04
67.75
64.34
58.8
52.31
45.99
40.63
36.61
33.87
32.09
30.86
29.8
28.65
27.29
25.65
23.68
21.29
18.32
14.61
10.05
4.67
-1.36
-7.78
-14.33
-20.87
-27.44
-34.22
-41.49
-49.52
-58.43
-68.08
-77.89
-86.8
-93.38
-96.02
-93.39
-84.84
-70.61
-51.92
-30.6
-8.73
11.8
29.64
43.98
54.47
61.06
63.9
63.33
59.93
54.54
48.15
41.76
36.15
31.72
28.54
26.38
24.92
23.82
22.79
21.62
20.08
18.02
15.33
11.99
8.04
3.52
-1.55
-7.2
-13.41
-20.1
-27.03
-33.93
-40.55
-46.76
-52.65
-58.48
-64.63
-71.45
-79.15
-87.56
-96.04
-103.36
-107.86
-107.81
-101.83
-89.43
-71.17
-48.56
-23.69
1.31
24.66
45.15
62.02
74.94
83.79
88.72
90.15
88.8
85.58
81.44
77.13
73.09
69.5
66.38
63.71
61.56
60
59.02
58.44
57.9
56.96
55.22
52.48
48.76
44.27
39.31
34.04
28.46
22.38
15.49
7.6
-1.2
-10.59
-20.04
-29.04
-37.3
-44.84
-51.96
-59.15
-66.89
-75.43
-84.54
-93.33
-100.29
-103.56
-101.41
-92.87
-78.12
-58.49
-36.07
-13.13
8.46
27.52
43.47
56.14
65.44
71.31
73.77
73.05
69.72
64.66
58.83
53.02
47.71
43.03
38.87
35.13
31.78
28.93
26.64
24.84
23.24
21.37
18.74
15.02
10.13
4.23
-2.26
-8.91
-15.28
-21.08
-26.24
-30.87
-35.22
-39.54
-43.98
-48.49
-52.83
-56.75
-60.1
-62.96
-65.6
-68.4
-71.74
-75.81
-80.6
-85.73
-90.4
-93.4
-93.26
-88.6
-78.56
-63.15
-43.3
-20.74
2.51
24.57
44.07
60.2
72.6
81.17
85.96
87.19
85.25
80.8
74.76
68.1
61.7
56.11
51.55
47.92
45
42.59
40.53
38.73
37.05
35.31
33.22
30.52
27.07
22.91
18.24
13.34
8.5
3.83
-0.69
-5.2
-9.82
-14.6
-19.43
-24.17
-28.7
-33.07
-37.54
-42.48
-48.24
-54.94
-62.33
-69.63
-75.62
-78.83
-77.85
-71.8
-60.56
-44.85
-26.1
-6.08
13.47
31.13
45.88
57.11
64.5
68.05
68.08
65.16
60.16
54.05
47.75
42
37.27
33.73
31.24
29.5
28.15
26.87
25.5
23.93
22.1
19.92
17.26
14.02
10.18
5.83
1.07
-4.05
-9.52
-15.37
-21.5
-27.69
-33.57
-38.86
-43.48
-47.68
-51.95
-56.89
-62.98
-70.37
-78.67
-86.88
-93.46
-96.6
-94.7
-86.81
-72.99
-54.26
-32.4
-9.42
12.86
33.07
50.31
64.05
73.98
79.99
82.14
80.88
76.92
71.22
64.75
58.31
52.42
47.32
43.03
39.53
36.78
34.72
33.19
31.92
30.55
28.73
26.26
23.12
19.45
15.48
11.38
7.26
3.1
-1.17
-5.67
-10.58
-16
-22
-28.48
-35.18
-41.72
-47.72
-52.91
-57.33
-61.3
-65.42
-70.35
-76.56
-84.06
-92.23
-99.73
-104.76
-105.42
-100.28
-88.87
-71.81
-50.71
-27.68
-4.74
16.56
35.34
51.19
63.91
73.27
79.07
81.25
80.13
76.43
71.21
65.53
60.19
55.59
51.8
48.72
46.23
44.31
42.92
41.96
41.17
40.16
38.56
36.09
32.69
28.51
23.81
18.89
13.99
9.26
4.69
0.22
-4.27
-8.9
-13.76
-18.9
-24.27
-29.77
-35.2
-40.33
-44.95
-49.02
-52.73
-56.52
-61.01
-66.76
-73.96
-82.15
-90.17
-96.28
-98.6
-95.62
-86.64
-71.96
-52.8
-30.93
-8.28
13.48
33.12
49.77
62.97
72.42
78.07
80.11
79.02
75.52
70.55
65.05
59.81
55.35
51.89
49.33
47.45
45.96
44.64
43.4
42.2
40.97
39.55
37.67
34.97
31.22
26.39
20.75
14.77
8.97
3.73
-0.92
-5.19
-9.54
-14.38
-19.94
-26.16
-32.71
-39.17
-45.13
-50.36
-54.85
-58.8
-62.59
-66.69
-71.57
-77.52
-84.33
-91.16
-96.47
-98.37
-95.14
-85.84
-70.73
-51.12
-29.04
-6.58
14.55
33.2
48.75
60.79
69.09
73.53
74.24
71.75
66.9
60.79
54.54
49
44.72
41.79
39.95
38.8
37.86
36.81
35.46
33.78
31.74
29.31
26.46
23.11
19.28
15.01
10.33
5.33
0.02
-5.52
-11.17
-16.78
-22.18
-27.34
-32.33
-37.38
-42.8
-48.8
-55.38
-62.16
-68.33
-72.73
-74.06
-71.19
-63.53
-51.22
-35.13
-16.72
2.35
20.5
36.46
49.31
58.5
63.76
65.13
62.98
58.04
51.36
44.12
37.42
31.93
27.88
25.05
23.01
21.33
19.74
18.13
16.46
14.64
12.45
9.62
5.87
1.05
-4.76
-11.31
-18.17
-24.86
-30.98
-36.32
-41
-45.39
-50.03
-55.51
-62.24
-70.23
-78.98
-87.43
-94.04
-97.1
-95.14
-87.38
-73.93
-55.86
-34.89
-12.97
8.14
27.11
43.11
55.71
64.67
69.93
71.59
70.04
65.96
60.29
54.09
48.25
43.36
39.59
36.76
34.59
32.82
31.32
30.06
28.96
27.82
26.35
24.2
21.12
17.01
11.96
6.15
-0.17
-6.77
-13.43
-19.97
-26.28
-32.35
-38.35
-44.58
-51.42
-59.2
-67.98
-77.46
-86.82
-94.85
-100.02
-100.87
-96.32
-85.99
-70.42
-50.95
-29.46
-7.92
12.03
29.32
43.45
54.35
62.13
67.05
69.51
70.09
69.66
69.15
69.36
70.69
73
75.73
78.21
79.9
80.61
80.44
79.65
78.49
77.03
75.23
72.91
69.84
65.8
60.62
54.17
46.35
37.18
26.74
15.25
3.07
-9.33
-21.36
-32.61
-42.81
-52.1
-60.85
-69.65
-79.01
-89.11
-99.69
-109.91
-118.46
-123.78
-124.39
-119.27
-108.18
-91.77
-71.49
-49.19
-26.75
-5.63
13.17
29.15
42.05
51.75
58.19
61.46
61.93
60.28
57.36
54.05
50.99
48.54
46.71
45.39
44.42
43.67
43.07
42.53
41.86
40.87
39.31
37.01
33.86
29.91
25.32
20.37
15.33
10.39
5.56
0.73
-4.29
-9.61
-15.18
-20.75
-26.01
-30.73
-34.86
-38.58
-42.26
-46.3
-51.04
-56.7
-63.29
-70.54
-77.74
-83.81
-87.38
-87.08
-81.97
-71.82
-57.21
-39.42
-20.11
-0.9
16.9
32.36
44.96
54.43
60.66
63.66
63.67
61.18
56.91
51.77
46.59
42.02
38.36
35.58
33.46
31.76
30.26
28.84
27.38
25.77
23.83
21.45
18.56
15.18
11.36
7.19
2.76
-1.82
-6.39
-10.77
-14.86
-18.67
-22.35
-26.14
-30.26
-34.83
-39.87
-45.38
-51.35
-57.63
-63.83
-69.09
-72.17
-71.67
-66.59
-56.7
-42.74
-26.19
-8.8
7.89
22.86
35.54
45.68
53.08
57.55
59.02
57.69
54.12
49.18
43.79
38.72
34.46
31.18
28.83
27.23
26.18
25.43
24.72
23.72
22.17
19.87
16.81
13.06
8.82
4.22
-0.63
-5.74
-11.1
-16.63
-22.17
-27.52
-32.52
-37.15
-41.53
-45.93
-50.62
-55.9
-61.92
-68.65
-75.72
-82.36
-87.36
-89.31
-86.89
-79.26
-66.36
-48.94
-28.43
-6.48
15.39
36.06
54.8
71.17
84.77
95.24
102.36
106.16
107.16
106.25
104.52
102.96
102.03
101.6
100.88
98.77
94.16
86.36
75.29
61.49
45.99
30.05
14.83
1.24
-10.24
-19.47
-26.65
-32.19
-36.59
-40.42
-44.21
-48.48
-53.58
-59.7
-66.75
-74.34
-81.86
-88.68
-94.36
-98.77
-102.08
-104.69
-107.01
-109.39
-112
-114.75
-117.2
-118.49
-117.42
-112.74
-103.5
-89.43
-71.13
-49.88
-27.25
-4.76
16.38
35.35
51.51
64.36
73.58
79.1
81.29
80.92
78.96
76.37
73.8
71.52
69.52
67.65
65.81
63.96
62.12
60.22
58.06
55.35
51.79
47.14
41.39
34.72
27.46
20.01
12.77
6.04
-0.01
-5.45
-10.53
-15.62
-21.08
-27.1
-33.61
-40.27
-46.62
-52.25
-57.02
-61.13
-65.09
-69.52
-74.92
-81.42
-88.62
-95.58
-100.89
-103
-100.51
-92.64
-79.4
-61.62
-40.8
-18.69
3.06
23.14
40.63
55
65.91
73.22
76.94
77.34
74.96
70.58
65.15
59.53
54.39
50.08
46.66
44.03
42.01
40.44
39.16
37.97
36.68
35.06
32.95
30.25
26.95
23.09
18.71
13.9
8.76
3.46
-1.85
-7.05
-12.1
-17.06
-22.08
-27.34
-33.02
-39.29
-46.17
-53.43
-60.44
-66.16
-69.29
-68.55
-63.06
-52.65
-37.92
-20.16
-1.02
17.81
34.94
49.34
60.4
67.83
71.62
71.99
69.49
64.97
59.44
53.91
49.1
45.32
42.45
40.14
38
35.84
33.6
31.36
29.18
27
24.65
21.88
18.4
14.05
8.75
2.67
-3.84
-10.39
-16.6
-22.31
-27.64
-33
-38.89
-45.76
-53.78
-62.66
-71.56
-79.17
-83.88
-84.15
-78.93
-67.93
-51.84
-32.05
-10.37
11.45
31.98
50.19
65.39
77.13
85.13
89.34
90.02
87.79
83.5
78.12
72.46
67.06
62.12
57.68
53.7
50.26
47.58
45.94
45.55
46.32
47.75
48.85
48.34
44.86
37.41
25.55
9.61
-9.43
-30.19
-51.29
-71.65
-90.67
-108.23
-124.47
-139.5
-153.18
-164.94
-173.84
-178.63
-178.11
-171.38
-158.14
-138.84
-114.69
-87.38
-58.86
-30.93
-5.09
17.61
36.44
51.06
61.39
67.72
70.65
71
69.67
67.45
64.89
62.34
59.93
57.79
55.96
54.44
53.08
51.65
49.81
47.32
44.09
40.2
35.83
31.12
26.13
20.76
14.96
8.71
2.09
-4.75
-11.63
-18.42
-25.09
-31.66
-38.25
-45.05
-52.3
-60.17
-68.58
-76.95
-84.17
-88.62
-88.63
-82.91
-71.03
-53.63
-32.24
-8.94
14.22
35.59
54.12
69.32
81.03
89.25
94.09
95.7
94.47
91
86.1
80.55
75.05
70.03
65.68
62.09
59.29
57.26
55.91
55.03
54.29
53.32
51.9
49.95
47.58
44.92
41.99
38.67
34.65
29.58
23.23
15.49
6.48
-3.54
-14.22
-25.22
-36.31
-47.44
-58.75
-70.49
-82.79
-95.45
-107.7
-118.23
-125.44
-127.92
-124.89
-116.47
-103.67
-88.01
-71.09
-54.21
-38.27
-23.79
-11.17
-0.81
6.92
11.78
13.89
13.79
12.34
10.49
8.99
8.24
8.26
8.82
9.62
10.46
11.29
12.12
12.97
13.72
14.11
13.82
12.58
10.3
7.11
3.3
-0.78
-4.86
-8.84
-12.75
-16.74
-20.97
-25.6
-30.75
-36.51
-42.84
-49.45
-55.66
-60.36
-62.24
-60.03
-52.95
-40.99
-24.93
-6.17
13.61
32.82
50.15
64.68
75.76
83.01
86.33
85.95
82.48
76.8
69.98
62.99
56.51
50.89
46.13
42
38.25
34.65
31.1
27.58
24.12
20.64
16.98
12.84
7.88
1.97
-4.77
-11.94
-18.99
-25.49
-31.3
-36.6
-41.87
-47.61
-54.2
-61.74
-70
-78.33
-85.73
-90.85
-92.23
-88.61
-79.33
-64.62
-45.58
-23.97
-1.66
19.69
38.95
55.43
68.72
78.49
84.5
86.68
85.3
81.07
75
68.17
61.48
55.45
50.25
45.77
41.78
38.06
34.45
30.89
27.4
24.08
20.94
17.86
14.59
10.71
5.91
0.07
-6.68
-13.98
-21.45
-28.81
-35.99
-43.14
-50.51
-58.37
-66.93
-76.21
-85.95
-95.41
-103.38
-108.3
-108.61
-103.25
-91.98
-75.58
-55.56
-33.85
-12.29
7.66
25.01
39.12
49.6
56.28
59.26
58.96
56.17
51.82
46.83
41.87
37.32
33.29
29.84
27.05
25.03
23.89
23.58
23.89
24.42
24.74
24.48
23.38
21.35
18.5
15.02
11.18
7.21
3.19
-0.94
-5.39
-10.32
-15.81
-21.76
-27.91
-33.93
-39.58
-44.79
-49.72
-54.72
-60.25
-66.72
-74.35
-82.95
-91.79
-99.58
-104.68
-105.38
-100.37
-89.11
-72.01
-50.35
-25.97
-0.85
23.24
44.96
63.45
78.24
89.06
95.87
98.84
98.42
95.38
90.7
85.38
80.18
75.49
71.28
67.34
63.48
59.7
56.17
53.14
50.66
48.55
46.38
43.6
39.81
34.87
28.94
22.43
15.75
9.14
2.64
-3.93
-10.77
-17.95
-25.35
-32.68
-39.56
-45.78
-51.32
-56.44
-61.58
-67.26
-73.85
-81.49
-89.82
-97.99
-104.64
-108.13
-106.93
-100.01
-87.14
-69.06
-47.25
-23.62
-0.01
22.04
41.49
57.64
70.01
78.29
82.33
82.34
79.01
73.36
66.65
60
54.17
49.49
45.9
43.17
41.03
39.23
37.62
36.04
34.35
32.38
29.95
26.9
23.07
18.39
12.86
6.68
0.11
-6.53
-12.98
-19.1
-24.92
-30.59
-36.35
-42.43
-49.06
-56.26
-63.84
-71.19
-77.31
-80.87
-80.51
-75.17
-64.46
-48.85
-29.62
-8.5
12.65
32.21
48.96
62.07
71.05
75.71
76.19
73.04
67.19
59.8
52.03
44.78
38.52
33.38
29.22
25.83
23.06
20.78
18.89
17.15
15.27
12.88
9.63
5.33
0.01
-6.11
-12.67
-19.3
-25.73
-31.87
-37.87
-44
-50.66
-58.22
-66.86
-76.41
-86.18
-94.89
-100.82
-102.22
-97.73
-86.88
-70.25
-49.35
-26.27
-3.1
18.43
37.17
52.5
64.1
71.83
75.59
75.44
71.77
65.36
57.29
48.7
40.54
33.34
27.24
22.15
17.92
14.45
11.71
9.66
8.2
7.12
6.17
5.12
3.7
1.64
-1.26
-5.09
-9.69
-14.72
-19.76
-24.51
-28.9
-33.15
-37.65
-42.84
-49.07
-56.52
-65.14
-74.54
-83.8
-91.52
-95.91
-95.26
-88.35
-74.96
-55.97
-33.13
-8.6
15.58
37.82
57.13
72.91
84.85
92.74
96.57
96.56
93.29
87.67
80.74
73.48
66.53
60.26
54.78
50.1
46.21
43.11
40.73
38.85
37.14
35.14
32.45
28.87
24.4
19.28
13.85
8.41
3.05
-2.39
-8.16
-14.5
-21.4
-28.58
-35.55
-41.9
-47.45
-52.42
-57.39
-63.08
-70.12
-78.75
-88.63
-98.67
-107.17
-112.07
-111.5
-104.24
-90.17
-70.3
-46.49
-21
4.09
27.12
46.97
62.96
74.69
81.99
84.95
83.99
79.85
73.51
66.01
58.26
50.9
44.31
38.63
33.89
29.98
26.81
24.2
21.95
19.85
17.68
15.23
12.32
8.82
4.72
0.14
-4.74
-9.72
-14.64
-19.46
-24.21
-28.95
-33.74
-38.59
-43.57
-48.81
-54.48
-60.64
-67.03
-72.89
-76.92
-77.53
-73.25
-63.15
-47.22
-26.4
-2.38
22.76
46.94
68.4
85.82
98.4
105.79
108.1
105.83
99.82
91.1
80.78
69.87
59.17
49.26
40.46
32.88
26.46
20.99
16.22
11.84
7.52
3
-1.97
-7.54
-13.82
-20.8
-28.31
-36.12
-43.92
-51.47
-58.73
-65.93
-73.5
-81.92
-91.43
-101.74
-111.81
-119.94
-124.13
-122.7
-114.78
-100.66
-81.8
-60.4
-39.07
-20.3
-6.25
1.48
2.02
-4.66
-17.64
-35.16
-54.97
-74.76
-92.64
-107.28
-118
-124.54
-126.89
-125.28
-120.12
-112.1
-102.14
-91.26
-80.41
-70.32
-61.37
-53.59
-46.77
-40.61
-34.86
-29.48
-24.66
-20.8
-18.3
-17.33
-17.69
-18.56
-18.58
-16.03
-9.27
2.85
20.62
43.23
69.01
95.74
121.23
143.79
162.47
177.08
187.95
195.66
200.84
204.08
205.92
206.72
206.55
205.03
201.36
194.61
184.15
170.06
153.24
135.06
116.93
99.84
84.25
70.36
58.43
48.89
42.1
37.97
35.58
33.22
28.85
20.68
7.75
-9.8
-30.67
-52.55
-72.35
-86.75
-92.77
-88.59
-74.15
-51.33
-23.61
4.88
30.3
49.99
62.74
68.65
68.73
64.38
57.03
47.93
38.1
28.24
18.85
10.2
2.41
-4.48
-10.41
-15.36
-19.23
-21.89
-23.22
-23.19
-21.96
-19.88
-17.53
-15.58
-14.64
-15.08
-17.01
-20.23
-24.35
-28.98
-33.8
-38.67
-43.68
-49.16
-55.52
-63.15
-72.11
-81.88
-91.27
-98.53
-101.74
-99.41
-90.85
-76.41
-57.34
-35.34
-12.11
10.83
32.27
51.19
66.69
78.03
84.86
87.33
86.14
82.34
77.06
71.25
65.53
60.23
55.54
51.58
48.5
46.31
44.93
44.07
43.3
42.17
40.35
37.72
34.43
30.83
27.31
24.11
21.23
18.37
15.08
10.99
5.99
0.28
-5.77
-11.76
-17.53
-23.24
-29.28
-36.08
-43.91
-52.63
-61.68
-69.95
-76.05
-78.49
-76.14
-68.53
-56.09
-40.09
-22.3
-4.56
11.63
25.38
36.34
44.5
49.94
52.62
52.41
49.19
43.1
34.6
24.49
13.77
3.43
-5.67
-12.99
-18.28
-21.56
-23.17
-23.6
-23.39
-23.06
-22.98
-23.39
-24.38
-25.96
-28.05
-30.44
-32.84
-34.95
-36.63
-38
-39.39
-41.34
-44.33
-48.67
-54.35
-61.07
-68.26
-75.09
-80.61
-83.78
-83.64
-79.43
-70.74
-57.61
-40.56
-20.59
0.87
22.15
41.56
57.65
69.44
76.53
79.1
77.77
73.48
67.27
60.15
53.01
46.5
41.07
36.89
33.87
31.75
30.14
28.65
26.98
24.95
22.45
19.45
15.86
11.58
6.46
0.47
-6.32
-13.68
-21.29
-28.91
-36.48
-44.19
-52.33
-61.12
-70.36
-79.3
-86.62
-90.76
-90.29
-84.42
-73.18
-57.48
-38.74
-18.62
1.39
20.04
36.43
49.87
59.92
66.31
69.11
68.71
65.82
61.34
56.15
50.95
46.14
41.89
38.14
34.84
31.92
29.35
27.01
24.7
22.15
19.07
15.31
10.94
6.13
1.11
-4.06
-9.43
-15.19
-21.44
-28.13
-34.96
-41.51
-47.43
-52.6
-57.19
-61.61
-66.38
-71.91
-78.41
-85.68
-93.05
-99.32
-102.94
-102.31
-96.25
-84.4
-67.26
-46.16
-22.77
1.22
24.4
45.7
64.27
79.4
90.48
97.17
99.5
97.99
93.55
87.31
80.37
73.57
67.44
62.22
57.95
54.57
52.01
50.14
48.81
47.77
46.73
45.39
43.5
40.95
37.71
33.92
29.79
25.54
21.38
17.44
13.75
10.26
6.81
3.19
-0.8
-5.33
-10.38
-15.79
-21.21
-26.21
-30.43
-33.75
-36.36
-38.74
-41.48
-45.09
-49.78
-55.33
-61.28
-67.04
-72.18
-76.59
-80.49
-84.37
-88.8
-94.27
-101.02
-108.88
-117.11
-124.35
-128.78
-128.46
-121.92
-108.6
-89.14
-65.25
-39.24
-13.39
10.55
31.52
49.06
63.04
73.43
80.2
83.36
83.12
79.95
74.62
68
61.01
54.38
48.64
44.06
40.72
38.54
37.28
36.6
36.09
35.36
34.11
32.23
29.77
26.96
24.07
21.27
18.6
15.92
13
9.6
5.64
1.16
-3.75
-8.93
-14.34
-19.93
-25.67
-31.44
-37.03
-42.21
-46.8
-50.82
-54.47
-58.11
-62.23
-67.25
-73.32
-80.18
-87
-92.45
-94.95
-93.1
-86.04
-73.7
-56.79
-36.6
-14.68
7.38
28.11
46.18
60.56
70.57
76.03
77.29
75.14
70.59
64.7
58.35
52.17
46.62
42.01
38.49
36.05
34.51
33.51
32.61
31.42
29.66
27.23
24.17
20.55
16.46
11.9
6.83
1.2
-5.04
-11.82
-19.03
-26.47
-33.88
-41.04
-47.84
-54.35
-60.86
-67.79
-75.57
-84.36
-93.83
-103.05
-110.52
-114.51
-113.47
-106.49
-93.5
-75.28
-53.27
-29.17
-4.74
18.46
39.17
56.41
69.62
78.61
83.54
84.92
83.43
79.81
74.81
69.09
63.24
57.76
53.01
49.23
46.49
44.72
43.68
43.05
42.43
41.39
39.59
36.84
33.14
28.61
23.44
17.77
11.65
5.04
-2.1
-9.68
-17.5
-25.26
-32.71
-39.72
-46.27
-52.51
-58.68
-65.1
-72.15
-80.08
-88.89
-97.98
-106.09
-111.37
-111.84
-105.98
-93.2
-74.13
-50.42
-24.27
2.09
26.84
48.72
66.91
80.97
90.67
95.96
97.13
94.77
89.79
83.24
76.14
69.24
63.03
57.69
53.22
49.59
46.79
44.76
43.39
42.42
41.44
40
37.73
34.44
30.17
25.19
19.82
14.35
8.91
3.42
-2.3
-8.54
-15.47
-23.11
-31.22
-39.41
-47.2
-54.25
-60.48
-66.1
-71.61
-77.64
-84.66
-92.81
-101.69
-110.25
-116.94
-119.91
-117.5
-108.61
-93.09
-71.83
-46.53
-19.38
7.45
32.14
53.42
70.54
83.12
91.09
94.56
93.88
89.75
83.15
75.28
67.33
60.21
54.39
49.95
46.65
44.2
42.35
40.94
39.82
38.73
37.31
35.22
32.27
28.53
24.26
19.72
15.03
10.12
4.77
-1.18
-7.76
-14.74
-21.8
-28.6
-34.95
-40.87
-46.57
-52.38
-58.63
-65.44
-72.65
-79.64
-85.34
-88.36
-87.3
-81.07
-69.22
-52.17
-31.19
-8.11
15.02
36.34
54.47
68.52
78.05
82.98
83.48
80.04
73.54
65.17
56.3
48.15
41.55
36.78
33.62
31.58
30.11
28.84
27.53
26.07
24.34
22.18
19.35
15.62
10.89
5.18
-1.3
-8.25
-15.36
-22.37
-29.14
-35.7
-42.22
-49.06
-56.64
-65.26
-74.93
-85.06
-94.37
-101.04
-103.08
-98.89
-87.83
-70.42
-48.25
-23.53
1.48
24.91
45.45
62.31
75.06
83.45
87.43
87.26
83.6
77.44
69.95
62.18
54.88
48.38
42.72
37.85
33.72
30.37
27.8
25.92
24.45
22.94
20.92
17.99
13.92
8.68
2.42
-4.6
-11.96
-19.25
-26.06
-32.19
-37.65
-42.72
-47.91
-53.81
-60.87
-69.24
-78.59
-88
-95.97
-100.72
-100.47
-93.95
-80.79
-61.71
-38.39
-13.03
12.09
35.11
54.77
70.44
81.89
89.12
92.3
91.75
88.06
82.07
74.75
67.01
59.53
52.69
46.65
41.5
37.29
34.1
31.87
30.36
29.11
27.58
25.33
22.17
18.12
13.41
8.25
2.78
-2.99
-9.15
-15.79
-22.89
-30.32
-37.79
-44.96
-51.53
-57.46
-63.04
-68.83
-75.42
-83.02
-91.12
-98.35
-102.75
-102.32
-95.67
-82.44
-63.43
-40.32
-15.17
10
33.48
53.98
70.6
82.76
90.21
93.06
91.77
87.15
80.22
72.07
63.68
55.8
48.94
43.36
39.09
36.01
33.88
32.33
30.99
29.46
27.47
24.84
21.55
17.67
13.32
8.57
3.46
-1.97
-7.72
-13.69
-19.75
-25.7
-31.4
-36.75
-41.87
-47.02
-52.57
-58.77
-65.63
-72.64
-78.82
-82.76
-82.98
-78.26
-68.04
-52.59
-33.04
-11.14
11.15
31.99
49.92
63.92
73.42
78.19
78.44
74.75
68.14
59.96
51.57
44.08
38.13
33.8
30.76
28.47
26.46
24.46
22.38
20.23
17.98
15.52
12.62
9.13
4.95
0.13
-5.21
-10.9
-16.77
-22.66
-28.45
-34.05
-39.51
-45.07
-51.16
-58.21
-66.38
-75.3
-83.85
-90.37
-92.99
-90.18
-81.22
-66.37
-46.86
-24.46
-1.13
21.34
41.51
58.3
71.01
79.28
83.15
83.02
79.65
73.94
66.87
59.28
51.84
45.04
39.18
34.37
30.55
27.57
25.13
22.97
20.84
18.55
15.92
12.82
9.15
4.89
0.09
-5.16
-10.75
-16.65
-22.76
-28.98
-35.1
-40.87
-46.13
-50.88
-55.38
-60.1
-65.54
-72.02
-79.35
-86.75
-92.77
-95.69
-93.88
-86.27
-72.75
-54.15
-32.11
-8.57
14.61
35.92
54.31
69.14
80.04
86.9
89.88
89.4
86.12
80.84
74.33
67.26
60.08
53.14
46.71
41.06
36.47
33.14
31.11
30.15
29.76
29.32
28.17
25.91
22.49
18.14
13.29
8.29
3.26
-1.94
-7.57
-13.86
-20.81
-28.17
-35.52
-42.43
-48.67
-54.22
-59.3
-64.27
-69.58
-75.6
-82.48
-89.94
-97.1
-102.49
-104.38
-101.18
-92.03
-77.07
-57.49
-35.11
-11.92
10.35
30.45
47.53
61.05
70.64
76.16
77.76
75.96
71.6
65.67
59.07
52.5
46.39
40.93
36.23
32.38
29.44
27.41
26.15
25.37
24.64
23.55
21.8
19.31
16.19
12.68
9.01
5.3
1.55
-2.36
-6.62
-11.31
-16.4
-21.73
-27.08
-32.23
-37.05
-41.55
-45.87
-50.28
-55.1
-60.52
-66.5
-72.45
-77.3
-79.58
-77.82
-71.01
-58.91
-42.25
-22.49
-1.46
19.07
37.62
53.14
64.99
72.81
76.61
76.65
73.51
68.03
61.19
53.95
47.19
41.48
37.12
34.09
32.1
30.72
29.49
28.03
26.12
23.69
20.77
17.37
13.48
9.01
3.88
-1.92
-8.24
-14.81
-21.29
-27.44
-33.11
-38.4
-43.51
-48.73
-54.39
-60.76
-67.93
-75.73
-83.49
-90.04
-93.83
-93.28
-87.26
-75.45
-58.58
-38.16
-16.17
5.5
25.4
42.6
56.66
67.38
74.68
78.5
78.94
76.33
71.33
64.89
58.04
51.67
46.34
42.2
39.08
36.7
34.82
33.3
32.11
31.11
30.11
28.76
26.73
23.82
20
15.46
10.47
5.31
0.12
-5.08
-10.38
-15.92
-21.77
-27.94
-34.33
-40.72
-46.82
-52.38
-57.21
-61.33
-64.98
-68.59
-72.73
-77.93
-84.4
-91.78
-99.08
-104.71
-106.82
-103.8
-94.7
-79.6
-59.52
-36.23
-11.72
12.1
33.78
52.3
67
77.53
83.77
85.88
84.39
80.15
74.17
67.47
60.84
54.78
49.5
45.03
41.32
38.35
36.06
34.34
32.98
31.73
30.32
28.55
26.34
23.66
20.51
16.85
12.62
7.73
2.24
-3.68
-9.77
-15.72
-21.36
-26.62
-31.64
-36.55
-41.46
-46.33
-51.07
-55.56
-59.73
-63.58
-67.15
-70.53
-73.86
-77.37
-81.34
-86.01
-91.34
-96.77
-101.12
-102.76
-99.99
-91.6
-77.29
-57.85
-34.92
-10.58
13.2
34.88
53.5
68.5
79.57
86.54
89.43
88.54
84.55
78.46
71.39
64.4
58.27
53.42
49.92
47.56
45.93
44.62
43.24
41.56
39.44
36.85
33.73
29.99
25.55
20.32
14.35
7.82
0.97
-5.91
-12.62
-19.06
-25.24
-31.27
-37.33
-43.69
-50.56
-58.07
-66.04
-73.87
-80.54
-84.69
-84.95
-80.32
-70.42
-55.67
-37.18
-16.5
4.67
24.78
42.51
56.87
67.19
73.21
75.07
73.29
68.74
62.43
55.37
48.43
42.24
37.2
33.46
30.93
29.35
28.33
27.47
26.38
24.79
22.53
19.6
16.08
12.12
7.89
3.47
-1.14
-6.06
-11.44
-17.32
-23.6
-30.01
-36.2
-41.96
-47.27
-52.39
-57.8
-63.97
-71.26
-79.68
-88.76
-97.43
-104.13
-107.03
-104.49
-95.53
-80.16
-59.46
-35.36
-10.1
14.26
36.17
54.67
69.27
79.78
86.18
88.69
87.81
84.36
79.3
73.57
67.87
62.51
57.57
53.02
48.97
45.62
43.22
41.79
41.05
40.41
39.2
36.94
33.52
29.17
24.32
19.32
14.28
9.06
3.4
-2.89
-9.8
-17.14
-24.59
-31.87
-38.8
-45.36
-51.67
-57.96
-64.56
-71.8
-79.87
-88.57
-97.15
-104.23
-108
-106.72
-99.22
-85.35
-66.07
-43.17
-18.8
5.04
26.78
45.42
60.34
71.25
78.05
80.88
80.16
76.57
70.97
64.27
57.27
50.59
44.6
39.51
35.36
32.15
29.85
28.36
27.48
26.9
26.17
24.84
22.61
19.43
15.54
11.32
7.08
2.93
-1.32
-5.97
-11.25
-17.13
-23.28
-29.28
-34.75
-39.58
-43.93
-48.14
-52.67
-57.94
-64.22
-71.45
-79.09
-86.01
-90.57
-91.02
-85.97
-74.89
-58.32
-37.77
-15.28
7.09
27.71
45.44
59.65
69.99
76.34
78.73
77.51
73.32
67.12
60.08
53.26
47.42
42.87
39.49
36.95
34.89
33.08
31.44
29.93
28.43
26.77
24.64
21.82
18.2
13.8
8.73
3.17
-2.73
-8.78
-14.77
-20.57
-26.13
-31.6
-37.24
-43.45
-50.48
-58.32
-66.49
-73.93
-79.2
-80.7
-77.19
-68.06
-53.68
-35.2
-14.32
7.1
27.4
45.29
59.84
70.47
76.87
79.01
77.26
72.32
65.23
57.16
49.18
42.13
36.44
32.17
29.13
26.97
25.31
23.84
22.27
20.45
18.26
15.7
12.77
9.45
5.65
1.21
-4
-10.01
-16.62
-23.47
-30.12
-36.25
-41.77
-46.87
-51.96
-57.55
-64.08
-71.8
-80.45
-89.25
-96.78
-101.24
-100.83
-94.28
-81.26
-62.52
-39.74
-15.06
9.39
31.86
51.14
66.5
77.61
84.47
87.34
86.77
83.5
78.39
72.27
65.84
59.58
53.79
48.65
44.26
40.72
38.1
36.38
35.39
34.81
34.16
32.92
30.69
27.26
22.75
17.44
11.74
5.94
0.15
-5.75
-11.95
-18.56
-25.49
-32.42
-38.98
-44.88
-50.06
-54.8
-59.61
-65.11
-71.71
-79.44
-87.74
-95.4
-100.73
-101.93
-97.55
-86.93
-70.43
-49.39
-25.81
-1.79
20.8
40.66
57.01
69.49
78.03
82.74
83.91
82.05
77.91
72.35
66.24
60.28
54.91
50.29
46.44
43.31
40.85
39.04
37.81
36.98
36.25
35.22
33.47
30.73
26.92
22.2
16.94
11.54
6.37
1.59
-2.9
-7.39
-12.26
-17.78
-23.99
-30.62
-37.23
-43.37
-48.78
-53.54
-58
-62.72
-68.19
-74.65
-81.91
-89.24
-95.43
-98.94
-98.24
-92.17
-80.37
-63.4
-42.73
-20.34
1.74
21.88
39.03
52.65
62.58
68.79
71.4
70.68
67.23
61.94
55.84
49.91
44.83
40.89
38.07
36.17
34.91
34.03
33.32
32.58
31.64
30.34
28.55
26.2
23.25
19.68
15.51
10.77
5.54
-0.04
-5.79
-11.52
-17.1
-22.45
-27.59
-32.63
-37.81
-43.42
-49.75
-56.92
-64.65
-72.08
-77.81
-80.17
-77.72
-69.72
-56.43
-39.06
-19.45
0.45
18.92
34.7
46.98
55.38
59.83
60.53
58.01
53.01
46.47
39.33
32.48
26.56
22
18.95
17.31
16.78
16.9
17.17
17.1
16.33
14.71
12.3
9.27
5.78
1.89
-2.42
-7.25
-12.64
-18.49
-24.6
-30.69
-36.53
-42
-47.14
-52.1
-57.19
-62.78
-69.2
-76.54
-84.4
-91.75
-97.05
-98.51
-94.66
-84.8
-69.33
-49.62
-27.67
-5.57
14.98
32.9
47.66
59.11
67.17
71.85
73.22
71.61
67.65
62.2
56.22
50.43
45.3
40.99
37.5
34.85
33.05
32.13
32
32.37
32.86
33.09
32.77
31.86
30.35
28.36
25.89
22.95
19.47
15.46
10.98
6.12
1.02
-4.26
-9.69
-15.37
-21.4
-28.02
-35.47
-43.93
-53.33
-63.15
-72.41
-79.71
-83.53
-82.69
-76.64
-65.68
-50.92
-34
-16.72
-0.71
12.81
23.12
29.88
33.08
32.91
29.8
24.38
17.49
10.04
2.97
-2.97
-7.31
-9.82
-10.46
-9.31
-6.44
-2.01
3.73
10.41
17.59
24.8
31.7
38.06
43.75
48.74
53
56.41
58.88
60.21
60.32
59.15
56.73
53.15
48.43
42.53
35.38
26.87
17.01
5.98
-5.72
-17.2
-27.25
-34.49
-37.63
-35.82
-28.93
-17.7
-3.52
11.82
26.54
39.24
48.95
55.17
57.68
56.5
51.88
44.38
34.88
24.51
14.42
5.48
-1.89
-7.77
-12.58
-16.81
-20.76
-24.44
-27.63
-30.09
-31.74
-32.77
-33.6
-34.78
-36.74
-39.73
-43.69
-48.31
-53.07
-57.46
-61.11
-63.89
-66.07
-68.18
-70.86
-74.55
-79.29
-84.49
-89.01
-91.35
-90
-83.87
-72.57
-56.54
-36.97
-15.59
5.75
25.32
41.76
54.12
61.94
65.17
64.24
59.96
53.43
45.87
38.36
31.66
26.13
21.78
18.4
15.73
13.5
11.56
9.79
8.06
6.2
3.94
0.97
-2.93
-7.86
-13.68
-20.02
-26.4
-32.43
-37.94
-43.07
-48.22
-53.91
-60.59
-68.46
-77.31
-86.46
-94.71
-100.44
-101.96
-97.84
-87.41
-71
-49.9
-26.14
-1.87
21.04
41.31
58.25
71.54
81.08
86.84
88.92
87.69
83.83
78.28
72.03
65.93
60.53
56.03
52.36
49.33
46.72
44.33
42
39.6
36.99
34.05
30.65
26.66
21.99
16.58
10.44
3.69
-3.4
-10.55
-17.44
-23.94
-30.05
-35.97
-41.93
-48.29
-55.35
-63.3
-72.08
-81.16
-89.37
-95.02
-96.24
-91.48
-80.14
-62.77
-40.97
-16.95
7.1
29.46
49.04
65.26
77.91
86.84
92.05
93.68
92.13
88.14
82.62
76.53
70.69
65.62
61.54
58.43
56.1
54.31
52.86
51.57
50.35
49.07
47.58
45.72
43.34
40.28
36.42
31.72
26.2
20.02
13.41
6.68
0.12
-6.11
-12
-17.71
-23.49
-29.51
-35.82
-42.23
-48.4
-54.01
-58.87
-63.08
-67
-71.24
-76.44
-83.08
-91.16
-100
-108.16
-113.67
-114.45
-108.9
-96.39
-77.47
-53.79
-27.57
-1.15
23.54
45.11
62.78
76.16
85.17
90
91.07
89.08
84.89
79.39
73.43
67.65
62.47
58.11
54.59
51.87
49.78
48.12
46.63
45.05
43.16
40.77
37.75
34.08
29.76
24.89
19.55
13.82
7.81
1.61
-4.63
-10.75
-16.62
-22.2
-27.57
-32.94
-38.55
-44.62
-51.3
-58.46
-65.65
-71.96
-76.16
-76.88
-73
-63.97
-50.06
-32.29
-12.26
8.23
27.53
44.27
57.53
66.74
71.69
72.47
69.49
63.49
55.53
46.82
38.62
31.94
27.33
24.74
23.67
23.29
22.83
21.75
19.88
17.3
14.24
10.85
7.13
2.93
-1.92
-7.51
-13.73
-20.28
-26.79
-32.89
-38.43
-43.49
-48.34
-53.4
-59.1
-65.72
-73.28
-81.39
-89.15
-95.19
-97.89
-95.74
-87.78
-73.91
-54.98
-32.63
-8.86
14.36
35.41
53.15
66.98
76.68
82.29
84.11
82.61
78.48
72.55
65.75
58.93
52.73
47.48
43.22
39.81
37.01
34.66
32.61
30.73
28.81
26.61
23.89
20.53
16.57
12.15
7.43
2.47
-2.74
-8.3
-14.25
-20.49
-26.77
-32.84
-38.49
-43.74
-48.77
-53.97
-59.76
-66.52
-74.32
-82.81
-91.02
-97.45
-100.28
-97.88
-89.25
-74.47
-54.75
-32.11
-8.78
13.27
32.72
48.94
61.71
71
76.79
79.16
78.33
74.85
69.49
63.16
56.67
50.59
45.26
40.86
37.42
34.94
33.32
32.34
31.67
30.9
29.64
27.61
24.67
20.88
16.42
11.51
6.34
0.96
-4.6
-10.4
-16.42
-22.6
-28.76
-34.72
-40.36
-45.67
-50.83
-56.14
-62.02
-68.73
-76.2
-83.8
-90.24
-93.85
-92.93
-86.34
-73.93
-56.56
-35.95
-14.16
6.92
25.88
41.87
54.51
63.65
69.31
71.6
70.78
67.38
62.14
55.95
49.67
43.97
39.26
35.66
33.1
31.36
30.13
29.15
28.11
26.82
25.16
23.04
20.44
17.3
13.58
9.27
4.44
-0.75
-6.08
-11.38
-16.56
-21.68
-26.82
-32.1
-37.57
-43.24
-49.16
-55.35
-61.83
-68.33
-74.25
-78.52
-79.83
-77
-69.37
-57.14
-41.35
-23.62
-5.71
10.87
25.07
36.24
44
48.11
48.51
45.45
39.59
31.94
23.71
16.06
9.76
5.17
2.21
0.56
-0.12
-0.08
0.58
1.91
3.9
6.46
9.32
12.12
14.51
16.36
17.73
18.95
20.33
22.07
24.07
25.97
27.21
27.19
25.37
21.44
15.43
7.78
-0.51
-7.95
-12.82
-13.59
-9.3
0.18
14.12
31.17
49.73
68.27
85.44
100.13
111.37
118.4
120.73
118.32
111.65
101.7
89.75
77.09
64.85
53.75
44.13
35.99
29.08
23.03
17.46
12.06
6.6
0.94
-5
-11.29
-17.99
-25.17
-32.86
-41.04
-49.65
-58.59
-67.66
-76.64
-85.26
-93.3
-100.62
-107.29
-113.55
-119.76
-126.32
-133.53
-141.57
-150.32
-159.28
-167.47
-173.49
-175.69
-172.67
-163.69
-148.98
-129.69
-107.48
-84.04
-60.67
-38.1
-16.83
2.68
19.77
33.69
43.92
50.53
54.17
55.89
56.76
57.49
58.31
59.18
60.01
60.86
61.97
63.48
65.34
67.13
68.24
68.07
66.32
63.07
58.73
53.84
48.78
43.72
38.52
32.85
26.39
18.96
10.58
1.54
-7.78
-17.03
-25.97
-34.61
-43.18
-52.12
-61.94
-73.08
-85.7
-99.43
-113.26
-125.47
-133.99
-136.81
-132.56
-120.98
-103.06
-80.73
-56.39
-32.25
-9.96
9.62
26.16
39.62
49.95
57.1
61.07
62.13
60.86
58.07
54.58
51.07
47.96
45.4
43.46
42.17
41.57
41.71
42.49
43.64
44.7
45.16
44.55
42.65
39.52
35.5
31.07
26.64
22.47
18.5
14.47
10.04
4.96
-0.76
-6.89
-13.07
-18.96
-24.4
-29.47
-34.52
-39.97
-46.28
-53.66
-61.99
-70.6
-78.37
-83.72
-84.99
-80.87
-70.77
-55.1
-35.2
-13.04
9.36
30.28
48.54
63.49
74.78
82.19
85.62
85.15
81.26
74.85
67.12
59.34
52.55
47.33
43.82
41.76
40.72
40.24
39.88
39.28
38.2
36.54
34.3
31.55
28.37
24.73
20.58
15.85
10.57
4.89
-0.98
-6.82
-12.49
-17.99
-23.44
-28.95
-34.7
-40.86
-47.55
-54.79
-62.33
-69.5
-75.12
-77.72
-75.84
-68.48
-55.5
-37.71
-16.74
5.38
26.64
45.38
60.46
71.2
77.4
79.24
77.24
72.29
65.45
57.83
50.36
43.71
38.19
33.91
30.85
28.9
27.81
27.22
26.65
25.63
23.84
21.22
17.89
14.08
9.87
5.2
-0.04
-5.95
-12.46
-19.33
-26.25
-32.91
-39.16
-44.96
-50.39
-55.63
-60.93
-66.63
-73.06
-80.37
-88.2
-95.57
-100.83
-102.08
-97.68
-86.83
-69.89
-48.29
-24.16
0.26
23.07
42.94
59.13
71.29
79.39
83.58
84.26
82.06
77.77
72.29
66.39
60.67
55.47
50.92
47.01
43.74
41.11
39.12
37.66
36.51
35.31
33.63
31.14
27.7
23.37
18.39
13.05
7.56
2.02
-3.64
-9.54
-15.74
-22.23
-28.83
-35.23
-41.2
-46.66
-51.79
-57.02
-62.86
-69.68
-77.41
-85.37
-92.26
-96.41
-96.13
-90.26
-78.5
-61.51
-40.79
-18.27
4.16
24.95
43.06
57.88
69.11
76.65
80.55
81.06
78.72
74.32
68.79
62.98
57.52
52.79
48.82
45.53
42.81
40.58
38.84
37.56
36.63
35.79
34.76
33.24
31.07
28.19
24.65
20.61
16.2
11.6
6.9
2.18
-2.62
-7.57
-12.82
-18.46
-24.41
-30.49
-36.38
-41.81
-46.61
-50.87
-54.84
-58.94
-63.64
-69.29
-76.08
-83.78
-91.64
-98.31
-102.09
-101.25
-94.58
-81.85
-63.85
-42.29
-19.26
3.25
23.69
41.07
54.83
64.74
70.79
73.2
72.43
69.23
64.46
59
53.58
48.73
44.72
41.61
39.37
37.81
36.72
35.84
34.93
33.78
32.22
30.18
27.65
24.67
21.28
17.52
13.38
8.85
3.95
-1.26
-6.66
-12.12
-17.53
-22.84
-28.11
-33.4
-38.8
-44.4
-50.25
-56.32
-62.45
-68.17
-72.69
-74.92
-73.72
-68.22
-58.17
-44.04
-27.02
-8.7
9.28
25.49
38.89
48.78
54.75
56.56
54.34
48.69
40.85
32.66
26.17
22.98
23.71
27.73
33.38
38.6
41.7
41.89
39.3
34.74
29.21
23.51
18.16
13.52
9.89
7.54
6.6
6.89
7.89
8.89
9.18
8.35
6.35
3.38
-0.2
-4.12
-8.24
-12.54
-17.04
-21.77
-26.67
-31.64
-36.52
-41.18
-45.55
-49.68
-53.8
-58.29
-63.56
-69.85
-77.04
-84.41
-90.74
-94.41
-93.84
-87.94
-76.44
-60
-40.12
-18.71
2.35
21.53
37.82
50.73
60.13
66.06
68.74
68.49
65.86
61.57
56.44
51.24
46.54
42.62
39.53
37.18
35.45
34.29
33.62
33.25
32.82
31.91
30.1
27.23
23.4
18.97
14.32
9.74
5.24
0.67
-4.26
-9.74
-15.79
-22.21
-28.69
-34.86
-40.44
-45.35
-49.77
-54.05
-58.72
-64.23
-70.85
-78.4
-86.13
-92.76
-96.64
-96.17
-90.24
-78.61
-62.01
-41.98
-20.41
0.9
20.52
37.54
51.41
61.84
68.67
71.97
72.03
69.53
65.33
60.36
55.39
50.89
47.02
43.77
41.11
39.05
37.65
36.89
36.62
36.53
36.17
35.11
33.09
30.03
26.08
21.51
16.71
11.98
7.5
3.31
-0.78
-5.06
-9.79
-15.13
-20.98
-27
-32.76
-37.89
-42.24
-45.93
-49.35
-53
-57.44
-63.07
-70.04
-77.98
-85.98
-92.52
-95.85
-94.4
-87.28
-74.53
-57.15
-36.82
-15.4
5.43
24.42
40.78
53.99
63.78
70.03
72.87
72.67
70.08
65.92
61.03
56.14
51.73
48.02
45.02
42.65
40.79
39.41
38.44
37.81
37.34
36.71
35.55
33.55
30.53
26.57
21.95
17.04
12.16
7.48
2.97
-1.5
-6.14
-11.06
-16.28
-21.68
-27.08
-32.25
-36.94
-41.09
-44.79
-48.35
-52.28
-57.08
-63.06
-70.05
-77.36
-83.76
-87.71
-87.72
-82.68
-72.24
-56.9
-37.94
-17.13
3.7
22.97
39.56
52.86
62.6
68.76
71.49
71.1
68.13
63.36
57.72
52.13
47.32
43.66
41.19
39.68
38.79
38.16
37.55
36.79
35.78
34.47
32.8
30.69
28.11
25.05
21.51
17.51
13.02
8.05
2.67
-3.05
-8.92
-14.77
-20.46
-25.97
-31.42
-37.02
-43
-49.44
-56.09
-62.3
-67.02
-68.97
-66.95
-60.23
-48.81
-33.51
-15.79
2.63
20.18
35.63
48.23
57.56
63.4
65.73
64.66
60.62
54.34
46.83
39.16
32.21
26.57
22.41
19.64
17.94
16.93
16.21
15.35
13.97
11.75
8.52
4.34
-0.53
-5.68
-10.7
-15.35
-19.64
-23.77
-28.07
-32.82
-38.08
-43.71
-49.38
-54.77
-59.68
-64.19
-68.64
-73.49
-79.13
-85.61
-92.43
-98.49
-102.21
-101.88
-96.17
-84.47
-67.19
-45.69
-21.9
2.16
24.78
44.79
61.54
74.72
84.15
89.78
91.76
90.56
86.99
82.03
76.57
71.19
66.09
61.23
56.59
52.32
48.69
45.94
44.08
42.71
41.22
38.97
35.62
31.19
26.06
20.72
15.55
10.7
6.03
1.26
-3.88
-9.53
-15.58
-21.68
-27.41
-32.42
-36.58
-40.08
-43.39
-47.14
-51.87
-57.72
-64.3
-70.53
-74.81
-75.38
-70.89
-60.92
-46.26
-28.8
-10.95
5.01
17.59
26.35
31.74
34.58
35.63
35.39
34.08
31.92
29.22
26.39
23.79
21.56
19.68
17.97
16.36
14.94
13.97
13.71
14.22
15.33
16.59
17.47
17.56
16.66
14.83
12.34
9.49
6.49
3.37
0.04
-3.68
-7.86
-12.47
-17.33
-22.24
-27.02
-31.64
-36.19
-40.94
-46.21
-52.33
-59.35
-66.9
-74.06
-79.39
-81.33
-78.53
-70.33
-57.07
-39.89
-20.57
-0.91
17.58
33.87
47.41
57.91
65.23
69.29
70.23
68.42
64.55
59.44
53.89
48.46
43.45
38.98
35.1
31.91
29.46
27.73
26.48
25.33
23.82
21.66
18.75
15.21
11.27
7.09
2.76
-1.77
-6.57
-11.69
-17.09
-22.64
-28.19
-33.56
-38.67
-43.55
-48.31
-53.2
-58.49
-64.36
-70.78
-77.33
-83.13
-86.95
-87.44
-83.52
-74.68
-61.23
-44.24
-25.26
-5.98
12.11
27.93
40.83
50.52
56.89
60.01
60.13
57.76
53.68
48.89
44.36
40.77
38.42
37.09
36.32
35.6
34.59
33.24
31.67
30.05
28.42
26.63
24.43
21.52
17.76
13.16
7.92
2.36
-3.22
-8.59
-13.68
-18.58
-23.46
-28.56
-34.11
-40.29
-47.15
-54.41
-61.41
-67.02
-69.87
-68.69
-62.75
-52.17
-37.93
-21.55
-4.65
11.41
25.75
37.84
47.34
53.9
57.29
57.49
54.91
50.35
44.92
39.67
35.31
32.09
29.85
28.22
26.82
25.43
24.01
22.57
21.08
19.43
17.45
14.96
11.87
8.21
4.06
-0.49
-5.36
-10.51
-15.85
-21.26
-26.57
-31.65
-36.51
-41.33
-46.45
-52.26
-58.99
-66.55
-74.27
-81.01
-85.25
-85.53
-80.82
-70.87
-56.33
-38.48
-18.97
0.64
19.13
35.62
49.56
60.56
68.34
72.82
74.14
72.73
69.27
64.5
59.16
53.82
48.85
44.45
40.71
37.65
35.24
33.42
32.05
30.87
29.56
27.71
25.07
21.56
17.35
12.77
8.12
3.57
-0.94
-5.6
-10.6
-15.95
-21.53
-27.15
-32.65
-38.04
-43.43
-48.99
-54.9
-61.27
-68.1
-75.14
-81.76
-86.89
-89.1
-87
-79.66
-66.97
-49.75
-29.49
-7.96
13.28
33.06
50.65
65.56
77.38
85.69
90.25
91.08
88.65
83.8
77.6
71.06
64.94
59.61
55.15
51.37
48.05
44.95
41.96
39.01
36.06
33.08
30.05
26.96
23.73
20.32
16.65
12.65
8.31
3.69
-1.06
-5.8
-10.38
-14.78
-19.09
-23.43
-27.94
-32.65
-37.44
-42.14
-46.51
-50.44
-53.94
-57.15
-60.33
-63.75
-67.71
-72.37
-77.67
-83.16
-87.92
-90.69
-90.06
-84.99
-75.11
-60.92
-43.62
-24.78
-5.87
11.93
27.86
41.41
52.24
60.02
64.62
66.17
65.15
62.31
58.48
54.37
50.42
46.78
43.44
40.37
37.55
35.07
33.04
31.45
30.18
28.98
27.47
25.33
22.4
18.69
14.5
10.16
6.01
2.18
-1.46
-5.16
-9.19
-13.67
-18.53
-23.51
-28.34
-32.79
-36.77
-40.34
-43.72
-47.23
-51.23
-56.03
-61.72
-68.06
-74.36
-79.53
-82.26
-81.38
-76.17
-66.53
-53.12
-37.07
-19.83
-2.81
12.77
26.01
36.31
43.35
47.15
48.01
46.53
43.44
39.57
35.69
32.36
29.91
28.4
27.66
27.41
27.33
27.18
26.79
26.12
25.11
23.7
21.86
19.52
16.68
13.4
9.72
5.67
1.32
-3.3
-8.09
-12.92
-17.75
-22.58
-27.51
-32.66
-38.18
-44.12
-50.44
-56.92
-63.06
-68.09
-70.97
-70.59
-66.15
-57.33
-44.57
-28.91
-11.73
5.54
21.66
35.71
47.03
55.19
59.97
61.44
59.99
56.28
51.17
45.48
39.92
34.95
30.75
27.36
24.68
22.62
20.99
19.62
18.25
16.61
14.46
11.73
8.48
4.98
1.54
-1.6
-4.38
-6.99
-9.79
-13.21
-17.53
-22.76
-28.63
-34.63
-40.26
-45.14
-49.28
-53.01
-56.93
-61.63
-67.45
-74.21
-81.1
-86.8
-89.71
-88.43
-82.12
-70.72
-55.02
-36.37
-16.35
3.61
22.37
39.11
53.26
64.36
72.11
76.46
77.65
76.28
73.14
69.06
64.69
60.42
56.42
52.76
49.5
46.77
44.67
43.21
42.2
41.28
40
37.98
34.95
30.93
26.15
20.98
15.81
10.92
6.39
2.07
-2.31
-7.02
-12.22
-17.93
-23.9
-29.83
-35.37
-40.33
-44.74
-48.91
-53.4
-58.81
-65.49
-73.33
-81.52
-88.7
-93.18
-93.39
-88.26
-77.49
-61.64
-41.98
-20.2
1.9
22.74
41.17
56.52
68.5
77.05
82.24
84.23
83.36
80.14
75.36
69.9
64.54
59.78
55.78
52.44
49.62
47.16
45.05
43.27
41.76
40.32
38.63
36.39
33.39
29.61
25.22
20.51
15.74
11.12
6.66
2.28
-2.19
-6.92
-11.96
-17.3
-22.79
-28.25
-33.54
-38.6
-43.46
-48.25
-53.2
-58.63
-64.84
-72.01
-79.91
-87.8
-94.36
-97.95
-97.07
-90.83
-79.24
-63.19
-44.15
-23.79
-3.57
15.37
32.14
46.04
56.52
63.21
66.11
65.62
62.52
57.81
52.41
47.09
42.29
38.22
34.9
32.31
30.44
29.23
28.57
28.23
27.88
27.16
25.83
23.81
21.23
18.34
15.38
12.42
9.36
5.94
1.89
-2.91
-8.39
-14.24
-20.04
-25.44
-30.3
-34.69
-38.91
-43.36
-48.4
-54.22
-60.7
-67.33
-73.18
-77.05
-77.66
-73.96
-65.45
-52.38
-35.7
-16.9
2.43
20.84
37.2
50.79
61.11
67.81
70.77
70.14
66.48
60.76
54.21
48.04
43.08
39.67
37.63
36.51
35.71
34.76
33.38
31.45
28.99
26.09
22.77
19.01
14.7
9.77
4.25
-1.71
-7.8
-13.74
-19.34
-24.64
-29.87
-35.35
-41.37
-48.05
-55.3
-62.81
-69.99
-75.95
-79.57
-79.67
-75.26
-65.96
-52.13
-34.91
-15.96
2.95
20.29
34.99
46.51
54.64
59.45
61.12
59.97
56.56
51.61
45.94
40.35
35.44
31.55
28.72
26.74
25.29
24
22.59
20.91
18.84
16.31
13.24
9.57
5.32
0.65
-4.17
-8.85
-13.26
-17.45
-21.6
-25.92
-30.4
-34.84
-39.03
-42.94
-46.95
-51.69
-57.76
-65.25
-73.43
-80.77
-85.35
-85.38
-79.83
-68.68
-52.85
-33.88
-13.5
6.67
25.38
41.74
55.13
65.17
71.68
74.68
74.44
71.58
66.89
61.26
55.49
50.13
45.5
41.7
38.74
36.61
35.2
34.35
33.82
33.31
32.6
31.53
30.07
28.17
25.83
22.99
19.59
15.64
11.22
6.41
1.36
-3.84
-9.13
-14.45
-19.82
-25.35
-31.21
-37.69
-45.06
-53.48
-62.82
-72.58
-81.72
-88.91
-92.67
-91.82
-85.87
-75.08
-60.5
-43.62
-26.02
-9.06
6.3
19.44
29.98
37.71
42.55
44.6
44.25
42.11
38.94
35.45
32.22
29.56
27.54
26.13
25.25
24.82
24.77
24.95
25.08
24.82
23.85
21.99
19.27
15.82
11.89
7.62
3.09
-1.7
-6.77
-12.03
-17.36
-22.56
-27.51
-32.19
-36.71
-41.28
-46.16
-51.57
-57.61
-64.18
-70.8
-76.58
-80.31
-80.69
-76.7
-67.94
-54.8
-38.35
-20.05
-1.4
16.28
32.02
45.12
55.1
61.68
64.86
64.92
62.42
58.14
52.93
47.57
42.69
38.65
35.59
33.36
31.7
30.28
28.87
27.39
25.87
24.41
22.99
21.46
19.5
16.73
12.97
8.23
2.83
-2.78
-8.17
-13.13
-17.68
-22.05
-26.56
-31.5
-37.07
-43.3
-50.03
-56.88
-63.13
-67.78
-69.65
-67.68
-61.31
-50.66
-36.53
-20.29
-3.4
12.76
27.13
38.91
47.51
52.6
54.07
52.24
47.91
42.2
36.27
31.06
26.96
23.92
21.56
19.53
17.64
15.92
14.45
13.19
11.91
10.16
7.5
3.69
-1.25
-6.98
-13.03
-18.99
-24.59
-29.81
-34.85
-40.07
-45.84
-52.43
-59.83
-67.63
-74.9
-80.4
-82.69
-80.59
-73.49
-61.56
-45.68
-27.29
-7.98
10.77
27.77
42.15
53.31
60.92
64.86
65.36
62.91
58.35
52.62
46.64
41.11
36.42
32.63
29.58
27.03
24.77
22.69
20.7
18.68
16.44
13.66
10.05
5.39
-0.3
-6.75
-13.56
-20.29
-26.67
-32.7
-38.58
-44.7
-51.47
-59.2
-67.89
-77.13
-85.98
-93.03
-96.64
-95.37
-88.44
-75.94
-58.89
-38.86
-17.63
3.22
22.48
39.33
53.21
63.74
70.73
74.19
74.41
71.99
67.77
62.63
57.41
52.68
48.68
45.32
42.34
39.46
36.56
33.69
30.99
28.55
26.3
23.99
21.3
17.96
13.82
8.84
3.11
-3.24
-10
-16.96
-23.86
-30.53
-36.94
-43.24
-49.7
-56.61
-64.12
-72.16
-80.3
-87.66
-93.02
-94.98
-92.31
-84.29
-70.99
-53.28
-32.58
-10.52
11.36
31.8
49.79
64.53
75.42
82.09
84.61
83.47
79.55
73.86
67.36
60.76
54.49
48.75
43.68
39.4
36.02
33.52
31.69
30.14
28.34
25.88
22.56
18.47
13.87
9.08
4.26
-0.62
-5.77
-11.41
-17.67
-24.43
-31.41
-38.15
-44.31
-49.71
-54.43
-58.76
-63.08
-67.76
-73.01
-78.79
-84.69
-89.85
-93
-92.6
-87.29
-76.34
-59.93
-39.23
-16.07
7.58
30.08
50.32
67.63
81.58
91.76
97.82
99.64
97.54
92.35
85.3
77.68
70.58
64.65
60.08
56.67
54.04
51.75
49.49
47.06
44.41
41.55
38.53
35.37
32.05
28.54
24.79
20.75
16.33
11.5
6.23
0.53
-5.51
-11.81
-18.29
-24.95
-31.88
-39.21
-46.99
-55.05
-62.8
-69.18
-72.85
-72.47
-67.11
-56.62
-41.69
-23.7
-4.3
14.96
32.9
48.68
61.67
71.37
77.4
79.63
78.3
74.09
67.97
61.02
54.14
47.9
42.56
38.12
34.52
31.64
29.38
27.56
25.91
24.09
21.72
18.58
14.59
9.92
4.84
-0.37
-5.59
-10.85
-16.29
-21.96
-27.8
-33.58
-39.03
-43.98
-48.48
-52.82
-57.41
-62.72
-69.08
-76.53
-84.69
-92.63
-98.95
-101.97
-100.15
-92.53
-79.05
-60.6
-38.78
-15.51
7.41
28.62
47.17
62.56
74.47
82.77
87.44
88.67
86.87
82.72
77.05
70.7
64.36
58.48
53.25
48.71
44.85
41.62
39.01
36.95
35.27
33.68
31.82
29.35
26.03
21.76
16.59
10.72
4.47
-1.79
-7.74
-13.21
-18.19
-22.9
-27.66
-32.79
-38.45
-44.56
-50.8
-56.72
-61.89
-66.07
-69.34
-72.07
-74.84
-78.3
-82.93
-88.77
-95.33
-101.47
-105.6
-106.04
-101.39
-91.01
-75.18
-55.02
-32.24
-8.64
14.15
34.89
52.74
67.13
77.68
84.27
87.02
86.41
83.18
78.28
72.62
66.91
61.62
56.95
52.94
49.59
46.86
44.74
43.14
41.91
40.77
39.37
37.37
34.49
30.66
26
20.78
15.38
10.08
5.05
0.25
-4.47
-9.31
-14.4
-19.75
-25.27
-30.77
-36.04
-40.95
-45.45
-49.68
-53.89
-58.38
-63.5
-69.44
-76.14
-83.13
-89.46
-93.79
-94.65
-90.77
-81.52
-67.12
-48.63
-27.68
-6.1
14.45
32.69
47.77
59.21
66.8
70.6
70.94
68.37
63.68
57.71
51.32
45.22
39.94
35.8
32.83
30.9
29.7
28.92
28.25
27.51
26.52
25.16
23.25
20.62
17.12
12.76
7.67
2.1
-3.65
-9.35
-14.93
-20.39
-25.85
-31.47
-37.42
-43.85
-50.89
-58.53
-66.47
-74.02
-80.13
-83.49
-82.88
-77.5
-67.23
-52.71
-35.2
-16.33
2.28
19.2
33.4
44.24
51.31
54.52
54
50.22
43.97
36.31
28.37
21.11
15.16
10.72
7.63
5.52
3.98
2.67
1.37
0
-1.44
-2.96
-4.57
-6.36
-8.5
-11.14
-14.4
-18.28
-22.63
-27.22
-31.78
-36.04
-39.87
-43.25
-46.33
-49.44
-52.99
-57.42
-62.99
-69.6
-76.67
-83.04
-87.17
-87.47
-82.68
-72.24
-56.45
-36.44
-13.92
9.24
31.26
50.76
66.79
78.92
87.06
91.47
92.56
90.87
86.96
81.45
74.99
68.25
61.83
56.2
51.58
47.98
45.2
42.95
40.93
38.88
36.63
34.05
31.09
27.72
23.92
19.72
15.17
10.33
5.27
0.03
-5.39
-11.09
-17.09
-23.35
-29.71
-35.93
-41.86
-47.57
-53.42
-59.86
-67.25
-75.41
-83.46
-89.91
-92.96
-91.06
-83.38
-70.04
-52.09
-31.12
-8.95
12.79
32.79
50.11
64.12
74.5
81.2
84.43
84.67
82.55
78.77
73.99
68.76
63.5
58.54
54.1
50.35
47.34
45.01
43.21
41.62
39.85
37.52
34.32
30.11
24.92
18.97
12.5
5.7
-1.37
-8.81
-16.79
-25.38
-34.5
-43.81
-52.86
-61.19
-68.52
-74.79
-80.27
-85.45
-90.9
-97.08
-103.99
-110.95
-116.54
-118.87
-116.07
-106.99
-91.62
-71.15
-47.64
-23.33
-0.09
20.84
38.85
53.64
64.96
72.54
76.22
76.14
72.87
67.39
60.83
54.23
48.29
43.36
39.42
36.31
33.85
31.83
30.06
28.35
26.44
24.11
21.18
17.59
13.37
8.68
3.72
-1.33
-6.3
-11.18
-15.98
-20.79
-25.6
-30.35
-34.9
-39.14
-43.18
-47.32
-51.94
-57.24
-62.93
-68.15
-71.51
-71.55
-67.14
-57.86
-44.15
-27.12
-8.23
11.04
29.37
45.65
58.95
68.54
73.95
75.14
72.58
67.2
60.18
52.66
45.52
39.25
33.97
29.59
25.91
22.73
19.85
17.1
14.31
11.28
7.82
3.79
-0.91
-6.28
-12.2
-18.48
-24.88
-31.25
-37.57
-43.92
-50.49
-57.4
-64.68
-72.24
-79.77
-86.74
-92.29
-95.26
-94.37
-88.52
-77.18
-60.58
-39.68
-15.91
9.16
34.08
57.58
78.45
95.53
107.85
114.78
116.29
112.99
105.97
96.49
85.67
74.38
63.16
52.43
42.53
33.69
26.05
19.55
14.01
9.15
4.71
0.49
-3.54
-7.35
-10.94
-14.41
-17.91
-21.6
-25.59
-29.92
-34.55
-39.14
-43.37
-47.09
-50.54
-54.14
-58.37
-63.69
-70.45
-78.74
-87.71
-95.9
-101.69
-103.64
-100.76
-92.67
-79.82
-63.46
-45.31
-26.28
-6.95
12.06
29.7
44.87
56.86
65.42
70.97
74.36
77.82
83.49
92.54
104.72
119.13
