1626356719.00
64.000000
-0.00
-0.00
-0.00
-0.00
-0.00
-0.00
-0.00
-0.00
-0.00
-0.00
0.00
0.01
0.01
-0.00
-0.03
-0.05
-0.05
0.00
0.13
0.36
0.66
1.01
1.37
1.72
2.06
2.40
2.79
3.24
3.80
4.42
5.06
5.66
6.20
6.68
7.15
7.68
8.31
9.14
10.09
11.04
11.88
12.56
13.14
13.76
14.65
15.96
17.91
20.32
22.90
25.38
27.58
29.57
31.68
34.32
37.81
42.54
48.15
54.10
59.83
64.97
69.58
74.14
79.34
85.71
93.76
103.00
112.62
121.73
129.77
136.75
143.30
150.75
157.77
166.64
177.95
191.79
206.97
220.57
228.25
225.36
208.53
176.87
132.76
80.05
23.07
-34.94
-92.44
-149.16
-205.23
-260.37
-313.74
-363.87
-409.83
-450.91
-486.50
-515.74
-537.23
-549.22
-549.96
-538.37
-514.21
-478.67
-433.88
-382.45
-327.02
-269.84
-212.63
-156.66
-102.95
-52.37
-5.90
35.58
71.43
101.35
125.50
144.38
158.69
169.15
176.37
180.75
182.57
182.07
179.51
175.23
169.65
163.18
156.15
148.81
141.30
133.69
126.02
118.33
110.69
103.16
95.80
88.68
81.83
75.25
68.95
62.95
57.25
51.86
46.78
42.03
37.59
33.45
29.61
26.07
22.81
19.83
17.11
14.67
12.48
10.54
8.83
7.35
6.07
4.97
4.05
3.27
2.62
2.09
1.65
1.30
1.01
0.79
0.61
0.47
0.37
0.29
0.23
0.19
0.16
0.15
0.15
0.16
0.17
0.20
0.22
0.26
0.30
0.34
0.38
0.42
0.47
0.52
0.57
0.62
0.68
0.73
0.79
0.86
0.93
1.01
1.10
1.20
1.31
1.44
1.58
1.74
1.91
2.11
2.33
2.57
2.83
3.12
3.45
3.80
4.19
4.61
5.07
5.56
6.09
6.66
7.28
7.93
8.63
9.38
10.17
11.00
11.88
12.80
13.78
14.82
15.91
17.07
18.30
19.55
20.83
22.07
23.19
24.12
24.72
24.89
24.49
23.46
21.70
19.23
16.08
12.31
8.09
3.60
-0.95
-5.32
-9.31
-12.77
-15.59
-17.71
-19.12
-19.87
-19.99
-19.57
-18.70
-17.45
-15.95
-14.32
-12.66
-11.05
-9.48
-7.98
-6.52
-5.03
-3.48
-1.87
-0.27
1.29
2.77
4.24
5.68
7.21
8.92
10.91
13.09
15.31
17.37
19.14
20.74
22.14
23.59
25.39
27.67
30.34
33.02
35.26
36.80
37.77
38.22
38.61
39.52
41.24
43.54
45.77
47.10
46.93
45.31
42.27
38.36
34.25
30.14
25.50
19.04
8.80
-7.82
-28.90
-54.26
-83.27
-114.24
-144.04
-168.56
-183.70
-186.92
-178.26
-160.39
-138.19
-116.20
-97.21
-81.88
-69.42
-58.74
-49.41
-41.65
-35.80
-32.18
-30.16
-28.57
-26.44
-23.57
-20.63
-18.89
-19.47
-22.91
-29.12
-37.02
-44.84
-50.57
-52.45
-49.38
-41.15
-28.41
-12.43
5.15
22.89
39.65
54.58
66.90
75.80
80.62
81.11
77.73
71.59
64.23
57.02
50.74
45.43
40.52
35.35
29.57
23.33
17.16
11.62
6.95
2.88
-1.27
-6.34
-13.05
-21.66
-31.84
-42.53
-52.12
-58.76
-60.79
-57.24
-48.10
-34.37
-17.67
0.21
17.71
33.62
47.10
57.45
64.13
66.87
65.86
61.88
56.12
49.84
44.00
38.94
34.49
30.19
25.62
20.70
15.61
10.75
6.34
2.39
-1.48
-5.86
-11.44
-18.74
-27.94
-38.65
-49.75
-59.52
-65.95
-67.26
-62.49
-51.84
-36.62
-18.77
-0.28
17.32
33.13
46.73
57.83
66.12
71.24
72.99
71.58
67.67
62.30
56.57
51.35
47.04
43.44
40.00
36.04
31.13
25.17
18.53
11.77
5.38
-0.43
-5.89
-11.49
-17.85
-25.50
-34.69
-45.31
-56.62
-67.26
-75.34
-78.85
-76.27
-67.11
-52.15
-33.28
-12.84
7.01
24.73
39.58
51.26
59.70
64.87
66.85
66.00
62.94
58.58
53.75
49.07
44.76
40.73
36.68
32.33
27.50
22.20
16.62
11.05
5.75
0.88
-3.58
-7.87
-12.33
-17.38
-23.39
-30.65
-39.27
-49.02
-59.18
-68.44
-75.05
-77.30
-73.94
-64.70
-50.40
-32.71
-13.64
4.97
21.76
35.90
46.93
54.63
58.92
59.97
58.25
54.55
49.77
44.78
40.17
36.12
32.53
29.07
25.42
21.38
16.90
12.07
7.08
2.16
-2.54
-6.95
-11.17
-15.47
-20.23
-25.90
-32.88
-41.35
-51.10
-61.31
-70.58
-77.08
-79.04
-75.25
-65.54
-50.79
-32.71
-13.31
5.65
22.84
37.44
48.87
56.75
60.80
61.10
58.19
53.10
47.07
41.17
36.07
31.84
28.14
24.48
20.51
16.15
11.56
7.08
2.94
-0.76
-4.13
-7.44
-11.03
-15.20
-20.25
-26.46
-34.01
-42.87
-52.50
-61.81
-69.10
-72.57
-70.80
-63.33
-50.87
-35.00
-17.73
-0.75
14.80
28.41
39.89
49.02
55.50
58.95
59.27
56.77
52.24
46.71
41.19
36.40
32.53
29.38
26.45
23.30
19.62
15.43
10.96
6.46
2.08
-2.24
-6.72
-11.61
-17.09
-23.30
-30.37
-38.41
-47.46
-57.09
-66.28
-73.36
-76.42
-73.93
-65.36
-51.43
-33.91
-15.01
3.27
19.54
33.11
43.77
51.50
56.35
58.35
57.73
54.89
50.48
45.25
39.94
35.11
30.99
27.53
24.40
21.18
17.53
13.35
8.77
4.11
-0.33
-4.44
-8.29
-12.20
-16.58
-21.80
-28.18
-35.89
-44.87
-54.64
-64.16
-71.82
-75.73
-74.29
-66.76
-53.67
-36.63
-17.94
0.22
16.25
29.41
39.62
47.08
51.98
54.40
54.45
52.36
48.66
44.04
39.26
34.86
31.13
27.98
25.09
22.06
18.57
14.55
10.10
5.53
1.14
-2.91
-6.60
-10.17
-13.88
-18.10
-23.12
-29.16
-36.34
-44.52
-53.17
-61.23
-67.20
-69.47
-66.79
-58.75
-46.03
-30.20
-13.31
2.72
16.52
27.36
35.03
39.60
41.24
40.22
37.04
32.46
27.43
22.86
19.37
17.08
15.62
14.31
12.53
9.87
6.38
2.42
-1.53
-5.10
-8.24
-11.16
-14.36
-18.32
-23.48
-30.07
-38.07
-47.11
-56.38
-64.66
-70.42
-72.19
-68.94
-60.42
-47.28
-30.94
-13.24
4.05
19.44
31.95
41.04
46.55
48.65
47.82
44.80
40.49
35.84
31.56
28.00
25.11
22.56
19.90
16.79
13.08
8.80
4.09
-0.86
-5.88
-10.92
-15.98
-21.30
-27.23
-34.20
-42.53
-52.02
-61.89
-70.64
-76.41
-77.53
-73.06
-63.18
-49.04
-32.44
-15.20
1.19
15.74
27.78
36.79
42.41
44.50
43.38
39.87
35.15
30.38
26.34
23.19
20.60
17.98
14.74
10.62
5.69
0.33
-4.93
-9.68
-13.70
-17.18
-20.63
-24.76
-30.32
-37.68
-46.68
-56.37
-65.16
-71.08
-72.44
-68.23
-58.55
-44.51
-27.81
-10.32
6.48
21.50
34.04
43.62
49.89
52.72
52.37
49.54
45.28
40.65
36.44
32.95
29.95
26.99
23.56
19.44
14.74
9.81
5.06
0.70
-3.33
-7.36
-11.93
-17.55
-24.70
-33.52
-43.74
-54.43
-64.05
-70.66
-72.51
-68.54
-58.85
-44.63
-27.68
-9.93
7.13
22.45
35.40
45.46
52.19
55.35
55.06
52.00
47.26
42.11
37.52
33.91
31.08
28.39
25.19
21.11
16.28
11.22
6.56
2.67
-0.56
-3.71
-7.63
-13.12
-20.65
-30.14
-40.92
-51.73
-60.92
-66.79
-67.91
-63.56
-53.88
-39.85
-23.01
-5.14
12.09
27.35
39.69
48.57
53.79
55.49
54.14
50.51
45.55
40.16
35.01
30.39
26.19
22.08
17.68
12.86
7.73
2.68
-1.90
-5.74
-8.94
-11.97
-15.60
-20.68
-27.81
-37.07
-47.70
-58.14
-66.27
-69.96
-67.76
-59.31
-45.49
-28.12
-9.44
8.53
24.26
36.89
46.01
51.52
53.53
52.40
48.84
43.80
38.31
33.18
28.82
25.15
21.75
18.17
14.11
9.63
4.98
0.48
-3.70
-7.68
-11.86
-16.87
-23.28
-31.50
-41.37
-52.04
-61.89
-68.87
-71.04
-67.13
-57.11
-42.07
-23.98
-4.98
13.07
28.88
41.73
51.17
57.07
59.40
58.57
55.36
50.78
45.84
41.15
36.87
32.73
28.37
23.63
18.72
14.08
10.15
7.02
4.31
1.29
-2.90
-8.94
-17.16
-27.34
-38.75
-50.07
-59.52
-65.23
-65.60
-59.91
-48.50
-32.78
-14.78
3.40
20.03
34.00
44.74
52.05
55.94
56.66
54.72
50.85
45.96
40.83
35.97
31.52
27.28
22.95
18.32
13.39
8.39
3.66
-0.56
-4.29
-7.85
-11.86
-17.05
-24.08
-33.18
-43.90
-54.98
-64.49
-70.24
-70.44
-64.31
-52.30
-35.99
-17.50
1.12
18.33
33.26
45.47
54.65
60.45
62.64
61.29
57.04
51.03
44.63
38.94
34.43
30.89
27.55
23.69
18.91
13.38
7.69
2.55
-1.69
-5.20
-8.59
-12.81
-18.66
-26.63
-36.60
-47.79
-58.79
-67.72
-72.70
-72.17
-65.48
-53.02
-36.17
-16.88
2.79
21.14
36.96
49.50
58.33
63.25
64.41
62.31
57.87
52.28
46.62
41.65
37.54
34.02
30.51
26.49
21.78
16.57
11.35
6.59
2.54
-0.95
-4.33
-8.28
-13.44
-20.28
-29.04
-39.52
-51.00
-62.07
-70.84
-75.27
-73.81
-65.93
-52.40
-35.06
-16.17
2.22
18.76
32.73
43.87
51.95
56.65
57.83
55.73
51.20
45.50
39.96
35.47
32.24
29.88
27.62
24.79
21.08
16.60
11.79
7.08
2.74
-1.30
-5.35
-9.95
-15.58
-22.67
-31.35
-41.34
-51.77
-61.19
-67.80
-69.87
-66.31
-57.03
-43.04
-26.11
-8.23
8.89
24.13
36.81
46.61
53.26
56.57
56.57
53.65
48.68
42.85
37.34
33.00
30.08
28.22
26.60
24.45
21.27
17.09
12.37
7.68
3.42
-0.39
-4.16
-8.59
-14.44
-22.29
-32.25
-43.91
-56.09
-67.04
-74.63
-76.97
-72.97
-62.69
-47.43
-29.30
-10.55
7.00
22.26
34.74
44.33
50.91
54.37
54.67
52.16
47.62
42.13
36.81
32.44
29.25
26.95
25.00
22.79
20.00
16.58
12.73
8.69
4.65
0.64
-3.49
-7.94
-12.95
-18.79
-25.74
-34.06
-43.73
-54.26
-64.42
-72.35
-75.96
-73.61
-64.73
-50.10
-31.69
-11.92
6.96
23.48
36.98
47.36
54.72
59.09
60.49
59.10
55.44
50.41
45.05
40.24
36.45
33.69
31.57
29.61
27.35
24.59
21.32
17.71
13.96
10.19
6.42
2.51
-1.77
-6.70
-12.52
-19.43
-27.61
-37.03
-47.35
-57.62
-66.30
-71.41
-71.17
-64.64
-52.18
-35.45
-16.91
0.97
16.48
28.84
38.10
44.64
48.66
50.18
49.15
45.78
40.67
34.75
29.06
24.29
20.73
18.14
16.03
13.88
11.37
8.39
5.06
1.60
-1.82
-5.12
-8.47
-12.15
-16.56
-22.06
-28.92
-37.14
-46.46
-56.16
-65.04
-71.58
-74.19
-71.64
-63.58
-50.63
-34.33
-16.66
0.47
15.70
28.21
37.67
43.91
46.90
46.75
43.89
39.11
33.45
27.97
23.38
19.96
17.45
15.28
12.84
9.70
5.82
1.49
-2.73
-6.39
-9.30
-11.74
-14.40
-18.15
-23.77
-31.61
-41.38
-52.07
-62.06
-69.51
-72.65
-70.42
-62.59
-49.96
-34.05
-16.71
0.36
15.78
28.65
38.37
44.57
47.17
46.40
42.96
37.89
32.31
27.16
22.84
19.26
15.92
12.33
8.27
3.89
-0.40
-4.15
-7.12
-9.50
-11.77
-14.66
-18.83
-24.80
-32.77
-42.45
-53.04
-63.08
-70.71
-74.05
-71.80
-63.63
-50.42
-33.92
-16.20
0.94
16.32
29.33
39.69
47.16
51.52
52.68
50.91
47.00
41.96
36.86
32.35
28.59
25.27
21.88
18.08
13.81
9.38
5.18
1.52
-1.63
-4.67
-8.22
-13.02
-19.57
-28.02
-37.90
-48.06
-56.79
-62.23
-62.84
-57.97
-48.03
-34.39
-18.81
-2.96
11.90
24.93
35.55
43.21
47.50
48.31
46.13
41.97
37.10
32.60
28.92
25.94
23.03
19.61
15.37
10.44
5.28
0.40
-3.84
-7.49
-10.93
-14.82
-19.84
-26.53
-34.97
-44.65
-54.46
-62.73
-67.67
-67.78
-62.35
-51.68
-36.97
-20.00
-2.64
13.54
27.45
38.40
46.03
50.17
50.96
48.87
44.71
39.55
34.39
29.93
26.40
23.60
21.07
18.30
15.02
11.20
7.09
3.00
-0.82
-4.37
-8.01
-12.32
-18.03
-25.65
-35.24
-46.05
-56.52
-64.50
-67.85
-65.14
-56.13
-41.91
-24.48
-6.12
11.37
26.84
39.76
49.87
56.85
60.41
60.43
57.38
52.26
46.44
41.19
37.16
34.30
31.88
29.07
25.28
20.50
15.25
10.23
6.00
2.55
-0.62
-4.43
-9.75
-17.17
-26.74
-37.92
-49.55
-60.02
-67.45
-70.15
-67.01
-57.97
-44.03
-27.03
-9.11
7.88
22.69
34.62
43.39
48.80
50.82
49.67
46.01
40.89
35.56
30.98
27.61
25.30
23.47
21.41
18.69
15.19
11.13
6.88
2.81
-0.93
-4.37
-7.84
-11.85
-17.03
-23.97
-32.85
-43.11
-53.38
-61.59
-65.59
-63.88
-56.13
-43.29
-27.25
-10.14
6.27
20.83
32.98
42.44
48.96
52.34
52.57
50.05
45.65
40.51
35.70
31.90
29.14
26.92
24.52
21.33
17.14
12.26
7.27
2.76
-1.02
-4.32
-7.79
-12.25
-18.45
-26.78
-37.16
-48.90
-60.69
-70.68
-76.87
-77.50
-71.72
-59.85
-43.40
-24.60
-5.74
11.42
25.90
37.42
46.02
51.81
54.85
55.20
53.21
49.51
45.05
40.78
37.38
35.06
33.47
31.94
29.79
26.59
22.34
17.44
12.43
7.71
3.34
-0.98
-5.73
-11.33
-18.02
-25.86
-34.84
-44.82
-55.45
-65.90
-74.71
-80.00
-80.00
-73.66
-61.19
-44.06
-24.55
-5.01
12.68
27.48
39.04
47.46
52.98
55.91
56.59
55.51
53.26
50.40
47.44
44.65
42.13
39.79
37.50
35.14
32.57
29.68
26.30
22.29
17.55
12.06
6.00
-0.41
-6.91
-13.38
-19.87
-26.69
-34.24
-42.95
-52.96
-63.96
-74.97
-84.34
-90.08
-90.35
-84.11
-71.52
-54.00
-33.76
-13.22
5.61
21.50
33.96
43.02
48.96
52.14
52.92
51.74
49.13
45.73
42.16
38.93
36.31
34.29
32.57
30.70
28.27
25.04
20.99
16.39
11.55
6.74
2.00
-2.82
-8.01
-13.88
-20.71
-28.75
-38.11
-48.64
-59.77
-70.33
-78.62
-82.76
-81.25
-73.51
-60.20
-43.01
-24.18
-5.86
10.41
23.80
34.09
41.31
45.58
47.04
46.00
43.06
39.05
34.93
31.46
28.99
27.38
26.12
24.57
22.20
18.76
14.32
9.20
3.79
-1.58
-6.71
-11.67
-16.70
-22.26
-28.82
-36.84
-46.41
-57.12
-67.87
-76.97
-82.47
-82.63
-76.56
-64.47
-47.71
-28.31
-8.42
10.18
26.36
39.47
49.17
55.21
57.56
56.47
52.74
47.61
42.42
38.20
35.30
33.34
31.46
28.80
24.88
19.81
14.22
8.85
4.23
0.44
-2.93
-6.64
-11.43
-17.94
-26.45
-36.90
-48.77
-60.94
-71.72
-79.07
-81.04
-76.47
-65.43
-49.31
-30.36
-11.00
6.96
22.55
35.53
45.94
53.71
58.61
60.35
59.10
55.53
50.79
46.08
42.25
39.41
37.04
34.32
30.49
25.35
19.24
12.84
6.85
1.57
-3.11
-7.72
-12.89
-19.24
-27.11
-36.66
-47.67
-59.42
-70.62
-79.41
-83.84
-82.34
-74.42
-60.74
-43.07
-23.61
-4.38
13.17
28.30
40.65
50.04
56.28
59.26
59.12
56.44
52.15
47.30
42.74
38.87
35.56
32.33
28.63
24.13
18.85
13.13
7.44
2.14
-2.73
-7.44
-12.49
-18.43
-25.73
-34.71
-45.31
-57.02
-68.74
-78.78
-85.21
-86.35
-81.26
-70.09
-53.95
-34.48
-13.41
7.81
28.02
46.14
61.04
71.57
76.94
77.07
72.84
65.92
58.26
51.49
46.41
42.87
40.01
36.77
32.35
26.57
19.84
12.86
6.30
0.35
-5.25
-11.21
-18.29
-27.17
-38.11
-50.80
-64.30
-76.89
-86.23
-89.71
-85.21
-71.92
-51.02
-25.58
0.36
22.97
39.86
50.41
55.45
56.34
54.26
49.88
43.68
36.32
28.82
22.32
17.56
14.51
12.40
10.09
6.75
2.19
-3.09
-8.28
-12.62
-15.90
-18.57
-21.61
-26.24
-33.46
-43.63
-56.06
-69.01
-79.85
-85.86
-84.96
-76.42
-61.13
-41.14
-19.04
2.86
22.92
40.15
53.94
63.81
69.39
70.66
68.21
63.22
57.22
51.54
46.89
43.21
39.84
35.98
31.09
25.20
18.79
12.54
6.96
2.05
-2.65
-7.99
-14.87
-23.92
-35.22
-48.06
-60.94
-71.73
-78.09
-78.09
-70.87
-56.87
-37.81
-16.11
5.68
25.52
42.06
54.62
62.97
67.17
67.60
64.92
60.09
54.23
48.30
42.95
38.26
33.94
29.56
24.76
19.53
14.13
8.94
4.20
-0.17
-4.64
-9.94
-16.88
-26.02
-37.41
-50.42
-63.58
-74.79
-81.63
-82.14
-75.34
-61.64
-42.76
-21.14
0.75
20.98
38.39
52.42
62.77
69.18
71.55
70.11
65.67
59.49
52.98
47.14
42.34
38.24
34.14
29.47
24.07
18.30
12.72
7.82
3.59
-0.45
-5.21
-11.63
-20.41
-31.65
-44.62
-57.77
-68.89
-75.63
-76.16
-69.69
-56.80
-39.17
-19.09
1.25
20.15
36.55
49.80
59.44
65.05
66.45
64.00
58.73
52.19
45.96
41.10
37.77
35.31
32.64
28.86
23.71
17.61
11.35
5.73
1.03
-2.97
-6.98
-11.84
-18.32
-26.84
-37.32
-49.02
-60.50
-69.80
-74.77
-73.78
-66.15
-52.44
-34.29
-13.96
6.32
24.73
40.06
51.60
59.02
62.31
61.82
58.31
52.92
46.89
41.26
36.57
32.74
29.30
25.60
21.25
16.17
10.69
5.21
0.08
-4.67
-9.30
-14.28
-20.20
-27.55
-36.55
-46.90
-57.68
-67.23
-73.51
-74.60
-69.34
-57.83
-41.41
-22.28
-2.80
15.15
30.38
42.39
50.97
56.06
57.66
56.03
51.88
46.32
40.55
35.49
31.43
28.09
24.81
21.03
16.57
11.65
6.75
2.29
-1.63
-5.28
-9.25
-14.20
-20.77
-29.27
-39.45
-50.36
-60.27
-67.06
-68.75
-64.21
-53.53
-37.98
-19.53
-0.27
18.13
34.50
48.03
58.08
64.17
66.15
64.42
60.01
54.29
48.56
43.66
39.67
36.14
32.31
27.58
21.79
15.21
8.40
1.84
-4.19
-9.89
-15.72
-22.39
-30.61
-40.77
-52.70
-65.37
-76.98
-85.17
-87.80
-83.60
-72.70
-56.52
-37.30
-17.40
1.38
17.88
31.47
41.73
48.35
51.19
50.51
47.16
42.36
37.44
33.32
30.30
28.04
25.80
22.89
18.96
14.20
9.13
4.36
0.14
-3.71
-7.85
-13.11
-20.19
-29.40
-40.50
-52.67
-64.45
-74.03
-79.44
-79.08
-72.31
-59.67
-42.83
-24.05
-5.54
11.14
25.24
36.54
45.03
50.55
52.93
52.21
48.91
44.06
38.87
34.35
30.82
28.02
25.25
21.86
17.58
12.64
7.57
2.92
-1.12
-4.79
-8.68
-13.58
-20.14
-28.66
-38.90
-49.94
-60.30
-68.08
-71.53
-69.44
-61.69
-49.19
-33.68
-17.14
-1.31
12.60
23.93
32.32
37.59
39.71
38.91
35.85
31.53
27.02
23.11
20.11
17.77
15.56
12.93
9.63
5.75
1.62
-2.43
-6.27
-10.00
-14.01
-18.73
-24.59
-31.89
-40.71
-50.74
-61.11
-70.33
-76.50
-77.76
-72.90
-61.88
-45.93
-27.13
-7.76
10.33
25.96
38.60
47.96
53.83
56.11
55.02
51.33
46.22
41.05
36.75
33.64
31.30
28.92
25.80
21.66
16.81
11.89
7.50
3.91
0.80
-2.63
-7.46
-14.66
-24.74
-37.46
-51.62
-65.20
-75.70
-80.81
-79.04
-70.21
-55.50
-37.05
-17.27
1.73
18.46
32.08
42.11
48.32
50.72
49.68
46.08
41.11
36.02
31.64
28.20
25.25
22.07
18.01
12.89
7.12
1.45
-3.37
-7.02
-9.77
-12.45
-16.13
-21.72
-29.69
-39.83
-51.27
-62.48
-71.51
-76.39
-75.57
-68.42
-55.43
-38.17
-18.73
0.84
18.95
34.68
47.50
57.00
62.78
64.57
62.59
57.69
51.31
45.02
39.99
36.56
34.25
32.05
29.02
24.62
19.03
12.87
6.93
1.72
-2.73
-6.86
-11.39
-17.06
-24.43
-33.72
-44.73
-56.60
-67.82
-76.34
-80.06
-77.44
-68.04
-52.80
-33.69
-13.18
6.55
23.97
38.35
49.43
57.17
61.57
62.71
60.93
56.99
51.88
46.68
42.13
38.49
35.50
32.58
29.21
25.10
20.36
15.34
10.48
6.02
1.93
-2.14
-6.65
-12.14
-19.03
-27.60
-37.88
-49.37
-61.01
-71.03
-77.40
-78.28
-72.71
-61.02
-44.73
-26.16
-7.58
9.30
23.64
35.20
44.01
49.97
52.88
52.69
49.77
45.03
39.66
34.78
30.94
28.02
25.42
22.39
18.52
13.84
8.82
4.02
-0.20
-3.85
-7.35
-11.28
-16.31
-22.90
-31.28
-41.19
-51.88
-62.05
-69.99
-73.94
-72.53
-65.28
-52.73
-36.36
-18.14
-0.00
16.56
30.57
41.51
49.11
53.22
53.97
51.81
47.61
42.54
37.63
33.51
30.18
27.22
24.05
20.34
16.18
11.89
7.85
4.17
0.65
-3.19
-7.84
-13.78
-21.29
-30.48
-41.11
-52.38
-62.88
-70.66
-73.73
-70.71
-61.36
-46.72
-28.84
-10.03
7.75
23.25
35.95
45.69
52.41
56.03
56.61
54.55
50.68
46.11
41.84
38.41
35.75
33.26
30.21
26.08
20.85
14.93
9.04
3.74
-0.75
-4.77
-9.16
-14.90
-22.84
-33.16
-45.22
-57.46
-67.69
-73.75
-74.01
-67.99
-56.39
-40.91
-23.60
-6.44
9.12
22.18
32.24
39.11
42.72
43.31
41.39
37.86
33.75
29.98
27.02
24.79
22.77
20.28
16.90
12.65
7.95
3.45
-0.48
-3.82
-7.02
-10.75
-15.67
-22.19
-30.33
-39.67
-49.22
-57.56
-62.99
-64.01
-59.64
-49.98
-36.08
-19.72
-2.82
13.05
26.81
37.86
45.84
50.52
51.86
50.19
46.27
41.12
35.78
30.93
26.76
23.01
19.25
15.15
10.59
5.71
0.74
-4.07
-8.64
-13.02
-17.41
-22.25
-28.04
-35.22
-43.87
-53.42
-62.48
-69.08
-71.21
-67.49
-57.74
-43.08
-25.56
-7.46
9.27
23.42
34.40
42.03
46.29
47.20
45.05
40.52
34.68
28.72
23.59
19.62
16.50
13.51
9.95
5.53
0.49
-4.63
-9.25
-13.21
-16.78
-20.65
-25.61
-32.30
-40.94
-51.14
-61.84
-71.37
-77.79
-79.35
-75.00
-64.81
-49.95
-32.30
-13.97
3.20
17.97
29.57
37.67
42.16
43.29
41.59
37.93
33.34
28.69
24.48
20.70
17.04
13.14
8.85
4.33
-0.05
-3.97
-7.41
-10.65
-14.28
-19.00
-25.42
-33.90
-44.25
-55.66
-66.53
-74.79
-78.26
-75.47
-66.09
-51.19
-32.83
-13.46
4.80
20.54
33.07
42.18
47.92
50.47
50.19
47.74
44.05
40.00
36.20
32.80
29.55
26.01
21.89
17.21
12.25
7.43
3.01
-1.01
-4.98
-9.52
-15.35
-23.07
-32.82
-44.05
-55.38
-64.70
-69.76
-68.81
-61.25
-47.87
-30.57
-11.69
6.68
23.12
36.86
47.55
54.94
58.82
59.22
56.60
51.93
46.44
41.28
37.05
33.76
30.88
27.74
23.88
19.22
14.08
8.90
4.03
-0.46
-4.91
-9.93
-16.29
-24.65
-35.18
-47.29
-59.51
-69.65
-75.33
-74.80
-67.40
-53.89
-36.09
-16.24
3.64
22.08
38.21
51.40
61.09
66.88
68.64
66.83
62.48
56.98
51.58
46.99
43.26
39.82
36.01
31.33
25.79
19.85
14.13
9.17
5.04
1.43
-2.42
-7.33
-14.05
-22.98
-33.99
-46.28
-58.33
-68.08
-73.32
-72.36
-64.54
-50.56
-32.23
-11.94
8.07
26.12
41.29
53.13
61.38
65.88
66.60
63.90
58.63
52.01
45.34
39.52
34.87
31.07
27.46
23.41
18.58
13.11
7.43
2.05
-2.74
-6.97
-11.11
-15.85
-21.90
-29.81
-39.66
-50.95
-62.45
-72.31
-78.46
-79.09
-73.26
-61.16
-44.16
-24.30
-3.82
15.45
32.21
45.66
55.30
60.78
62.08
59.59
54.32
47.71
41.22
35.91
32.12
29.48
27.22
24.62
21.29
17.29
12.96
8.62
4.36
0.01
-4.87
-10.80
-18.22
-27.37
-38.05
-49.47
-60.20
-68.25
-71.60
-68.81
-59.52
-44.68
-26.22
-6.47
12.47
29.05
42.41
52.13
58.08
60.37
59.39
55.93
51.00
45.77
41.06
37.24
34.15
31.30
28.06
24.08
19.33
14.08
8.80
3.78
-0.98
-5.84
-11.39
-18.31
-27.04
-37.58
-49.26
-60.68
-69.90
-74.86
-73.95
-66.61
-53.51
-36.36
-17.30
1.65
19.12
34.30
46.69
55.88
61.40
63.00
60.96
56.20
50.11
44.10
39.07
35.21
32.01
28.67
24.59
19.58
14.03
8.55
3.70
-0.38
-4.00
-7.88
-12.88
-19.64
-28.46
-39.03
-50.37
-60.86
-68.55
-71.60
-68.76
-59.86
-45.86
-28.56
-10.01
8.00
24.27
38.07
48.99
56.64
60.71
61.19
58.54
53.77
48.16
42.83
38.46
35.05
32.18
29.23
25.77
21.71
17.26
12.76
8.44
4.36
0.29
-4.11
-9.28
-15.67
-23.64
-33.37
-44.51
-56.10
-66.39
-73.28
-74.85
-70.05
-59.14
-43.59
-25.59
-7.30
9.66
24.36
36.42
45.60
51.57
54.03
52.99
49.01
43.22
37.01
31.57
27.50
24.64
22.30
19.61
15.98
11.29
5.97
0.68
-3.97
-7.72
-10.80
-13.84
-17.67
-23.06
-30.40
-39.52
-49.51
-58.87
-65.68
-68.15
-65.04
-56.13
-42.29
-25.25
-7.09
10.23
25.22
37.01
45.17
49.58
50.38
48.07
43.52
37.89
32.33
27.57
23.79
20.54
17.15
13.07
8.20
2.87
-2.32
-6.91
-10.78
-14.22
-17.83
-22.27
-28.05
-35.43
-44.32
-54.18
-63.92
-71.94
-76.39
-75.70
-69.08
-56.91
-40.67
-22.43
-4.30
12.19
26.15
37.17
45.02
49.51
50.57
48.51
44.13
38.60
33.08
28.32
24.44
21.00
17.42
13.26
8.46
3.34
-1.70
-6.35
-10.63
-14.86
-19.52
-25.18
-32.31
-41.07
-51.09
-61.31
-69.98
-75.05
-74.77
-68.30
-56.12
-39.83
-21.66
-3.69
12.53
26.19
36.96
44.62
49.05
50.20
48.39
44.42
39.41
34.47
30.28
26.92
23.90
20.55
16.37
11.37
5.98
0.90
-3.40
-6.87
-9.95
-13.48
-18.31
-25.08
-33.86
-44.08
-54.45
-63.19
-68.43
-68.68
-63.34
-52.85
-38.61
-22.49
-6.27
8.62
21.33
31.32
38.33
42.20
43.04
41.35
37.96
33.85
29.82
26.25
23.02
19.73
15.97
11.60
6.81
2.02
-2.34
-6.05
-9.19
-12.16
-15.51
-19.90
-25.88
-33.67
-42.95
-52.61
-60.92
-65.84
-65.70
-59.75
-48.47
-33.37
-16.50
0.13
15.08
27.44
36.77
42.86
45.61
45.20
42.20
37.53
32.26
27.33
23.14
19.64
16.40
12.96
9.07
4.78
0.43
-3.68
-7.36
-10.76
-14.31
-18.65
-24.48
-32.24
-41.89
-52.62
-62.83
-70.42
-73.38
-70.39
-61.27
-47.07
-29.63
-11.01
6.99
23.10
36.47
46.55
52.94
55.51
54.53
50.87
45.79
40.52
35.93
32.20
28.96
25.57
21.55
16.86
11.87
7.08
2.83
-0.93
-4.74
-9.31
-15.40
-23.40
-33.23
-44.15
-54.81
-63.41
-68.07
-67.35
-60.69
-48.63
-32.63
-14.65
3.42
20.13
34.57
46.21
54.67
59.75
61.43
60.10
56.59
51.94
47.13
42.71
38.70
34.72
30.30
25.20
19.54
13.78
8.39
3.67
-0.50
-4.58
-9.32
-15.49
-23.66
-33.94
-45.81
-57.96
-68.43
-74.99
-75.79
-69.95
-57.90
-41.29
-22.39
-3.43
14.00
29.08
41.58
51.42
58.40
62.23
62.79
60.41
55.97
50.66
45.62
41.51
38.32
35.56
32.53
28.76
24.16
19.03
13.81
8.84
4.14
-0.58
-5.87
-12.33
-20.49
-30.54
-42.16
-54.33
-65.36
-73.16
-75.78
-72.00
-61.80
-46.31
-27.52
-7.59
11.72
29.23
44.26
56.34
65.02
69.86
70.76
68.12
62.94
56.54
50.18
44.70
40.35
36.89
33.80
30.57
26.83
22.42
17.43
12.08
6.67
1.40
-3.64
-8.57
-13.75
-19.67
-26.87
-35.70
-46.17
-57.59
-68.62
-77.30
-81.51
-79.64
-71.12
-56.68
-38.16
-17.90
1.91
19.68
34.52
46.04
54.02
58.37
59.19
56.89
52.30
46.57
40.83
35.93
32.17
29.33
26.87
24.17
20.83
16.79
12.32
7.78
3.48
-0.51
-4.40
-8.57
-13.48
-19.54
-27.01
-36.01
-46.28
-57.07
-67.03
-74.32
-77.08
-74.01
-64.82
-50.42
-32.60
-13.44
5.26
22.19
36.58
47.95
55.94
60.27
60.99
58.57
53.98
48.43
43.04
38.48
34.81
31.59
28.13
23.89
18.72
12.89
6.99
1.56
-3.07
-7.05
-10.88
-15.34
-21.23
-29.14
-39.15
-50.70
-62.44
-72.43
-78.58
-79.19
-73.43
-61.67
-45.29
-26.24
-6.57
12.03
28.41
41.86
52.02
58.70
61.93
62.01
59.50
55.23
50.08
44.85
40.01
35.74
31.83
27.94
23.76
19.18
14.35
9.54
4.98
0.73
-3.39
-7.74
-12.73
-18.68
-25.87
-34.39
-44.20
-54.81
-65.28
-74.07
-79.35
-79.49
-73.56
-61.79
-45.46
-26.58
-7.28
10.66
26.11
38.54
47.80
53.98
57.26
57.95
56.48
53.48
49.59
45.48
41.66
38.38
35.66
33.28
30.87
28.15
24.97
21.42
17.70
14.01
10.39
6.73
2.81
-1.59
-6.68
-12.71
-19.97
-28.74
-38.95
-49.93
-60.15
-67.50
-69.79
-65.53
-54.49
-37.81
-17.72
3.17
22.45
38.48
50.39
58.04
61.74
62.02
59.52
54.92
48.99
42.48
36.09
30.35
25.47
21.36
17.65
13.93
9.90
5.49
0.84
-3.79
-8.21
-12.35
-16.30
-20.25
-24.40
-28.98
-34.17
-40.16
-47.18
-55.30
-64.36
-73.63
-81.81
-87.12
-87.77
-82.58
-71.44
-55.40
-36.40
-16.64
2.03
18.42
31.96
42.44
49.71
53.67
54.34
52.09
47.69
42.25
36.82
32.20
28.68
26.05
23.79
21.29
18.08
14.01
9.23
4.08
-1.07
-5.95
-10.51
-14.92
-19.52
-24.75
-31.02
-38.66
-47.62
-57.34
-66.64
-73.80
-76.96
-74.71
-66.59
-53.28
-36.46
-18.20
-0.39
15.68
29.29
40.15
48.06
52.79
54.24
52.61
48.56
43.09
37.34
32.14
27.88
24.48
21.46
18.32
14.71
10.55
5.98
1.30
-3.25
-7.55
-11.73
-16.13
-21.24
-27.63
-35.69
-45.48
-56.45
-67.40
-76.53
-81.89
-81.91
-75.87
-64.25
-48.43
-30.36
-11.93
5.44
20.86
33.84
43.97
50.94
54.45
54.56
51.79
47.09
41.60
36.30
31.69
27.75
24.04
20.00
15.30
10.02
4.60
-0.41
-4.66
-8.24
-11.67
-15.64
-20.74
-27.32
-35.44
-44.98
-55.60
-66.59
-76.63
-83.87
-86.26
-82.32
-71.74
-55.65
-36.30
-16.17
2.74
19.32
33.22
44.38
52.63
57.61
59.09
57.29
53.09
47.80
42.71
38.65
35.70
33.32
30.69
27.20
22.63
17.26
11.67
6.42
1.79
-2.33
-6.38
-11.00
-16.83
-24.35
-33.85
-45.25
-57.97
-70.71
-81.59
-88.43
-89.36
-83.49
-71.21
-54.09
-34.37
-14.29
4.47
20.88
34.44
44.87
51.96
55.59
55.87
53.31
48.73
43.20
37.66
32.75
28.62
25.04
21.57
17.79
13.55
8.99
4.41
0.13
-3.78
-7.54
-11.68
-16.85
-23.65
-32.44
-43.22
-55.47
-68.02
-79.23
-87.07
-89.72
-85.96
-75.69
-59.87
-40.30
-19.07
1.89
21.08
37.46
50.22
58.88
63.25
63.61
60.79
55.99
50.50
45.27
40.79
36.98
33.42
29.58
25.09
19.89
14.18
8.38
2.82
-2.35
-7.32
-12.60
-18.84
-26.63
-36.30
-47.72
-60.14
-72.19
-82.02
-87.66
-87.48
-80.78
-67.91
-50.26
-29.80
-8.50
11.95
30.36
45.84
57.71
65.40
68.70
67.95
64.15
58.75
53.21
48.50
44.81
41.57
37.88
32.99
26.72
19.52
12.17
5.47
-0.28
-5.32
-10.35
-16.24
-23.73
-33.14
-44.18
-55.87
-66.63
-74.52
-77.70
-74.93
-65.90
-51.39
-33.02
-12.71
7.62
26.47
42.63
55.29
63.86
68.17
68.51
65.73
60.99
55.44
49.91
44.66
39.58
34.30
28.62
22.60
16.51
10.72
5.44
0.68
-3.82
-8.48
-13.81
-20.34
-28.49
-38.39
-49.66
-61.22
-71.30
-77.82
-78.91
-73.49
-61.66
-44.58
-24.07
-1.98
20.11
41.05
59.89
75.64
87.25
93.85
95.23
92.02
85.69
78.01
70.42
63.62
57.37
50.96
43.62
35.19
26.07
17.15
9.24
2.65
-2.98
-8.64
-15.41
-24.23
-35.52
-49.03
-63.77
-77.96
-89.15
-94.46
-91.45
-78.97
-57.94
-31.31
-3.23
22.34
42.84
57.51
67.05
72.57
74.89
74.25
70.82
65.14
58.34
51.83
46.61
42.80
39.62
35.93
30.91
24.54
17.59
11.11
6.05
2.58
0.14
-2.42
-6.42
-12.83
-22.05
-33.66
-46.46
-58.56
-67.77
-72.01
-69.93
-61.31
-47.14
-29.37
-10.27
8.15
24.50
37.87
47.77
53.79
55.72
53.75
48.62
41.60
34.16
27.46
22.06
17.76
13.91
9.73
4.77
-0.92
-6.85
-12.31
-16.75
-20.02
-22.50
-25.04
-28.69
-34.31
-42.30
-52.24
-62.84
-72.08
-77.62
-77.46
-70.51
-57.01
-38.42
-17.00
4.87
25.19
42.57
56.14
65.39
70.10
70.40
67.00
61.12
54.31
47.96
42.84
38.94
35.59
31.96
27.42
21.89
15.75
9.60
3.92
-1.18
-6.05
-11.42
-18.13
-26.87
-37.81
-50.39
-63.19
-74.09
-80.78
-81.36
-74.95
-61.96
-43.94
-23.15
-1.90
17.84
34.70
47.79
56.64
61.17
61.68
58.97
54.18
48.55
43.08
38.25
33.97
29.77
25.15
19.84
13.99
8.00
2.39
-2.57
-6.93
-11.13
-15.85
-21.84
-29.68
-39.52
-50.84
-62.34
-72.02
-77.59
-77.09
-69.60
-55.53
-36.59
-15.19
6.19
25.63
41.92
54.42
62.85
67.15
67.52
64.55
59.28
52.97
46.75
41.28
36.58
32.17
27.40
21.88
15.64
9.15
3.01
-2.38
-7.06
-11.51
-16.56
-23.05
-31.57
-42.12
-53.95
-65.50
-74.61
-79.07
-77.23
-68.60
-54.05
-35.54
-15.45
4.08
21.60
36.34
47.91
56.04
60.45
61.11
58.43
53.44
47.49
41.83
37.17
33.46
30.05
26.09
21.02
14.87
8.21
1.88
-3.38
-7.33
-10.28
-13.01
-16.52
-21.72
-29.20
-38.90
-50.00
-60.88
-69.38
-73.26
-70.93
-61.99
-47.40
-29.17
-9.72
8.84
25.12
38.41
48.47
55.17
58.42
58.26
55.07
49.72
43.42
37.39
32.54
29.12
26.75
24.60
21.88
18.12
13.45
8.42
3.69
-0.40
-4.01
-7.77
-12.55
-19.05
-27.61
-38.02
-49.47
-60.64
-69.81
-75.20
-75.30
-69.42
-57.83
-41.81
-23.30
-4.34
13.32
28.47
40.41
48.85
53.69
55.08
53.42
49.47
44.21
38.67
33.68
29.54
26.14
22.92
19.33
15.03
10.08
4.88
-0.03
-4.27
-7.84
-11.12
-14.74
-19.47
-25.95
-34.52
-44.92
-56.22
-66.69
-74.20
-76.69
-72.92
-62.86
-47.73
-29.57
-10.51
7.74
24.15
38.13
49.27
57.11
61.21
61.53
58.59
53.55
47.84
42.65
38.49
35.07
31.59
27.19
21.50
14.79
7.83
1.44
-3.93
-8.45
-12.80
-17.88
-24.50
-33.07
-43.50
-55.11
-66.69
-76.58
-82.93
-84.20
-79.53
-69.10
-54.05
-36.18
-17.36
0.79
17.10
30.82
41.35
48.26
51.31
50.71
47.18
41.90
36.23
31.22
27.43
24.71
22.44
19.84
16.38
11.96
6.86
1.62
-3.35
-7.89
-12.21
-16.78
-22.15
-28.85
-37.21
-47.20
-58.20
-68.90
-77.35
-81.44
-79.48
-70.91
-56.52
-38.24
-18.48
0.62
17.71
32.17
43.84
52.61
58.22
60.43
59.36
55.65
50.46
45.06
40.40
36.83
34.02
31.27
27.84
23.36
17.90
11.91
5.99
0.61
-4.10
-8.38
-12.74
-17.85
-24.28
-32.43
-42.42
-53.80
-65.59
-76.13
-83.44
-85.56
-81.23
-70.30
-53.85
-33.89
-12.79
7.35
25.09
39.59
50.54
57.85
61.54
61.86
59.31
54.77
49.32
44.01
39.60
36.30
33.84
31.52
28.62
24.57
19.25
12.94
6.23
-0.28
-6.28
-11.82
-17.36
-23.49
-30.79
-39.58
-49.82
-61.01
-72.13
-81.64
-87.70
-88.61
-83.30
-71.74
-55.06
-35.18
-14.37
5.45
22.86
37.01
47.49
54.13
57.00
56.52
53.47
48.91
43.96
39.47
35.83
32.94
30.32
27.43
23.78
19.22
13.95
8.44
3.21
-1.35
-5.30
-9.04
-13.36
-19.12
-26.94
-37.00
-48.76
-60.89
-71.44
-78.22
-79.41
-74.05
-62.42
-45.91
-26.58
-6.54
12.57
29.63
44.00
55.15
62.65
66.18
65.87
62.36
56.84
50.60
44.75
39.83
35.81
32.27
28.68
24.72
20.31
15.62
10.92
6.34
1.88
-2.71
-7.75
-13.68
-20.90
-29.73
-40.21
-51.87
-63.56
-73.44
-79.38
-79.51
-72.87
-59.84
-41.97
-21.55
-0.81
18.54
35.54
49.72
60.79
68.37
72.10
71.93
68.38
62.55
55.83
49.53
44.37
40.36
36.96
33.37
29.03
23.77
17.90
11.99
6.55
1.81
-2.48
-6.87
-12.15
-19.03
-27.93
-38.80
-50.94
-63.01
-73.11
-79.19
-79.54
-73.32
-60.87
-43.66
-23.84
-3.64
15.11
31.31
44.37
54.16
60.59
63.73
63.81
61.37
57.27
52.48
47.85
43.82
40.40
37.20
33.78
29.83
25.33
20.57
15.87
11.51
7.45
3.39
-1.14
-6.64
-13.56
-22.17
-32.51
-44.24
-56.46
-67.66
-75.87
-79.19
-76.31
-67.02
-52.30
-34.02
-14.38
4.69
21.83
36.19
47.33
54.95
58.88
59.25
56.58
51.82
46.13
40.61
35.98
32.44
29.72
27.27
24.55
21.23
17.27
12.88
8.37
3.99
-0.23
-4.46
-9.05
-14.40
-20.95
-29.04
-38.78
-49.79
-61.05
-70.84
-77.09
-77.90
-72.25
-60.42
-43.83
-24.72
-5.33
12.63
28.15
40.78
50.30
56.52
59.31
58.86
55.83
51.27
46.39
42.13
38.88
36.36
33.93
30.90
26.94
22.17
17.16
12.50
8.49
5.00
1.40
-3.12
-9.31
-17.59
-28.00
-40.09
-53.00
-65.40
-75.57
-81.69
-82.20
-76.40
-64.66
-48.45
-29.89
-11.10
6.19
20.92
32.50
40.72
45.50
46.97
45.58
42.08
37.50
32.84
28.80
25.61
23.08
20.65
17.77
14.10
9.63
4.66
-0.34
-5.03
-9.31
-13.46
-18.04
-23.78
-31.25
-40.72
-51.89
-63.67
-74.27
-81.48
-83.30
-78.59
-67.48
-51.36
-32.45
-13.05
5.05
20.80
33.77
43.74
50.54
53.99
54.11
51.41
46.90
41.82
37.29
33.95
31.75
30.14
28.30
25.59
21.82
17.25
12.47
8.01
4.12
0.58
-3.16
-7.82
-13.96
-21.88
-31.56
-42.62
-54.27
-65.24
-73.76
-77.93
-76.25
-68.16
-54.42
-36.94
-18.11
-0.11
15.67
28.69
39.00
46.72
51.73
53.78
52.74
49.00
43.46
37.39
31.97
27.84
24.91
22.48
19.67
15.89
11.10
5.83
0.83
-3.28
-6.39
-8.90
-11.60
-15.31
-20.67
-27.99
-37.21
-47.79
-58.69
-68.38
-74.96
-76.68
-72.40
-62.09
-46.85
-28.63
-9.60
8.42
24.24
37.27
47.24
53.96
57.25
57.11
53.98
48.74
42.66
36.94
32.42
29.33
27.27
25.51
23.29
20.21
16.22
11.72
7.26
3.32
0.13
-2.45
-4.96
-8.23
-13.26
-20.92
-31.58
-44.81
-59.07
-72.00
-80.92
-83.66
-79.29
-68.37
-52.71
-34.73
-16.61
0.11
14.61
26.51
35.54
41.37
43.78
42.86
39.22
33.87
28.00
22.55
17.95
14.08
10.44
6.55
2.14
-2.62
-7.30
-11.43
-14.75
-17.44
-20.04
-23.25
-27.75
-33.94
-41.95
-51.49
-61.88
-71.85
-79.68
-83.46
-81.65
-73.65
-60.09
-42.76
-23.94
-5.74
10.45
24.02
34.86
42.91
47.94
49.68
48.11
43.86
38.05
32.13
27.23
23.83
21.64
19.87
17.66
14.54
10.60
6.34
2.36
-1.02
-3.97
-7.09
-11.15
-16.84
-24.58
-34.34
-45.60
-57.26
-67.69
-74.92
-77.10
-73.03
-62.57
-46.81
-27.70
-7.54
11.62
28.41
42.05
52.29
59.00
62.22
62.12
59.19
54.26
48.41
42.71
37.89
34.17
31.17
28.22
24.64
20.07
14.64
8.83
3.23
-1.75
-6.13
-10.37
-15.27
-21.65
-30.22
-41.11
-53.74
-66.62
-77.58
-84.19
-84.54
-77.87
-64.78
-47.11
-27.15
-7.08
11.62
28.10
41.85
52.42
59.33
62.26
61.39
57.54
52.01
46.15
40.94
36.68
33.11
29.64
25.75
21.18
16.09
10.90
6.03
1.71
-2.25
-6.28
-11.04
-17.14
-25.04
-34.89
-46.39
-58.74
-70.47
-79.63
-84.16
-82.46
-73.94
-59.34
-40.52
-19.86
0.34
18.51
33.77
45.81
54.48
59.72
61.56
60.24
56.46
51.21
45.60
40.47
36.26
32.86
29.81
26.57
22.73
18.27
13.46
8.72
4.39
0.49
-3.36
-7.83
-13.62
-21.30
-31.01
-42.38
-54.34
-65.24
-73.02
-75.77
-72.21
-62.17
-46.68
-27.62
-7.23
12.49
30.07
44.57
55.44
62.31
65.05
63.92
59.65
53.44
46.68
40.56
35.68
31.99
28.84
25.43
21.16
15.97
10.26
4.67
-0.30
-4.56
-8.56
-13.07
-18.85
-26.48
-36.13
-47.48
-59.68
-71.25
-80.24
-84.59
-82.60
-73.60
-58.19
-38.16
-15.99
5.89
25.57
41.90
54.35
62.73
67.06
67.63
65.05
60.38
54.82
49.48
44.99
41.36
38.11
34.58
30.30
25.19
19.57
13.94
8.75
4.10
-0.36
-5.34
-11.72
-20.21
-31.04
-43.61
-56.53
-67.71
-74.88
-76.19
-70.75
-58.85
-41.86
-21.85
-0.97
18.92
36.41
50.54
60.68
66.53
68.17
66.20
61.69
55.96
50.23
45.21
40.97
37.01
32.64
27.37
21.18
14.60
8.34
3.04
-1.14
-4.55
-7.96
-12.28
-18.32
-26.62
-37.17
-49.29
-61.44
-71.46
-76.92
-75.94
-67.80
-53.22
-34.19
-13.25
7.23
25.59
40.88
52.64
60.60
64.54
64.51
61.04
55.30
48.76
42.83
38.31
35.25
33.03
30.74
27.72
23.69
18.96
14.02
9.37
5.08
0.83
-4.05
-10.38
-18.76
-29.39
-41.66
-54.25
-65.14
-72.08
-73.21
-67.60
-55.61
-38.72
-19.12
1.00
19.87
36.35
49.71
59.43
65.12
66.61
64.31
59.19
52.71
46.32
40.94
36.78
33.34
29.87
25.77
20.91
15.62
10.45
5.79
1.63
-2.44
-7.11
-13.09
-20.87
-30.60
-41.90
-53.83
-64.83
-72.97
-76.31
-73.49
-64.20
-49.35
-30.83
-10.93
8.24
25.16
38.90
48.98
55.11
57.24
55.69
51.28
45.27
38.98
33.46
29.04
25.43
21.96
18.00
13.27
7.88
2.27
-3.15
-8.12
-12.71
-17.27
-22.39
-28.76
-36.88
-46.79
-57.70
-67.93
-75.19
-77.23
-72.63
-61.33
-44.71
-25.10
-5.02
13.49
29.17
41.44
50.13
55.16
56.65
54.91
50.76
45.29
39.68
34.77
30.77
27.34
23.80
19.62
14.66
9.25
3.93
-0.84
-5.01
-9.00
-13.58
-19.67
-27.92
-38.43
-50.47
-62.40
-71.99
-76.91
-75.51
-67.31
-53.24
-35.20
-15.59
3.46
20.40
34.30
44.71
51.38
54.33
53.87
50.70
45.86
40.41
35.16
30.39
26.03
21.69
17.15
12.35
7.54
3.02
-1.03
-4.70
-8.47
-12.98
-18.95
-26.90
-36.94
-48.57
-60.53
-70.90
-77.41
-78.14
-72.07
-59.52
-42.04
-21.95
-1.67
16.87
32.44
44.41
52.51
56.72
57.27
54.76
50.15
44.63
39.24
34.61
30.83
27.51
24.10
20.17
15.60
10.61
5.61
0.95
-3.26
-7.33
-11.89
-17.77
-25.70
-35.90
-47.77
-59.84
-69.91
-75.70
-75.40
-68.41
-55.43
-38.21
-19.01
0.11
17.63
32.65
44.63
53.23
58.20
59.49
57.54
53.24
47.83
42.51
38.05
34.58
31.69
28.62
24.71
19.74
13.93
7.90
2.28
-2.57
-6.76
-10.88
-15.78
-22.23
-30.66
-40.90
-52.00
-62.35
-69.92
-72.81
-69.75
-60.53
-46.08
-28.12
-8.69
10.33
27.50
41.73
52.30
58.75
61.03
59.68
55.79
50.79
45.98
42.13
39.19
36.50
33.09
28.20
21.58
13.58
5.04
-3.17
-10.36
-16.40
-21.66
-26.90
-33.00
-40.64
-50.06
-60.89
-72.08
-81.95
-88.53
-89.98
-85.16
-74.04
-57.74
-38.27
-17.88
1.45
18.41
32.24
42.66
49.52
52.85
52.95
50.45
46.32
41.67
37.41
33.97
31.30
28.89
26.16
22.71
18.51
13.87
9.19
4.82
0.77
-3.26
-7.85
-13.73
-21.45
-31.21
-42.55
-54.22
-64.28
-70.55
-71.26
-65.62
-54.15
-38.37
-20.38
-2.06
15.23
30.72
43.89
54.21
61.09
64.08
63.23
59.28
53.56
47.50
42.19
38.06
34.82
31.82
28.40
24.25
19.46
14.39
9.45
4.79
0.31
-4.36
-9.67
-16.09
-24.04
-33.78
-45.21
-57.58
-69.34
-78.29
-82.12
-79.22
-69.26
-53.49
-34.21
-14.07
4.86
21.38
35.12
46.06
54.13
59.03
60.49
58.65
54.23
48.49
42.80
38.23
35.11
33.10
31.38
29.06
25.63
21.09
15.88
10.61
5.77
1.44
-2.72
-7.27
-12.86
-19.98
-28.91
-39.57
-51.40
-63.24
-73.32
-79.67
-80.50
-74.91
-63.18
-46.79
-27.89
-8.69
9.03
24.22
36.35
45.27
50.88
53.32
52.93
50.42
46.75
42.89
39.57
37.06
35.18
33.40
31.21
28.24
24.47
20.16
15.69
11.41
7.41
3.54
-0.59
-5.48
-11.64
-19.49
-29.15
-40.30
-52.01
-62.71
-70.38
-73.10
-69.64
-59.89
-44.98
-26.90
-7.93
10.02
25.66
38.28
47.54
53.20
55.20
53.78
49.68
44.12
38.42
33.63
30.12
27.60
25.25
22.29
18.26
13.24
7.77
2.51
-2.07
-5.88
-9.24
-12.81
-17.27
-23.25
-31.07
-40.65
-51.40
-62.06
-70.87
-75.86
-75.43
-68.82
-56.49
-39.97
-21.41
-2.88
14.07
28.53
40.11
48.59
53.81
55.74
54.62
51.14
46.33
41.30
36.86
33.31
30.36
27.38
23.73
19.08
13.60
7.79
2.35
-2.30
-6.15
-9.69
-13.78
-19.34
-27.08
-37.16
-49.03
-61.31
-71.97
-78.76
-79.79
-74.16
-62.27
-45.74
-26.82
-7.80
9.66
24.69
36.98
46.43
52.85
56.04
55.97
53.11
48.44
43.21
38.50
34.80
31.99
29.43
26.43
22.58
17.95
12.90
7.88
3.14
-1.36
-5.89
-10.83
-16.52
-23.31
-31.47
-41.16
-52.11
-63.41
-73.41
-80.01
-81.27
-76.08
-64.58
-48.21
-29.19
-9.84
8.06
23.47
35.97
45.46
51.85
55.09
55.28
52.93
48.97
44.56
40.69
37.89
36.00
34.34
32.08
28.62
23.91
18.38
12.76
7.65
3.30
-0.54
-4.51
-9.37
-15.74
-23.94
-33.96
-45.30
-56.98
-67.55
-75.23
-78.33
-75.62
-66.86
-52.89
-35.41
-16.53
1.82
18.22
31.91
42.49
49.80
53.68
54.14
51.50
46.53
40.45
34.54
29.85
26.80
25.09
23.90
22.32
19.75
16.07
11.64
6.96
2.44
-1.78
-5.90
-10.30
-15.42
-21.69
-29.49
-38.91
-49.64
-60.65
-70.22
-76.28
-76.96
-71.35
-59.79
-43.87
-25.84
-7.89
8.40
22.17
33.09
41.06
45.92
47.62
46.34
42.73
37.81
32.71
28.29
24.82
22.07
19.43
16.31
12.44
8.04
3.59
-0.39
-3.62
-6.31
-8.98
-12.41
-17.25
-23.89
-32.36
-42.29
-52.83
-62.64
-70.00
-73.11
-70.65
-62.17
-48.43
-31.16
-12.56
5.38
21.30
34.48
44.65
51.64
55.35
55.78
53.28
48.72
43.25
38.00
33.71
30.46
27.73
24.74
20.83
15.74
9.78
3.54
-2.29
-7.28
-11.44
-15.17
-19.27
-24.55
-31.77
-41.27
-52.71
-64.93
-75.92
-83.28
-84.90
-79.69
-67.99
-51.51
-32.64
-13.74
3.58
18.57
31.04
40.94
48.02
51.88
52.26
49.44
44.30
38.15
32.32
27.66
24.46
22.36
20.72
18.91
16.54
13.62
10.32
6.93
3.52
-0.02
-4.04
-8.95
-15.08
-22.71
-31.97
-42.77
-54.61
-66.37
-76.25
-82.20
-82.41
-76.05
-63.70
-47.07
-28.52
-10.17
6.56
21.08
33.24
42.90
49.72
53.27
53.39
50.54
45.77
40.41
35.60
31.90
29.09
26.51
23.36
19.23
14.19
8.81
3.72
-0.65
-4.37
-7.90
-11.91
-17.03
-23.65
-31.92
-41.70
-52.50
-63.39
-72.87
-79.13
-80.42
-75.67
-64.92
-49.39
-31.10
-12.18
5.61
21.22
34.08
43.91
50.42
53.39
52.86
49.37
43.99
37.98
32.53
28.30
25.30
22.98
20.55
17.36
13.18
8.30
3.28
-1.27
-5.11
-8.51
-12.14
-16.90
-23.53
-32.42
-43.45
-55.93
-68.56
-79.51
-86.71
-88.26
-83.13
-71.43
-54.53
-34.61
-13.98
5.44
22.44
36.31
46.70
53.31
56.07
55.27
51.76
46.83
41.83
37.70
34.69
32.35
29.85
26.47
21.95
16.54
10.90
5.62
1.03
-3.06
-7.18
-12.09
-18.49
-26.87
-37.33
-49.35
-61.74
-72.62
-79.81
-81.36
-76.18
-64.43
-47.48
-27.46
-6.57
13.35
31.11
45.94
57.34
64.91
68.43
68.12
64.71
59.41
53.55
48.20
43.81
40.16
36.56
32.23
26.75
20.19
13.14
6.36
0.44
-4.52
-8.95
-13.71
-19.84
-28.19
-39.05
-51.85
-65.06
-76.34
-83.12
-83.39
-76.32
-62.63
-44.21
-23.49
-2.60
17.02
34.59
49.64
61.62
69.82
73.66
73.19
69.24
63.34
57.19
52.03
48.28
45.48
42.67
38.91
33.78
27.50
20.78
14.39
8.74
3.75
-1.19
-6.84
-13.99
-23.15
-34.43
-47.40
-60.93
-73.15
-81.69
-84.28
-79.48
-67.28
-49.12
-27.44
-4.88
16.49
35.37
51.21
63.73
72.65
77.66
78.64
76.04
70.83
64.36
57.95
52.45
48.07
44.39
40.73
36.40
31.11
24.99
18.51
12.18
6.34
0.98
-4.28
-9.99
-16.80
-25.28
-35.77
-48.19
-61.83
-75.12
-85.88
-91.63
-90.45
-81.61
-65.90
-45.46
-22.99
-0.93
19.02
36.08
49.94
60.47
67.41
70.55
69.97
66.28
60.61
54.31
48.57
44.09
40.93
38.59
36.35
33.52
29.75
25.14
20.05
14.96
10.10
5.40
0.49
-5.13
-11.94
-20.27
-30.27
-41.76
-54.02
-65.64
-74.50
-78.30
-75.21
-64.67
-47.73
-26.75
-4.65
15.96
33.39
46.89
56.37
61.95
63.74
61.94
57.08
50.12
42.38
35.13
29.29
25.05
21.99
19.28
16.10
12.04
7.17
1.97
-2.96
-7.28
-11.06
-14.77
-19.03
-24.49
-31.58
-40.55
-51.27
-63.12
-74.82
-84.40
-89.57
-88.38
-79.94
-64.83
-44.90
-22.75
-0.79
19.22
36.33
50.18
60.55
67.27
70.21
69.59
66.11
60.93
55.29
50.14
45.85
42.17
38.45
34.00
28.44
21.85
14.80
8.01
2.10
-2.76
-6.89
-11.08
-16.32
-23.46
-32.94
-44.50
-57.05
-68.74
-77.33
-80.70
-77.51
-67.62
-52.15
-33.10
-12.68
7.21
25.34
40.98
53.66
62.94
68.37
69.77
67.46
62.35
55.79
49.15
43.41
38.91
35.30
31.86
27.86
22.94
17.23
11.31
5.81
1.14
-2.80
-6.55
-10.93
-16.76
-24.65
-34.83
-47.03
-60.32
-73.06
-83.04
-87.92
-85.98
-76.72
-61.11
-41.34
-20.05
0.44
18.69
34.07
46.47
55.82
61.89
64.47
63.65
60.13
55.06
49.78
45.29
41.94
39.42
36.96
33.80
29.55
24.38
18.84
13.58
9.02
5.09
1.35
-2.88
-8.23
-15.19
-23.99
-34.64
-46.83
-59.72
-71.83
-81.10
-85.44
-83.26
-74.18
-59.19
-40.31
-20.02
-0.40
17.13
31.94
43.76
52.41
57.66
59.38
57.82
53.80
48.61
43.67
40.01
37.92
36.89
35.87
33.81
30.17
25.10
19.33
13.74
8.95
4.98
1.34
-2.71
-7.92
-14.71
-23.26
-33.46
-44.82
-56.44
-66.82
-74.12
-76.48
-72.73
-62.84
-48.04
-30.38
-12.12
4.91
19.56
31.25
39.67
44.62
46.05
44.27
40.11
34.78
29.46
24.96
21.46
18.58
15.71
12.34
8.30
3.80
-0.73
-4.90
-8.47
-11.56
-14.50
-17.86
-22.25
-28.21
-36.07
-45.70
-56.32
-66.47
-74.16
-77.38
-74.69
-65.75
-51.50
-33.75
-14.67
3.89
20.70
35.11
46.67
54.94
59.49
60.15
57.33
52.11
45.96
40.26
35.79
32.53
29.80
26.71
22.66
17.61
12.06
6.72
2.10
-1.74
-5.25
-9.17
-14.35
-21.40
-30.61
-41.78
-54.10
-66.11
-75.82
-81.12
-80.35
-72.93
-59.55
-42.01
-22.60
-3.43
13.97
28.76
40.48
48.75
53.26
53.93
51.13
45.85
39.52
33.47
28.65
25.25
22.81
20.58
17.90
14.51
10.58
6.55
2.83
-0.42
-3.42
-6.71
-10.96
-16.91
-25.00
-35.33
-47.32
-59.72
-70.57
-77.69
-79.26
-74.37
-63.39
-47.79
-29.69
-11.11
6.46
22.12
35.39
45.88
53.13
56.74
56.68
53.53
48.43
42.78
37.74
33.89
31.13
28.82
26.20
22.80
18.55
13.75
8.92
4.43
0.39
-3.45
-7.55
-12.51
-18.89
-27.11
-37.25
-48.86
-60.77
-71.13
-77.75
-78.74
-73.16
-61.42
-45.17
-26.75
-8.38
8.39
22.83
34.74
44.04
50.48
53.74
53.75
50.90
46.16
40.76
35.79
31.87
28.96
26.53
23.82
20.29
15.78
10.54
5.07
-0.14
-4.88
-9.31
-13.84
-18.98
-25.08
-32.30
-40.51
-49.30
-57.92
-65.26
-69.99
-70.75
-66.59
-57.27
-43.47
-26.62
-8.57
8.83
24.20
36.62
45.69
51.35
53.76
53.28
50.47
46.10
41.10
36.36
32.47
29.63
27.47
25.27
22.30
18.07
12.63
6.48
0.36
-5.12
-9.65
-13.49
-17.26
-21.78
-27.87
-36.00
-46.09
-57.29
-68.02
-76.14
-79.57
-76.86
-67.67
-53.01
-34.80
-15.31
3.47
20.15
33.93
44.36
51.14
54.14
53.50
49.88
44.42
38.45
33.14
29.06
26.13
23.74
21.20
17.99
14.07
9.72
5.39
1.38
-2.30
-5.92
-9.98
-14.94
-21.20
-28.93
-38.11
-48.27
-58.44
-67.06
-72.29
-72.47
-66.68
-55.14
-39.14
-20.67
-1.81
15.77
31.02
43.36
52.46
58.13
60.26
59.06
55.18
49.72
43.99
39.11
35.73
33.76
32.47
30.85
27.99
23.52
17.70
11.33
5.31
0.27
-3.73
-7.20
-10.98
-16.04
-23.04
-32.26
-43.29
-55.04
-65.73
-73.21
-75.49
-71.35
-60.79
-45.05
-26.25
-6.69
11.73
27.77
40.87
50.78
57.40
60.73
60.91
58.46
54.16
48.99
43.81
39.21
35.39
32.19
29.26
26.18
22.63
18.45
13.71
8.60
3.40
-1.71
-6.73
-11.93
-17.80
-24.89
-33.60
-43.91
-55.18
-66.07
-74.77
-79.34
-78.29
-71.04
-58.11
-41.02
-21.82
-2.53
15.26
30.51
42.63
51.33
56.41
57.96
56.42
52.66
47.85
43.13
39.25
36.38
34.11
31.75
28.65
24.53
19.54
14.18
9.01
4.44
0.49
-3.15
-7.07
-11.89
-18.11
-25.98
-35.36
-45.61
-55.56
-63.58
-67.91
-67.16
-60.74
-49.19
-33.99
-17.13
-0.54
14.35
26.72
36.19
42.59
45.80
45.87
43.14
38.40
32.78
27.44
23.19
20.28
18.36
16.74
14.74
11.91
8.21
3.92
-0.59
-4.98
-9.17
-13.32
-17.85
-23.30
-30.19
-38.75
-48.65
-58.80
-67.40
-72.38
-72.03
-65.59
-53.59
-37.64
-19.86
-2.25
13.80
27.52
38.50
46.42
50.97
52.07
50.03
45.72
40.35
35.06
30.57
26.94
23.77
20.44
16.49
11.90
6.96
2.19
-2.04
-5.66
-8.96
-12.48
-16.88
-22.76
-30.48
-40.03
-50.81
-61.55
-70.40
-75.29
-74.54
-67.49
-54.74
-37.98
-19.42
-1.02
15.89
30.69
43.06
52.66
59.00
61.68
60.76
56.99
51.70
46.27
41.73
38.36
35.76
33.18
29.94
25.77
20.78
15.36
9.88
4.48
-0.98
-6.87
-13.63
-21.68
-31.22
-42.12
-53.71
-64.74
-73.47
-77.98
-76.82
-69.47
-56.61
-39.91
-21.48
-3.24
13.37
27.52
38.75
46.73
51.27
52.40
50.60
46.70
41.84
37.04
32.94
29.74
27.10
24.51
21.44
17.59
12.97
7.89
2.82
-1.86
-5.96
-9.65
-13.40
-17.89
-23.86
-31.83
-41.86
-53.19
-64.17
-72.54
-76.05
-73.20
-63.85
-49.27
-31.67
-13.40
3.74
18.73
31.22
41.04
47.92
51.55
51.80
49.10
44.45
39.19
34.51
31.00
28.53
26.41
23.81
20.23
15.70
10.72
5.99
1.98
-1.33
-4.35
-7.83
-12.44
-18.65
-26.58
-36.00
-46.26
-56.29
-64.60
-69.49
-69.49
-63.81
-52.65
-37.24
-19.41
-1.16
15.86
30.45
41.91
49.78
53.91
54.44
51.98
47.57
42.48
37.85
34.36
32.06
30.47
28.87
26.63
23.41
19.27
14.44
9.20
3.67
-2.18
-8.55
-15.72
-23.99
-33.62
-44.62
-56.58
-68.40
-78.35
-84.41
-84.87
-78.95
-67.15
-51.07
-32.92
-14.77
1.87
16.21
27.86
36.58
42.04
44.03
42.71
38.86
33.77
28.85
25.16
22.96
21.71
20.41
18.13
14.50
9.82
4.83
0.30
-3.47
-6.77
-10.37
-15.21
-22.01
-31.01
-41.78
-53.24
-63.78
-71.47
-74.52
-71.66
-62.63
-48.22
-30.16
-10.59
8.48
25.49
39.50
50.01
56.80
59.85
59.39
56.11
51.00
45.28
39.93
35.46
31.74
28.22
24.28
19.54
14.15
8.52
3.24
-1.40
-5.45
-9.36
-13.80
-19.52
-27.07
-36.61
-47.77
-59.39
-69.66
-76.46
-77.93
-73.11
-62.24
-46.77
-28.75
-10.26
7.15
22.59
35.57
45.75
52.72
56.14
55.95
52.75
47.62
41.92
36.74
32.57
29.20
25.98
22.23
17.66
12.45
7.13
2.19
-2.16
-6.17
-10.42
-15.64
-22.47
-31.26
-41.89
-53.61
-65.03
-74.23
-79.24
-78.52
-71.55
-58.97
-42.38
-23.87
-5.41
11.49
25.87
37.15
45.01
49.33
50.34
48.67
45.28
41.26
37.42
34.10
31.12
27.97
24.19
19.61
14.45
9.15
4.18
-0.24
-4.26
-8.34
-13.11
-19.22
-27.14
-36.94
-48.16
-59.63
-69.55
-75.83
-76.64
-71.07
-59.44
-43.27
-24.73
-6.06
11.05
25.54
36.95
45.08
49.81
51.23
49.68
45.99
41.21
36.43
32.31
28.96
26.00
22.82
19.04
14.59
9.87
5.37
1.46
-1.89
-5.24
-9.46
-15.55
-24.20
-35.49
-48.61
-61.88
-72.96
-79.43
-79.48
-72.46
-59.12
-41.26
-21.19
-1.04
17.60
33.71
46.69
56.02
61.37
62.69
60.55
56.08
50.72
45.72
41.65
38.31
34.97
30.88
25.72
19.80
13.80
8.36
3.74
-0.39
-4.71
-10.08
-17.14
-26.20
-37.08
-48.98
-60.50
-69.64
-74.24
-72.63
-64.17
-49.58
-30.70
-10.01
10.27
28.48
43.76
55.67
64.01
68.62
69.56
67.35
62.91
57.54
52.35
48.02
44.57
41.49
38.08
33.84
28.62
22.67
16.49
10.52
5.03
-0.04
-5.12
-10.88
-18.11
-27.39
-38.79
-51.51
-63.90
-73.61
-78.29
-76.30
-67.23
-52.11
-32.98
-12.30
7.84
26.09
41.76
54.60
64.33
70.63
73.24
72.29
68.51
63.18
57.70
53.11
49.75
47.19
44.56
41.03
36.22
30.28
23.84
17.55
11.82
6.66
1.69
-3.56
-9.61
-16.76
-25.27
-35.29
-46.75
-59.19
-71.39
-81.42
-86.99
-86.12
-77.92
-62.98
-43.25
-21.35
0.20
19.66
36.18
49.58
59.85
66.93
70.71
71.22
68.86
64.50
59.20
53.98
49.43
45.67
42.41
39.17
35.57
31.49
27.06
22.56
18.22
14.06
9.91
5.49
0.51
-5.25
-11.96
-19.79
-28.96
-39.55
-51.22
-62.92
-72.95
-79.13
-79.59
-73.35
-60.76
-43.40
-23.55
-3.53
14.92
30.72
43.37
52.61
58.27
60.33
59.02
55.06
49.55
43.72
38.56
34.57
31.59
29.01
26.07
22.22
17.34
11.75
6.07
0.87
-3.57
-7.36
-11.02
-15.22
-20.69
-27.93
-37.10
-47.85
-59.17
-69.42
-76.59
-78.83
-74.96
-64.96
-49.88
-31.53
-11.96
7.06
24.18
38.53
49.45
56.60
59.86
59.58
56.56
51.86
46.63
41.74
37.64
34.27
31.26
28.06
24.19
19.44
13.89
7.89
1.92
-3.62
-8.57
-13.11
-17.74
-23.26
-30.40
-39.65
-50.81
-62.79
-73.66
-81.10
-83.02
-78.31
-67.22
-51.17
-32.28
-12.60
6.34
23.57
38.51
50.62
59.32
64.16
65.10
62.72
58.11
52.63
47.41
43.12
39.77
36.91
33.89
30.19
25.65
20.51
15.24
10.26
5.78
1.62
-2.66
-7.64
-13.78
-21.44
-30.81
-41.74
-53.67
-65.35
-74.95
-80.31
-79.66
-72.22
-58.60
-40.60
-20.62
-0.92
16.96
32.33
45.00
54.95
61.98
65.82
66.36
63.89
59.20
53.43
47.72
42.86
39.05
35.90
32.72
28.86
24.00
18.27
12.16
6.20
0.68
-4.41
-9.46
-14.87
-21.00
-28.10
-36.36
-45.95
-56.80
-68.38
-79.31
-87.59
-90.98
-87.86
-77.79
-61.79
-42.00
-20.92
-0.74
17.18
32.21
44.19
53.13
58.99
61.79
61.71
59.28
55.29
50.63
46.05
41.95
38.36
34.95
31.26
26.87
21.68
15.89
9.97
4.42
-0.40
-4.46
-8.12
-11.91
-16.50
-22.41
-30.04
-39.48
-50.38
-61.79
-72.07
-79.20
-81.21
-76.88
-66.20
-50.42
-31.66
-12.23
5.94
21.59
34.12
43.33
49.26
52.09
52.16
50.03
46.47
42.23
37.98
34.12
30.78
27.80
24.80
21.39
17.23
12.26
6.75
1.27
-3.65
-7.71
-11.08
-14.38
-18.42
-23.98
-31.51
-41.03
-52.08
-63.75
-74.62
-82.92
-86.84
-84.96
-76.77
-62.95
-45.24
-25.90
-7.12
9.59
23.49
34.41
42.45
47.62
49.95
49.55
46.85
42.65
37.92
33.52
29.87
26.91
24.17
21.05
17.18
12.47
7.25
1.96
-2.98
-7.39
-11.37
-15.30
-19.71
-25.20
-32.31
-41.30
-52.00
-63.53
-74.33
-82.36
-85.61
-82.76
-73.56
-59.02
-40.99
-21.70
-3.05
13.71
27.91
39.30
47.72
53.03
55.16
54.34
51.20
46.68
41.78
37.25
33.42
30.14
27.04
23.62
19.60
14.90
9.63
4.06
-1.59
-7.18
-12.72
-18.39
-24.46
-31.31
-39.32
-48.82
-59.80
-71.75
-83.39
-92.80
-97.86
-96.84
-89.05
-75.12
-56.85
-36.56
-16.42
2.12
18.35
32.00
42.96
50.91
55.51
56.62
54.61
50.36
45.09
39.94
35.65
32.36
29.63
26.81
23.32
18.90
13.70
8.13
2.66
-2.40
-7.04
-11.55
-16.38
-22.01
-28.84
-37.11
-46.87
-57.86
-69.35
-79.97
-87.84
-90.94
-87.74
-77.80
-62.04
-42.47
-21.58
-1.60
16.03
30.67
42.21
50.69
56.03
58.16
57.19
53.64
48.43
42.65
37.23
32.64
28.81
25.26
21.44
17.00
11.99
6.76
1.76
-2.79
-6.97
-11.17
-15.96
-21.79
-28.98
-37.68
-47.78
-58.94
-70.26
-80.34
-87.29
-89.21
-84.79
-73.78
-57.10
-36.59
-14.41
7.44
27.45
44.59
58.15
67.64
72.80
73.78
71.25
66.33
60.43
54.72
49.95
46.19
42.96
39.52
35.24
29.86
23.57
16.91
10.46
4.58
-0.70
-5.77
-11.30
-18.08
-26.79
-37.77
-50.66
-64.31
-76.71
-85.41
-88.19
-83.75
-72.18
-54.87
-34.08
-12.15
8.99
28.11
44.51
57.69
67.25
72.79
74.27
72.14
67.42
61.49
55.61
50.64
46.72
43.44
40.08
36.02
31.06
25.46
19.77
14.47
9.71
5.17
0.24
-5.84
-13.64
-23.47
-35.22
-48.27
-61.41
-72.85
-80.46
-82.26
-77.08
-65.01
-47.49
-26.84
-5.57
14.32
31.73
46.25
57.84
66.40
71.62
73.14
70.92
65.50
58.04
50.05
42.91
37.33
33.26
29.92
26.29
21.60
15.63
8.78
1.76
-4.78
-10.59
-15.96
-21.66
-28.68
-37.94
-49.91
-64.30
-79.79
-94.15
-104.64
-108.64
-104.54
-92.30
-73.67
-51.94
-31.21
-15.30
-6.66
-5.63
-10.26
-16.95
-21.60
-21.05
-13.89
-0.74
16.43
35.24
53.65
70.36
84.53
95.50
102.61
105.36
103.77
98.56
91.12
83.05
75.71
69.74
64.98
60.71
56.03
50.31
43.45
35.87
28.22
21.16
14.94
9.40
4.10
-1.56
-8.06
-15.79
-24.99
-35.69
-47.48
-59.28
-69.30
-75.40
-75.73
-69.38
-56.83
-39.77
-20.52
-1.25
16.48
31.80
44.25
53.47
59.04
60.70
58.67
53.75
47.30
40.74
35.11
30.77
27.33
24.01
20.05
15.10
9.36
3.38
-2.22
-7.13
-11.43
-15.58
-20.20
-25.87
-33.00
-41.71
-51.89
-62.90
-73.57
-82.22
-86.89
-85.97
-78.65
-65.30
-47.37
-26.93
-6.15
13.19
29.89
43.15
52.52
57.77
58.93
56.48
51.30
44.60
37.64
31.40
26.32
22.26
18.64
14.68
9.87
4.12
-2.10
-8.08
-13.18
-17.20
-20.59
-24.23
-29.18
-36.24
-45.62
-56.68
-67.99
-77.52
-83.11
-83.06
-76.57
-64.03
-46.85
-27.10
-6.83
12.28
29.07
42.82
53.01
59.33
61.71
60.48
56.48
50.84
44.74
38.99
33.91
29.29
24.71
19.75
14.27
8.47
2.77
-2.39
-6.83
-10.72
-14.59
-19.15
-25.05
-32.78
-42.41
-53.50
-64.93
-75.02
-81.70
-83.13
-78.21
-67.02
-50.86
-31.81
-12.09
6.53
22.97
36.72
47.47
54.91
58.73
58.92
56.00
51.04
45.40
40.24
36.10
32.85
29.80
26.13
21.33
15.45
8.97
2.61
-3.09
-8.01
-12.44
-16.99
-22.31
-28.94
-37.14
-46.85
-57.56
-68.13
-76.94
-82.06
-81.83
-75.31
-62.77
-45.55
-25.72
-5.43
13.56
30.06
43.36
52.98
58.64
60.25
58.15
53.23
46.77
40.17
34.49
30.19
27.02
24.26
21.10
17.05
12.15
6.90
2.01
-2.01
-5.04
-7.46
-10.04
-13.70
-19.34
-27.48
-38.12
-50.50
-63.12
-73.85
-80.42
-81.05
-74.89
-62.40
-45.13
-25.28
-5.04
13.85
30.25
43.50
53.22
59.15
61.19
59.63
55.22
49.19
42.84
37.25
32.86
29.43
26.29
22.65
18.09
12.64
6.75
1.01
-4.17
-8.77
-13.17
-17.96
-23.75
-31.03
-40.02
-50.69
-62.43
-74.09
-83.85
-89.57
-89.34
-82.11
-68.14
-49.00
-27.06
-4.78
15.83
33.51
47.59
57.73
63.68
65.42
63.31
58.24
51.63
44.96
39.35
35.19
32.08
29.17
25.56
20.85
15.19
9.20
3.56
-1.33
-5.60
-9.86
-14.97
-21.76
-30.78
-42.05
-54.87
-67.77
-78.65
-85.20
-85.53
-78.73
-65.21
-46.51
-24.84
-2.43
18.86
37.69
53.12
64.42
71.14
73.20
71.18
66.24
59.92
53.65
48.32
44.04
40.32
36.41
31.74
26.18
20.04
13.85
8.06
2.82
-2.07
-7.13
-13.00
-20.34
-29.60
-40.83
-53.46
-66.10
-76.69
-82.84
-82.66
-75.30
-61.32
-42.48
-21.12
0.52
20.76
38.53
53.17
64.14
70.95
73.39
71.72
66.88
60.27
53.38
47.28
42.37
38.30
34.27
29.56
23.82
17.29
10.59
4.43
-0.83
-5.39
-9.91
-15.32
-22.48
-31.96
-43.73
-57.11
-70.61
-82.10
-89.24
-89.98
-83.35
-69.66
-50.53
-28.21
-4.98
17.43
37.91
55.67
69.94
79.87
84.82
84.70
80.35
73.35
65.54
58.43
52.70
48.14
43.97
39.33
33.72
27.15
20.03
12.90
6.22
0.06
-5.81
-11.98
-19.18
-28.17
-39.41
-52.74
-67.20
-80.90
-91.22
-95.34
-91.09
-77.77
-56.64
-30.76
-3.98
20.17
39.55
53.70
63.32
69.39
72.48
72.57
69.54
63.81
56.49
49.26
43.49
39.64
37.14
34.72
31.17
25.96
19.47
12.64
6.56
1.77
-1.95
-5.44
-9.87
-16.21
-24.98
-35.99
-48.47
-61.04
-71.88
-79.04
-80.73
-75.82
-64.25
-47.17
-26.57
-4.83
15.93
34.18
48.96
59.76
66.25
68.36
66.35
61.06
53.78
46.06
39.22
33.98
30.36
27.72
25.18
22.00
17.81
12.75
7.26
1.86
-3.18
-7.96
-12.95
-18.85
-26.34
-35.88
-47.36
-60.02
-72.24
-81.87
-86.60
-84.72
-75.69
-60.34
-40.68
-19.18
1.94
21.15
37.64
50.93
60.65
66.35
67.88
65.61
60.60
54.37
48.36
43.46
39.70
36.48
32.94
28.48
22.99
16.90
10.85
5.35
0.59
-3.72
-8.20
-13.62
-20.70
-29.93
-41.27
-54.02
-66.66
-77.01
-82.72
-81.94
-73.97
-59.47
-40.34
-19.04
2.11
21.42
37.93
51.18
60.89
66.83
68.94
67.53
63.41
57.83
52.08
47.12
43.27
40.18
37.11
33.28
28.30
22.27
15.80
9.63
4.39
0.23
-3.23
-6.79
-11.43
-18.02
-27.11
-38.63
-51.92
-65.51
-77.33
-85.03
-86.50
-80.66
-67.71
-49.30
-27.87
-6.02
14.27
31.87
46.29
57.42
65.11
69.23
69.84
67.43
62.92
57.50
52.23
47.77
44.29
41.55
39.08
36.42
33.21
29.27
24.66
19.55
14.13
8.59
2.93
-2.95
-9.22
-16.08
-23.72
-32.44
-42.43
-53.62
-65.28
-75.93
-83.41
-85.51
-80.85
-69.40
-52.68
-33.15
-13.41
4.57
19.78
31.94
41.12
47.37
50.64
50.96
48.65
44.45
39.37
34.38
30.18
27.09
25.02
23.68
22.68
21.67
20.36
18.51
15.96
12.58
8.34
3.31
-2.33
-8.34
-14.49
-20.64
-26.92
-33.66
-41.42
-50.61
-61.12
-71.94
-81.19
-86.47
-85.70
-77.92
-63.64
-44.80
-24.01
-3.80
14.04
28.63
39.75
47.50
52.01
53.47
52.19
48.74
43.95
38.72
33.83
29.73
26.52
23.97
21.71
19.25
16.23
12.49
8.05
3.17
-1.85
-6.65
-11.11
-15.27
-19.45
-24.16
-30.03
-37.64
-47.26
-58.62
-70.65
-81.43
-88.63
-90.07
-84.53
-72.14
-54.43
-33.78
-12.67
6.91
23.81
37.50
47.85
54.77
58.23
58.37
55.74
51.19
45.86
40.72
36.34
32.80
29.71
26.52
22.73
18.16
12.97
7.56
2.40
-2.21
-6.27
-10.11
-14.20
-19.07
-25.13
-32.58
-41.45
-51.42
-61.75
-71.09
-77.62
-79.40
-75.04
-64.24
-48.02
-28.48
-8.07
11.05
27.56
40.93
51.14
58.28
62.36
63.36
61.49
57.41
52.16
46.90
42.59
39.57
37.55
35.69
33.07
29.03
23.49
16.86
9.80
2.86
-3.73
-10.11
-16.65
-23.73
-31.61
-40.49
-50.48
-61.60
-73.49
-85.18
-94.99
-100.85
-100.84
-93.93
-80.45
-62.04
-41.20
-20.46
-1.82
13.69
25.82
34.76
40.79
44.04
44.63
42.83
39.31
34.96
30.80
27.58
25.49
24.19
22.93
20.98
17.87
13.59
8.57
3.42
-1.31
-5.38
-8.93
-12.45
-16.53
-21.77
-28.55
-37.02
-46.97
-57.69
-67.93
-75.90
-79.68
-77.71
-69.42
-55.49
-37.67
-18.28
0.54
17.25
31.05
41.64
48.94
52.88
53.50
51.16
46.62
40.97
35.32
30.48
26.73
23.83
21.22
18.25
14.53
10.02
5.02
0.01
-4.57
-8.52
-11.98
-15.41
-19.42
-24.58
-31.38
-40.06
-50.44
-61.72
-72.42
-80.51
-83.85
-80.91
-71.30
-56.05
-37.23
-17.28
1.69
18.33
31.97
42.32
49.16
52.30
51.73
47.93
41.92
35.08
28.77
23.87
20.59
18.48
16.75
14.64
11.70
7.94
3.69
-0.60
-4.57
-8.18
-11.66
-15.50
-20.27
-26.57
-34.77
-44.96
-56.58
-68.34
-78.23
-83.93
-83.51
-76.11
-62.35
-44.12
-23.95
-4.21
13.44
28.22
39.95
48.63
54.14
56.29
55.13
51.16
45.45
39.33
34.01
30.10
27.44
25.29
22.68
18.95
13.97
8.22
2.46
-2.69
-7.03
-10.88
-14.92
-20.00
-26.84
-35.89
-47.10
-59.72
-72.23
-82.49
-88.21
-87.58
-79.92
-65.87
-47.27
-26.48
-5.74
13.30
29.71
43.04
53.03
59.50
62.39
61.91
58.68
53.71
48.12
42.91
38.58
35.12
32.04
28.65
24.45
19.28
13.45
7.47
1.79
-3.38
-8.28
-13.38
-19.32
-26.71
-35.96
-47.20
-60.03
-73.30
-85.10
-93.08
-95.03
-89.69
-77.15
-58.97
-37.53
-15.33
5.73
24.48
40.35
53.00
62.07
67.24
68.48
66.29
61.72
56.08
50.66
46.20
42.91
40.40
37.99
34.98
30.97
25.94
20.19
14.20
8.33
2.71
-2.85
-8.77
-15.52
-23.58
-33.26
-44.67
-57.37
-70.28
-81.50
-88.67
-89.65
-83.24
-69.77
-50.95
-29.40
-7.64
12.49
30.04
44.66
56.16
64.23
68.47
68.74
65.47
59.73
52.94
46.49
41.29
37.54
34.81
32.26
29.07
24.74
19.28
13.14
6.99
1.42
-3.47
-8.10
-13.36
-20.34
-29.88
-42.25
-56.79
-71.97
-85.44
-94.61
-97.00
-90.88
-75.73
-52.62
-24.20
5.79
33.43
55.60
70.76
79.02
81.67
80.38
76.55
71.04
64.42
57.23
50.26
44.30
39.83
36.64
33.94
30.72
26.22
20.33
13.50
6.57
0.28
-5.12
-10.08
-15.62
-22.98
-33.13
-46.14
-60.96
-75.34
-86.37
-91.31
-88.39
-77.42
-59.78
-37.91
-14.51
8.20
28.83
46.63
61.16
71.97
78.54
80.64
78.60
73.54
67.06
60.76
55.68
51.97
48.99
45.70
41.27
35.41
28.45
21.15
14.26
8.17
2.66
-2.86
-9.28
-17.42
-27.82
-40.55
-55.05
-69.97
-83.16
-92.07
-94.32
-88.49
-74.66
-54.39
-30.33
-5.32
18.32
39.16
56.53
70.17
79.84
85.25
86.35
83.52
77.80
70.61
63.43
57.28
52.49
48.66
45.07
40.96
35.92
30.03
23.71
17.51
11.82
6.67
1.72
-3.65
-10.15
-18.45
-28.95
-41.61
-55.69
-69.64
-81.25
-87.99
-87.81
-79.69
-64.09
-42.80
-18.39
6.48
29.70
49.87
66.26
78.44
86.21
89.58
88.92
85.04
79.17
72.69
66.73
61.92
58.25
55.16
51.78
47.35
41.45
34.15
25.94
17.46
9.25
1.49
-5.96
-13.51
-21.63
-30.75
-41.21
-53.15
-66.36
-79.95
-92.27
-100.98
-103.71
-98.78
-85.96
-66.59
-43.23
-18.77
4.41
24.82
41.91
55.56
65.65
71.99
74.44
73.24
69.16
63.44
57.42
52.12
47.95
44.67
41.67
38.29
34.09
29.07
23.48
17.70
11.99
6.39
0.71
-5.32
-11.95
-19.39
-27.80
-37.36
-48.17
-59.94
-71.75
-81.89
-88.10
-88.28
-81.18
-67.01
-47.45
-25.09
-2.68
17.71
34.88
48.37
58.08
63.91
65.78
63.85
58.82
51.95
44.78
38.60
34.02
30.84
28.23
25.26
21.34
16.47
11.12
5.90
1.23
-2.94
-7.05
-11.76
-17.74
-25.44
-35.04
-46.39
-58.87
-71.34
-82.12
-89.21
-90.76
-85.59
-73.64
-56.08
-34.98
-12.80
8.26
26.58
41.30
52.06
58.82
61.75
61.17
57.74
52.38
46.26
40.45
35.63
31.86
28.66
25.27
21.08
15.85
9.89
3.77
-1.93
-6.92
-11.37
-15.86
-21.15
-28.01
-36.91
-47.88
-60.28
-72.71
-83.12
-89.25
-89.20
-82.08
-68.37
-49.80
-28.77
-7.66
11.81
28.70
42.67
53.52
61.00
64.75
64.63
61.06
55.12
48.29
41.94
36.87
33.01
29.63
25.78
20.83
14.81
8.28
2.10
-3.11
-7.27
-10.80
-14.45
-19.07
-25.27
-33.44
-43.62
-55.34
-67.53
-78.38
-85.72
-87.45
-82.30
-70.27
-52.72
-31.98
-10.58
9.36
26.55
40.44
50.89
57.93
61.51
61.74
58.94
53.89
47.68
41.50
36.23
32.17
29.00
26.03
22.50
17.99
12.60
6.78
1.16
-3.85
-8.25
-12.46
-17.18
-23.07
-30.69
-40.21
-51.43
-63.62
-75.44
-85.09
-90.52
-90.06
-82.89
-69.39
-51.06
-30.09
-8.74
11.11
28.23
41.88
51.67
57.44
59.26
57.63
53.48
48.05
42.56
37.86
34.20
31.24
28.30
24.70
20.13
14.68
8.80
3.04
-2.21
-6.86
-11.22
-15.76
-21.06
-27.66
-35.88
-45.73
-56.69
-67.57
-76.58
-81.69
-81.23
-74.45
-61.87
-45.12
-26.37
-7.69
9.45
24.20
36.08
44.70
49.61
50.55
47.80
42.37
35.82
29.79
25.35
22.68
21.06
19.38
16.66
12.55
7.36
1.85
-3.23
-7.58
-11.39
-15.26
-19.93
-26.02
-33.88
-43.50
-54.39
-65.50
-75.22
-81.58
-82.81
-77.83
-66.69
-50.60
-31.55
-11.69
7.17
23.79
37.43
47.59
53.99
56.54
55.58
51.92
46.69
41.07
35.90
31.52
27.70
23.90
19.59
14.47
8.64
2.58
-3.13
-8.08
-12.21
-15.93
-20.08
-25.60
-33.25
-43.20
-54.85
-66.70
-76.62
-82.33
-82.10
-75.24
-62.31
-44.98
-25.41
-5.69
12.69
28.78
42.08
52.22
58.79
61.57
60.69
56.88
51.31
45.37
40.10
35.91
32.48
29.02
24.78
19.37
13.05
6.49
0.47
-4.54
-8.69
-12.59
-17.24
-23.51
-32.01
-42.67
-54.73
-66.69
-76.49
-81.95
-81.33
-73.94
-60.34
-42.23
-21.89
-1.45
17.47
33.99
47.64
58.04
64.77
67.47
66.19
61.63
55.08
48.06
41.88
37.10
33.55
30.50
27.13
22.94
17.92
12.52
7.25
2.44
-2.01
-6.53
-11.81
-18.53
-27.09
-37.52
-49.31
-61.33
-71.87
-78.92
-80.67
-76.06
-65.25
-49.51
-30.90
-11.53
6.92
23.45
37.49
48.54
56.02
59.40
58.62
54.34
47.98
41.28
35.72
31.95
29.71
28.09
25.98
22.68
18.04
12.53
6.91
1.82
-2.51
-6.34
-10.35
-15.37
-22.07
-30.71
-41.00
-52.01
-62.32
-70.08
-73.52
-71.35
-63.19
-49.68
-32.37
-13.24
5.75
23.05
37.59
48.65
55.77
58.78
57.88
53.85
47.89
41.42
35.55
30.89
27.34
24.38
21.37
17.87
13.81
9.44
5.13
1.11
-2.63
-6.47
-10.98
-16.81
-24.52
-34.33
-45.93
-58.26
-69.61
-77.78
-80.69
-77.01
-66.62
-50.67
-31.24
-10.68
9.01
26.45
40.89
51.92
59.22
62.58
62.09
58.41
52.73
46.59
41.40
38.01
36.44
35.95
35.43
33.86
30.75
26.21
20.77
15.05
9.31
3.36
-3.36
-11.52
-21.57
-33.60
-47.08
-60.96
-73.59
-83.02
-87.32
-85.20
-76.37
-61.75
-43.16
-22.83
-2.78
15.58
31.39
44.19
53.63
59.44
61.59
60.47
56.98
52.29
47.57
43.60
40.61
38.30
36.03
33.16
29.25
24.25
18.48
12.48
6.82
1.78
-2.70
-7.07
-12.06
-18.45
-26.85
-37.41
-49.67
-62.36
-73.54
-80.92
-82.53
-77.26
-65.36
-48.33
-28.48
-8.16
10.79
27.28
40.82
51.20
58.24
61.77
61.86
59.04
54.30
48.83
43.67
39.44
36.17
33.46
30.72
27.45
23.39
18.61
13.39
8.11
3.06
-1.68
-6.26
-11.06
-16.57
-23.29
-31.60
-41.55
-52.69
-63.87
-73.36
-79.06
-79.14
-72.61
-59.77
-42.21
-22.30
-2.44
15.54
30.63
42.49
51.10
56.47
58.57
57.58
54.01
48.77
43.02
37.80
33.69
30.73
28.43
26.11
23.11
19.19
14.45
9.39
4.57
0.33
-3.33
-6.92
-11.09
-16.55
-23.77
-32.87
-43.63
-55.36
-66.83
-76.34
-81.91
-81.78
-75.05
-62.03
-44.33
-24.38
-4.63
13.01
27.60
38.88
46.98
52.02
54.01
53.06
49.62
44.56
39.00
34.05
30.33
27.88
26.18
24.44
21.97
18.44
14.00
9.15
4.42
0.15
-3.73
-7.69
-12.45
-18.71
-26.92
-37.12
-48.70
-60.45
-70.58
-77.09
-78.27
-73.22
-62.15
-46.34
-27.74
-8.36
10.18
26.83
40.97
52.14
59.93
64.04
64.49
61.79
56.95
51.24
45.76
41.16
37.56
34.57
31.67
28.44
24.70
20.59
16.33
12.11
7.88
3.37
-1.82
-8.09
-15.83
-25.34
-36.76
-49.92
-64.06
-77.73
-88.76
-94.81
-94.05
-85.82
-70.99
-51.66
-30.47
-9.77
8.88
24.79
37.82
47.86
54.71
58.11
58.09
55.22
50.59
45.48
40.96
37.50
34.92
32.60
29.83
26.14
21.45
16.04
10.36
4.81
-0.44
-5.48
-10.61
-16.24
-22.72
-30.34
-39.30
-49.62
-61.06
-72.75
-83.21
-90.35
-92.07
-86.94
-74.83
-57.11
-36.21
-14.83
4.85
21.63
35.21
45.76
53.42
58.14
59.78
58.47
54.75
49.59
44.13
39.25
35.37
32.29
29.50
26.37
22.50
17.85
12.74
7.59
2.77
-1.64
-5.84
-10.24
-15.29
-21.38
-28.84
-37.85
-48.40
-60.08
-71.81
-81.89
-88.17
-88.74
-82.51
-69.69
-51.85
-31.33
-10.63
8.34
24.45
37.29
46.73
52.76
55.34
54.51
50.77
44.99
38.41
32.17
27.08
23.30
20.43
17.80
14.76
11.04
6.79
2.44
-1.59
-5.10
-8.29
-11.70
-15.97
-21.71
-29.25
-38.64
-49.48
-60.85
-71.29
-78.94
-82.01
-79.21
-70.27
-56.01
-38.14
-18.74
0.30
17.53
32.06
43.29
50.88
54.61
54.63
51.55
46.40
40.51
35.03
30.70
27.57
25.16
22.73
19.65
15.65
10.89
5.86
0.97
-3.56
-7.93
-12.60
-18.19
-25.29
-34.32
-45.38
-58.04
-71.16
-82.83
-90.74
-92.76
-87.66
-75.61
-58.08
-37.42
-15.97
4.37
22.51
37.84
49.96
58.51
63.15
63.98
61.59
57.11
51.87
46.96
42.93
39.61
36.43
32.71
28.03
22.47
16.46
10.58
5.28
0.58
-3.88
-8.77
-14.85
-22.76
-32.79
-44.68
-57.43
-69.38
-78.36
-82.31
-79.79
-70.56
-55.59
-36.78
-16.38
3.69
22.09
38.04
51.06
60.73
66.66
68.74
67.29
63.19
57.70
52.06
47.20
43.44
40.55
37.95
34.98
31.12
26.19
20.33
13.92
7.49
1.40
-4.23
-9.76
-15.93
-23.67
-33.69
-45.96
-59.42
-71.91
-80.68
-83.10
-77.46
-63.45
-42.16
-15.82
12.65
40.08
63.52
80.69
90.35
92.56
88.64
80.72
71.08
61.63
53.48
47.06
42.25
38.64
35.70
32.74
29.21
24.74
19.39
13.59
7.92
2.83
-1.70
-6.11
-11.16
-17.69
-26.24
-36.76
-48.40
-59.46
-67.65
-70.73
-67.20
-56.86
-40.85
-21.31
-0.63
19.23
36.99
52.03
64.01
72.65
77.67
79.00
76.98
72.33
66.04
58.99
51.82
44.74
37.73
30.66
23.41
16.05
8.74
1.80
-4.52
-10.07
-14.98
-19.72
-25.07
-31.89
-40.84
-51.96
-64.36
-76.17
-84.84
-87.84
-83.52
-71.69
-53.77
-32.26
-10.01
10.73
28.60
43.04
53.90
60.99
64.06
63.03
58.38
51.29
43.40
36.30
30.95
27.48
25.21
23.16
20.42
16.59
11.76
6.38
0.96
-4.22
-9.23
-14.45
-20.45
-27.84
-37.07
-48.17
-60.61
-73.05
-83.52
-89.76
-89.92
-83.12
-69.88
-51.89
-31.46
-10.78
8.60
25.82
40.43
52.07
60.25
64.53
64.83
61.72
56.38
50.33
44.84
40.62
37.59
35.07
32.16
28.20
23.04
17.05
10.88
5.16
0.15
-4.37
-8.96
-14.38
-21.33
-30.34
-41.56
-54.62
-68.44
-81.16
-90.38
-93.77
-89.77
-78.18
-60.29
-38.48
-15.46
6.47
25.80
41.84
54.40
63.51
69.21
71.68
71.31
68.79
64.98
60.71
56.60
52.85
49.34
45.67
41.49
36.54
30.81
24.52
17.97
11.47
5.22
-0.73
-6.48
-12.28
-18.46
-25.50
-33.91
-44.05
-55.85
-68.50
-80.37
-89.21
-92.68
-89.19
-78.40
-61.44
-40.59
-18.45
2.68
21.35
36.93
49.24
58.31
64.09
66.64
66.22
63.51
59.42
54.86
50.49
46.52
42.85
39.25
35.59
31.86
28.15
24.46
20.62
16.41
11.63
6.25
0.39
-5.74
-12.09
-18.78
-26.17
-34.72
-44.77
-56.31
-68.65
-80.44
-89.70
-94.30
-92.56
-83.83
-68.82
-49.35
-27.90
-6.87
11.99
27.73
40.11
49.16
54.98
57.61
57.27
54.47
50.07
45.19
40.76
37.34
34.83
32.72
30.32
27.11
22.95
18.02
12.69
7.29
2.02
-3.15
-8.33
-13.68
-19.45
-25.94
-33.56
-42.64
-53.22
-64.65
-75.51
-83.73
-87.14
-84.19
-74.50
-59.09
-40.00
-19.65
-0.12
17.22
31.75
43.22
51.48
56.36
57.73
55.86
51.45
45.69
39.85
34.90
31.23
28.56
26.25
23.56
20.09
15.81
11.05
6.23
1.61
-2.74
-7.05
-11.65
-16.91
-23.15
-30.66
-39.65
-50.03
-61.27
-72.12
-80.71
-84.91
-83.01
-74.36
-59.70
-40.93
-20.51
-0.69
16.98
31.77
43.48
52.06
57.39
59.39
58.21
54.49
49.29
43.85
39.23
35.99
34.08
32.90
31.60
29.39
25.82
20.95
15.24
9.35
3.83
-1.09
-5.60
-10.15
-15.24
-21.25
-28.44
-36.97
-46.82
-57.62
-68.37
-77.33
-82.33
-81.43
-73.64
-59.37
-40.42
-19.31
1.39
19.81
34.95
46.55
54.76
59.81
61.98
61.58
59.09
55.18
50.60
46.06
42.05
38.75
35.94
33.23
30.10
26.22
21.53
16.31
10.96
5.81
0.98
-3.73
-8.66
-14.15
-20.40
-27.51
-35.59
-44.71
-54.77
-65.17
-74.57
-81.06
-82.63
-77.95
-66.90
-50.72
-31.57
-11.89
6.36
21.96
34.39
43.50
49.31
51.84
51.30
48.23
43.49
38.12
33.09
29.04
26.14
24.06
22.21
19.91
16.72
12.55
7.69
2.63
-2.15
-6.44
-10.45
-14.68
-19.83
-26.46
-34.88
-44.92
-55.96
-66.87
-76.06
-81.79
-82.51
-77.35
-66.44
-50.99
-32.92
-14.29
3.18
18.39
30.78
40.10
46.15
48.87
48.46
45.50
40.99
36.05
31.65
28.23
25.75
23.70
21.45
18.46
14.49
9.70
4.43
-0.78
-5.56
-9.78
-13.69
-17.82
-22.87
-29.51
-38.09
-48.41
-59.56
-69.91
-77.39
-80.00
-76.46
-66.63
-51.65
-33.49
-14.44
3.66
19.63
32.95
43.40
50.76
54.82
55.47
53.11
48.59
43.15
37.95
33.66
30.33
27.45
24.37
20.59
16.11
11.30
6.69
2.72
-0.54
-3.37
-6.36
-10.12
-15.21
-22.01
-30.64
-40.88
-52.00
-62.66
-71.02
-75.17
-73.68
-66.13
-53.33
-37.07
-19.54
-2.64
12.35
24.90
34.83
42.07
46.50
47.95
46.55
42.80
37.63
32.15
27.29
23.54
20.79
18.49
15.93
12.59
8.37
3.58
-1.27
-5.75
-9.71
-13.40
-17.34
-22.14
-28.38
-36.45
-46.37
-57.67
-69.25
-79.39
-86.09
-87.51
-82.61
-71.50
-55.44
-36.41
-16.51
2.50
19.49
33.74
44.79
52.28
56.05
56.30
53.74
49.47
44.66
40.22
36.54
33.52
30.69
27.52
23.65
19.01
13.84
8.52
3.48
-1.06
-5.13
-9.13
-13.70
-19.57
-27.40
-37.39
-49.23
-61.79
-73.32
-81.67
-84.88
-81.72
-72.09
-57.11
-38.67
-18.93
0.31
17.83
32.89
45.04
53.83
58.87
60.02
57.66
52.82
46.87
41.20
36.67
33.43
30.89
28.14
24.35
19.22
13.06
6.56
0.54
-4.61
-8.93
-13.00
-17.67
-23.73
-31.75
-41.82
-53.53
-65.79
-76.95
-84.99
-87.92
-84.38
-74.04
-57.78
-37.44
-15.34
6.32
25.79
41.95
54.16
62.17
66.01
65.98
62.77
57.37
51.01
44.76
39.41
35.19
31.83
28.77
25.41
21.47
16.98
12.31
7.83
3.71
-0.28
-4.75
-10.46
-18.14
-28.17
-40.30
-53.53
-66.08
-75.72
-80.30
-78.38
-69.66
-55.09
-36.48
-15.97
4.58
23.76
40.59
54.30
64.23
69.92
71.35
69.13
64.40
58.59
52.92
48.06
44.09
40.53
36.78
32.35
27.18
21.58
16.00
10.83
6.10
1.44
-3.74
-10.10
-18.16
-28.17
-39.98
-52.96
-65.86
-76.81
-83.62
-84.36
-78.00
-64.88
-46.62
-25.64
-4.37
15.34
32.43
46.40
57.00
63.98
67.21
66.83
63.48
58.25
52.38
46.90
42.33
38.57
35.08
31.26
26.76
21.63
16.28
11.19
6.62
2.43
-1.89
-7.09
-13.87
-22.70
-33.56
-45.93
-58.67
-70.07
-78.17
-81.10
-77.69
-67.68
-51.99
-32.24
-10.39
11.75
32.74
51.41
66.73
77.76
83.81
84.75
81.23
74.68
66.82
59.24
52.90
47.96
43.91
40.03
35.67
30.51
24.57
18.00
11.09
4.06
-2.89
-9.73
-16.66
-24.17
-33.01
-43.69
-56.20
-69.47
-81.47
-89.56
-91.25
-84.94
-70.32
-48.59
-22.19
5.62
31.46
52.47
66.86
74.23
75.38
71.97
65.86
58.67
51.54
45.18
39.97
36.03
33.28
31.24
29.24
26.60
22.92
18.32
13.26
8.29
3.59
-1.08
-6.45
-13.35
-22.43
-33.75
-46.62
-59.65
-70.87
-78.21
-79.90
-75.09
-63.98
-47.87
-28.72
-8.67
10.48
27.46
41.48
52.10
59.00
62.06
61.56
58.21
53.14
47.60
42.59
38.53
35.32
32.38
29.07
24.96
20.00
14.53
9.05
4.00
-0.52
-4.76
-9.32
-14.97
-22.44
-32.17
-43.99
-56.96
-69.28
-78.58
-82.54
-79.59
-69.53
-53.57
-34.01
-13.35
6.32
23.80
38.65
50.69
59.72
65.34
67.26
65.58
61.10
55.14
49.11
44.06
40.28
37.43
34.70
31.40
27.14
22.10
16.74
11.55
6.80
2.39
-2.05
-7.01
-12.90
-19.99
-28.46
-38.34
-49.47
-61.17
-72.12
-80.39
-83.93
-81.11
-71.49
-56.00
-36.69
-16.09
3.59
20.88
35.21
46.51
54.87
60.29
62.72
62.28
59.48
55.19
50.43
46.12
42.70
40.09
37.82
35.29
32.08
28.08
23.54
18.83
14.24
9.80
5.28
0.28
-5.62
-12.68
-21.03
-30.68
-41.47
-52.99
-64.37
-74.20
-80.63
-81.90
-76.86
-65.49
-49.01
-29.54
-9.50
9.08
24.95
37.59
46.95
53.17
56.33
56.52
54.09
49.70
44.34
39.09
34.79
31.74
29.66
27.87
25.59
22.36
18.17
13.44
8.71
4.38
0.50
-3.24
-7.32
-12.23
-18.32
-25.80
-34.72
-44.88
-55.66
-65.89
-73.91
-77.88
-76.42
-69.01
-56.32
-40.00
-22.12
-4.66
11.00
24.06
34.19
41.24
45.15
46.03
44.25
40.55
35.86
31.15
27.04
23.77
21.11
18.63
15.87
12.57
8.75
4.64
0.60
-3.12
-6.39
-9.32
-12.28
-15.78
-20.52
-27.10
-35.81
-46.30
-57.43
-67.27
-73.57
-74.47
-69.10
-57.95
-42.61
-25.24
-7.83
8.21
22.17
33.72
42.58
48.44
51.00
50.33
47.02
42.19
37.13
32.87
29.83
27.71
25.78
23.24
19.65
15.12
10.14
5.35
1.10
-2.63
-6.27
-10.40
-15.55
-22.11
-30.20
-39.77
-50.39
-61.20
-70.70
-77.07
-78.49
-73.84
-63.16
-47.73
-29.73
-11.44
5.30
19.55
31.05
39.95
46.36
50.24
51.47
50.14
46.75
42.16
37.38
33.24
30.12
27.92
26.07
23.96
21.07
17.28
12.80
8.08
3.51
-0.72
-4.70
-8.79
-13.43
-19.15
-26.36
-35.29
-45.74
-56.91
-67.30
-74.93
-77.84
-74.73
-65.44
-51.03
-33.42
-14.76
3.12
19.00
32.27
42.66
50.07
54.50
56.06
55.14
52.29
48.26
43.77
39.39
35.42
31.83
28.39
24.72
20.55
15.77
10.58
5.32
0.38
-4.03
-8.03
-12.03
-16.58
-22.17
-29.15
-37.55
-47.14
-57.30
-66.98
-74.76
-79.01
-78.39
-72.21
-60.82
-45.49
-28.13
-10.68
5.32
18.89
29.62
37.35
42.10
43.97
43.27
40.55
36.57
32.16
27.97
24.36
21.34
18.68
16.04
13.13
9.80
6.09
2.20
-1.64
-5.25
-8.65
-12.07
-15.90
-20.56
-26.43
-33.75
-42.57
-52.61
-63.10
-72.66
-79.49
-81.71
-78.10
-68.51
-54.12
-36.94
-19.24
-2.83
11.33
22.90
31.84
38.02
41.21
41.29
38.63
34.16
29.14
24.76
21.67
19.80
18.47
16.86
14.34
10.77
6.43
1.83
-2.54
-6.49
-10.05
-13.54
-17.34
-21.92
-27.74
-35.19
-44.35
-54.68
-64.90
-73.08
-77.09
-75.31
-67.22
-53.62
-36.32
-17.56
0.76
17.35
31.58
43.13
51.67
56.86
58.46
56.71
52.42
46.89
41.42
36.89
33.51
30.78
27.91
24.21
19.46
13.88
8.11
2.80
-1.66
-5.25
-8.41
-11.84
-16.39
-22.79
-31.43
-42.16
-54.08
-65.60
-74.62
-79.07
-77.47
-69.42
-55.69
-38.02
-18.58
0.59
17.97
32.63
44.07
52.08
56.62
57.87
56.34
52.87
48.53
44.27
40.70
37.90
35.49
32.87
29.47
25.09
19.90
14.36
9.05
4.34
0.27
-3.56
-7.84
-13.42
-20.97
-30.77
-42.37
-54.55
-65.42
-72.77
-74.76
-70.33
-59.69
-44.11
-25.58
-6.19
12.33
28.83
42.64
53.28
60.38
63.74
63.53
60.44
55.60
50.28
45.44
41.44
38.06
34.70
30.79
26.09
20.77
15.24
9.92
5.03
0.50
-3.99
-8.88
-14.69
-21.85
-30.63
-40.91
-51.97
-62.43
-70.42
-74.02
-71.86
-63.62
-50.12
-33.11
-14.65
3.35
19.50
32.91
43.07
49.62
52.48
51.85
48.44
43.36
37.90
33.09
29.45
26.81
24.52
21.81
18.20
13.69
8.73
3.97
-0.09
-3.35
-6.20
-9.43
-13.96
-20.57
-29.56
-40.65
-52.74
-64.01
-72.32
-75.63
-72.72
-63.51
-49.09
-31.35
-12.43
5.84
22.17
35.78
46.15
52.96
56.08
55.71
52.54
47.68
42.39
37.63
33.84
30.85
28.05
24.84
20.84
16.12
11.10
6.29
2.05
-1.69
-5.38
-9.84
-15.88
-24.09
-34.55
-46.56
-58.66
-68.81
-74.84
-75.06
-68.79
-56.59
-40.08
-21.48
-2.95
13.88
28.02
39.04
46.83
51.46
53.11
52.23
49.45
45.67
41.71
38.17
35.20
32.58
29.82
26.47
22.39
17.81
13.23
9.15
5.83
3.04
0.13
-3.77
-9.52
-17.62
-28.01
-39.84
-51.50
-60.86
-65.77
-64.72
-57.25
-44.27
-27.61
-9.49
8.17
24.11
37.70
48.71
56.84
61.84
63.46
61.84
57.68
52.10
46.37
41.47
37.83
35.19
32.86
30.05
26.30
21.62
16.43
11.34
6.69
2.53
-1.54
-6.05
-11.61
-18.66
-27.44
-37.88
-49.39
-60.77
-70.16
-75.50
-75.02
-67.98
-54.99
-37.87
-19.06
-0.84
15.22
28.43
38.66
45.97
50.37
51.82
50.49
46.86
41.85
36.55
31.86
28.27
25.73
23.80
21.85
19.41
16.26
12.49
8.42
4.40
0.65
-2.88
-6.45
-10.41
-15.10
-20.78
-27.58
-35.50
-44.32
-53.33
-61.31
-66.56
-67.41
-62.72
-52.45
-37.71
-20.40
-2.64
13.92
28.26
39.95
48.80
54.66
57.39
57.03
54.07
49.41
44.18
39.39
35.65
32.96
30.83
28.54
25.50
21.45
16.53
11.18
5.92
1.15
-3.03
-6.81
-10.65
-15.13
-20.81
-28.10
-37.04
-47.09
-57.09
-65.34
-69.97
-69.52
-63.38
-52.04
-36.94
-19.94
-2.83
13.01
26.75
37.86
46.00
50.90
52.48
51.06
47.41
42.65
37.93
34.06
31.27
29.26
27.36
24.95
21.70
17.72
13.43
9.30
5.65
2.41
-0.78
-4.47
-9.16
-15.26
-23.05
-32.56
-43.38
-54.49
-64.21
-70.47
-71.42
-66.12
-54.93
-39.51
-22.14
-5.03
10.34
23.32
33.86
42.05
47.84
51.01
51.40
49.25
45.22
40.34
35.61
31.72
28.82
26.54
24.27
21.44
17.80
13.50
8.98
4.68
0.79
-2.82
-6.62
-11.14
-16.80
-23.79
-32.08
-41.44
-51.33
-60.79
-68.43
-72.57
-71.75
-65.26
-53.44
-37.74
-20.20
-2.83
12.85
26.10
36.71
44.72
50.16
52.98
53.28
51.34
47.85
43.67
39.65
36.33
33.78
31.62
29.26
26.25
22.45
18.10
13.63
9.42
5.60
1.94
-1.92
-6.39
-11.76
-18.21
-25.83
-34.56
-43.98
-53.17
-60.62
-64.55
-63.45
-56.64
-44.61
-28.89
-11.55
5.45
20.72
33.55
43.76
51.32
56.18
58.29
57.77
55.10
51.03
46.53
42.35
38.87
35.92
32.93
29.18
24.13
17.60
9.88
1.52
-6.83
-14.70
-21.87
-28.37
-34.43
-40.42
-46.83
-54.29
-63.31
-74.00
-85.71
-96.82
-105.07
-108.26
-105.02
-95.38
-80.86
-63.94
-47.43
-33.71
-24.23
-19.31
-18.07
-18.69
-18.89
-16.59
-10.54
-0.66
12.00
25.84
39.23
51.01
60.50
67.31
71.14
71.86
69.59
64.98
59.12
53.27
48.36
44.75
42.09
39.62
36.55
32.39
27.12
21.15
15.01
9.19
3.89
-0.96
-5.70
-10.75
-16.58
-23.57
-31.94
-41.60
-51.88
-61.51
-68.77
-71.88
-69.64
-61.79
-49.20
-33.54
-16.78
-0.58
13.89
26.03
35.51
42.08
45.60
46.07
43.88
39.83
34.98
30.33
26.51
23.68
21.50
19.37
16.70
13.23
9.00
4.41
-0.12
-4.28
-8.09
-11.95
-16.41
-22.04
-29.18
-37.80
-47.38
-56.89
-64.94
-69.95
-70.59
-66.10
-56.64
-43.19
-27.27
-10.54
5.67
20.43
33.12
43.31
50.54
54.53
55.35
53.62
50.41
46.95
44.23
42.63
41.88
41.28
40.07
37.74
34.26
29.84
24.83
19.40
13.51
6.93
-0.61
-9.29
-19.24
-30.42
-42.54
-54.89
-66.19
-74.71
-78.66
-76.72
-68.67
-55.50
-39.14
-21.87
-5.54
8.69
20.44
29.64
36.21
39.91
40.50
38.10
33.41
27.59
21.95
17.36
14.04
11.48
8.87
5.51
1.24
-3.56
-8.17
-11.89
-14.43
-16.02
-17.38
-19.42
-23.04
-28.84
-37.01
-47.12
-58.05
-68.10
-75.14
-77.24
-73.13
-62.76
-47.24
-28.55
-8.93
9.70
26.08
39.51
49.62
56.18
59.04
58.36
54.76
49.34
43.43
38.19
34.24
31.52
29.44
27.24
24.34
20.63
16.37
12.06
8.08
4.52
1.13
-2.56
-7.05
-12.78
-19.98
-28.73
-38.70
-49.14
-58.71
-65.64
-68.22
-65.27
-56.71
-43.50
-27.44
-10.43
5.91
20.51
32.77
42.20
48.40
51.10
50.46
47.21
42.54
37.78
33.87
31.16
29.28
27.51
25.03
21.40
16.61
11.11
5.50
0.26
-4.42
-8.78
-13.34
-18.74
-25.51
-33.88
-43.65
-54.07
-63.79
-71.08
-74.21
-71.89
-63.70
-50.29
-33.13
-14.18
4.71
22.05
36.87
48.54
56.68
61.12
62.00
59.90
55.80
50.94
46.39
42.83
40.19
37.91
35.17
31.31
26.19
20.17
13.97
8.23
3.23
-1.20
-5.71
-11.08
-18.06
-27.04
-37.94
-49.96
-61.63
-70.96
-75.90
-74.96
-67.66
-54.82
-38.21
-20.02
-2.13
14.20
28.37
40.15
49.26
55.38
58.21
57.84
54.88
50.43
45.70
41.55
38.24
35.37
32.23
28.23
23.20
17.50
11.72
6.44
1.82
-2.32
-6.46
-11.11
-16.70
-23.53
-31.74
-41.30
-51.74
-61.98
-70.37
-74.93
-74.00
-66.84
-53.93
-36.88
-17.84
1.10
18.39
33.19
45.09
53.93
59.61
62.03
61.37
58.09
53.07
47.33
41.88
37.39
34.00
31.45
29.07
26.23
22.52
17.93
12.84
7.76
3.03
-1.36
-5.76
-10.75
-16.84
-24.33
-33.23
-43.17
-53.46
-62.97
-70.27
-73.81
-72.37
-65.43
-53.45
-37.79
-20.31
-2.84
13.22
27.01
38.12
46.35
51.58
53.78
53.12
50.19
45.90
41.32
37.39
34.62
32.90
31.67
30.13
27.58
23.75
18.78
13.19
7.57
2.39
-2.21
-6.42
-10.69
-15.64
-21.82
-29.60
-38.89
-49.06
-58.78
-66.30
-69.87
-68.21
-60.96
-48.81
-33.27
-16.22
0.61
15.92
28.89
39.00
45.95
49.54
49.82
47.22
42.61
37.11
31.81
27.44
24.16
21.58
19.04
15.96
12.13
7.78
3.37
-0.68
-4.24
-7.56
-11.10
-15.36
-20.71
-27.31
-35.20
-44.14
-53.58
-62.46
-69.25
-72.22
-70.01
-62.17
-49.38
-33.27
-15.86
1.03
16.24
29.22
39.74
47.64
52.61
54.42
53.14
49.38
44.16
38.72
34.05
30.58
28.15
26.16
23.91
20.96
17.26
13.14
9.01
5.13
1.43
-2.49
-7.21
-13.25
-20.96
-30.27
-40.69
-51.19
-60.29
-66.34
-67.86
-64.00
-54.85
-41.46
-25.50
-8.84
6.96
20.88
32.37
41.19
47.23
50.42
50.89
49.03
45.53
41.30
37.12
33.44
30.29
27.28
24.01
20.18
15.79
11.14
6.53
2.23
-1.73
-5.48
-9.31
-13.52
-18.48
-24.59
-32.13
-41.06
-50.75
-59.93
-66.78
-69.50
-66.86
-58.66
-45.84
-30.06
-13.24
3.07
17.78
30.31
40.28
47.35
51.23
51.87
49.67
45.46
40.44
35.71
32.04
29.60
27.98
26.48
24.41
21.41
17.52
13.10
8.59
4.25
0.11
-3.99
-8.31
-13.06
-18.35
-24.30
-31.09
-38.83
-47.35
-55.90
-63.09
-67.14
-66.47
-60.34
-49.18
-34.52
-18.36
-2.56
11.70
23.88
33.87
41.53
46.54
48.61
47.66
44.22
39.22
33.86
29.16
25.64
23.31
21.68
20.12
18.08
15.26
11.68
7.63
3.48
-0.51
-4.31
-8.18
-12.53
-17.78
-24.23
-32.01
-41.04
-50.90
-60.76
-69.26
-74.73
-75.61
-70.98
-60.94
-46.65
-30.01
-12.98
2.83
16.48
27.54
35.86
41.41
44.19
44.41
42.54
39.36
35.72
32.37
29.65
27.50
25.53
23.26
20.33
16.69
12.55
8.26
4.15
0.39
-3.13
-6.72
-10.91
-16.24
-23.22
-31.99
-42.14
-52.54
-61.44
-66.91
-67.37
-62.17
-51.78
-37.64
-21.62
-5.47
9.51
22.58
33.29
41.30
46.30
48.14
47.02
43.63
39.00
34.19
29.98
26.64
23.92
21.27
18.14
14.30
9.86
5.25
0.93
-2.80
-6.02
-9.07
-12.56
-17.08
-23.10
-30.90
-40.40
-51.08
-61.79
-70.84
-76.31
-76.57
-70.84
-59.51
-44.09
-26.61
-9.08
7.10
21.16
32.82
41.88
48.02
50.93
50.54
47.28
42.14
36.38
31.11
26.91
23.72
20.94
17.85
13.91
9.13
3.89
-1.17
-5.59
-9.32
-12.75
-16.53
-21.32
-27.63
-35.53
-44.78
-54.74
-64.37
-72.30
-76.97
-77.02
-71.67
-61.04
-46.19
-28.83
-10.82
6.25
21.26
33.56
42.77
48.73
51.41
51.11
48.45
44.31
39.63
35.20
31.46
28.46
25.90
23.31
20.21
16.35
11.74
6.69
1.58
-3.29
-7.88
-12.48
-17.59
-23.75
-31.38
-40.60
-50.99
-61.58
-70.80
-76.80
-77.97
-73.36
-63.15
-48.57
-31.48
-13.81
2.98
17.97
30.64
40.53
47.20
50.25
49.75
46.36
41.32
36.06
31.70
28.70
26.76
25.18
23.20
20.44
17.00
13.24
9.58
6.20
2.97
-0.57
-4.93
-10.65
-18.09
-27.37
-38.25
-49.89
-60.90
-69.37
-73.43
-71.70
-63.84
-50.69
-33.95
-15.69
2.25
18.51
32.29
43.08
50.55
54.47
54.88
52.27
47.60
42.09
36.85
32.54
29.25
26.53
23.70
20.24
15.99
11.16
6.23
1.61
-2.58
-6.56
-10.87
-16.16
-22.99
-31.61
-41.81
-52.72
-62.88
-70.38
-73.38
-70.60
-61.77
-47.75
-30.17
-11.02
7.92
25.28
40.09
51.59
59.24
62.81
62.54
59.32
54.44
49.25
44.70
41.11
38.20
35.35
32.00
27.90
23.12
17.99
12.87
7.98
3.22
-1.80
-7.68
-15.06
-24.41
-35.82
-48.67
-61.67
-72.88
-80.17
-81.73
-76.65
-65.14
-48.50
-28.65
-7.65
12.79
31.41
47.27
59.62
67.90
71.81
71.62
68.23
62.98
57.22
51.93
47.37
43.22
38.84
33.71
27.77
21.36
15.11
9.57
4.95
0.98
-3.01
-7.91
-14.60
-23.58
-34.67
-46.88
-58.44
-67.13
-70.86
-68.29
-59.26
-44.86
-27.04
-7.97
10.48
27.05
40.99
51.85
59.21
62.84
62.79
59.69
54.70
49.20
44.31
40.47
37.45
34.51
30.99
26.63
21.71
16.85
12.60
9.15
6.15
2.92
-1.33
-7.26
-15.22
-25.14
-36.44
-47.96
-57.96
-64.44
-65.67
-60.70
-49.73
-34.13
-15.95
2.69
20.01
34.81
46.33
54.17
58.21
58.60
55.97
51.27
45.68
40.20
35.48
31.65
28.38
25.18
21.53
17.20
12.19
6.79
1.36
-3.79
-8.60
-13.31
-18.45
-24.67
-32.42
-41.68
-51.62
-60.71
-66.99
-68.63
-64.62
-55.05
-41.16
-24.77
-7.82
8.24
22.47
34.31
43.35
49.18
51.55
50.54
46.75
41.19
35.03
29.26
24.38
20.42
17.05
13.92
10.77
7.67
4.76
2.17
-0.19
-2.75
-6.15
-11.15
-18.28
-27.62
-38.54
-49.69
-59.19
-64.97
-65.43
-59.78
-48.38
-32.51
-14.04
5.13
23.32
39.29
52.16
61.31
66.42
67.56
65.32
60.74
55.12
49.63
44.97
41.22
37.93
34.45
30.24
25.16
19.45
13.59
8.04
2.94
-1.88
-6.99
-13.03
-20.60
-29.94
-40.73
-52.00
-62.11
-69.08
-71.09
-67.05
-56.92
-41.82
-23.64
-4.41
14.12
30.82
44.98
56.11
63.74
67.52
67.48
64.16
58.70
52.43
46.49
41.42
37.19
33.24
28.95
23.97
18.28
12.32
6.57
1.49
-2.83
-6.65
-10.56
-15.35
-21.71
-30.11
-40.39
-51.76
-62.63
-70.95
-74.70
-72.50
-64.13
-50.54
-33.61
-15.38
2.40
18.58
32.57
43.94
52.27
57.13
58.40
56.43
52.21
47.02
42.05
38.05
35.10
32.77
30.37
27.35
23.46
18.84
13.89
9.04
4.57
0.44
-3.57
-7.89
-12.93
-19.08
-26.60
-35.56
-45.68
-56.11
-65.38
-71.58
-72.90
-68.25
-57.75
-42.77
-25.48
-8.14
7.55
20.71
31.14
38.93
44.13
46.65
46.46
43.82
39.44
34.38
29.72
26.23
24.12
22.99
22.13
20.77
18.43
15.08
11.11
7.02
3.21
-0.25
-3.67
-7.56
-12.42
-18.61
-26.24
-35.17
-44.90
-54.54
-62.74
-67.91
-68.58
-63.94
-54.07
-40.13
-23.92
-7.40
7.80
20.69
30.83
38.13
42.62
44.38
43.66
40.91
36.91
32.54
28.59
25.48
23.18
21.28
19.23
16.59
13.23
9.33
5.25
1.34
-2.30
-5.83
-9.61
-14.16
-19.93
-27.20
-35.90
-45.50
-54.94
-62.70
-67.18
-67.03
-61.67
-51.42
-37.50
-21.58
-5.35
9.81
22.98
33.61
41.35
46.00
47.54
46.28
42.93
38.50
34.03
30.27
27.46
25.26
23.01
20.07
16.11
11.26
6.07
1.19
-2.90
-6.22
-9.22
-12.71
-17.47
-24.06
-32.57
-42.52
-52.96
-62.52
-69.62
-72.74
-70.81
-63.55
-51.63
-36.61
-20.37
-4.69
9.28
21.04
30.55
37.85
42.85
45.36
45.32
43.13
39.59
35.77
32.50
30.11
28.27
26.31
23.56
19.73
15.10
10.20
5.63
1.65
-1.91
-5.57
-9.96
-15.64
-22.92
-31.84
-42.08
-52.86
-62.90
-70.50
-73.92
-71.94
-64.26
-51.75
-36.09
-19.28
-3.04
11.44
23.49
32.74
38.93
41.94
41.93
39.47
35.52
31.17
27.35
24.47
22.46
20.79
18.85
16.22
12.81
8.91
4.95
1.33
-1.87
-4.82
-7.94
-11.72
-16.56
-22.73
-30.29
-39.04
-48.28
-56.84
-63.09
-65.45
-62.85
-55.22
-43.55
-29.55
-15.08
-1.52
10.33
20.25
28.15
33.81
36.91
37.20
34.91
30.72
25.77
21.13
17.45
14.77
12.52
9.99
6.64
2.39
-2.33
-6.87
-10.73
-13.78
-16.40
-19.32
-23.30
-28.96
-36.48
-45.56
-55.36
-64.56
-71.54
-74.73
-72.99
-65.99
-54.37
-39.45
-22.96
-6.48
8.79
22.07
32.88
40.82
45.64
47.30
46.12
42.88
38.59
34.27
30.59
27.76
25.47
23.18
20.40
16.92
12.90
8.75
4.90
1.53
-1.48
-4.59
-8.42
-13.64
-20.78
-29.97
-40.84
-52.29
-62.58
-69.64
-71.67
-67.70
-57.98
-43.89
-27.41
-10.51
5.37
19.43
31.28
40.66
47.23
50.68
50.98
48.59
44.44
39.70
35.30
31.69
28.73
25.84
22.45
18.25
13.43
8.52
4.06
0.32
-2.97
-6.43
-10.87
-16.93
-24.90
-34.65
-45.59
-56.72
-66.60
-73.57
-76.06
-73.01
-64.27
-50.70
-33.96
-15.96
1.61
17.61
31.35
42.48
50.67
55.71
57.52
56.39
53.02
48.37
43.44
39.00
35.41
32.60
30.13
27.46
24.12
19.90
14.92
9.54
4.18
-0.83
-5.47
-10.04
-15.03
-21.05
-28.61
-37.93
-48.67
-59.78
-69.54
-75.84
-76.80
-71.39
-59.85
-43.60
-24.75
-5.40
12.85
29.06
42.71
53.44
60.84
64.64
64.93
62.32
57.85
52.66
47.64
43.25
39.50
36.15
32.92
29.60
26.08
22.26
18.13
13.70
9.04
4.20
-0.76
-5.88
-11.30
-17.28
-24.20
-32.36
-41.85
-52.20
-62.22
-70.10
-73.81
-71.79
-63.56
-49.92
-32.72
-14.22
3.64
19.60
33.07
43.85
51.77
56.59
58.11
56.52
52.49
47.14
41.74
37.28
34.19
32.18
30.53
28.34
25.03
20.48
15.03
9.30
3.78
-1.25
-5.88
-10.42
-15.25
-20.71
-27.13
-34.78
-43.76
-53.77
-63.84
-72.36
-77.31
-76.94
-70.37
-57.95
-41.23
-22.37
-3.51
13.75
28.51
40.40
49.29
55.07
57.71
57.32
54.38
49.70
44.34
39.25
35.02
31.72
28.94
26.08
22.59
18.31
13.44
8.41
3.62
-0.79
-4.98
-9.41
-14.55
-20.85
-28.56
-37.75
-48.15
-59.01
-69.11
-76.76
-80.25
-78.30
-70.50
-57.52
-40.88
-22.47
-4.08
13.01
28.03
40.59
50.48
57.55
61.73
63.13
62.14
59.40
55.64
51.58
47.72
44.27
41.17
38.16
34.93
31.21
26.86
21.94
16.64
11.20
5.83
0.62
-4.55
-10.01
-16.23
-23.74
-32.89
-43.61
-55.19
-66.24
-74.87
-79.15
-77.66
-70.01
-56.89
-39.96
-21.22
-2.52
14.81
29.98
42.58
52.33
58.97
62.42
62.83
60.71
56.86
52.16
47.37
42.92
38.98
35.43
32.07
28.62
24.86
20.68
16.12
11.39
6.73
2.33
-1.80
-5.90
-10.34
-15.57
-22.02
-29.93
-39.27
-49.58
-59.72
-68.03
-72.60
-71.86
-65.20
-53.18
-37.44
-20.04
-2.89
12.71
26.12
37.01
45.16
50.25
52.15
51.03
47.61
42.95
38.21
34.20
31.25
29.16
27.40
25.40
22.80
19.54
15.78
11.77
7.71
3.64
-0.48
-4.79
-9.41
-14.52
-20.37
-27.28
-35.48
-44.80
-54.45
-62.96
-68.49
-69.33
-64.55
-54.33
-39.95
-23.36
-6.52
9.04
22.41
33.17
41.15
46.17
48.09
47.02
43.43
38.23
32.55
27.39
23.31
20.30
17.84
15.25
12.00
7.99
3.53
-0.81
-4.50
-7.34
-9.60
-11.86
-14.93
-19.47
-25.88
-34.17
-43.82
-53.84
-62.75
-68.82
-70.48
-66.76
-57.60
-43.98
-27.61
-10.36
6.06
20.50
32.33
41.22
47.00
49.66
49.38
46.70
42.44
37.57
32.93
28.99
25.74
22.80
19.65
15.94
11.57
6.86
2.20
-1.99
-5.63
-8.92
-12.38
-16.60
-22.15
-29.39
-38.28
-48.27
-58.15
-66.24
-70.69
-70.05
-63.80
-52.50
-37.67
-21.16
-4.74
10.42
23.61
34.39
42.39
47.22
48.72
47.18
43.43
38.67
34.06
30.40
27.75
25.71
23.49
20.53
16.64
12.12
7.53
3.40
-0.04
-3.10
-6.37
-10.59
-16.34
-23.88
-33.01
-43.05
-52.85
-60.90
-65.58
-65.53
-60.12
-49.67
-35.45
-19.29
-3.04
11.78
24.29
34.08
41.04
45.18
46.63
45.73
43.09
39.55
35.89
32.64
29.84
27.21
24.28
20.70
16.43
11.73
7.03
2.66
-1.25
-4.85
-8.60
-13.09
-18.93
-26.52
-35.82
-46.08
-55.84
-63.19
-66.24
-63.85
-55.95
-43.59
-28.53
-12.67
2.47
15.93
27.10
35.59
40.99
43.08
41.98
38.39
33.42
28.28
23.90
20.57
18.04
15.73
13.10
9.94
6.42
2.92
-0.19
-2.84
-5.30
-8.12
-11.98
-17.41
-24.68
-33.51
-43.11
-52.14
-58.93
-61.89
-59.88
-52.60
-40.74
-25.76
-9.51
6.20
19.91
30.72
38.16
42.21
43.13
41.45
37.91
33.34
28.51
23.95
19.88
16.16
12.50
8.63
4.48
0.19
-4.00
-7.89
-11.49
-15.05
-18.99
-23.75
-29.70
-37.00
-45.38
-54.18
-62.12
-67.60
-68.98
-65.17
-56.06
-42.57
-26.43
-9.58
6.33
20.21
31.49
39.90
45.32
47.77
47.52
45.17
41.63
37.82
34.42
31.59
29.07
26.39
23.13
19.18
14.76
10.27
6.00
2.04
-1.87
-6.27
-11.80
-19.01
-28.04
-38.33
-48.59
-56.91
-61.30
-60.29
-53.45
-41.54
-26.24
-9.55
6.75
21.46
33.92
43.75
50.64
54.34
54.82
52.46
48.19
43.16
38.43
34.58
31.53
28.73
25.46
21.30
16.28
10.91
5.83
1.47
-2.24
-5.90
-10.41
-16.61
-24.93
-35.14
-46.28
-56.73
-64.64
-68.25
-66.46
-59.06
-46.88
-31.45
-14.64
1.92
17.07
30.17
40.88
48.88
53.88
55.72
54.57
51.13
46.44
41.61
37.44
34.17
31.48
28.80
25.61
21.70
17.22
12.52
8.00
3.80
-0.17
-4.24
-8.87
-14.51
-21.51
-30.03
-39.87
-50.26
-59.82
-66.70
-69.06
-65.62
-56.21
-41.91
-24.66
-6.69
10.22
24.98
37.24
46.93
53.93
58.01
58.95
56.87
52.46
46.85
41.27
36.62
33.18
30.64
28.31
25.52
21.92
17.55
12.79
8.06
3.65
-0.43
-4.42
-8.64
-13.44
-19.07
-25.72
-33.49
-42.25
-51.45
-60.00
-66.32
-68.67
-65.74
-57.11
-43.51
-26.59
-8.45
8.96
24.22
36.57
45.66
51.43
53.97
53.52
50.52
45.73
40.05
34.40
29.49
25.65
22.75
20.35
17.91
14.95
11.35
7.29
3.14
-0.75
-4.25
-7.54
-11.06
-15.40
-21.09
-28.45
-37.46
-47.58
-57.66
-66.13
-71.20
-71.42
-66.09
-55.52
-40.94
-24.08
-6.72
9.79
24.51
36.87
46.43
52.80
55.71
55.21
51.84
46.56
40.61
35.06
30.56
27.16
24.41
21.61
18.22
14.03
9.26
4.37
-0.18
-4.17
-7.79
-11.45
-15.66
-20.85
-27.31
-35.19
-44.27
-53.94
-62.93
-69.48
-71.69
-68.17
-58.62
-43.96
-26.11
-7.30
10.54
26.24
39.31
49.62
57.11
61.58
62.94
61.38
57.55
52.51
47.40
43.07
39.81
37.34
34.98
32.06
28.14
23.24
17.76
12.24
7.09
2.48
-1.76
-6.02
-10.77
-16.45
-23.40
-31.78
-41.47
-51.86
-61.76
-69.51
-73.29
-71.66
-64.11
-51.23
-34.62
-16.39
1.48
17.53
31.01
41.67
49.53
54.64
57.04
56.84
54.34
50.18
45.13
40.00
35.40
31.56
28.40
25.54
22.65
19.49
16.00
12.27
8.43
4.53
0.51
-3.75
-8.42
-13.64
-19.60
-26.43
-34.33
-43.29
-53.07
-62.85
-71.21
-76.42
-76.80
-71.32
-60.10
-44.36
-26.15
-7.70
9.15
23.31
34.37
42.39
47.57
50.14
50.31
48.35
44.76
40.17
35.36
30.97
27.45
24.87
22.95
21.16
18.97
16.00
12.18
7.77
3.19
-1.20
-5.29
-9.20
-13.27
-17.96
-23.67
-30.70
-39.08
-48.51
-58.15
-66.64
-72.28
-73.48
-69.23
-59.48
-45.29
-28.45
-10.98
5.38
19.49
30.80
39.14
44.52
47.01
46.78
44.19
39.92
34.78
29.63
25.08
21.43
18.53
16.03
13.50
10.60
7.28
3.65
-0.03
-3.58
-6.91
-10.17
-13.59
-17.50
-22.25
-28.17
-35.54
-44.30
-53.91
-63.14
-70.21
-73.27
-70.93
-62.84
-49.82
-33.56
-16.06
0.96
16.32
29.42
39.96
47.75
52.61
54.54
53.78
50.94
46.82
42.22
37.79
33.85
30.49
27.59
24.95
22.32
19.53
16.38
12.77
8.64
3.99
-1.11
-6.55
-12.15
-17.80
-23.49
-29.51
-36.31
-44.33
-53.61
-63.30
-71.72
-76.67
-76.21
-69.41
-56.78
-40.04
-21.52
-3.35
13.02
26.93
38.19
46.75
52.54
55.48
55.68
53.59
49.93
45.57
41.31
37.60
34.60
32.11
29.75
27.07
23.76
19.68
14.95
9.84
4.64
-0.34
-4.98
-9.25
-13.30
-17.42
-22.04
-27.75
-35.06
-44.23
-54.86
-65.74
-74.88
-80.01
-79.31
-71.99
-58.65
-41.08
-21.61
-2.47
14.74
29.16
40.49
48.70
53.87
56.14
55.90
53.66
50.15
46.06
41.90
37.97
34.35
31.00
27.82
24.71
21.59
18.38
15.07
11.58
7.86
3.85
-0.52
-5.26
-10.36
-15.77
-21.55
-27.92
-35.25
-43.80
-53.35
-62.96
-70.87
-74.99
-73.57
-65.94
-52.75
-35.77
-17.25
0.79
17.03
30.92
42.31
51.07
56.90
59.45
58.61
54.83
49.10
42.74
36.91
32.21
28.59
25.41
21.94
17.68
12.62
7.21
2.05
-2.39
-6.02
-9.13
-12.24
-15.88
-20.42
-26.14
-33.16
-41.53
-50.98
-60.73
-69.37
-75.11
-76.22
-71.65
-61.45
-46.79
-29.63
-12.00
4.41
18.60
30.07
38.63
44.12
46.45
45.71
42.36
37.30
31.67
26.57
22.65
19.92
17.81
15.49
12.30
8.00
2.96
-2.18
-6.82
-10.67
-13.89
-16.96
-20.49
-25.03
-30.99
-38.56
-47.59
-57.40
-66.70
-73.75
-76.69
-74.18
-65.87
-52.58
-35.97
-18.01
-0.44
15.54
29.14
39.81
47.06
50.61
50.59
47.68
43.05
37.97
33.41
29.75
26.74
23.83
20.46
16.36
11.62
6.57
1.59
-3.07
-7.38
-11.51
-15.82
-20.77
-26.87
-34.60
-44.20
-55.45
-67.40
-78.38
-86.29
-89.11
-85.61
-75.77
-60.76
-42.49
-23.05
-4.10
13.21
28.14
40.09
48.46
52.86
53.28
50.39
45.43
39.92
35.12
31.62
29.26
27.25
24.71
21.04
16.25
10.82
5.45
0.68
-3.48
-7.40
-11.75
-17.18
-24.21
-33.05
-43.66
-55.54
-67.60
-78.15
-85.10
-86.54
-81.39
-69.80
-53.16
-33.66
-13.60
5.23
21.68
35.22
45.61
52.71
56.49
57.09
55.01
51.08
46.29
41.54
37.40
34.01
31.09
28.17
24.77
20.64
15.81
10.54
5.18
0.01
-4.95
-10.00
-15.70
-22.81
-31.91
-43.15
-55.93
-68.78
-79.55
-85.96
-86.19
-79.29
-65.37
-45.45
-21.34
4.64
29.82
51.54
67.66
77.01
79.73
77.13
71.22
64.01
57.01
51.00
46.18
42.39
39.30
36.48
33.48
29.91
25.58
20.57
15.16
9.62
4.05
-1.67
-7.96
-15.33
-24.29
-35.03
-47.23
-59.81
-70.98
-78.49
-80.30
-75.18
-63.22
-45.80
-25.17
-3.80
16.31
33.75
47.73
57.82
63.80
65.67
63.80
59.11
52.87
46.44
40.85
36.50
33.16
30.14
26.74
22.50
17.43
11.91
6.49
1.56
-2.80
-6.99
-11.75
-17.91
-26.19
-36.82
-49.30
-62.21
-73.45
-80.56
-81.50
-75.23
-62.12
-43.83
-22.69
-1.04
19.34
37.38
52.43
64.01
71.52
74.55
73.13
68.07
60.92
53.47
47.17
42.59
39.36
36.38
32.52
27.14
20.42
13.25
6.76
1.67
-2.09
-5.40
-9.74
-16.39
-26.23
-39.20
-54.35
-69.95
-83.62
-92.60
-94.11
-86.15
-68.31
-42.40
-12.28
17.29
42.12
60.03
71.08
76.92
79.48
79.92
78.35
74.47
68.42
61.19
54.38
49.32
46.36
44.65
42.66
39.09
33.47
26.35
18.80
11.99
6.43
1.86
-2.63
-8.17
-15.80
-26.06
-38.82
-53.20
-67.46
-79.34
-86.37
-86.64
-79.32
-64.99
-45.47
-23.23
-0.66
20.44
38.98
54.36
66.19
74.09
77.86
77.66
74.23
68.78
62.69
57.09
52.52
48.86
45.48
41.66
36.91
31.18
24.83
18.41
12.34
6.71
1.31
-4.25
-10.39
-17.48
-25.88
-35.90
-47.58
-60.36
-72.76
-82.48
-86.96
-84.21
-73.60
-56.22
-34.44
-11.17
11.06
30.59
46.71
59.21
68.03
73.09
74.35
72.09
67.10
60.59
53.94
48.28
44.15
41.33
39.05
36.36
32.53
27.42
21.45
15.33
9.72
4.85
0.42
-4.17
-9.70
-16.72
-25.60
-36.37
-48.70
-61.74
-73.99
-83.44
-87.88
-85.67
-76.24
-60.43
-40.23
-18.17
3.37
22.67
38.70
50.95
59.20
63.37
63.65
60.59
55.17
48.67
42.35
37.14
33.42
30.97
29.13
27.09
24.20
20.24
15.38
10.12
4.94
0.12
-4.47
-9.27
-14.96
-22.24
-31.56
-42.95
-55.70
-68.33
-78.71
-84.57
-84.08
-76.55
-62.65
-44.21
-23.64
-3.23
15.35
31.07
43.37
51.91
56.45
57.05
54.26
49.13
43.11
37.52
33.20
30.26
28.15
26.07
23.33
19.75
15.60
11.45
7.79
4.72
1.89
-1.39
-5.86
-12.13
-20.48
-30.78
-42.48
-54.47
-65.15
-72.58
-74.92
-70.99
-60.73
-45.24
-26.51
-6.82
11.88
28.24
41.54
51.44
57.78
60.49
59.73
56.07
50.48
44.22
38.43
33.89
30.67
28.27
25.88
22.74
18.52
13.39
7.96
2.82
-1.66
-5.59
-9.49
-14.11
-20.20
-28.29
-38.49
-50.21
-62.19
-72.46
-78.85
-79.51
-73.56
-61.40
-44.56
-25.19
-5.39
13.21
29.57
43.12
53.39
60.04
62.87
62.09
58.42
53.01
47.15
41.89
37.75
34.65
32.08
29.39
26.15
22.23
17.87
13.45
9.25
5.32
1.40
-2.95
-8.23
-14.87
-23.16
-33.15
-44.48
-56.24
-66.83
-74.26
-76.55
-72.50
-62.09
-46.63
-28.30
-9.42
8.18
23.53
36.32
46.50
53.92
58.29
59.38
57.39
53.07
47.61
42.22
37.73
34.39
31.83
29.37
26.39
22.54
17.88
12.74
7.56
2.65
-1.90
-6.21
-10.63
-15.55
-21.45
-28.75
-37.70
-48.17
-59.36
-69.79
-77.40
-80.17
-76.67
-66.70
-51.31
-32.53
-12.79
5.80
21.81
34.56
43.96
50.13
53.32
53.74
51.75
47.86
42.84
37.57
32.88
29.25
26.73
24.85
22.83
20.01
16.07
11.23
6.08
1.24
-2.95
-6.67
-10.46
-14.95
-20.59
-27.58
-35.87
-45.30
-55.49
-65.60
-74.26
-79.60
-79.85
-73.92
-62.00
-45.56
-26.86
-8.18
8.73
22.94
34.14
42.22
47.11
48.80
47.55
44.09
39.43
34.68
30.65
27.68
25.58
23.88
22.06
19.68
16.59
12.87
8.80
4.72
0.86
-2.77
-6.44
-10.65
-15.98
-22.91
-31.65
-41.94
-52.98
-63.40
-71.42
-75.23
-73.53
-65.94
-53.23
-37.04
-19.42
-2.26
13.13
26.06
36.17
43.33
47.40
48.39
46.61
42.77
37.92
33.11
29.16
26.33
24.37
22.67
20.52
17.46
13.45
8.80
3.99
-0.60
-4.90
-9.14
-13.74
-19.12
-25.61
-33.38
-42.45
-52.60
-63.14
-72.75
-79.56
-81.61
-77.49
-66.94
-51.05
-31.98
-12.22
6.13
21.77
34.21
43.50
49.85
53.41
54.32
52.85
49.51
45.07
40.35
36.04
32.44
29.43
26.60
23.43
19.58
15.02
10.02
5.03
0.43
-3.61
-7.20
-10.69
-14.49
-18.98
-24.51
-31.33
-39.59
-49.14
-59.34
-68.88
-75.90
-78.43
-75.00
-65.25
-50.11
-31.49
-11.79
6.90
23.09
36.05
45.54
51.53
54.11
53.47
50.09
44.71
38.37
32.11
26.80
22.94
20.50
19.02
17.70
15.77
12.70
8.45
3.40
-1.84
-6.79
-11.29
-15.53
-19.95
-24.89
-30.59
-37.12
-44.54
-52.85
-61.73
-70.32
-77.12
-80.21
-77.91
-69.46
-55.43
-37.60
-18.37
-0.02
15.89
28.68
38.30
45.01
49.00
50.44
49.52
46.66
42.56
38.03
33.85
30.46
27.88
25.80
23.72
21.20
17.95
13.94
9.37
4.56
-0.17
-4.62
-8.80
-12.92
-17.33
-22.43
-28.60
-36.09
-45.00
-55.03
-65.32
-74.38
-80.29
-81.16
-75.88
-64.52
-48.44
-29.84
-11.03
6.17
20.75
32.32
40.87
46.40
48.94
48.64
45.94
41.59
36.51
31.59
27.46
24.40
22.25
20.55
18.73
16.32
13.12
9.26
5.14
1.16
-2.42
-5.67
-8.91
-12.62
-17.32
-23.38
-31.07
-40.31
-50.65
-61.02
-69.77
-75.01
-75.02
-68.95
-57.13
-41.02
-22.77
-4.53
12.03
25.97
36.92
44.79
49.52
51.14
49.84
46.18
41.08
35.60
30.69
26.83
24.00
21.70
19.35
16.48
12.98
9.03
4.99
1.16
-2.40
-5.85
-9.52
-13.79
-19.06
-25.69
-33.92
-43.71
-54.46
-64.84
-72.89
-76.50
-74.06
-65.13
-50.68
-32.73
-13.73
4.28
20.00
32.95
43.01
50.12
54.12
54.86
52.62
48.17
42.80
37.76
33.87
31.23
29.26
27.11
24.04
19.85
14.81
9.50
4.49
0.03
-4.01
-8.12
-12.87
-18.83
-26.31
-35.38
-45.72
-56.58
-66.75
-74.58
-78.33
-76.60
-68.84
-55.58
-38.36
-19.32
-0.54
16.41
30.67
41.90
50.06
55.13
57.13
56.25
53.06
48.54
43.82
39.89
37.15
35.37
33.84
31.67
28.29
23.66
18.29
12.91
8.14
4.18
0.69
-2.94
-7.50
-13.61
-21.65
-31.60
-42.94
-54.52
-64.63
-71.23
-72.51
-67.51
-56.47
-40.81
-22.66
-4.19
12.97
27.84
39.94
49.00
54.78
57.19
56.45
53.29
48.80
44.10
40.01
36.72
33.98
31.25
28.07
24.27
19.97
15.45
11.02
6.89
3.05
-0.63
-4.49
-8.90
-14.28
-21.06
-29.43
-39.34
-50.14
-60.60
-68.92
-73.17
-71.82
-64.31
-51.33
-34.62
-16.41
1.23
16.91
29.98
40.30
47.83
52.51
54.21
53.04
49.53
44.69
39.66
35.47
32.56
30.74
29.32
27.53
24.76
20.92
16.32
11.55
7.07
3.04
-0.81
-4.98
-10.10
-16.57
-24.56
-33.90
-44.10
-54.31
-63.24
-69.35
-71.10
-67.45
-58.21
-44.24
-27.24
-9.27
7.84
22.78
34.83
43.70
49.28
51.62
50.99
48.00
43.58
38.81
34.66
31.59
29.53
27.91
25.96
23.09
19.07
14.17
8.94
3.99
-0.35
-4.17
-7.91
-12.30
-17.99
-25.45
-34.69
-45.20
-55.84
-64.96
-70.73
-71.59
-66.80
-56.65
-42.49
-26.20
-9.66
5.84
19.58
31.30
40.79
47.67
51.50
52.12
49.88
45.72
40.90
36.53
33.17
30.78
28.78
26.47
23.33
19.29
14.64
9.91
5.51
1.54
-2.27
-6.42
-11.50
-17.95
-26.00
-35.52
-46.02
-56.44
-65.29
-70.73
-71.14
-65.62
-54.41
-38.90
-21.18
-3.42
12.79
26.56
37.64
45.97
51.52
54.15
53.86
51.02
46.40
41.09
36.12
32.17
29.34
27.24
25.20
22.59
19.11
14.85
10.22
5.69
1.59
-2.10
-5.73
-9.82
-14.94
-21.49
-29.71
-39.51
-50.37
-61.29
-70.72
-76.87
-78.07
-73.39
-62.95
-47.98
-30.41
-12.31
4.68
19.54
31.84
41.45
48.30
52.38
53.78
52.84
50.17
46.52
42.60
38.88
35.58
32.61
29.80
26.90
23.78
20.39
16.79
13.07
9.26
5.30
1.05
-3.69
-9.09
-15.23
-22.22
-30.18
-39.18
-49.08
-59.23
-68.33
-74.64
-76.41
-72.53
-63.01
-48.98
-32.31
-14.98
1.41
15.92
28.04
37.49
43.99
47.36
47.65
45.37
41.40
36.81
32.53
29.07
26.55
24.69
23.09
21.35
19.19
16.51
13.29
9.65
5.71
1.66
-2.42
-6.58
-10.99
-16.00
-21.98
-29.30
-38.16
-48.40
-59.31
-69.59
-77.44
-81.00
-78.86
-70.58
-56.92
-39.60
-20.81
-2.58
13.64
27.02
37.23
44.13
47.71
48.11
45.80
41.60
36.60
31.91
28.23
25.84
24.46
23.51
22.33
20.43
17.63
14.08
10.10
6.00
2.01
-1.92
-6.02
-10.61
-16.04
-22.65
-30.70
-40.23
-50.86
-61.52
-70.49
-75.66
-75.24
-68.42
-55.77
-39.12
-20.86
-3.24
12.36
25.42
36.02
44.35
50.33
53.71
54.30
52.35
48.68
44.43
40.68
37.95
36.08
34.35
31.94
28.38
23.71
18.47
13.30
8.61
4.40
0.34
-4.05
-9.16
-15.24
-22.46
-30.98
-40.87
-51.88
-63.08
-72.84
-79.07
-79.82
-74.01
-61.86
-44.86
-25.30
-5.54
12.57
27.98
40.28
49.48
55.66
58.90
59.41
57.61
54.22
50.12
46.14
42.89
40.54
38.85
37.33
35.41
32.66
28.96
24.48
19.54
14.47
9.44
4.37
-1.00
-6.99
-13.88
-21.87
-31.05
-41.31
-52.24
-62.96
-71.95
-77.31
-77.26
-70.76
-58.03
-40.61
-20.90
-1.45
15.85
30.05
41.04
49.18
54.84
58.21
59.43
58.69
56.45
53.34
50.02
46.96
44.36
42.14
40.00
37.59
34.58
30.78
26.17
20.94
15.38
9.84
4.55
-0.49
-5.47
-10.77
-16.80
-24.01
-32.69
-42.93
-54.40
-66.12
-76.50
-83.49
-85.17
-80.36
-69.10
-52.66
-33.18
-13.05
5.80
22.07
35.23
45.14
51.86
55.56
56.46
55.02
51.90
47.86
43.63
39.74
36.42
33.67
31.28
28.94
26.39
23.41
19.93
15.98
11.69
7.20
2.63
-2.00
-6.77
-11.83
-17.43
-23.88
-31.48
-40.48
-50.76
-61.70
-71.90
-79.44
-82.29
-79.00
-69.25
-54.09
-35.54
-15.99
2.51
18.68
31.95
42.19
49.39
53.56
54.74
53.21
49.63
44.86
39.84
35.26
31.49
28.51
26.02
23.62
20.92
17.68
13.83
9.49
4.88
0.23
-4.33
-8.88
-13.65
-19.00
-25.26
-32.68
-41.33
-50.94
-60.77
-69.63
-75.95
-78.10
-74.88
-65.92
-51.95
-34.61
-15.96
2.05
18.01
31.13
41.10
47.79
51.20
51.42
48.84
44.25
38.74
33.43
29.08
25.94
23.65
21.50
18.81
15.22
10.82
6.03
1.36
-2.86
-6.67
-10.46
-14.85
-20.46
-27.70
-36.66
-46.95
-57.66
-67.41
-74.49
-77.26
-74.61
-66.31
-53.20
-36.85
-19.20
-1.96
13.70
27.15
38.07
46.17
51.18
52.89
51.54
47.82
42.84
37.80
33.53
30.23
27.52
24.68
21.07
16.46
11.13
5.66
0.68
-3.55
-7.17
-10.75
-15.04
-20.73
-28.25
-37.59
-48.17
-58.80
-67.87
-73.57
-74.40
-69.53
-59.17
-44.49
-27.26
-9.41
7.43
22.12
33.99
42.70
48.09
50.24
49.55
46.74
42.82
38.80
35.39
32.83
30.82
28.72
25.94
22.19
17.60
12.60
7.72
3.27
-0.75
-4.72
-9.28
-15.11
-22.78
-32.41
-43.52
-54.88
-64.68
-70.90
-71.90
-66.98
-56.56
-42.11
-25.59
-8.90
6.56
20.00
31.08
39.60
45.33
48.10
47.94
45.33
41.17
36.55
32.34
28.95
26.19
23.50
20.31
16.33
11.75
7.07
2.80
-0.80
-3.90
-7.01
-10.89
-16.18
-23.32
-32.31
-42.54
-52.86
-61.60
-66.97
-67.53
-62.63
-52.59
-38.63
-22.48
-5.82
10.00
24.05
35.74
44.60
50.27
52.64
51.97
49.03
44.92
40.70
37.07
34.11
31.48
28.63
25.18
21.07
16.57
12.07
7.89
4.08
0.43
-3.50
-8.27
-14.40
-22.28
-31.89
-42.60
-53.12
-61.56
-65.98
-64.93
-57.96
-45.82
-30.12
-12.88
4.09
19.53
32.72
43.25
50.77
54.93
55.59
53.05
48.12
42.04
35.96
30.59
26.00
21.67
16.96
11.45
5.27
-1.05
-6.86
-11.71
-15.66
-19.21
-23.16
-28.29
-35.15
-43.80
-53.70
-63.66
-71.96
-76.72
-76.33
-70.08
-58.30
-42.38
-24.23
-5.75
11.62
27.02
39.91
49.92
56.61
59.74
59.46
56.53
52.08
47.29
42.94
39.16
35.57
31.68
27.19
22.22
17.19
12.57
8.53
4.94
1.38
-2.70
-7.81
-14.34
-22.56
-32.46
-43.52
-54.61
-64.01
-69.75
-70.09
-64.16
-52.29
-35.89
-17.13
1.82
19.23
34.15
46.27
55.64
62.35
66.36
67.57
66.05
62.24
56.98
51.34
46.28
42.32
39.38
36.84
33.92
30.02
25.01
19.24
13.32
7.75
2.69
-2.09
-7.07
-12.70
-19.33
-27.09
-36.09
-46.32
-57.48
-68.81
-78.81
-85.49
-86.86
-81.65
-69.83
-52.64
-32.22
-10.86
9.54
27.75
43.12
55.34
64.25
69.81
72.26
72.18
70.38
67.67
64.67
61.63
58.54
55.29
51.82
48.24
44.73
41.39
38.18
34.89
31.17
26.71
21.38
15.24
8.54
1.57
-5.38
-12.17
-18.82
-25.53
-32.71
-40.89
-50.53
-61.62
-73.39
-84.19
-91.80
-94.02
-89.50
-78.25
-61.59
-41.78
-21.14
-1.57
15.86
30.63
42.56
51.47
57.20
59.78
59.58
57.41
54.28
51.09
48.37
46.15
44.13
41.96
39.44
36.67
33.88
31.27
28.77
26.04
22.64
18.23
12.79
6.62
0.20
-6.06
-11.98
-17.71
-23.63
-30.28
-38.13
-47.46
-58.07
-69.12
-79.13
-86.21
-88.55
-84.95
-75.31
-60.61
-42.66
-23.48
-4.82
12.12
26.67
38.46
47.30
53.08
55.91
56.17
54.51
51.63
48.17
44.51
40.81
37.16
33.59
30.22
27.14
24.33
21.57
18.49
14.76
10.17
4.87
-0.87
-6.68
-12.34
-17.89
-23.57
-29.85
-37.22
-46.04
-56.23
-67.11
-77.31
-84.94
-88.11
-85.47
-76.69
-62.59
-44.85
-25.49
-6.34
11.27
26.56
39.08
48.54
54.77
57.82
58.03
56.02
52.60
48.48
44.19
40.02
36.10
32.52
29.36
26.70
24.43
22.28
19.75
16.41
12.04
6.78
1.04
-4.67
-10.05
-15.12
-20.25
-26.02
-33.01
-41.62
-51.84
-63.06
-74.04
-83.00
-87.99
-87.44
-80.65
-68.00
-50.90
-31.34
-11.32
7.53
24.12
37.83
48.36
55.61
59.72
61.10
60.35
58.15
55.07
51.49
47.59
43.52
39.39
35.38
31.66
28.24
24.99
21.65
17.97
13.80
9.13
4.04
-1.38
-7.07
-13.04
-19.27
-25.83
-32.86
-40.66
-49.56
-59.63
-70.39
-80.52
-88.07
-90.93
-87.65
-77.91
-62.73
-44.13
-24.41
-5.56
11.19
25.27
36.59
45.16
50.99
54.14
54.80
53.43
50.63
47.09
43.37
39.81
36.52
33.45
30.50
27.56
24.55
21.42
18.04
14.25
9.91
4.97
-0.49
-6.26
-12.14
-18.00
-23.98
-30.43
-37.87
-46.66
-56.67
-67.06
-76.26
-82.30
-83.36
-78.46
-67.68
-52.26
-34.15
-15.40
2.30
17.92
30.89
40.99
48.06
52.06
53.09
51.53
48.08
43.62
38.98
34.75
31.26
28.48
26.16
23.96
21.48
18.46
14.76
10.44
5.72
0.90
-3.77
-8.21
-12.56
-17.23
-22.75
-29.71
-38.42
-48.70
-59.66
-69.71
-76.90
-79.38
-76.08
-66.97
-53.20
-36.56
-18.98
-2.02
13.35
26.59
37.36
45.34
50.24
51.96
50.81
47.49
42.97
38.20
33.87
30.24
27.15
24.19
20.96
17.15
12.75
7.91
2.93
-1.96
-6.66
-11.30
-16.09
-21.38
-27.50
-34.74
-43.31
-53.13
-63.59
-73.41
-80.75
-83.69
-80.82
-71.86
-57.77
-40.44
-22.03
-4.30
11.65
25.42
36.85
45.82
52.01
55.18
55.30
52.82
48.58
43.65
38.92
34.89
31.60
28.64
25.48
21.66
17.07
11.87
6.43
1.12
-3.89
-8.61
-13.28
-18.15
-23.55
-29.80
-37.23
-45.98
-55.75
-65.59
-73.88
-78.63
-78.11
-71.43
-58.90
-41.97
-22.74
-3.33
14.69
30.38
43.38
53.51
60.62
64.55
65.30
63.21
59.08
53.90
48.71
44.24
40.73
37.95
35.39
32.51
28.95
24.64
19.79
14.73
9.81
5.16
0.76
-3.69
-8.54
-14.23
-21.20
-29.70
-39.69
-50.51
-60.89
-68.98
-72.80
-70.73
-62.18
-47.72
-28.99
-8.20
12.54
31.48
47.47
59.78
67.95
71.77
71.36
67.33
60.69
52.74
44.69
37.43
31.36
26.46
22.47
19.02
15.82
12.64
9.30
5.71
1.90
-2.10
-6.15
-10.22
-14.38
-18.88
-24.17
-30.69
-38.83
-48.54
-59.17
-69.33
-77.14
-80.67
-78.56
-70.47
-57.24
-40.62
-22.63
-5.04
10.91
24.58
35.58
43.66
48.53
50.08
48.56
44.69
39.53
34.22
29.55
25.80
22.73
19.73
16.25
12.02
7.18
2.19
-2.48
-6.53
-10.08
-13.59
-17.69
-22.94
-29.71
-38.11
-47.99
-58.84
-69.68
-79.00
-84.93
-85.71
-80.28
-68.72
-52.33
-33.19
-13.58
4.68
20.46
33.25
42.86
49.20
52.24
52.13
49.42
45.01
40.00
35.31
31.43
28.30
25.46
22.33
18.54
14.13
9.47
5.13
1.45
-1.57
-4.37
-7.68
-12.26
-18.75
-27.34
-37.75
-49.08
-59.85
-68.17
-72.17
-70.51
-62.78
-49.78
-33.15
-14.94
3.01
19.40
33.45
44.70
52.79
57.41
58.47
56.42
52.17
46.99
42.00
37.81
34.39
31.20
27.64
23.40
18.58
13.63
8.96
4.81
1.00
-2.82
-7.10
-12.22
-18.44
-25.96
-34.84
-44.88
-55.27
-64.60
-70.93
-72.49
-68.18
-58.06
-43.41
-26.18
-8.39
8.44
23.43
36.17
46.37
53.64
57.60
58.12
55.66
51.20
46.08
41.47
38.01
35.59
33.56
31.11
27.66
23.16
18.00
12.84
8.20
4.27
0.79
-2.82
-7.22
-13.04
-20.67
-30.21
-41.18
-52.53
-62.56
-69.25
-70.84
-66.27
-55.68
-40.31
-22.09
-3.07
15.10
31.35
45.07
55.83
63.25
67.04
67.28
64.47
59.56
53.67
47.77
42.48
37.94
34.02
30.39
26.74
22.78
18.40
13.59
8.50
3.41
-1.41
-5.84
-10.01
-14.30
-19.26
-25.47
-33.31
-42.78
-53.27
-63.48
-71.57
-75.57
-73.97
-66.21
-52.97
-35.87
-17.01
1.67
18.80
33.57
45.56
54.45
59.98
62.06
61.02
57.60
52.91
48.06
43.77
40.30
37.35
34.40
30.92
26.69
21.84
16.80
12.05
7.91
4.37
1.07
-2.58
-7.16
-13.11
-20.61
-29.51
-39.35
-49.24
-57.87
-63.68
-65.13
-61.24
-51.87
-37.94
-21.15
-3.46
13.38
28.20
40.30
49.36
55.15
57.58
56.73
53.12
47.68
41.53
35.74
30.96
27.30
24.38
21.59
18.39
14.49
10.01
5.26
0.63
-3.60
-7.45
-11.14
-15.11
-19.82
-25.72
-33.14
-42.11
-52.19
-62.31
-70.80
-75.75
-75.53
-69.34
-57.55
-41.58
-23.41
-5.01
12.10
26.89
38.73
47.16
51.93
53.00
50.82
46.26
40.54
34.82
29.90
26.04
22.94
20.05
16.87
13.15
9.03
4.84
0.96
-2.45
-5.49
-8.57
-12.18
-16.81
-22.88
-30.58
-39.83
-50.08
-60.22
-68.62
-73.46
-73.24
-67.23
-55.81
-40.30
-22.66
-4.85
11.50
25.34
36.13
43.63
47.84
48.92
47.30
43.66
38.88
33.87
29.33
25.58
22.53
19.82
16.98
13.70
9.93
5.95
2.14
-1.18
-3.95
-6.47
-9.29
-13.14
-18.63
-26.06
-35.13
-44.86
-53.63
-59.52
-60.85
-56.72
-47.27
-33.63
-17.54
-0.76
15.27
29.58
41.55
50.63
56.44
58.71
57.63
53.86
48.46
42.58
37.10
32.48
28.66
25.25
21.79
17.99
13.83
9.50
5.33
1.53
-1.85
-5.05
-8.48
-12.64
-17.97
-24.71
-32.87
-42.02
-51.28
-59.33
-64.59
-65.63
-61.55
-52.35
-38.94
-22.96
-6.18
9.81
23.97
35.71
44.75
50.92
54.06
54.22
51.72
47.30
41.96
36.67
32.13
28.55
25.72
23.13
20.26
16.77
12.62
8.01
3.33
-1.07
-5.00
-8.53
-12.06
-16.14
-21.32
-27.99
-36.18
-45.51
-55.05
-63.49
-69.24
-70.87
-67.41
-58.73
-45.61
-29.54
-12.35
4.28
19.06
31.24
40.45
46.59
49.72
50.10
48.20
44.71
40.46
36.14
32.25
28.88
25.91
23.04
20.03
16.75
13.19
9.41
5.49
1.51
-2.52
-6.61
-10.80
-15.23
-20.07
-25.61
-32.15
-39.89
-48.69
-57.85
-66.04
-71.52
-72.62
-68.28
-58.47
-44.19
-27.16
-9.22
8.06
23.65
36.93
47.49
54.97
59.09
59.80
57.43
52.78
46.84
40.63
34.92
30.05
26.04
22.68
19.69
16.81
13.85
10.67
7.20
3.44
-0.58
-4.77
-9.07
-13.52
-18.26
-23.60
-29.91
-37.51
-46.40
-56.06
-65.27
-72.31
-75.30
-72.83
-64.55
-51.26
-34.72
-17.06
-0.15
14.76
27.05
36.49
43.03
46.60
47.27
45.34
41.43
36.40
31.22
26.61
22.96
20.24
18.06
15.95
13.51
10.58
7.24
3.74
0.30
-3.03
-6.41
-10.17
-14.69
-20.32
-27.24
-35.49
-44.79
-54.49
-63.47
-70.23
-73.22
-71.25
-63.89
-51.71
-36.08
-18.84
-1.78
13.74
26.83
37.03
44.10
47.92
48.54
46.32
41.95
36.42
30.77
25.80
21.84
18.73
16.00
13.13
9.80
6.03
2.10
-1.63
-4.96
-7.95
-10.95
-14.52
-19.23
-25.53
-33.59
-43.16
-53.42
-62.93
-69.92
-72.63
-69.88
-61.47
-48.26
-31.91
-14.35
2.70
18.04
30.97
41.11
48.18
52.02
52.67
50.54
46.42
41.32
36.16
31.53
27.55
23.99
20.43
16.58
12.36
7.94
3.63
-0.34
-3.91
-7.26
-10.75
-14.85
-19.99
-26.55
-34.72
-44.36
-54.80
-64.76
-72.48
-76.10
-74.25
-66.52
-53.68
-37.40
-19.79
-2.71
12.56
25.32
35.26
42.20
45.96
46.52
44.14
39.49
33.54
27.32
21.62
16.80
12.75
9.06
5.22
0.90
-4.01
-9.30
-14.57
-19.39
-23.44
-26.60
-29.04
-31.18
-33.60
-36.92
-41.59
-47.58
-54.29
-60.45
-64.39
-64.43
-59.45
-49.24
-34.62
-17.22
1.05
18.47
33.85
46.62
56.59
63.79
68.31
70.32
70.11
68.16
65.06
61.47
57.95
54.76
51.96
49.32
46.55
43.40
39.83
35.99
32.20
28.71
25.58
22.58
19.25
15.04
9.55
2.54
-5.96
-15.67
-25.98
-35.92
-44.15
-49.15
-49.61
-44.83
-35.04
-21.35
-5.45
10.89
26.16
39.39
50.02
57.77
62.51
64.24
63.19
59.86
55.04
49.62
44.36
39.76
35.91
32.58
29.34
25.82
21.82
17.38
12.80
8.43
4.56
1.26
-1.69
-4.77
-8.53
-13.45
-19.69
-26.98
-34.57
-41.24
-45.58
-46.27
-42.45
-33.96
-21.46
-6.24
10.04
25.71
39.42
50.23
57.75
62.04
63.60
63.16
61.65
60.07
59.25
59.75
61.62
64.43
67.20
68.74
67.95
64.12
57.15
47.27
34.80
19.84
2.17
-18.67
-43.15
-71.50
-103.39
-137.58
-171.53
-201.34
-222.41
-230.56
-223.62
-202.42
-170.73
-133.99
-97.45
-64.62
-36.75
-13.49
5.92
21.82
33.88
41.70
45.35
45.79
44.50
42.99
42.12
41.93
41.84
41.05
39.01
35.68
31.52
27.22
23.42
20.37
17.87
15.36
12.11
7.57
1.43
-6.35
-15.56
-25.81
-36.47
-46.60
-54.85
-59.72
-59.83
-54.42
-43.68
-28.78
-11.59
5.85
21.77
35.07
45.22
52.13
55.92
56.81
55.15
51.48
46.53
41.12
36.02
31.65
28.08
25.02
21.97
18.54
14.52
10.03
5.34
0.77
-3.54
-7.68
-11.93
-16.76
-22.59
-29.77
-38.36
-48.11
-58.28
-67.62
-74.57
-77.49
-75.21
-67.36
-54.57
-38.28
-20.35
-2.54
13.81
27.88
39.27
47.82
53.45
56.17
56.20
53.99
50.18
45.53
40.67
36.08
31.98
28.41
25.28
22.40
19.55
16.52
13.25
9.77
6.27
2.90
-0.36
-3.78
-7.79
-12.90
-19.52
-27.80
-37.57
-48.10
-58.20
-66.17
-70.23
-68.98
-61.88
-49.56
-33.57
-15.92
1.56
17.54
31.26
42.28
50.25
54.88
56.06
54.09
49.73
44.07
38.26
33.11
28.99
25.72
22.89
20.01
16.78
13.18
9.43
5.83
2.58
-0.30
-3.09
-6.19
-10.06
-15.11
-21.63
-29.65
-38.92
-48.72
-57.78
-64.47
-67.10
-64.46
-56.23
-43.08
-26.59
-8.71
8.69
24.20
36.97
46.59
52.90
55.92
55.81
53.04
48.42
43.00
37.77
33.39
30.00
27.25
24.53
21.32
17.40
12.95
8.39
4.13
0.38
-2.96
-6.26
-10.12
-15.16
-21.92
-30.54
-40.62
-51.02
-60.01
-65.69
-66.43
-61.51
-51.27
-37.03
-20.55
-3.62
12.41
26.66
38.57
47.72
53.69
56.22
55.42
51.95
46.87
41.42
36.51
32.52
29.23
26.06
22.50
18.33
13.72
9.10
4.88
1.31
-1.68
-4.40
-7.36
-11.14
-16.31
-23.25
-31.90
-41.57
-50.85
-57.92
-60.94
-58.74
-51.10
-38.90
-23.76
-7.52
8.21
22.32
34.08
43.11
49.15
52.06
51.97
49.32
44.92
39.72
34.61
30.14
26.43
23.18
19.97
16.48
12.65
8.69
4.95
1.69
-1.10
-3.71
-6.63
-10.38
-15.45
-22.14
-30.41
-39.85
-49.40
-57.52
-62.42
-62.63
-57.43
-47.15
-33.06
-16.92
-0.52
14.75
27.93
38.45
45.92
50.08
50.89
48.72
44.35
38.86
33.35
28.61
24.91
22.01
19.38
16.55
13.28
9.74
6.27
3.21
0.65
-1.68
-4.26
-7.68
-12.40
-18.69
-26.52
-35.55
-45.04
-53.80
-60.34
-63.13
-61.08
-53.90
-42.26
-27.63
-11.79
3.55
17.11
28.05
35.91
40.47
41.70
39.91
35.77
30.29
24.60
19.62
15.80
13.07
10.97
8.85
6.27
3.04
-0.67
-4.51
-8.16
-11.51
-14.67
-18.01
-22.10
-27.45
-34.32
-42.50
-51.05
-58.46
-62.96
-63.08
-58.13
-48.45
-35.23
-20.07
-4.53
10.12
23.00
33.48
41.03
45.33
46.35
44.51
40.64
35.76
30.79
26.33
22.54
19.21
16.04
12.74
9.25
5.69
2.29
-0.80
-3.58
-6.26
-9.31
-13.21
-18.45
-25.28
-33.50
-42.34
-50.40
-55.99
-57.52
-54.11
-45.82
-33.73
-19.43
-4.53
9.79
22.77
33.91
42.71
48.52
50.89
49.72
45.66
39.86
33.66
28.10
23.58
19.90
16.52
12.93
8.96
4.82
0.95
-2.32
-4.92
-7.21
-9.78
-13.28
-18.20
-24.76
-32.76
-41.57
-50.13
-57.01
-60.70
-59.92
-54.07
-43.44
-29.18
-12.98
3.38
18.42
31.09
40.76
47.18
50.27
50.21
47.47
42.82
37.19
31.51
26.47
22.33
18.96
15.93
12.75
9.13
5.10
0.97
-2.79
-5.88
-8.35
-10.64
-13.50
-17.75
-23.95
-32.12
-41.56
-50.88
-58.22
-61.75
-60.16
-53.11
-41.34
-26.42
-10.27
5.37
19.24
30.58
39.05
44.37
46.44
45.35
41.61
36.18
30.22
24.76
20.33
16.85
13.79
10.53
6.71
2.43
-1.85
-5.62
-8.58
-10.87
-13.00
-15.74
-19.81
-25.71
-33.45
-42.44
-51.46
-58.86
-62.89
-62.21
-56.28
-45.51
-31.18
-15.01
1.23
16.02
28.26
37.26
42.70
44.70
43.72
40.56
36.13
31.24
26.45
21.96
17.71
13.58
9.48
5.45
1.61
-1.89
-4.99
-7.77
-10.44
-13.35
-16.96
-21.77
-28.10
-35.91
-44.57
-52.84
-59.02
-61.39
-58.76
-50.89
-38.53
-23.26
-6.94
8.73
22.50
33.59
41.61
46.41
48.11
47.06
43.90
39.45
34.47
29.56
24.97
20.70
16.62
12.62
8.68
4.88
1.37
-1.76
-4.54
-7.20
-10.23
-14.27
-19.98
-27.68
-37.00
-46.76
-55.08
-59.87
-59.49
-53.29
-41.85
-26.72
-9.94
6.51
21.18
33.17
42.05
47.71
50.24
49.90
47.22
42.93
37.81
32.56
27.60
23.06
18.83
14.73
10.64
6.57
2.66
-0.97
-4.36
-7.67
-11.32
-15.89
-21.87
-29.53
-38.63
-48.23
-56.78
-62.41
-63.47
-59.03
-49.25
-35.28
-18.88
-1.92
14.11
28.15
39.54
47.77
52.54
53.73
51.69
47.24
41.53
35.71
30.53
26.18
22.39
18.67
14.68
10.42
6.11
2.10
-1.48
-4.72
-8.06
-12.04
-17.22
-23.92
-32.05
-40.95
-49.34
-55.59
-58.05
-55.54
-47.78
-35.47
-20.08
-3.50
12.47
26.42
37.36
44.79
48.52
48.74
45.97
41.06
35.02
28.80
23.06
18.09
13.83
10.09
6.66
3.45
0.47
-2.28
-4.89
-7.61
-10.78
-14.86
-20.29
-27.36
-35.97
-45.42
-54.32
-60.84
-63.11
-59.90
-51.01
-37.39
-20.86
-3.52
12.80
26.86
37.99
45.95
50.71
52.38
51.28
47.98
43.24
37.87
32.45
27.27
22.32
17.47
12.64
7.94
3.61
-0.16
-3.37
-6.28
-9.43
-13.45
-18.92
-26.11
-34.77
-43.95
-52.09
-57.30
-57.91
-52.99
-42.70
-28.26
-11.56
5.39
20.92
33.88
43.64
49.97
52.96
52.94
50.49
46.38
41.41
36.22
31.21
26.43
21.79
17.12
12.37
7.62
3.06
-1.13
-4.88
-8.39
-12.09
-16.62
-22.59
-30.28
-39.33
-48.62
-56.42
-60.81
-60.24
-54.05
-42.71
-27.60
-10.66
6.20
21.45
34.06
43.44
49.32
51.72
50.97
47.76
43.02
37.73
32.64
28.13
24.19
20.61
17.16
13.81
10.59
7.57
4.72
1.82
-1.48
-5.66
-11.18
-18.29
-26.88
-36.26
-45.14
-51.81
-54.54
-52.18
-44.51
-32.36
-17.40
-1.58
13.34
26.10
35.99
42.78
46.53
47.54
46.27
43.30
39.27
34.70
29.99
25.31
20.76
16.36
12.22
8.43
5.07
2.11
-0.67
-3.62
-7.24
-12.02
-18.34
-26.23
-35.13
-43.80
-50.50
-53.43
-51.27
-43.70
-31.52
-16.41
-0.43
14.57
27.28
36.98
43.47
46.85
47.41
45.62
42.06
37.42
32.31
27.20
22.33
17.75
13.45
9.38
5.53
1.85
-1.72
-5.27
-9.01
-13.21
-18.24
-24.37
-31.65
-39.55
-46.99
-52.37
-54.10
-51.03
-42.94
-30.66
-15.79
-0.20
14.42
26.91
36.64
43.34
46.98
47.66
45.67
41.57
36.11
30.11
24.25
18.92
14.23
10.02
6.09
2.30
-1.40
-4.98
-8.44
-11.85
-15.48
-19.69
-24.88
-31.24
-38.47
-45.68
-51.41
-54.01
-52.17
-45.37
-34.09
-19.75
-4.19
10.75
23.64
33.59
40.18
43.38
43.40
40.75
36.16
30.55
24.79
19.54
15.12
11.41
8.11
4.84
1.40
-2.17
-5.68
-8.92
-11.89
-14.91
-18.57
-23.54
-30.25
-38.53
-47.42
-55.25
-60.04
-60.10
-54.58
-43.77
-29.00
-12.19
4.63
19.87
32.43
41.73
47.57
49.97
49.21
45.86
40.72
34.72
28.72
23.20
18.29
13.76
9.25
4.50
-0.47
-5.44
-10.11
-14.32
-18.21
-22.21
-26.92
-32.84
-40.06
-48.06
-55.67
-61.29
-63.27
-60.42
-52.38
-39.85
-24.31
-7.70
8.11
21.68
32.14
39.20
42.86
43.46
41.46
37.54
32.49
27.06
21.84
17.10
12.84
8.88
5.05
1.31
-2.29
-5.64
-8.78
-11.94
-15.53
-20.01
-25.77
-32.90
-41.04
-49.31
-56.39
-60.79
-61.14
-56.70
-47.52
-34.47
-19.02
-2.85
12.45
25.63
35.83
42.60
45.88
46.00
43.64
39.69
35.05
30.44
26.18
22.29
18.55
14.69
10.59
6.35
2.21
-1.57
-4.90
-7.94
-11.08
-14.88
-19.92
-26.54
-34.67
-43.67
-52.32
-58.96
-61.94
-60.01
-52.84
-41.11
-26.33
-10.44
4.74
17.87
28.18
35.43
39.62
40.94
39.71
36.43
31.88
26.99
22.67
19.53
17.71
16.78
16.05
14.87
13.01
10.84
9.19
8.94
10.37
12.91
15.14
15.27
12.04
5.36
-3.37
-11.55
-16.26
-15.34
-8.15
4.16
19.11
33.93
46.54
56.25
63.62
69.91
76.08
82.41
88.34
92.92
95.22
94.39
89.61
79.99
64.81
44.14
19.26
-7.37
-32.96
-55.51
-74.56
-90.92
-105.62
-118.71
-128.74
-133.38
-130.85
-121.12
-106.19
-89.20
-72.89
-58.42
-45.07
-31.19
-15.45
2.18
20.26
36.71
49.71
58.55
63.64
66.05
66.76
66.19
64.19
60.34
54.45
46.87
38.40
30.11
22.88
17.13
12.68
8.88
4.92
0.13
-5.81
-12.91
-20.93
-29.69
-38.93
-48.26
-56.88
-63.54
-66.71
-65.08
-58.06
-46.01
-30.27
-12.77
4.47
19.76
31.93
40.33
44.87
45.78
43.72
39.53
34.20
28.57
23.16
18.18
13.52
8.97
4.40
-0.16
-4.59
-8.78
-12.74
-16.75
-21.20
-26.60
-33.38
-41.70
-51.22
-60.93
-69.21
-74.13
-74.00
-67.92
-56.13
-39.96
-21.42
-2.64
14.60
29.08
40.13
47.41
50.94
51.03
48.35
43.84
38.47
33.10
28.12
23.57
19.21
14.76
10.10
5.33
0.71
-3.53
-7.35
-10.96
-14.84
-19.64
-25.95
-34.07
-43.79
-54.16
-63.54
-69.87
-71.26
-66.51
-55.57
-39.53
-20.36
-0.32
18.52
34.59
46.92
55.04
58.95
59.02
56.06
51.09
45.18
39.18
33.58
28.55
23.97
19.67
15.52
11.45
7.49
3.67
-0.03
-3.72
-7.71
-12.47
-18.56
-26.41
-35.99
-46.54
-56.56
-63.97
-66.81
-63.72
-54.49
-40.09
-22.41
-3.65
14.15
29.50
41.51
49.78
54.26
55.27
53.33
49.26
44.01
38.47
33.23
28.54
24.28
20.18
16.00
11.68
7.33
3.20
-0.53
-3.89
-7.19
-11.03
-16.23
-23.40
-32.68
-43.28
-53.51
-61.04
-63.64
-59.86
-49.56
-33.99
-15.28
4.15
22.24
37.54
49.23
56.99
60.83
61.13
58.55
53.97
48.33
42.37
36.48
30.73
25.06
19.39
13.83
8.58
3.88
-0.20
-3.74
-7.07
-10.67
-15.13
-21.08
-28.90
-38.45
-48.75
-58.00
-63.96
-64.55
-58.69
-46.66
-30.05
-11.19
7.58
24.44
38.38
48.93
55.96
59.46
59.65
57.02
52.41
46.82
41.15
35.89
31.10
26.49
21.74
16.75
11.69
6.89
2.61
-1.14
-4.71
-8.74
-13.94
-20.91
-29.77
-40.06
-50.55
-59.42
-64.70
-64.76
-58.89
-47.46
-31.85
-13.91
4.43
21.63
36.51
48.28
56.40
60.62
61.08
58.37
53.47
47.53
41.49
35.91
30.86
26.12
21.39
16.53
11.61
6.86
2.53
-1.32
-4.86
-8.55
-13.00
-18.85
-26.50
-35.85
-46.13
-55.85
-63.07
-65.90
-63.07
-54.34
-40.65
-23.79
-5.97
10.75
24.82
35.32
41.89
44.55
43.67
39.84
33.87
26.68
19.12
11.81
5.08
-1.04
-6.73
-12.24
-17.79
-23.53
-29.55
-35.87
-42.45
-49.31
-56.51
-64.32
-73.22
-83.75
-96.15
-109.82
-123.05
-133.03
-136.60
-131.06
-115.33
-90.39
-59.24
-26.21
4.27
28.77
45.69
55.29
59.25
59.94
59.61
60.09
62.59
67.60
74.72
82.36
87.86
88.28
82.00
70.02
56.10
45.30
41.35
44.50
51.13
55.44
52.43
40.39
21.57
0.89
-16.52
-27.25
-30.35
-26.75
-18.04
-5.68
9.16
25.26
41.08
54.73
64.44
69.11
68.58
63.87
56.79
49.29
42.82
37.92
34.11
30.35
25.67
19.69
12.77
5.81
-0.25
-4.91
-8.35
-11.42
-15.30
-21.05
-29.25
-39.63
-51.02
-61.49
-68.79
-70.97
-66.94
-56.87
-42.02
-24.46
-6.32
10.62
25.16
36.69
44.87
49.65
51.08
49.53
45.62
40.26
34.37
28.67
23.52
18.83
14.28
9.54
4.48
-0.78
-5.88
-10.53
-14.68
-18.67
-23.21
-29.06
-36.68
-45.76
-55.17
-63.05
-67.31
-66.30
-59.32
-46.92
-30.70
-12.80
4.67
20.10
32.50
41.45
46.88
48.94
47.98
44.62
39.69
34.09
28.50
23.29
18.43
13.70
8.94
4.20
-0.30
-4.32
-7.80
-10.95
-14.23
-18.23
-23.54
-30.51
-39.12
-48.69
-57.81
-64.54
-66.87
-63.45
-54.05
-39.75
-22.58
-4.80
11.64
25.57
36.42
44.04
48.39
49.56
47.82
43.77
38.26
32.22
26.29
20.78
15.64
10.73
6.00
1.57
-2.36
-5.65
-8.46
-11.19
-14.53
-19.16
-25.59
-33.89
-43.54
-53.28
-61.35
-65.80
-65.06
-58.47
-46.40
-30.30
-12.16
5.92
22.23
35.57
45.34
51.38
53.93
53.47
50.70
46.38
41.20
35.67
30.08
24.53
19.07
13.76
8.67
3.91
-0.46
-4.47
-8.31
-12.33
-17.02
-22.91
-30.36
-39.25
-48.77
-57.38
-63.06
-63.92
-58.76
-47.58
-31.57
-12.79
6.45
24.13
38.91
50.10
57.53
61.34
61.89
59.71
55.48
49.96
43.88
37.74
31.77
26.04
20.51
15.16
10.09
5.44
1.33
-2.27
-5.62
-9.18
-13.58
-19.43
-27.06
-36.29
-46.16
-54.98
-60.71
-61.48
-56.27
-45.27
-29.84
-12.07
5.83
22.13
35.75
46.22
53.34
57.03
57.36
54.62
49.55
43.17
36.61
30.73
25.83
21.70
17.76
13.54
8.86
3.99
-0.61
-4.56
-7.89
-11.08
-14.91
-20.15
-27.22
-35.91
-45.31
-53.99
-60.22
-62.41
-59.53
-51.33
-38.54
-22.62
-5.44
11.16
25.72
37.30
45.41
49.90
50.90
48.78
44.24
38.23
31.80
25.80
20.68
16.48
12.89
9.57
6.34
3.21
0.30
-2.31
-4.78
-7.51
-11.06
-15.97
-22.58
-30.74
-39.72
-48.22
-54.51
-56.89
-54.11
-45.84
-32.77
-16.50
0.90
17.34
31.15
41.29
47.35
49.44
48.10
44.08
38.28
31.61
24.76
18.23
12.22
6.72
1.63
-3.14
-7.57
-11.57
-15.03
-17.94
-20.42
-22.81
-25.58
-29.30
-34.44
-41.09
-48.69
-55.97
-61.08
-62.12
-57.77
-47.81
-33.24
-15.98
1.76
18.04
31.62
41.88
48.72
52.26
52.79
50.76
46.80
41.62
35.87
30.05
24.43
19.09
14.08
9.43
5.18
1.33
-2.21
-5.62
-9.10
-12.90
-17.31
-22.70
-29.34
-37.25
-45.85
-53.90
-59.59
-61.08
-57.14
-47.63
-33.58
-16.90
0.22
15.89
28.85
38.48
44.66
47.53
47.44
44.86
40.34
34.56
28.18
21.81
15.87
10.59
5.96
1.77
-2.18
-5.95
-9.44
-12.44
-14.89
-17.07
-19.68
-23.59
-29.45
-37.19
-45.79
-53.41
-57.94
-57.65
-51.79
-40.84
-26.24
-10.02
5.92
20.04
31.41
39.52
44.15
45.24
42.98
37.96
31.14
23.72
16.76
10.85
6.03
1.92
-2.02
-6.10
-10.29
-14.34
-17.94
-21.01
-23.78
-26.78
-30.70
-36.09
-43.04
-50.87
-58.15
-62.90
-63.28
-58.14
-47.52
-32.72
-15.74
1.24
16.51
29.03
38.33
44.33
47.08
46.85
44.08
39.50
33.89
27.98
22.19
16.70
11.47
6.46
1.73
-2.60
-6.38
-9.60
-12.42
-15.20
-18.54
-23.07
-29.30
-37.24
-46.16
-54.54
-60.32
-61.57
-57.08
-46.89
-32.30
-15.45
1.43
16.55
28.88
38.02
43.95
46.85
46.93
44.59
40.45
35.26
29.77
24.48
19.55
14.91
10.41
5.99
1.76
-2.12
-5.57
-8.76
-12.09
-16.15
-21.54
-28.61
-37.15
-46.25
-54.29
-59.29
-59.50
-53.95
-42.88
-27.70
-10.54
6.38
21.33
33.33
42.04
47.54
50.04
49.83
47.31
43.02
37.66
31.91
26.30
21.06
16.21
11.65
7.27
3.04
-0.99
-4.85
-8.63
-12.63
-17.30
-23.17
-30.58
-39.33
-48.47
-56.32
-60.79
-60.13
-53.53
-41.50
-25.72
-8.44
8.17
22.56
33.92
42.02
46.87
48.65
47.64
44.33
39.41
33.67
27.76
22.05
16.63
11.45
6.47
1.75
-2.58
-6.41
-9.81
-12.95
-16.24
-20.16
-25.22
-31.68
-39.31
-47.15
-53.52
-56.44
-54.26
-46.33
-33.32
-17.08
0.07
16.01
29.34
39.43
46.17
49.70
50.24
48.13
43.93
38.41
32.39
26.48
20.95
15.79
10.83
5.97
1.24
-3.23
-7.37
-11.24
-15.12
-19.44
-24.71
-31.26
-39.07
-47.49
-55.18
-60.34
-61.13
-56.32
-45.78
-30.61
-12.81
5.28
21.61
34.86
44.41
50.26
52.68
52.09
48.98
43.96
37.73
30.96
24.17
17.67
11.60
5.97
0.84
-3.73
-7.74
-11.31
-14.75
-18.52
-23.20
-29.25
-36.77
-45.30
-53.62
-59.96
-62.37
-59.35
-50.38
-36.20
-18.60
0.09
17.67
32.54
43.89
51.55
55.78
57.04
55.86
52.79
48.40
43.15
37.46
31.59
25.76
20.08
14.63
9.46
4.55
-0.12
-4.68
-9.38
-14.61
-20.86
-28.50
-37.49
-47.10
-55.83
-61.66
-62.63
-57.54
-46.40
-30.51
-12.06
6.50
23.15
36.56
46.18
52.00
54.36
53.73
50.71
45.97
40.17
33.93
27.69
21.71
16.06
10.79
5.91
1.42
-2.65
-6.42
-10.05
-13.87
-18.33
-23.92
-30.97
-39.29
-48.02
-55.55
-59.86
-59.17
-52.58
-40.46
-24.36
-6.58
10.63
25.49
37.01
44.86
49.11
50.08
48.28
44.34
39.05
33.15
27.20
21.53
16.22
11.24
6.57
2.29
-1.50
-4.77
-7.66
-10.53
-13.89
-18.39
-24.51
-32.37
-41.46
-50.46
-57.43
-60.26
-57.38
-48.32
-33.89
-15.99
3.00
20.89
36.09
47.76
55.69
60.05
61.26
59.80
56.24
51.11
44.82
37.73
30.07
22.16
14.32
6.93
0.30
-5.42
-10.22
-14.36
-18.24
-22.47
-27.70
-34.39
-42.52
-51.29
-59.11
-63.89
-63.71
-57.45
-45.30
-28.70
-9.93
8.52
24.61
37.06
45.38
49.67
50.45
48.41
44.31
38.95
33.03
27.09
21.44
16.18
11.26
6.59
2.11
-2.21
-6.34
-10.37
-14.44
-18.97
-24.44
-31.30
-39.59
-48.61
-56.88
-62.38
-63.18
-58.11
-47.28
-32.01
-14.45
3.13
18.93
31.81
41.32
47.44
50.44
50.75
48.93
45.62
41.32
36.42
31.11
25.56
19.95
14.58
9.68
5.34
1.46
-2.27
-6.14
-10.49
-15.57
-21.72
-29.09
-37.47
-45.98
-53.03
-56.65
-55.09
-47.58
-34.63
-17.95
0.12
17.33
32.00
43.30
51.00
55.29
56.54
55.17
51.71
46.73
40.83
34.53
28.17
21.97
16.02
10.38
5.10
0.28
-4.03
-7.88
-11.53
-15.45
-20.26
-26.53
-34.43
-43.50
-52.42
-59.32
-62.14
-59.34
-50.43
-36.22
-18.64
-0.16
16.90
30.91
41.11
47.53
50.64
51.07
49.36
45.94
41.25
35.75
29.94
24.25
18.94
14.08
9.58
5.30
1.22
-2.64
-6.30
-10.00
-14.32
-20.02
-27.74
-37.50
-48.33
-58.36
-65.18
-66.71
-61.86
-50.91
-35.45
-17.84
-0.48
14.73
26.70
35.08
40.01
41.90
41.28
38.75
34.93
30.38
25.53
20.62
15.72
10.86
6.10
1.54
-2.67
-6.47
-9.95
-13.41
-17.36
-22.44
-29.21
-37.89
-48.03
-58.34
-66.78
-71.12
-69.61
-61.65
-48.10
-30.93
-12.69
4.38
18.79
29.85
37.49
41.83
43.05
41.34
37.14
31.12
24.20
17.23
10.79
5.16
0.32
-3.86
-7.50
-10.64
-13.38
-15.85
-18.41
-21.56
-25.88
-31.82
-39.34
-47.72
-55.43
-60.47
-60.87
-55.40
-44.05
-28.07
-9.57
9.14
26.21
40.51
51.51
59.14
63.49
64.80
63.58
60.55
56.61
52.51
48.65
44.99
41.19
36.92
32.12
27.06
22.18
17.90
14.37
11.38
8.47
4.95
0.24
-5.94
-13.26
-20.67
-26.49
-28.88
-26.42
-18.68
-6.37
8.90
25.17
40.71
54.32
65.39
73.63
78.91
81.25
80.93
78.58
75.14
71.62
68.79
66.99
66.05
65.54
65.03
64.42
63.96
64.13
65.32
67.54
70.30
72.66
73.65
72.61
69.42
64.61
59.21
54.46
51.48
51.02
52.99
56.28
58.67
57.30
49.51
33.83
10.58
-18.23
-49.68
-80.94
-109.98
-135.56
-156.79
-172.71
-182.25
-184.69
-180.27
-170.32
-156.96
-142.37
-128.10
-114.94
-103.14
-92.96
-84.95
-79.80
-77.85
-78.63
-80.58
-81.42
-78.70
-70.68
-56.88
-38.24
-16.80
4.92
24.64
40.80
52.68
60.23
63.81
63.97
61.37
56.77
51.00
44.82
38.86
33.39
28.44
23.78
19.20
14.63
10.15
5.89
1.86
-2.22
-6.90
-12.91
-20.79
-30.54
-41.33
-51.52
-58.95
-61.55
-58.04
-48.35
-33.65
-16.04
2.14
18.87
32.83
43.37
50.32
53.78
53.99
51.34
46.43
40.06
33.10
26.23
19.88
14.10
8.76
3.67
-1.24
-5.95
-10.40
-14.65
-18.98
-23.92
-30.11
-38.04
-47.65
-58.07
-67.57
-73.89
-74.87
-69.24
-57.07
-39.84
-19.93
0.07
18.09
32.87
43.85
51.05
54.68
55.14
52.97
48.87
43.61
37.83
31.93
26.00
20.00
13.90
7.80
1.97
-3.28
-7.81
-11.74
-15.53
-19.84
-25.41
-32.78
-42.00
-52.41
-62.57
-70.49
-74.16
-72.06
-63.73
-49.83
-31.99
-12.24
7.45
25.49
40.70
52.25
59.59
62.54
61.48
57.34
51.46
45.22
39.58
34.86
30.84
27.01
22.93
18.46
13.71
8.95
4.33
-0.17
-4.74
-9.76
-15.67
-22.92
-31.69
-41.70
-51.97
-60.79
-66.09
-66.02
-59.60
-47.13
-30.10
-10.78
8.47
25.72
39.73
49.88
56.05
58.45
57.57
54.15
