21.82
33.88
41.7
45.35
45.79
44.5
42.99
42.12
41.93
41.84
41.05
39.01
35.68
31.52
27.22
23.42
20.37
17.87
15.36
12.11
7.57
1.43
-6.35
-15.56
-25.81
-36.47
-46.6
-54.85
-59.72
-59.83
-54.42
-43.68
-28.78
-11.59
5.85
21.77
35.07
45.22
52.13
55.92
56.81
55.15
51.48
46.53
41.12
36.02
31.65
28.08
25.02
21.97
18.54
14.52
10.03
5.34
0.77
-3.54
-7.68
-11.93
-16.76
-22.59
-29.77
-38.36
-48.11
-58.28
-67.62
-74.57
-77.49
-75.21
-67.36
-54.57
-38.28
-20.35
-2.54
13.81
27.88
39.27
47.82
53.45
56.17
56.2
53.99
50.18
45.53
40.67
36.08
31.98
28.41
25.28
22.4
19.55
16.52
13.25
9.77
6.27
2.9
-0.36
-3.78
-7.79
-12.9
-19.52
-27.8
-37.57
-48.1
-58.2
-66.17
-70.23
-68.98
-61.88
-49.56
-33.57
-15.92
1.56
17.54
31.26
42.28
50.25
54.88
56.06
54.09
49.73
44.07
38.26
33.11
28.99
25.72
22.89
20.01
16.78
13.18
9.43
5.83
2.58
-0.3
-3.09
-6.19
-10.06
-15.11
-21.63
-29.65
-38.92
-48.72
-57.78
-64.47
-67.1
-64.46
-56.23
-43.08
-26.59
-8.71
8.69
24.2
36.97
46.59
52.9
55.92
55.81
53.04
48.42
43
37.77
33.39
30
27.25
24.53
21.32
17.4
12.95
8.39
4.13
0.38
-2.96
-6.26
-10.12
-15.16
-21.92
-30.54
-40.62
-51.02
-60.01
-65.69
-66.43
-61.51
-51.27
-37.03
-20.55
-3.62
12.41
26.66
38.57
47.72
53.69
56.22
55.42
51.95
46.87
41.42
36.51
32.52
29.23
26.06
22.5
18.33
13.72
9.1
4.88
1.31
-1.68
-4.4
-7.36
-11.14
-16.31
-23.25
-31.9
-41.57
-50.85
-57.92
-60.94
-58.74
-51.1
-38.9
-23.76
-7.52
8.21
22.32
34.08
43.11
49.15
52.06
51.97
49.32
44.92
39.72
34.61
30.14
26.43
23.18
19.97
16.48
12.65
8.69
4.95
1.69
-1.1
-3.71
-6.63
-10.38
-15.45
-22.14
-30.41
-39.85
-49.4
-57.52
-62.42
-62.63
-57.43
-47.15
-33.06
-16.92
-0.52
14.75
27.93
38.45
45.92
50.08
50.89
48.72
44.35
38.86
33.35
28.61
24.91
22.01
19.38
16.55
13.28
9.74
6.27
3.21
0.65
-1.68
-4.26
-7.68
-12.4
-18.69
-26.52
-35.55
-45.04
-53.8
-60.34
-63.13
-61.08
-53.9
-42.26
-27.63
-11.79
3.55
17.11
28.05
35.91
40.47
41.7
39.91
35.77
30.29
24.6
19.62
15.8
13.07
10.97
8.85
6.27
3.04
-0.67
-4.51
-8.16
-11.51
-14.67
-18.01
-22.1
-27.45
-34.32
-42.5
-51.05
-58.46
-62.96
-63.08
-58.13
-48.45
-35.23
-20.07
-4.53
10.12
23
33.48
41.03
45.33
46.35
44.51
40.64
35.76
30.79
26.33
22.54
19.21
16.04
12.74
9.25
5.69
2.29
-0.8
-3.58
-6.26
-9.31
-13.21
-18.45
-25.28
-33.5
-42.34
-50.4
-55.99
-57.52
-54.11
-45.82
-33.73
-19.43
-4.53
9.79
22.77
33.91
42.71
48.52
50.89
49.72
45.66
39.86
33.66
28.1
23.58
19.9
16.52
12.93
8.96
4.82
0.95
-2.32
-4.92
-7.21
-9.78
-13.28
-18.2
-24.76
-32.76
-41.57
-50.13
-57.01
-60.7
-59.92
-54.07
-43.44
-29.18
-12.98
3.38
18.42
31.09
40.76
47.18
50.27
50.21
47.47
42.82
37.19
31.51
26.47
22.33
18.96
15.93
12.75
9.13
5.1
0.97
-2.79
-5.88
-8.35
-10.64
-13.5
-17.75
-23.95
-32.12
-41.56
-50.88
-58.22
-61.75
-60.16
-53.11
-41.34
-26.42
-10.27
5.37
19.24
30.58
39.05
44.37
46.44
45.35
41.61
36.18
30.22
24.76
20.33
16.85
13.79
10.53
6.71
2.43
-1.85
-5.62
-8.58
-10.87
-13
-15.74
-19.81
-25.71
-33.45
-42.44
-51.46
-58.86
-62.89
-62.21
-56.28
-45.51
-31.18
-15.01
1.23
16.02
28.26
37.26
42.7
44.7
43.72
40.56
36.13
31.24
26.45
21.96
17.71
13.58
9.48
5.45
1.61
-1.89
-4.99
-7.77
-10.44
-13.35
-16.96
-21.77
-28.1
-35.91
-44.57
-52.84
-59.02
-61.39
-58.76
-50.89
-38.53
-23.26
-6.94
8.73
22.5
33.59
41.61
46.41
48.11
47.06
43.9
39.45
34.47
29.56
24.97
20.7
16.62
12.62
8.68
4.88
1.37
-1.76
-4.54
-7.2
-10.23
-14.27
-19.98
-27.68
-37
-46.76
-55.08
-59.87
-59.49
-53.29
-41.85
-26.72
-9.94
6.51
21.18
33.17
42.05
47.71
50.24
49.9
47.22
42.93
37.81
32.56
27.6
23.06
18.83
14.73
10.64
6.57
2.66
-0.97
-4.36
-7.67
-11.32
-15.89
-21.87
-29.53
-38.63
-48.23
-56.78
-62.41
-63.47
-59.03
-49.25
-35.28
-18.88
-1.92
14.11
28.15
39.54
47.77
52.54
53.73
51.69
47.24
41.53
35.71
30.53
26.18
22.39
18.67
14.68
10.42
6.11
2.1
-1.48
-4.72
-8.06
-12.04
-17.22
-23.92
-32.05
-40.95
-49.34
-55.59
-58.05
-55.54
-47.78
-35.47
-20.08
-3.5
12.47
26.42
37.36
44.79
48.52
48.74
45.97
41.06
35.02
28.8
23.06
18.09
13.83
10.09
6.66
3.45
0.47
-2.28
-4.89
-7.61
-10.78
-14.86
-20.29
-27.36
-35.97
-45.42
-54.32
-60.84
-63.11
-59.9
-51.01
-37.39
-20.86
-3.52
12.8
26.86
37.99
45.95
50.71
52.38
51.28
47.98
43.24
37.87
32.45
27.27
22.32
17.47
12.64
7.94
3.61
-0.16
-3.37
-6.28
-9.43
-13.45
-18.92
-26.11
-34.77
-43.95
-52.09
-57.3
-57.91
-52.99
-42.7
-28.26
-11.56
5.39
20.92
33.88
43.64
49.97
52.96
52.94
50.49
46.38
41.41
36.22
31.21
26.43
21.79
17.12
12.37
7.62
3.06
-1.13
-4.88
-8.39
-12.09
-16.62
-22.59
-30.28
-39.33
-48.62
-56.42
-60.81
-60.24
-54.05
-42.71
-27.6
-10.66
6.2
21.45
34.06
43.44
49.32
51.72
50.97
47.76
43.02
37.73
32.64
28.13
24.19
20.61
17.16
13.81
10.59
7.57
4.72
1.82
-1.48
-5.66
-11.18
-18.29
-26.88
-36.26
-45.14
-51.81
-54.54
-52.18
-44.51
-32.36
-17.4
-1.58
13.34
26.1
35.99
42.78
46.53
47.54
46.27
43.3
39.27
34.7
29.99
25.31
20.76
16.36
12.22
8.43
5.07
2.11
-0.67
-3.62
-7.24
-12.02
-18.34
-26.23
-35.13
-43.8
-50.5
-53.43
-51.27
-43.7
-31.52
-16.41
-0.43
14.57
27.28
36.98
43.47
46.85
47.41
45.62
42.06
37.42
32.31
27.2
22.33
17.75
13.45
9.38
5.53
1.85
-1.72
-5.27
-9.01
-13.21
-18.24
-24.37
-31.65
-39.55
-46.99
-52.37
-54.1
-51.03
-42.94
-30.66
-15.79
-0.2
14.42
26.91
36.64
43.34
46.98
47.66
45.67
41.57
36.11
30.11
24.25
18.92
14.23
10.02
6.09
2.3
-1.4
-4.98
-8.44
-11.85
-15.48
-19.69
-24.88
-31.24
-38.47
-45.68
-51.41
-54.01
-52.17
-45.37
-34.09
-19.75
-4.19
10.75
23.64
33.59
40.18
43.38
43.4
40.75
36.16
30.55
24.79
19.54
15.12
11.41
8.11
4.84
1.4
-2.17
-5.68
-8.92
-11.89
-14.91
-18.57
-23.54
-30.25
-38.53
-47.42
-55.25
-60.04
-60.1
-54.58
-43.77
-29
-12.19
4.63
19.87
32.43
41.73
47.57
49.97
49.21
45.86
40.72
34.72
28.72
23.2
18.29
13.76
9.25
4.5
-0.47
-5.44
-10.11
-14.32
-18.21
-22.21
-26.92
-32.84
-40.06
-48.06
-55.67
-61.29
-63.27
-60.42
-52.38
-39.85
-24.31
-7.7
8.11
21.68
32.14
39.2
42.86
43.46
41.46
37.54
32.49
27.06
21.84
17.1
12.84
8.88
5.05
1.31
-2.29
-5.64
-8.78
-11.94
-15.53
-20.01
-25.77
-32.9
-41.04
-49.31
-56.39
-60.79
-61.14
-56.7
-47.52
-34.47
-19.02
-2.85
12.45
25.63
35.83
42.6
45.88
46
43.64
39.69
35.05
30.44
26.18
22.29
18.55
14.69
10.59
6.35
2.21
-1.57
-4.9
-7.94
-11.08
-14.88
-19.92
-26.54
-34.67
-43.67
-52.32
-58.96
-61.94
-60.01
-52.84
-41.11
-26.33
-10.44
4.74
17.87
28.18
35.43
39.62
40.94
39.71
36.43
31.88
26.99
22.67
19.53
17.71
16.78
16.05
14.87
13.01
10.84
9.19
8.94
10.37
12.91
15.14
15.27
12.04
5.36
-3.37
-11.55
-16.26
-15.34
-8.15
4.16
19.11
33.93
46.54
56.25
63.62
69.91
76.08
82.41
88.34
92.92
95.22
94.39
89.61
79.99
64.81
44.14
19.26
-7.37
-32.96
-55.51
-74.56
-90.92
-105.62
-118.71
-128.74
-133.38
-130.85
-121.12
-106.19
-89.2
-72.89
-58.42
-45.07
-31.19
-15.45
2.18
20.26
36.71
49.71
58.55
63.64
66.05
66.76
66.19
64.19
60.34
54.45
46.87
38.4
30.11
22.88
17.13
12.68
8.88
4.92
0.13
-5.81
-12.91
-20.93
-29.69
-38.93
-48.26
-56.88
-63.54
-66.71
-65.08
-58.06
-46.01
-30.27
-12.77
4.47
19.76
31.93
40.33
44.87
45.78
43.72
39.53
34.2
28.57
23.16
18.18
13.52
8.97
4.4
-0.16
-4.59
-8.78
-12.74
-16.75
-21.2
-26.6
-33.38
-41.7
-51.22
-60.93
-69.21
-74.13
-74
-67.92
-56.13
-39.96
-21.42
-2.64
14.6
29.08
40.13
47.41
50.94
51.03
48.35
43.84
38.47
33.1
28.12
23.57
19.21
14.76
10.1
5.33
0.71
-3.53
-7.35
-10.96
-14.84
-19.64
-25.95
-34.07
-43.79
-54.16
-63.54
-69.87
-71.26
-66.51
-55.57
-39.53
-20.36
-0.32
18.52
34.59
46.92
55.04
58.95
59.02
56.06
51.09
45.18
39.18
33.58
28.55
23.97
19.67
15.52
11.45
7.49
3.67
-0.03
-3.72
-7.71
-12.47
-18.56
-26.41
-35.99
-46.54
-56.56
-63.97
-66.81
-63.72
-54.49
-40.09
-22.41
-3.65
14.15
29.5
41.51
49.78
54.26
55.27
53.33
49.26
44.01
38.47
33.23
28.54
24.28
20.18
16
11.68
7.33
3.2
-0.53
-3.89
-7.19
-11.03
-16.23
-23.4
-32.68
-43.28
-53.51
-61.04
-63.64
-59.86
-49.56
-33.99
-15.28
4.15
22.24
37.54
49.23
56.99
60.83
61.13
58.55
53.97
48.33
42.37
36.48
30.73
25.06
19.39
13.83
8.58
3.88
-0.2
-3.74
-7.07
-10.67
-15.13
-21.08
-28.9
-38.45
-48.75
-58
-63.96
-64.55
-58.69
-46.66
-30.05
-11.19
7.58
24.44
38.38
48.93
55.96
59.46
59.65
57.02
52.41
46.82
41.15
35.89
31.1
26.49
21.74
16.75
11.69
6.89
2.61
-1.14
-4.71
-8.74
-13.94
-20.91
-29.77
-40.06
-50.55
-59.42
-64.7
-64.76
-58.89
-47.46
-31.85
-13.91
4.43
21.63
36.51
48.28
56.4
60.62
61.08
58.37
53.47
47.53
41.49
35.91
30.86
26.12
21.39
16.53
11.61
6.86
2.53
-1.32
-4.86
-8.55
-13
-18.85
-26.5
-35.85
-46.13
-55.85
-63.07
-65.9
-63.07
-54.34
-40.65
-23.79
-5.97
10.75
24.82
35.32
41.89
44.55
43.67
39.84
33.87
26.68
19.12
11.81
5.08
-1.04
-6.73
-12.24
-17.79
-23.53
-29.55
-35.87
-42.45
-49.31
-56.51
-64.32
-73.22
-83.75
-96.15
-109.82
-123.05
-133.03
-136.6
-131.06
-115.33
-90.39
-59.24
-26.21
4.27
28.77
45.69
55.29
59.25
59.94
59.61
60.09
62.59
67.6
74.72
82.36
87.86
88.28
82
70.02
56.1
45.3
41.35
44.5
51.13
55.44
52.43
40.39
21.57
0.89
-16.52
-27.25
-30.35
-26.75
-18.04
-5.68
9.16
25.26
41.08
54.73
64.44
69.11
68.58
63.87
56.79
49.29
42.82
37.92
34.11
30.35
25.67
19.69
12.77
5.81
-0.25
-4.91
-8.35
-11.42
-15.3
-21.05
-29.25
-39.63
-51.02
-61.49
-68.79
-70.97
-66.94
-56.87
-42.02
-24.46
-6.32
10.62
25.16
36.69
44.87
49.65
51.08
49.53
45.62
40.26
34.37
28.67
23.52
18.83
14.28
9.54
4.48
-0.78
-5.88
-10.53
-14.68
-18.67
-23.21
-29.06
-36.68
-45.76
-55.17
-63.05
-67.31
-66.3
-59.32
-46.92
-30.7
-12.8
4.67
20.1
32.5
41.45
46.88
48.94
47.98
44.62
39.69
34.09
28.5
23.29
18.43
13.7
8.94
4.2
-0.3
-4.32
-7.8
-10.95
-14.23
-18.23
-23.54
-30.51
-39.12
-48.69
-57.81
-64.54
-66.87
-63.45
-54.05
-39.75
-22.58
-4.8
11.64
25.57
36.42
44.04
48.39
49.56
47.82
43.77
38.26
32.22
26.29
20.78
15.64
10.73
6
1.57
-2.36
-5.65
-8.46
-11.19
-14.53
-19.16
-25.59
-33.89
-43.54
-53.28
-61.35
-65.8
-65.06
-58.47
-46.4
-30.3
-12.16
5.92
22.23
35.57
45.34
51.38
53.93
53.47
50.7
46.38
41.2
35.67
30.08
24.53
19.07
13.76
8.67
3.91
-0.46
-4.47
-8.31
-12.33
-17.02
-22.91
-30.36
-39.25
-48.77
-57.38
-63.06
-63.92
-58.76
-47.58
-31.57
-12.79
6.45
24.13
38.91
50.1
57.53
61.34
61.89
59.71
55.48
49.96
43.88
37.74
31.77
26.04
20.51
15.16
10.09
5.44
1.33
-2.27
-5.62
-9.18
-13.58
-19.43
-27.06
-36.29
-46.16
-54.98
-60.71
-61.48
-56.27
-45.27
-29.84
-12.07
5.83
22.13
35.75
46.22
53.34
57.03
57.36
54.62
49.55
43.17
36.61
30.73
25.83
21.7
17.76
13.54
8.86
3.99
-0.61
-4.56
-7.89
-11.08
-14.91
-20.15
-27.22
-35.91
-45.31
-53.99
-60.22
-62.41
-59.53
-51.33
-38.54
-22.62
-5.44
11.16
25.72
37.3
45.41
49.9
50.9
48.78
44.24
38.23
31.8
25.8
20.68
16.48
12.89
9.57
6.34
3.21
0.3
-2.31
-4.78
-7.51
-11.06
-15.97
-22.58
-30.74
-39.72
-48.22
-54.51
-56.89
-54.11
-45.84
-32.77
-16.5
0.9
17.34
31.15
41.29
47.35
49.44
48.1
44.08
38.28
31.61
24.76
18.23
12.22
6.72
1.63
-3.14
-7.57
-11.57
-15.03
-17.94
-20.42
-22.81
-25.58
-29.3
-34.44
-41.09
-48.69
-55.97
-61.08
-62.12
-57.77
-47.81
-33.24
-15.98
1.76
18.04
31.62
41.88
48.72
52.26
52.79
50.76
46.8
41.62
35.87
30.05
24.43
19.09
14.08
9.43
5.18
1.33
-2.21
-5.62
-9.1
-12.9
-17.31
-22.7
-29.34
-37.25
-45.85
-53.9
-59.59
-61.08
-57.14
-47.63
-33.58
-16.9
0.22
15.89
28.85
38.48
44.66
47.53
47.44
44.86
40.34
34.56
28.18
21.81
15.87
10.59
5.96
1.77
-2.18
-5.95
-9.44
-12.44
-14.89
-17.07
-19.68
-23.59
-29.45
-37.19
-45.79
-53.41
-57.94
-57.65
-51.79
-40.84
-26.24
-10.02
5.92
20.04
31.41
39.52
44.15
45.24
42.98
37.96
31.14
23.72
16.76
10.85
6.03
1.92
-2.02
-6.1
-10.29
-14.34
-17.94
-21.01
-23.78
-26.78
-30.7
-36.09
-43.04
-50.87
-58.15
-62.9
-63.28
-58.14
-47.52
-32.72
-15.74
1.24
16.51
29.03
38.33
44.33
47.08
46.85
44.08
39.5
33.89
27.98
22.19
16.7
11.47
6.46
1.73
-2.6
-6.38
-9.6
-12.42
-15.2
-18.54
-23.07
-29.3
-37.24
-46.16
-54.54
-60.32
-61.57
-57.08
-46.89
-32.3
-15.45
1.43
16.55
28.88
38.02
43.95
46.85
46.93
44.59
40.45
35.26
29.77
24.48
19.55
14.91
10.41
5.99
1.76
-2.12
-5.57
-8.76
-12.09
-16.15
-21.54
-28.61
-37.15
-46.25
-54.29
-59.29
-59.5
-53.95
-42.88
-27.7
-10.54
6.38
21.33
33.33
42.04
47.54
50.04
49.83
47.31
43.02
37.66
31.91
26.3
21.06
16.21
11.65
7.27
3.04
-0.99
-4.85
-8.63
-12.63
-17.3
-23.17
-30.58
-39.33
-48.47
-56.32
-60.79
-60.13
-53.53
-41.5
-25.72
-8.44
8.17
22.56
33.92
42.02
46.87
48.65
47.64
44.33
39.41
33.67
27.76
22.05
16.63
11.45
6.47
1.75
-2.58
-6.41
-9.81
-12.95
-16.24
-20.16
-25.22
-31.68
-39.31
-47.15
-53.52
-56.44
-54.26
-46.33
-33.32
-17.08
0.07
16.01
29.34
39.43
46.17
49.7
50.24
48.13
43.93
38.41
32.39
26.48
20.95
15.79
10.83
5.97
1.24
-3.23
-7.37
-11.24
-15.12
-19.44
-24.71
-31.26
-39.07
-47.49
-55.18
-60.34
-61.13
-56.32
-45.78
-30.61
-12.81
5.28
21.61
34.86
44.41
50.26
52.68
52.09
48.98
43.96
37.73
30.96
24.17
17.67
11.6
5.97
0.84
-3.73
-7.74
-11.31
-14.75
-18.52
-23.2
-29.25
-36.77
-45.3
-53.62
-59.96
-62.37
-59.35
-50.38
-36.2
-18.6
0.09
17.67
32.54
43.89
51.55
55.78
57.04
55.86
52.79
48.4
43.15
37.46
31.59
25.76
20.08
14.63
9.46
4.55
-0.12
-4.68
-9.38
-14.61
-20.86
-28.5
-37.49
-47.1
-55.83
-61.66
-62.63
-57.54
-46.4
-30.51
-12.06
6.5
23.15
36.56
46.18
52
54.36
53.73
50.71
45.97
40.17
33.93
27.69
21.71
16.06
10.79
5.91
1.42
-2.65
-6.42
-10.05
-13.87
-18.33
-23.92
-30.97
-39.29
-48.02
-55.55
-59.86
-59.17
-52.58
-40.46
-24.36
-6.58
10.63
25.49
37.01
44.86
49.11
50.08
48.28
44.34
39.05
33.15
27.2
21.53
16.22
11.24
6.57
2.29
-1.5
-4.77
-7.66
-10.53
-13.89
-18.39
-24.51
-32.37
-41.46
-50.46
-57.43
-60.26
-57.38
-48.32
-33.89
-15.99
3
20.89
36.09
47.76
55.69
60.05
61.26
59.8
56.24
51.11
44.82
37.73
30.07
22.16
14.32
6.93
0.3
-5.42
-10.22
-14.36
-18.24
-22.47
-27.7
-34.39
-42.52
-51.29
-59.11
-63.89
-63.71
-57.45
-45.3
-28.7
-9.93
8.52
24.61
37.06
45.38
49.67
50.45
48.41
44.31
38.95
33.03
27.09
21.44
16.18
11.26
6.59
2.11
-2.21
-6.34
-10.37
-14.44
-18.97
-24.44
-31.3
-39.59
-48.61
-56.88
-62.38
-63.18
-58.11
-47.28
-32.01
-14.45
3.13
18.93
31.81
41.32
47.44
50.44
50.75
48.93
45.62
41.32
36.42
31.11
25.56
19.95
14.58
9.68
5.34
1.46
-2.27
-6.14
-10.49
-15.57
-21.72
-29.09
-37.47
-45.98
-53.03
-56.65
-55.09
-47.58
-34.63
-17.95
0.12
17.33
32
43.3
51
55.29
56.54
55.17
51.71
46.73
40.83
34.53
28.17
21.97
16.02
10.38
5.1
0.28
-4.03
-7.88
-11.53
-15.45
-20.26
-26.53
-34.43
-43.5
-52.42
-59.32
-62.14
-59.34
-50.43
-36.22
-18.64
-0.16
16.9
30.91
41.11
47.53
50.64
51.07
49.36
45.94
41.25
35.75
29.94
24.25
18.94
14.08
9.58
5.3
1.22
-2.64
-6.3
-10
-14.32
-20.02
-27.74
-37.5
-48.33
-58.36
-65.18
-66.71
-61.86
-50.91
-35.45
-17.84
-0.48
14.73
26.7
35.08
40.01
41.9
41.28
38.75
34.93
30.38
25.53
20.62
15.72
10.86
6.1
1.54
-2.67
-6.47
-9.95
-13.41
-17.36
-22.44
-29.21
-37.89
-48.03
-58.34
-66.78
-71.12
-69.61
-61.65
-48.1
-30.93
-12.69
4.38
18.79
29.85
37.49
41.83
43.05
41.34
37.14
31.12
24.2
17.23
10.79
5.16
0.32
-3.86
-7.5
-10.64
-13.38
-15.85
-18.41
-21.56
-25.88
-31.82
-39.34
-47.72
-55.43
-60.47
-60.87
-55.4
-44.05
-28.07
-9.57
9.14
26.21
40.51
51.51
59.14
63.49
64.8
63.58
60.55
56.61
52.51
48.65
44.99
41.19
36.92
32.12
27.06
22.18
17.9
14.37
11.38
8.47
4.95
0.24
-5.94
-13.26
-20.67
-26.49
-28.88
-26.42
-18.68
-6.37
8.9
25.17
40.71
54.32
65.39
73.63
78.91
81.25
80.93
78.58
75.14
71.62
68.79
66.99
66.05
65.54
65.03
64.42
63.96
64.13
65.32
67.54
70.3
72.66
73.65
72.61
69.42
64.61
59.21
54.46
51.48
51.02
52.99
56.28
58.67
57.3
49.51
33.83
10.58
-18.23
-49.68
-80.94
-109.98
-135.56
-156.79
-172.71
-182.25
-184.69
-180.27
-170.32
-156.96
-142.37
-128.1
-114.94
-103.14
-92.96
-84.95
-79.8
-77.85
-78.63
-80.58
-81.42
-78.7
-70.68
-56.88
-38.24
-16.8
4.92
24.64
40.8
52.68
60.23
63.81
63.97
61.37
56.77
51
44.82
38.86
33.39
28.44
23.78
19.2
14.63
10.15
5.89
1.86
-2.22
-6.9
-12.91
-20.79
-30.54
-41.33
-51.52
-58.95
-61.55
-58.04
-48.35
-33.65
-16.04
2.14
18.87
32.83
43.37
50.32
53.78
53.99
51.34
46.43
40.06
33.1
26.23
19.88
14.1
8.76
3.67
-1.24
-5.95
-10.4
-14.65
-18.98
-23.92
-30.11
-38.04
-47.65
-58.07
-67.57
-73.89
-74.87
-69.24
-57.07
-39.84
-19.93
0.07
18.09
32.87
43.85
51.05
54.68
55.14
52.97
48.87
43.61
37.83
31.93
26
20
13.9
7.8
1.97
-3.28
-7.81
-11.74
-15.53
-19.84
-25.41
-32.78
-42
-52.41
-62.57
-70.49
-74.16
-72.06
-63.73
-49.83
-31.99
-12.24
7.45
25.49
40.7
52.25
59.59
62.54
61.48
57.34
51.46
45.22
39.58
34.86
30.84
27.01
22.93
18.46
13.71
8.95
4.33
-0.17
-4.74
-9.76
-15.67
-22.92
-31.69
-41.7
-51.97
-60.79
-66.09
-66.02
-59.6
-47.13
-30.1
-10.78
8.47
25.72
39.73
49.88
56.05
58.45
57.57
54.15
49.14
43.48
37.91
32.85
28.33
24.18
20.16
16.15
12.13
8.1
4.05
-0.12
-4.63
-9.81
-16.05
-23.68
-32.74
-42.68
-52.25
-59.51
-62.44
-59.52
-50.4
-36.07
-18.58
-0.39
16.37
30.24
40.55
47.19
50.31
50.24
47.44
42.55
36.32
29.48
22.59
15.89
9.41
3.06
-3.21
-9.34
-15.22
-20.79
-26.07
-31.29
-36.83
-43.19
-50.84
-59.93
-70.01
-79.88
-87.7
-91.43
-89.46
-81.19
-67.17
-48.93
-28.48
-7.7
11.95
29.62
44.84
57.47
67.58
75.57
82.15
88.25
94.69
101.89
109.71
117.51
124.48
129.91
133.25
134
131.46
124.64
112.48
94.33
70.21
40.85
7.45
-28.32
-64.17
-96.95
-122.69
-137.54
-139.02
-127.26
-105.27
-77.91
-50.2
-25.69
-5.83
9.58
21.28
29.71
34.84
36.61
35.44
32.41
28.86
25.81
23.62
21.92
19.99
17.21
13.44
9.06
4.73
1.08
-1.69
-3.92
-6.42
-10.2
-16.03
-23.99
-33.29
-42.3
-48.87
-51.03
-47.6
-38.54
-25.03
-9.01
7.36
22.29
34.54
43.51
49.03
51.2
50.34
46.98
41.92
36.03
30.06
24.47
19.37
14.59
9.95
5.38
0.96
-3.06
-6.53
-9.46
-12.19
-15.26
-19.32
-24.93
-32.26
-40.94
-49.85
-57.35
-61.55
-60.9
-54.69
-43.34
-28.35
-11.77
4.25
18.07
28.72
35.92
39.81
40.8
39.42
36.24
31.89
26.94
21.82
16.77
11.91
7.27
2.88
-1.13
-4.68
-7.74
-10.5
-13.28
-16.52
-20.72
-26.28
-33.37
-41.65
-50.23
-57.53
-61.68
-60.97
-54.5
-42.54
-26.57
-8.82
8.36
23.12
34.47
42.18
46.56
48.11
47.34
44.73
40.68
35.68
30.09
24.28
18.51
12.96
7.8
3.15
-0.89
-4.35
-7.39
-10.37
-13.78
-18.19
-24.14
-31.82
-40.9
-50.26
-58.13
-62.45
-61.54
-54.61
-42.18
-25.88
-8
9.18
23.97
35.43
43.32
47.87
49.55
48.86
46.32
42.45
37.67
32.33
26.65
20.83
15.07
9.57
4.56
0.14
-3.65
-6.95
-10.01
-13.22
-17.13
-22.29
-29.15
-37.66
-46.98
-55.43
-60.83
-61.17
-55.34
-43.6
-27.51
-9.41
8.36
24
36.49
45.51
51.04
53.28
52.53
49.33
44.45
38.8
33.18
28.08
23.53
19.23
14.77
9.86
4.56
-0.8
-5.75
-9.93
-13.33
-16.39
-19.92
-24.79
-31.66
-40.45
-50.14
-58.86
-64.35
-64.63
-58.73
-47.02
-31.06
-13.11
4.61
20.36
33.11
42.43
48.2
50.5
49.59
46.06
40.77
34.85
29.26
24.58
20.83
17.59
14.24
10.36
5.92
1.24
-3.21
-7.17
-10.77
-14.5
-19.09
-25.13
-32.88
-41.95
-51.29
-59.34
-64.21
-64.3
-58.65
-47.4
-31.72
-13.6
4.72
21.28
34.67
44.21
49.72
51.47
50.05
46.23
40.95
35.1
29.36
24.07
19.24
14.67
10.19
5.72
1.36
-2.72
-6.43
-9.88
-13.41
-17.51
-22.78
-29.65
-38.21
-47.89
-57.43
-65.01
-68.65
-66.82
-58.92
-45.55
-28.29
-9.32
9.18
25.52
38.54
47.7
52.92
54.48
52.96
49.22
44.16
38.58
33.03
27.7
22.55
17.45
12.35
7.36
2.68
-1.55
-5.37
-9.03
-12.98
-17.73
-23.76
-31.32
-40.24
-49.74
-58.38
-64.27
-65.54
-60.98
-50.48
-35.15
-17.02
1.61
18.75
33.04
43.81
50.87
54.29
54.4
51.7
47
41.2
35.17
29.48
24.31
19.57
14.98
10.37
5.74
1.3
-2.73
-6.22
-9.3
-12.41
-16.25
-21.59
-28.97
-38.34
-48.83
-58.7
-65.74
-67.78
-63.48
-52.79
-37.03
-18.47
0.39
17.49
31.54
42.06
49.04
52.7
53.31
51.29
47.2
41.81
35.9
30.13
24.79
19.86
15.09
10.26
5.34
0.53
-3.88
-7.7
-11.05
-14.31
-18.14
-23.2
-29.92
-38.24
-47.39
-55.96
-62.04
-63.78
-59.87
-50.04
-35.2
-17.24
1.51
18.89
33.32
43.98
50.67
53.58
53.09
49.78
44.33
37.63
30.56
23.84
17.85
12.6
7.88
3.38
-0.97
-5.11
-8.77
-11.8
-14.3
-16.74
-19.9
-24.62
-31.46
-40.34
-50.31
-59.6
-65.99
-67.45
-62.78
-52.06
-36.56
-18.41
0.17
17.28
31.76
42.95
50.63
54.75
55.42
53.04
48.33
42.27
35.86
29.82
24.46
19.65
15.09
10.53
5.99
1.65
-2.28
-5.79
-9.17
-13.03
-18.07
-24.84
-33.45
-43.3
-53.13
-61.12
-65.38
-64.38
-57.52
-45.31
-29.22
-11.27
6.5
22.44
35.47
45.06
51.02
53.41
52.55
49
43.59
37.29
30.95
25.12
19.95
15.22
10.65
6.05
1.51
-2.74
-6.51
-9.84
-13.2
-17.31
-22.96
-30.63
-40.12
-50.44
-59.78
-65.96
-67.03
-61.9
-50.68
-34.72
-16.18
2.65
19.83
34.07
44.76
51.77
55.24
55.57
53.36
49.34
44.31
38.93
33.61
28.49
23.49
18.48
13.4
8.37
3.62
-0.61
-4.18
-7.26
-10.39
-14.37
-20.08
-28.03
-37.97
-48.72
-58.27
-64.3
-64.87
-59.06
-47.24
-30.97
-12.47
5.98
22.57
36.13
46.11
52.33
54.92
54.22
50.88
45.72
39.74
33.79
28.37
23.59
19.22
14.93
10.5
5.98
1.55
-2.54
-6.21
-9.67
-13.36
-17.89
-23.81
-31.42
-40.41
-49.76
-57.77
-62.45
-62.01
-55.58
-43.47
-27.12
-8.73
9.44
25.57
38.49
47.68
53.04
54.72
53.08
48.74
42.52
35.43
28.34
21.86
16.22
11.29
6.86
2.71
-1.15
-4.64
-7.63
-10.22
-12.74
-15.8
-20.14
-26.37
-34.65
-44.33
-53.91
-61.25
-64.1
-60.91
-51.33
-36.45
-18.38
0.35
17.57
31.84
42.49
49.43
52.77
52.8
50.02
45.18
39.27
33.29
27.9
23.3
19.24
15.29
11.14
6.77
2.49
-1.38
-4.72
-7.79
-11.21
-15.75
-22.1
-30.45
-40.32
-50.46
-58.94
-63.61
-62.7
-55.44
-42.34
-25.12
-6.18
12.07
27.84
40.13
48.66
53.59
55.21
53.9
50.18
44.75
38.48
32.17
26.34
21.14
16.44
12.01
7.78
3.87
0.49
-2.25
-4.57
-7
-10.39
-15.5
-22.77
-31.98
-42.09
-51.39
-57.78
-59.42
-55.17
-45.09
-30.28
-12.71
5.44
22.18
36.03
46.16
52.24
54.45
53.28
49.57
44.29
38.42
32.67
27.41
22.67
18.24
13.96
9.77
5.85
2.46
-0.25
-2.34
-4.21
-6.49
-9.98
-15.31
-22.82
-32.18
-42.25
-51.23
-56.96
-57.55
-52.02
-40.66
-24.96
-7.19
10.26
25.46
37.22
45.02
48.89
49.22
46.62
41.93
36.05
29.84
23.9
18.48
13.55
8.91
4.41
0.06
-3.97
-7.45
-10.28
-12.59
-14.82
-17.61
-21.73
-27.74
-35.72
-45.01
-54.11
-60.92
-63.35
-59.96
-50.51
-36.1
-18.78
-0.9
15.5
29.15
39.41
46.18
49.55
49.77
47.23
42.54
36.51
29.95
23.54
17.67
12.53
8.11
4.37
1.2
-1.55
-4.09
-6.77
-9.92
-13.97
-19.25
-26.02
-34.24
-43.39
-52.28
-59.16
-62.07
-59.43
-50.68
-36.57
-19
-0.43
16.83
31.19
41.95
49.06
52.81
53.58
51.74
47.78
42.36
36.25
30.13
24.46
19.33
14.61
10.06
5.6
1.25
-2.83
-6.61
-10.25
-14.16
-18.97
-25.21
-33.07
-42.11
-51.12
-58.35
-61.86
-60.16
-52.69
-40.05
-23.84
-6.18
10.83
25.57
37.12
45.15
49.76
51.24
50.01
46.6
41.66
35.89
30.02
24.54
19.76
15.65
12
8.58
5.21
1.9
-1.31
-4.39
-7.57
-11.38
-16.51
-23.51
-32.3
-41.91
-50.48
-55.78
-55.87
-49.87
-38.23
-22.61
-5.3
11.48
26.1
37.65
45.81
50.56
52.06
50.63
46.87
41.55
35.55
29.59
24.05
19
14.23
9.55
4.88
0.34
-3.91
-7.75
-11.21
-14.52
-18.1
-22.49
-28.24
-35.63
-44.35
-53.29
-60.61
-64.23
-62.47
-54.72
-41.69
-25.18
-7.49
9.26
23.53
34.48
41.84
45.58
45.94
43.36
38.59
32.63
26.49
20.93
16.32
12.54
9.26
6.13
2.98
-0.14
-3.08
-5.81
-8.48
-11.5
-15.42
-20.8
-27.94
-36.69
-46.21
-54.93
-60.9
-62.23
-57.76
-47.53
-32.8
-15.69
1.55
17.08
29.79
39.21
45.25
48
47.69
44.77
39.96
34.17
28.29
22.88
18.12
13.85
9.82
5.88
2.12
-1.28
-4.19
-6.75
-9.4
-12.86
-17.88
-24.94
-33.92
-43.89
-53.16
-59.58
-61.21
-56.91
-46.75
-32.04
-14.91
2.33
17.76
30.12
38.86
43.94
45.7
44.67
41.55
37.14
32.16
27.2
22.54
18.2
14.08
10.08
6.21
2.54
-0.83
-3.88
-6.75
-9.81
-13.55
-18.56
-25.25
-33.61
-42.94
-51.78
-58.18
-60.17
-56.48
-46.98
-32.78
-15.89
1.43
17.2
30.1
39.49
45.26
47.65
47.15
44.39
40.18
35.3
30.37
25.7
21.34
17.11
12.85
8.53
4.27
0.29
-3.26
-6.46
-9.56
-13.1
-17.65
-23.71
-31.39
-40.19
-48.97
-56.04
-59.58
-58.17
-51.28
-39.46
-24.15
-7.36
8.93
23.11
34.11
41.41
44.93
44.93
41.96
36.79
30.27
23.16
16.03
9.15
2.52
-3.93
-10.28
-16.49
-22.36
-27.6
-32
-35.55
-38.54
-41.58
-45.5
-51.04
-58.55
-67.59
-76.84
-84.19
-87.28
-84.21
-74.16
-57.68
-36.54
-13.09
10.42
32.28
51.44
67.29
79.4
87.39
91.1
90.85
87.63
82.94
78.38
75.12
73.54
73.2
73.12
72.32
70.17
66.58
61.97
56.95
52.08
47.69
43.83
40.4
37.3
34.55
32.3
30.76
30.22
30.98
33.39
37.66
43.74
51.06
58.47
64.28
66.71
64.4
56.84
44.5
28.58
10.52
-8.48
-27.63
-46.51
-64.73
-81.71
-96.59
-108.41
-116.33
-119.94
-119.49
-115.8
-110.19
-104.26
-99.44
-96.89
-97.01
-99.42
-102.89
-105.43
-104.69
-98.27
-84.56
-63.37
-36.44
-7.15
20.4
42.64
57.72
65.76
68.36
67.57
64.92
61.1
56.25
50.46
44.2
38.22
33.06
28.88
25.24
21.56
17.44
12.87
8.14
3.41
-1.34
-6.65
-13.26
-21.78
-32.26
-43.83
-54.69
-62.42
-64.76
-60.32
-49.15
-32.78
-13.65
5.65
23.05
37.35
48.12
55.34
59.16
59.77
57.56
53.18
47.5
41.41
35.5
30.01
24.83
19.81
14.86
10.1
5.75
1.96
-1.36
-4.61
-8.41
-13.5
-20.48
-29.54
-40.22
-51.27
-60.79
-66.63
-67.05
-61.2
-49.46
-33.28
-14.7
4.18
21.58
36.27
47.45
54.67
57.85
57.27
53.62
47.96
41.42
34.95
29.11
23.99
19.38
14.96
10.58
6.26
2.16
-1.54
-4.87
-8.08
-11.73
-16.51
-23.06
-31.72
-42.25
-53.56
-63.87
-71.01
-73.04
-68.83
-58.5
-43.29
-25.23
-6.56
10.77
25.32
36.22
43.04
45.71
44.55
40.32
34.09
27.05
20.26
14.43
9.79
6.23
3.4
0.91
-1.6
-4.4
-7.74
-11.87
-17.09
-23.72
-32.05
-42.18
-53.74
-65.79
-76.76
-84.79
-88.19
-85.99
-78.28
-66.11
-51.21
-35.39
-20.21
-6.73
4.39
12.84
18.51
21.66
22.87
22.96
22.78
22.94
23.66
24.79
26.03
27.11
27.87
28.32
28.47
28.34
27.86
26.87
25.09
22.09
17.41
10.78
2.53
-6.22
-13.62
-17.52
-16.11
-8.5
5.16
23.77
45.47
68
88.77
105.27
115.52
118.68
115.36
107.46
97.51
87.78
79.62
73.26
68.28
64.14
60.58
57.71
55.72
54.66
54.33
54.4
54.54
54.51
54.12
53.18
51.59
49.37
46.88
44.88
44.4
46.53
52
60.79
71.94
83.64
93.47
99.02
98.36
90.58
75.92
55.59
31.32
4.93
-22.1
-48.73
-74.22
-97.78
-118.35
-134.63
-145.41
-150.14
-149.31
-144.41
-137.49
-130.47
-124.63
-120.49
-117.9
-116.42
-115.32
-113.62
-109.98
-102.94
-91.26
-74.56
-53.63
-30.3
-6.94
14.27
31.73
44.66
53.01
57.17
57.86
55.95
52.36
47.87
43.04
38.16
33.31
28.52
23.82
19.31
15.11
11.32
7.85
4.53
1.01
-3.26
-8.82
-16.16
-25.25
-35.4
-45.07
-52.17
-54.63
-51.13
-41.58
-27.21
-10.2
7.04
22.47
34.84
43.63
48.86
50.8
49.83
46.39
41.1
34.73
28.06
21.8
16.34
11.8
8.02
4.73
1.72
-1.18
-4.08
-7.11
-10.58
-14.9
-20.6
-28.04
-37.06
-46.77
-55.53
-61.25
-62.04
-56.79
-45.68
-30.14
-12.34
5.37
21.16
33.93
43.24
49.1
51.65
51.13
47.86
42.39
35.5
28.08
20.96
14.7
9.56
5.43
2.05
-0.9
-3.73
-6.64
-9.82
-13.55
-18.27
-24.47
-32.43
-41.85
-51.56
-59.7
-64.07
-62.93
-55.59
-42.74
-26.11
-8
9.46
24.68
36.7
45.06
49.62
50.55
48.3
43.67
37.69
31.36
25.39
20
15.06
10.23
5.27
0.18
-4.79
-9.33
-13.27
-16.73
-20.2
-24.43
-30.17
-37.82
-47.11
-56.84
-65.05
-69.44
-68.05
-59.97
-45.55
-26.43
-4.91
16.6
36.11
52.16
63.85
70.75
72.83
70.53
64.78
56.95
48.48
40.55
33.82
28.3
23.6
19.14
14.6
9.93
5.41
1.35
-2.14
-5.3
-8.73
-13.23
-19.52
-27.92
-38.13
-49.07
-58.99
-65.83
-67.71
-63.55
-53.4
-38.48
-20.78
-2.5
14.48
28.84
39.86
47.2
50.8
50.9
48.03
43.08
37.13
31.18
25.91
21.47
17.66
14.07
10.44
6.69
2.97
-0.53
-3.76
-6.77
-9.8
-13.14
-17.21
-22.42
-29.09
-37.15
-45.82
-53.57
-58.39
-58.43
-52.64
-41.3
-25.88
-8.54
8.55
23.73
35.99
44.86
50.15
51.89
50.42
46.48
41.11
35.35
29.96
25.18
20.84
16.6
12.24
7.86
3.73
0.19
-2.67
-5.05
-7.47
-10.58
-15.07
-21.39
-29.66
-39.42
-49.57
-58.45
-64.11
-64.89
-59.91
-49.37
-34.59
-17.5
-0.21
15.62
28.86
38.98
45.77
49.21
49.46
46.89
42.22
36.37
30.28
24.63
19.7
15.37
11.38
7.48
3.63
0.01
-3.24
-6.05
-8.61
-11.41
-15.12
-20.46
-27.92
-37.46
-48.21
-58.48
-66.06
-68.83
-65.47
-55.9
-41.39
-24
-6.02
10.73
25.09
36.48
44.69
49.61
51.23
49.81
45.98
40.7
34.97
29.58
24.85
20.59
16.38
11.88
7.07
2.31
-1.91
-5.25
-7.73
-9.85
-12.39
-16.16
-21.7
-29.21
-38.38
-48.33
-57.7
-64.8
-67.88
-65.67
-57.79
-44.9
-28.58
-10.86
6.35
21.57
33.9
42.87
48.27
50.06
48.56
44.45
38.78
32.71
27.16
22.53
18.7
15.24
11.72
7.99
4.19
0.59
-2.59
-5.36
-7.97
-10.85
-14.5
-19.34
-25.74
-33.77
-43.05
-52.56
-60.73
-65.66
-65.77
-60.23
-49.35
-34.46
-17.55
-0.62
14.7
27.32
36.7
42.57
44.88
43.84
39.97
34.2
27.64
21.38
16.09
11.95
8.62
5.52
2.15
-1.73
-5.93
-10.06
-13.73
-16.8
-19.51
-22.49
-26.57
-32.4
-40.16
-49.27
-58.31
-65.32
-68.28
-65.83
-57.63
-44.54
-28.27
-10.88
5.8
20.4
32.07
40.29
44.82
45.71
43.39
38.76
32.96
27.12
21.97
17.68
14
10.45
6.71
2.75
-1.18
-4.72
-7.68
-10.18
-12.69
-15.92
-20.61
-27.29
-35.96
-45.88
-55.58
-63.08
-66.39
-64.11
-55.86
-42.52
-25.82
-7.9
9.28
24.37
36.56
45.5
51.06
53.25
52.29
48.73
43.37
37.14
30.82
24.89
19.47
14.48
9.83
5.53
1.69
-1.57
-4.35
-7
-10.14
-14.52
-20.81
-29.28
-39.6
-50.67
-60.75
-67.83
-70.06
-66.43
-56.98
-42.81
-25.77
-7.94
8.8
23.07
33.99
41.18
44.63
44.74
42.24
38.04
33.09
28.09
23.47
19.25
15.32
11.53
7.82
4.2
0.72
-2.62
-5.97
-9.58
-13.84
-19.15
-25.87
-34.09
-43.41
-52.85
-60.83
-65.53
-65.3
-59.24
-47.54
-31.45
-13
5.62
22.49
36.39
46.69
53.26
56.26
56
53.04
48.13
42.23
36.23
30.73
25.94
21.67
17.58
13.38
9.03
4.68
0.55
-3.27
-6.92
-10.85
-15.68
-22.03
-30.21
-39.92
-50.11
-58.94
-64.3
-64.34
-58.09
-45.87
-29.2
-10.4
8.16
24.49
37.33
46.18
51.01
52.22
50.38
46.29
40.82
34.85
29.08
23.91
19.44
15.5
11.84
8.23
4.61
1.02
-2.41
-5.66
-8.95
-12.77
-17.86
-24.82
-33.83
-44.14
-54.11
-61.45
-63.9
-59.99
-49.55
-33.88
-15.21
3.87
21.17
35.33
45.78
52.52
55.8
55.95
53.4
48.74
42.72
36.18
29.79
23.92
18.62
13.66
8.91
4.33
0.11
-3.61
-6.87
-10.03
-13.79
-18.92
-25.99
-34.96
-45.02
-54.56
-61.5
-63.88
-60.38
-50.86
-36.28
-18.51
0.26
18.04
33.35
45.26
53.32
57.51
58.07
55.57
50.78
44.57
37.74
30.86
24.26
18.05
12.25
6.88
2.05
-2.1
-5.38
-7.73
-9.35
-10.72
-12.69
-16.07
-21.38
-28.3
-35.58
-41.2
-43.02
-39.53
-30.37
-16.56
0
17.07
32.74
45.73
55.39
61.51
64.1
63.4
59.83
54.14
47.27
40.15
33.47
27.53
22.26
17.4
12.67
8
3.47
-0.76
-4.67
-8.49
-12.77
-18.18
-25.24
-34.04
-43.93
-53.52
-60.89
-64.11
-61.72
-53.33
-39.68
-22.48
-3.94
13.83
29.14
41.02
49.07
53.35
54.19
52.15
47.92
42.28
36.06
29.89
24.18
19
14.24
9.72
5.37
1.24
-2.58
-6.11
-9.56
-13.44
-18.39
-24.94
-33.25
-42.87
-52.6
-60.68
-65.17
-64.43
-57.7
-45.36
-28.89
-10.52
7.43
23.08
35.3
43.66
48.28
49.57
48.08
44.48
39.5
33.86
28.17
22.82
17.94
13.48
9.33
5.44
1.79
-1.64
-4.97
-8.45
-12.51
-17.63
-24.24
-32.42
-41.65
-50.68
-57.65
-60.53
-57.77
-48.85
-34.54
-16.72
2.14
19.7
34.18
44.65
50.94
53.42
52.79
49.88
45.48
40.27
34.76
29.24
23.91
18.91
14.3
10.09
6.2
2.5
-1.2
-4.99
-9.01
-13.43
-18.67
-25.18
-33.1
-41.95
-50.29
-56.01
-56.98
-51.84
-40.62
-24.76
-6.6
11.39
27.29
39.97
49.02
54.47
56.51
55.49
51.95
46.64
40.37
33.87
27.58
21.71
16.26
11.19
6.5
2.28
-1.46
-4.74
-7.78
-10.99
-14.91
-20.13
-27.01
-35.46
-44.65
-53.02
-58.52
-59.26
-54.06
-43.01
-27.43
-9.44
8.64
25
38.48
48.61
55.24
58.44
58.32
55.26
49.93
43.27
36.29
29.7
23.86
18.69
13.94
9.36
4.85
0.53
-3.47
-7.06
-10.37
-13.75
-17.73
-22.94
-29.84
-38.48
-48.25
-57.75
-65.04
-68.12
-65.57
-57.07
-43.5
-26.66
-8.63
8.74
24.15
36.81
46.23
52.05
54.11
52.57
48.1
41.85
35.13
28.98
23.93
19.88
16.33
12.72
8.77
4.55
0.36
-3.47
-6.82
-9.92
-13.25
-17.47
-23.15
-30.6
-39.66
-49.52
-58.76
-65.51
-67.92
-64.78
-55.88
-42.19
-25.51
-8
8.45
22.45
33.2
40.33
43.86
44.1
41.82
38.08
34.09
30.78
28.56
27.18
25.99
24.26
21.53
17.8
13.41
8.84
4.46
0.37
-3.66
-8.12
-13.61
-20.67
-29.5
-39.76
-50.38
-59.67
-65.66
-66.58
-61.51
-50.6
-35.14
-17.12
1.33
18.35
32.71
43.71
51.13
55
55.54
53.21
48.7
42.87
36.59
30.5
24.94
19.83
14.84
9.65
4.1
-1.62
-7.12
-12.02
-16.16
-19.74
-23.33
-27.73
-33.69
-41.58
-51.23
-61.57
-70.88
-76.98
-77.94
-72.76
-61.82
-46.87
-30.46
-15.09
-2.56
6.35
11.66
13.77
13.09
10.02
5.07
-0.97
-7.19
-12.7
-16.95
-19.86
-21.63
-22.48
-22.41
-21.26
-18.92
-15.61
-11.96
-8.91
-7.41
-8.09
-11.08
-16.07
-22.54
-29.98
-37.92
-45.9
-53.15
-58.5
-60.42
-57.39
-48.38
-33.31
-13.21
9.9
33.48
55.06
72.83
86.11
95.37
102.01
107.8
114.16
121.58
129.5
136.46
140.39
139.1
130.51
113.35
87.92
57.02
26.01
1.41
-11.52
-11.32
-1.33
11.46
19.53
18.07
6.74
-10.86
-29.51
-44.79
-54.47
-58.25
-56.68
-50.18
-38.9
-23.33
-4.89
13.93
30.31
41.88
47.5
47.48
43.36
37.25
31.06
26.02
22.31
19.35
16.19
12.11
6.99
1.41
-3.77
-7.79
-10.42
-12.05
-13.58
-16.03
-20.2
-26.44
-34.65
-44.29
-54.48
-63.95
-71.23
-74.75
-73.3
-66.42
-54.59
-39.19
-22.13
-5.3
9.76
22.12
31.25
36.98
39.31
38.54
35.24
30.34
24.84
19.6
15.05
11.12
7.47
3.69
-0.35
-4.46
-8.28
-11.52
-14.18
-16.69
-19.84
-24.43
-31.07
-39.7
-49.58
-59.18
-66.58
-69.91
-67.84
-60.06
-47.25
-30.98
-13.23
4.08
19.43
31.78
40.56
45.59
46.97
45.19
41.05
35.55
29.74
24.33
19.63
15.54
11.74
7.95
4.08
0.28
-3.25
-6.4
-9.32
-12.44
-16.41
-21.85
-29.19
-38.33
-48.48
-58.13
-65.36
-68.29
-65.65
-57.2
-43.77
-27.01
-8.89
8.73
24.33
36.86
45.71
50.69
52.03
50.37
46.62
41.74
36.57
31.65
27.18
23.07
19.13
15.14
11
6.74
2.51
-1.53
-5.37
-9.21
-13.47
-18.77
-25.65
-34.2
-43.86
-53.28
-60.54
-63.65
-61.22
-52.9
-39.55
-22.92
-5.14
11.91
26.84
38.87
47.63
52.97
54.93
53.74
49.99
44.52
38.34
32.27
26.85
22.19
18.08
14.19
10.28
6.3
2.38
-1.26
-4.54
-7.63
-10.99
-15.26
-21.06
-28.65
-37.62
-46.83
-54.47
-58.56
-57.54
-50.74
-38.7
-22.92
-5.45
11.74
27.11
39.63
48.76
54.25
56.04
54.42
50.05
43.95
37.27
31.02
25.73
21.44
17.81
14.42
10.97
7.45
4
0.75
-2.35
-5.61
-9.57
-14.84
-21.8
-30.51
-40.33
-50
-57.76
-61.74
-60.53
-53.58
-41.4
-25.44
-7.62
10.11
26.15
39.37
49.12
55.14
57.53
56.72
53.42
48.48
42.75
36.9
31.29
26.07
21.2
16.64
12.42
8.6
5.25
2.29
-0.52
-3.67
-7.73
-13.31
-20.76
-29.94
-40.06
-49.64
-56.75
-59.5
-56.64
-47.97
-34.45
-17.93
-0.53
15.83
29.82
40.66
48.07
52.03
52.76
50.78
46.85
41.91
36.79
32.02
27.7
23.64
19.56
15.33
10.98
6.68
2.65
-1.09
-4.61
-8.15
-12.06
-16.75
-22.66
-29.92
-38.26
-46.71
-53.7
-57.4
-56.32
-49.86
-38.55
-23.91
-7.9
7.61
21.32
32.49
40.83
46.23
48.63
48.13
45.15
40.48
35.18
30.27
26.38
23.57
21.39
19.17
16.41
12.98
9.2
5.51
2.29
-0.46
-3.11
-6.32
-10.78
-16.96
-24.93
-34.16
-43.5
-51.36
-55.97
-55.92
-50.57
-40.31
-26.45
-10.83
4.72
18.73
30.25
38.78
44.09
46.14
45.12
41.54
36.25
30.26
24.46
19.38
15.11
11.35
7.71
3.93
0.03
-3.74
-7.13
-10.05
-12.74
-15.73
-19.69
-25.21
-32.59
-41.65
-51.57
-60.98
-68.11
-71.22
-69.09
-61.39
-48.83
-32.89
-15.51
1.48
16.57
28.77
37.55
42.81
44.85
44.26
41.84
38.45
34.74
31.09
27.62
24.25
20.95
17.73
14.69
11.85
9.15
6.38
3.21
-0.67
-5.57
-11.7
-19.12
-27.62
-36.58
-44.86
-50.91
-53.16
-50.48
-42.67
-30.63
-16.1
-1.15
12.38
23.28
31.02
35.54
37.06
35.87
32.35
27.05
20.63
13.82
7.22
1.2
-4.1
-8.73
-12.76
-16.29
-19.4
-22.23
-24.96
-27.87
-31.29
-35.56
-40.96
-47.51
-54.75
-61.56
-66.32
-67.28
-63.17
-53.69
-39.72
-23.03
-5.66
10.63
24.76
36.23
44.96
50.98
54.32
55.12
53.67
50.51
46.31
41.71
37.24
33.18
29.63
26.44
23.39
20.18
16.57
12.45
7.77
2.5
-3.48
-10.34
-18.16
-26.59
-34.63
-40.76
-43.31
-41.11
-34.01
-23.01
-9.86
3.42
15.29
24.81
31.66
35.85
37.45
36.64
33.69
29.09
23.47
17.47
11.57
6.01
0.9
-3.73
-7.85
-11.54
-14.92
-18.28
-21.93
-26.21
-31.45
-37.96
-45.83
-54.75
-63.79
-71.39
-75.63
-74.85
-68.24
-56.24
-40.41
-22.99
-6.15
8.46
19.98
28.21
33.36
35.81
35.9
34.02
30.59
26.11
21.08
15.93
11
6.38
2.08
-2
-5.89
-9.63
-13.23
-16.88
-21.02
-26.24
-33.08
-41.57
-50.98
-59.73
-65.79
-67.19
-62.72
-52.36
-37.24
-19.37
-0.97
15.99
30.17
40.88
47.94
51.57
52.14
50.2
46.37
41.39
35.94
30.5
25.37
20.54
15.87
11.19
6.49
1.86
-2.54
-6.68
-10.83
-15.5
-21.48
-29.28
-38.88
-49.35
-58.92
-65.33
-66.56
-61.47
-50.19
-34.15
-15.53
3.34
20.61
35.07
46.12
53.58
57.44
57.92
55.46
50.82
44.9
38.57
32.45
26.8
21.58
16.65
11.97
7.56
3.54
-0.09
-3.51
-7.16
-11.67
-17.66
-25.52
-35.1
-45.54
-55.21
-62.01
-63.99
-59.88
-49.63
-34.41
-16.3
2.41
19.73
34.34
45.55
53.1
57.05
57.67
55.46
51.2
45.78
40.02
34.46
29.27
24.36
19.56
14.8
10.14
5.73
1.6
-2.38
-6.65
-11.78
-18.4
-26.8
-36.7
-47.02
-55.99
-61.55
-61.9
-56.2
-44.74
-29.01
-11.14
6.65
22.59
35.56
45
50.84
53.22
52.49
49.16
43.9
37.48
30.63
23.95
17.79
12.3
7.42
3.08
-0.83
-4.45
-7.93
-11.58
-15.81
-21.12
-27.94
-36.32
-45.72
-54.87
-61.96
-65.06
-62.79
-54.62
-41.26
-24.34
-5.93
11.9
27.59
40.12
49.03
54.26
56.07
54.95
51.54
46.55
40.6
34.16
27.55
21.05
14.92
9.46
4.9
1.3
-1.54
-4.08
-6.88
-10.53
-15.5
-22.08
-30.21
-39.27
-48.07
-54.81
-57.58
-54.87
-46.15
-32.11
-14.47
4.51
22.65
38.27
50.37
58.53
62.82
63.63
61.64
57.72
52.78
47.53
42.33
37.2
31.92
26.31
20.35
14.25
8.34
2.8
-2.28
-7.12
-12.1
-17.71
-24.38
-32.35
-41.43
-50.81
-59.1
-64.49
-65.29
-60.37
-49.69
-34.28
-16.03
2.8
20.18
34.59
45.23
51.94
55.02
55.06
52.8
49.04
44.41
39.43
34.43
29.6
25
20.68
16.66
12.91
9.39
5.96
2.44
-1.42
-5.98
-11.64
-18.71
-27.17
-36.43
-45.13
-51.46
-53.48
-49.89
-40.47
-26.28
-9.36
7.94
23.56
36.11
45
50.21
52.04
50.96
47.51
42.27
35.92
29.1
22.4
16.24
10.89
6.4
2.68
-0.48
-3.37
-6.24
-9.35
-12.93
-17.28
-22.72
-29.47
-37.4
-45.69
-52.87
-57.01
-56.35
-49.91
-37.97
-22.02
-4.3
12.86
27.66
39.04
46.73
50.96
52.16
50.86
47.59
42.9
37.34
31.49
25.84
20.74
16.34
12.56
9.23
6.08
2.9
-0.47
-4.24
-8.67
-14.14
-20.96
-29.18
-38.22
-46.85
-53.27
-55.75
-53.06
-44.99
-32.44
-17.12
-1.11
13.71
25.97
34.94
40.46
42.76
42.28
39.52
35.01
29.25
22.82
16.32
10.32
5.31
1.49
-1.19
-3.07
-4.62
-6.29
-8.4
-11.16
-14.76
-19.38
-25.24
-32.28
-40.01
-47.24
-52.31
-53.48
-49.56
-40.37
-26.93
-11.09
5
19.5
31.28
39.86
45.25
47.71
47.49
44.96
40.53
34.75
28.25
21.62
15.29
9.56
4.54
0.19
-3.55
-6.82
-9.78
-12.61
-15.57
-19.04
-23.49
-29.33
-36.65
-44.87
-52.64
-58.06
-59.19
-54.8
-44.85
-30.57
-14.02
2.51
17.2
28.94
37.29
42.25
44.07
43.15
40.01
35.34
29.89
24.34
19.19
14.73
11.04
8.05
5.6
3.44
1.33
-1
-3.71
-6.95
-10.95
-16.01
-22.37
-30.02
-38.29
-45.81
-50.71
-51.17
-46.17
-35.9
-21.77
-6
9.18
22
31.55
37.66
40.64
40.96
39.04
35.36
30.34
24.51
18.41
12.49
7.08
2.29
-1.87
-5.47
-8.58
-11.29
-13.72
-16.12
-18.92
-22.69
-27.99
-35.02
-43.37
-51.88
-58.75
-62.01
-60.16
-52.67
-40.23
-24.57
-7.89
7.75
20.92
30.98
37.87
41.88
43.29
42.43
39.66
35.53
30.72
25.93
21.58
17.76
14.26
10.74
7.02
3.11
-0.83
-4.68
-8.57
-12.91
-18.25
-25.04
-33.33
-42.54
-51.49
-58.45
-61.68
-59.87
-52.64
-40.7
-25.67
-9.63
5.52
18.44
28.53
35.69
40.1
42
41.59
39.16
35.17
30.2
24.87
19.64
14.76
10.29
6.2
2.45
-0.93
-3.88
-6.48
-8.98
-11.88
-15.81
-21.39
-28.85
-37.77
-46.98
-54.62
-58.66
-57.48
-50.47
-38.24
-22.5
-5.45
10.77
24.62
35.29
42.52
46.43
47.31
45.59
41.81
36.69
31
25.35
20.12
15.42
11.19
7.33
3.81
0.69
-1.99
-4.33
-6.65
-9.44
-13.34
-18.83
-26.05
-34.49
-42.96
-49.76
-53.04
-51.42
-44.39
-32.57
-17.51
-1.26
14.19
27.36
37.41
44.14
47.75
48.65
47.3
44.22
39.9
34.83
29.45
24.07
18.94
14.16
9.79
5.8
2.16
-1.2
-4.4
-7.66
-11.37
-16.01
-22.09
-29.71
-38.34
-46.63
-52.68
-54.56
-51.04
-42.04
-28.78
-13.28
2.26
16.08
27.1
34.9
39.44
40.89
39.48
35.61
29.96
23.33
16.61
10.45
5.17
0.69
-3.24
-6.9
-10.44
-13.86
-17.12
-20.32
-23.83
-28.18
-33.91
-41.12
-49.23
-56.87
-62.13
-63.18
-58.83
-48.98
-34.65
-17.66
-0.02
16.56
30.87
42.25
50.38
55.15
56.65
55.21
51.44
46.17
40.23
34.28
28.69
23.53
18.76
14.29
10.14
6.36
2.95
-0.25
-3.66
-7.84
-13.42
-20.78
-29.7
-39.22
-47.74
-53.38
-54.5
-50.27
-40.83
-27.29
-11.3
5.35
21.06
34.59
45.03
51.86
54.89
54.44
51.21
46.22
40.51
34.86
29.63
24.79
20.14
15.48
10.84
6.42
2.41
-1.09
-4.3
-7.63
-11.66
-16.9
-23.69
-31.92
-40.98
-49.69
-56.44
-59.62
-57.95
-51
-39.32
-24.28
-7.73
8.46
22.75
34.18
42.28
47.03
48.68
47.76
44.93
40.88
36.28
31.53
26.89
22.35
17.94
13.69
9.75
6.33
3.5
1.18
-1.02
-3.62
-7.2
-12.2
-18.72
-26.48
-34.61
-41.82
-46.54
-47.33
-43.28
-34.34
-21.39
-5.99
9.91
24.54
36.54
45.19
50.34
52.36
51.88
49.61
46.23
42.21
37.85
33.29
28.68
24.16
19.9
16
12.43
9.04
5.56
1.79
-2.48
-7.41
-13.2
-20.01
-27.78
-36.01
-43.56
-48.88
-50.32
-46.8
-38.27
-25.76
-11.17
3.45
16.4
26.76
34.35
39.4
42.22
43
41.83
38.76
34.12
28.39
22.25
16.39
11.32
7.3
4.31
2.11
0.3
-1.54
-3.79
-6.82
-10.98
-16.62
-23.84
-32.25
-40.75
-47.62
-50.87
-48.98
-41.51
-29.28
-14.17
1.58
15.97
27.79
36.51
42.2
45.14
45.62
43.99
40.55
35.76
30.06
23.94
17.81
11.98
6.64
1.79
-2.62
-6.76
-10.79
-14.86
-19.15
-23.88
-29.39
-35.84
-43.06
-50.19
-55.78
-58.06
-55.56
-47.69
-35.07
-19.45
-3.12
11.74
23.69
32.16
37.34
39.77
40.01
38.46
35.33
30.88
25.46
19.6
13.86
8.73
4.46
0.95
-2.1
-5.15
-8.61
-12.8
-17.94
-24.21
-31.73
-40.38
-49.59
-58.18
-64.44
-66.55
-63.22
-54.21
-40.51
-24.09
-7.24
8.04
20.53
29.76
35.86
39.19
40.09
38.85
35.69
30.94
25.06
18.65
12.32
6.61
1.89
-1.78
-4.64
-7.14
-9.88
-13.45
-18.32
-24.77
-32.78
-41.91
-51.2
-59.27
-64.5
-65.38
-61.05
-51.48
-37.68
-21.43
-4.8
10.41
23.05
32.71
39.65
44.33
47.19
48.41
47.94
45.75
42
37.13
31.77
26.57
21.94
17.98
14.55
11.35
8.13
4.6
0.53
-4.4
-10.5
-17.88
-26.22
-34.56
-41.36
-44.78
-43.23
-35.91
-23.15
-6.4
12.12
30
45.24
56.6
63.75
67.06
67.24
65.04
61.08
55.85
49.77
43.37
37.2
31.76
27.31
23.73
20.59
17.36
13.58
9.03
3.73
-2.27
-9.08
-16.95
-26.02
-35.95
-45.62
-53.19
-56.65
-54.52
-46.44
-33.41
-17.37
-0.64
14.83
27.76
37.6
44.31
48.07
49.1
47.7
44.28
39.38
33.61
27.55
21.59
15.91
10.45
5.07
-0.36
-5.85
-11.32
-16.67
-21.95
-27.42
-33.54
-40.72
-48.89
-57.35
-64.61
-68.78
-68.14
-61.81
-50.13
-34.53
-17.18
-0.23
14.65
26.52
35.07
40.35
42.55
41.9
38.74
33.56
27.06
19.98
13.01
6.62
1.04
-3.73
-7.88
-11.58
-15.05
-18.5
-22.24
-26.7
-32.35
-39.4
-47.53
-55.65
-61.94
-64.38
-61.35
-52.3
-38.03
-20.43
-1.94
15.24
29.62
40.61
48.3
53.02
55.12
54.76
52.08
47.32
41.03
33.96
26.89
20.43
14.78
9.86
5.35
0.88
-3.86
-9.08
-15.04
-22.06
-30.38
-39.88
-49.74
-58.4
-63.84
-64.2
-58.47
-46.96
-31.28
-13.76
3.15
17.63
28.76
36.43
41.05
43.12
43.05
41.09
37.48
32.5
26.62
20.4
14.36
8.88
4.07
-0.19
-4.15
-8.02
-12.02
-16.35
-21.28
-27.17
-34.14
-41.89
-49.35
-54.87
-56.53
-52.95
-43.74
-29.8
-13.07
4.13
19.64
32.06
40.8
45.99
48.1
47.73
45.34
41.3
35.92
29.55
22.63
15.68
9.18
3.38
-1.7
-6.27
-10.64
-15.11
-19.98
-25.52
-31.99
-39.44
-47.48
-55.12
-60.76
-62.67
-59.48
-50.83
-37.47
-21.17
-4.08
11.78
24.99
34.83
41.19
44.33
44.73
42.93
39.47
34.82
29.37
23.41
17.2
10.97
4.92
-0.75
-5.98
-10.76
-15.24
-19.67
-24.4
-29.8
-36.16
-43.44
-51.01
-57.62
-61.53
-61.07
-55.14
-43.77
-28.12
-10.18
7.75
23.73
36.44
45.37
50.55
52.43
51.59
48.65
44.25
38.96
33.31
27.68
22.38
17.49
12.98
8.7
4.48
0.19
-4.24
-8.82
-13.68
-19.06
-25.28
-32.49
-40.34
-47.8
-53.23
-54.91
-51.49
-42.71
-29.46
-13.53
2.9
17.96
30.36
39.5
45.26
47.87
47.7
45.24
41.05
35.69
29.68
23.42
17.22
11.31
5.92
1.18
-2.89
-6.41
-9.68
-13.13
-17.26
-22.49
-29.11
-37.03
-45.57
-53.45
-58.92
-60.27
-56.34
-47.03
-33.34
-17.12
-0.5
14.71
27.27
36.72
43.05
46.57
47.63
46.52
43.56
39.01
33.27
26.75
19.95
13.29
7.13
1.63
-3.21
-7.56
-11.69
-15.9
-20.61
-26.25
-33.16
-41.27
-49.89
-57.59
-62.4
-62.44
-56.56
-44.92
-28.93
-10.89
6.8
22.27
34.46
43.13
48.5
50.97
50.9
48.62
44.47
38.89
32.42
25.62
18.97
12.77
7.15
2.04
-2.72
-7.31
-11.95
-16.86
-22.39
-28.9
-36.68
-45.6
-54.8
-62.73
-67.39
-66.98
-60.53
-48.35
-31.93
-13.48
4.64
20.57
33.15
41.95
47.06
48.9
48.01
45.04
40.58
35.13
29.12
22.85
16.67
10.86
5.7
1.28
-2.55
-6.11
-9.82
-14.14
-19.46
-26.04
-33.93
-42.78
-51.64
-58.97
-62.84
-61.57
-54.23
-41.17
-23.91
-4.74
13.96
30.27
43.03
51.77
56.56
57.8
56.14
52.34
47.24
41.57
35.81
30.12
24.48
18.8
13.16
7.7
2.6
-2.12
-6.66
-11.38
-16.76
-23.21
-30.94
-39.78
-48.96
-57.14
-62.51
-63.27
-58.18
-47.14
-31.3
-12.83
5.75
22.23
35.14
43.98
48.91
50.51
49.52
46.64
42.42
37.35
31.79
26.02
20.27
14.72
9.57
4.88
0.68
-3.14
-6.81
-10.65
-15.1
-20.59
-27.45
-35.56
-44.23
-52.07
-57.18
-57.74
-52.52
-41.41
-25.41
-6.52
12.91
30.72
45.31
55.89
62.33
65.03
64.62
61.8
57.21
51.38
44.76
37.74
30.69
23.88
17.49
11.56
5.99
0.62
-4.85
-10.7
-17.31
-25
-33.96
-43.97
-54.2
-63.23
-69.21
-70.4
-65.7
-55.06
-39.55
-21.08
-1.91
15.88
30.81
42.16
49.84
54.26
55.97
55.55
53.41
49.85
45.13
39.47
33.26
26.89
20.78
15.21
10.29
5.92
1.87
-2.23
-6.8
-12.32
-19.29
-27.92
-37.86
-48.08
-56.78
-61.88
-61.54
-54.87
-42.2
-25.07
-5.75
13.41
30.48
44.2
53.99
59.81
61.97
61.04
57.74
52.87
47.16
41.19
35.36
29.78
24.48
19.38
14.44
9.72
5.28
1.21
-2.58
-6.35
-10.63
-16.11
-23.37
-32.58
-43.09
-53.41
-61.4
-64.85
-62.21
-53.15
-38.68
-20.8
-1.97
15.69
30.67
42.26
50.3
54.91
56.4
55.15
51.72
46.84
41.29
35.7
30.47
25.62
20.97
16.36
11.72
7.22
3.08
-0.53
-3.72
-6.85
-10.49
-15.34
-21.93
-30.44
-40.34
-50.31
-58.35
-62.2
-60.16
-51.66
-37.61
-20
-1.3
16.37
31.63
43.79
52.57
57.78
59.32
57.33
52.5
45.9
38.86
32.44
27.1
22.74
18.76
14.64
10.07
5.17
0.34
-4.02
-7.71
-10.97
-14.41
-18.89
-25.17
-33.58
-43.61
-53.92
-62.48
-67.08
-66.09
-58.85
-46.06
-29.46
-11.34
6.12
21.3
33.26
41.69
46.6
48.23
46.99
43.49
38.49
32.8
27.08
21.68
16.69
11.92
7.27
2.73
-1.55
-5.33
-8.5
-11.19
-13.79
-16.89
-21.17
-27.12
-34.74
-43.36
-51.56
-57.42
-59.03
-55.11
-45.48
-31.25
-14.38
2.82
18.41
31.19
40.66
46.85
49.99
50.4
48.47
44.72
39.75
34.13
28.31
22.49
16.76
11.16
5.87
1.11
-2.91
-6.21
-9.07
-12.04
-15.83
-21.09
-28.25
-37.21
-47.2
-56.77
-63.97
-66.86
-64.09
-55.37
-41.6
-24.62
-6.64
10.32
24.81
36.05
43.8
48.16
49.46
48.19
45.04
40.76
36.04
31.34
26.8
22.28
17.61
12.7
7.67
2.83
-1.57
-5.38
-8.74
-11.99
-15.66
-20.35
-26.6
-34.68
-44.28
-54.3
-62.91
-67.94
-67.53
-60.79
-48.21
-31.45
-12.83
5.44
21.73
35.2
45.52
52.6
56.42
56.98
54.58
49.88
43.9
37.66
31.97
27.15
22.97
18.96
14.65
9.86
4.77
-0.19
-4.64
-8.4
-11.71
-15.11
-19.31
-24.99
-32.46
-41.56
-51.4
-60.47
-66.88
-68.85
-65.29
-56.09
-42.24
-25.42
-7.5
9.94
25.84
39.45
50.21
57.56
61.06
60.66
56.93
50.99
44.19
37.75
32.34
28.02
24.34
20.74
16.75
12.24
7.37
2.46
-2.18
-6.4
-10.24
-13.97
-18.02
-22.88
-29.03
-36.72
-45.82
-55.55
-64.48
-70.75
-72.49
-68.46
-58.44
-43.39
-25.12
-5.71
12.98
29.64
43.52
54.16
61.25
64.59
64.15
60.36
54.07
46.52
38.98
32.42
27.26
23.31
19.97
16.51
12.51
7.92
3.07
-1.56
-5.66
-9.24
-12.7
-16.63
-21.67
-28.2
-36.34
-45.77
-55.71
-64.88
-71.65
-74.35
-71.68
-63.17
-49.29
-31.4
-11.4
8.77
27.34
43.03
54.9
62.44
65.51
64.38
59.83
52.96
45.08
37.33
30.52
24.94
20.44
16.57
12.8
8.75
4.2
-0.77
-5.95
-11.08
-15.99
-20.68
-25.33
-30.4
-36.42
-43.9
-52.94
-62.97
-72.62
-79.89
-82.68
-79.39
-69.51
-53.73
-33.72
-11.62
10.49
30.92
48.46
62.18
71.5
76.04
75.95
71.91
65.14
57.11
49.13
42.03
35.98
30.67
25.59
20.39
14.98
9.54
4.31
-0.63
-5.43
-10.38
-15.8
-21.9
-28.81
-36.67
-45.61
-55.65
-66.42
-76.77
-84.95
-88.78
-86.35
-76.68
-60.06
-37.95
-12.52
13.79
38.66
59.96
75.9
85.2
87.45
83.37
74.74
63.94
53.17
43.96
36.84
31.6
27.67
24.46
21.54
18.51
15.1
11.07
6.43
1.4
-3.67
-8.47
-13.08
-17.83
-23.39
-30.43
-39.34
-49.91
-61.12
-71.22
-77.95
-79.27
-73.92
-61.91
-44.59
-24.2
-3.19
16.4
33.26
46.81
56.9
63.61
67.03
67.4
65.17
60.96
55.57
49.69
43.93
38.58
33.8
29.5
25.52
21.6
17.58
13.4
9.09
4.83
0.74
-3.2
-7.16
-11.5
-16.62
-22.96
-30.87
-40.51
-51.6
-63.21
-73.66
-80.77
-82.46
-77.41
-65.67
-48.59
-28.49
-7.82
11.41
27.95
41.24
51.06
57.37
60.15
59.63
56.31
51.07
44.96
38.99
33.95
30.14
27.52
25.63
23.89
21.73
18.77
14.97
10.52
5.81
1.16
-3.27
-7.57
-12.03
-17.07
-23.18
-30.76
-40.02
-50.59
-61.42
-70.73
-76.36
-76.42
-69.92
-57.24
-39.96
-20.39
-0.84
16.87
31.68
43.11
50.95
55.12
55.65
52.9
47.56
40.73
33.61
27.22
22.12
18.32
15.41
12.76
9.87
6.51
2.84
-0.82
-4.19
-7.21
-10.21
-13.76
-18.5
-24.87
-33.03
-42.71
-53.19
-63.32
-71.56
-76.22
-75.81
-69.55
-57.62
-41.22
-22.28
-2.91
15.04
30.32
42.19
50.35
54.71
55.44
53
48.2
42.1
35.78
30.07
25.36
21.57
18.28
14.95
11.22
6.94
2.33
-2.29
-6.57
-10.43
-14.17
-18.41
-24.01
-31.59
-41.32
-52.47
-63.48
-72.17
-76.32
-74.38
-65.97
-52.06
-34.55
-15.68
2.67
19.24
33.4
44.82
53.18
58.09
59.3
56.99
51.9
45.22
38.29
32.07
26.95
22.66
18.62
14.24
9.28
3.93
-1.32
-5.93
-9.66
-12.63
-15.44
-18.82
-23.51
-29.97
-38.31
-48.24
-58.88
-68.89
-76.43
-79.63
-77.02
-68.09
-53.53
-35.07
-14.96
4.7
22.29
36.95
48.26
56.04
60.2
60.81
58.29
53.44
47.45
41.44
36.25
32.14
28.88
25.88
22.53
18.47
13.7
8.55
3.51
-1.02
-4.92
-8.47
-12.27
-17.06
-23.52
-32.02
-42.38
-53.79
-64.74
-73.27
-77.44
-75.79
-67.89
-54.48
-37.25
-18.3
0.4
17.44
32.02
43.7
52.18
57.22
58.74
57.01
52.79
47.19
41.35
36.16
31.96
28.59
25.57
22.38
18.7
14.52
10.08
5.69
1.59
-2.23
-5.97
-10.08
-15.01
-21.19
-28.94
-38.27
-48.8
-59.48
-68.72
-74.5
-75
-69.13
-57.05
-40.13
-20.57
-0.71
17.6
33.25
45.78
55.09
61.06
63.59
62.68
58.78
52.75
45.88
39.4
34.14
30.24
27.2
24.16
20.4
15.65
10.21
4.79
0.08
-3.59
-6.47
-9.28
-12.87
-17.95
-24.85
-33.5
-43.46
-53.89
-63.58
-70.92
-74.24
-72.11
-63.94
-50.21
-32.48
-12.93
6.27
23.4
37.46
47.99
54.86
58.06
57.72
54.21
48.33
41.26
34.26
28.35
23.98
20.94
18.53
15.95
12.64
8.51
3.92
-0.59
-4.62
-8.13
-11.49
-15.32
-20.32
-26.98
-35.47
-45.47
-56.15
-66.06
-73.36
-76.22
-73.29
-64.25
-49.94
-32.12
-12.95
5.66
22.39
36.47
47.51
55.2
59.28
59.69
56.83
51.61
45.32
39.21
34.12
30.22
27.1
24.02
20.33
15.73
10.38
4.81
-0.45
-5.06
-9.12
-13.1
-17.74
-23.69
-31.4
-40.86
-51.55
-62.36
-71.68
-77.61
-78.44
-73.12
-61.69
-45.31
-25.99
-5.91
13.05
29.72
43.5
54.17
61.55
65.44
65.8
62.94
57.7
51.24
44.79
39.23
34.87
31.45
28.35
24.95
20.87
16.14
11.08
6.16
1.69
-2.3
-6.12
-10.37
-15.8
-23.08
-32.52
-43.82
-55.83
-66.72
-74.23
-76.33
-71.85
-60.8
-44.48
-24.98
-4.61
14.67
31.59
45.49
56.07
63.13
66.56
66.4
63.13
57.67
51.24
45.05
39.82
35.72
32.28
28.88
24.91
20.2
14.93
9.52
4.4
-0.23
-4.43
-8.49
-12.84
-17.93
-24.16
-31.87
-41.18
-51.85
-63.04
-73.23
-80.47
-82.79
-78.91
-68.64
-53.02
-34.01
-13.87
5.42
22.47
36.48
47.04
53.92
57
56.45
52.85
47.28
41.05
35.46
31.35
28.88
27.53
26.36
24.46
21.31
17
12.14
7.48
3.57
0.42
-2.47
-5.96
-10.87
-17.78
-26.75
-37.35
-48.63
-59.19
-67.32
-71.3
-69.81
-62.34
-49.44
-32.57
-13.74
5
22.01
36.19
46.94
53.98
57.3
57.12
53.97
48.73
42.44
36.15
30.57
25.99
22.23
18.81
15.25
11.28
6.99
2.68
-1.32
-4.93
-8.35
-12.03
-16.43
-21.9
-28.62
-36.55
-45.41
-54.54
-62.73
-68.37
-69.78
-65.74
-56.05
-41.6
-24.16
-5.78
11.83
27.47
40.5
50.5
57.07
59.95
59.11
55.08
48.89
41.91
35.37
30.03
25.97
22.66
19.34
15.37
10.61
5.39
0.37
-3.86
-7.16
-9.9
-12.96
-17.38
-24
-33.15
-44.38
-56.47
-67.54
-75.42
-78.14
-74.51
-64.43
-49
-30.19
-10.29
8.64
25.17
38.5
48.34
54.62
57.48
57.24
54.5
50.21
45.36
40.79
36.88
33.51
30.2
26.39
21.82
16.57
11.08
5.81
1.1
-3.01
-6.8
-10.67
-15.12
-20.65
-27.73
-36.61
-47.09
-58.23
-68.32
-75.14
-76.63
-71.63
-60.28
-44.03
-25.14
-5.96
11.74
26.96
39.3
48.67
54.92
57.86
57.43
54.01
48.46
42.04
36.04
31.26
27.9
25.4
22.92
19.72
15.56
10.76
5.92
1.64
-1.89
-4.92
-8.03
-11.87
-17
-23.77
-32.26
-42.26
-53.06
-63.36
-71.37
-75.14
-73.16
-64.87
-50.97
-33.16
-13.68
5.34
22.3
36.28
46.81
53.76
57.12
57.07
54.06
48.88
42.53
36.07
30.34
25.78
22.34
19.66
17.1
14.18
10.64
6.59
2.39
-1.61
-5.29
-8.92
-13.03
-18.28
-25.15
-33.8
-43.87
-54.54
-64.43
-71.83
-74.98
-72.53
-64.07
-50.28
-32.84
-13.91
4.45
20.74
34.1
44.08
50.47
53.13
52.26
48.44
42.74
36.5
30.84
26.37
23.06
20.43
17.8
14.71
11.05
7.02
2.99
-0.75
-4.12
-7.34
-10.81
-15.13
-20.85
-28.36
-37.65
-48.1
-58.45
-66.87
-71.39
-70.44
-63.37
-50.73
-34.1
-15.64
2.6
19.03
32.77
43.4
50.72
54.63
55.15
52.65
47.91
42.11
36.42
31.71
28.23
25.6
23.12
20.07
16.07
11.19
5.84
0.55
-4.28
-8.59
-12.61
-16.89
-22.11
-28.85
-37.4
-47.41
-57.72
-66.53
-71.71
-71.51
-65.13
-53.01
-36.62
-17.99
0.92
18.59
33.96
46.31
55
59.56
59.87
56.45
50.46
43.42
36.79
31.38
27.31
24.02
20.79
17.05
12.68
7.97
3.38
-0.71
-4.19
-7.29
-10.48
-14.32
-19.41
-26.18
-34.85
-45.2
-56.34
-66.72
-74.27
-76.91
-73.26
-63.09
-47.52
-28.63
-8.85
9.79
25.98
39.16
49.23
56.14
59.86
60.37
57.94
53.22
47.29
41.3
36.18
32.29
29.33
26.59
23.28
18.98
13.81
8.39
3.44
-0.61
-3.87
-7.01
-10.93
-16.45
-23.98
-33.47
-44.38
-55.73
-66.13
-73.85
-77.18
-74.8
-66.28
-52.31
-34.52
-15.04
4.07
21.26
35.65
46.85
54.74
59.21
60.28
58.19
53.56
47.42
40.94
35.17
30.67
27.48
25.1
22.86
20.23
16.99
13.32
9.55
5.99
2.64
-0.76
-4.7
-9.73
-16.27
-24.59
-34.63
-45.86
-57.16
-66.86
-72.99
-73.84
-68.5
-57.17
-41.23
-22.74
-3.85
13.7
28.77
40.76
49.31
54.2
55.39
53.14
48.24
41.86
35.34
29.77
25.64
22.77
20.45
17.89
14.53
10.38
5.93
1.86
-1.28
-3.46
-5.2
-7.48
-11.25
-17.28
-25.78
-36.36
-47.99
-59.08
-67.74
-72.01
-70.5
-62.66
-49.11
-31.47
-11.91
7.33
24.52
38.54
48.92
55.49
58.41
58.02
54.87
49.85
43.92
38.03
32.76
28.29
24.33
20.4
16.08
11.21
6.05
1.02
-3.45
-7.27
-10.78
-14.62
-19.63
-26.45
-35.41
-46.18
-57.81
-68.66
-76.7
-79.92
-76.96
-67.59
-52.78
-34.46
-14.87
4.02
20.9
35.05
46.06
53.62
57.43
57.49
54.25
48.77
42.39
36.35
31.39
27.5
24.17
20.66
16.45
11.53
6.33
1.51
-2.44
-5.5
-8.18
-11.39
-16.09
-22.97
-32.19
-43.16
-54.59
-64.65
-71.32
-72.83
-68.2
-57.53
-41.94
-23.32
-3.75
14.93
31.44
44.99
55.15
61.65
64.4
63.57
59.78
54.02
47.55
41.42
36.3
32.21
28.71
25.15
20.99
16.12
10.77
5.44
0.51
-3.86
-7.94
-12.27
-17.53
-24.38
-33.19
-43.78
-55.26
-66.03
-73.96
-77.03
-73.9
-64.4
-49.63
-31.53
-12.3
6.25
22.88
36.94
48.02
55.74
59.81
60.19
57.38
52.37
46.46
40.88
36.35
32.95
30.17
27.31
23.74
19.29
14.23
9.06
4.28
0.13
-3.53
-7.2
-11.5
-17.08
-24.41
-33.6
-44.27
-55.4
-65.37
-72.2
-74.12
-70.03
-59.97
-45.06
-27.21
-8.5
9.26
24.81
37.4
46.53
51.98
53.66
51.89
47.42
41.37
35
29.32
24.89
21.66
19.11
16.56
13.42
9.49
4.99
0.43
-3.64
-6.95
-9.67
-12.45
-16.21
-21.8
-29.67
-39.54
-50.33
-60.28
-67.33
-69.61
-66.02
-56.55
-42.26
-25
-6.84
10.43
25.55
37.76
46.65
51.98
53.69
52.06
47.81
42.05
36.05
30.84
26.9
24.09
21.81
19.37
16.32
12.71
8.92
5.44
2.55
0.09
-2.46
-5.86
-10.78
-17.63
-26.39
-36.5
-46.81
-55.63
-61.08
-61.52
-56.13
-45.22
-30.18
-13.04
4.16
19.81
32.95
43.02
49.76
53.01
52.79
49.54
44.07
37.53
31.04
25.38
20.82
17.15
13.88
10.53
6.81
2.73
-1.46
-5.43
-9.03
-12.42
-16.07
-20.69
-27.01
-35.4
-45.71
-56.89
-67.13
-74.18
-75.93
-71.14
-59.83
-43.43
-24.18
-4.52
13.67
29.39
42.3
52.39
59.56
63.53
64.13
61.56
56.63
50.6
44.77
39.95
36.27
33.17
29.87
25.75
20.71
15.11
9.61
4.79
0.77
-2.66
-6.12
-10.21
-15.48
-22.17
-30.29
-39.52
-49.1
-57.85
-64.12
-66.24
-62.98
-53.98
-40.08
-23
-4.9
12.29
27.21
39.13
47.78
53.1
55.1
54.04
50.5
45.39
39.79
34.6
30.36
27.04
24.19
21.2
17.6
13.24
8.35
3.46
-0.9
-4.36
-7.02
-9.38
-12.2
-16.33
-22.44
-30.77
-40.94
-51.88
-61.89
-68.99
-71.38
-67.98
-58.82
-45.05
-28.51
-11.21
5.19
19.61
31.41
40.16
45.57
47.42
45.95
41.88
36.41
30.8
25.96
22.23
19.34
16.72
13.85
10.57
7.08
3.73
0.81
-1.76
-4.38
-7.68
-12.22
-18.39
-26.23
-35.43
-45.25
-54.5
-61.67
-65.13
-63.55
-56.33
-43.92
-27.7
-9.68
8.01
23.71
36.33
45.33
50.62
52.36
51.04
47.38
42.37
36.94
31.84
27.36
23.42
19.67
15.82
11.74
7.53
3.42
-0.45
-4.11
-7.84
-12.11
-17.47
-24.41
-33.13
-43.31
-53.89
-63.21
-69.21
-70.11
-64.93
-53.92
-38.49
-20.74
-2.88
13.36
26.9
37.24
44.21
47.84
48.32
46.1
41.95
36.8
31.56
26.8
22.65
18.84
14.9
10.57
5.83
1.03
-3.35
-7.01
-10.03
-12.94
-16.57
-21.72
-28.83
-37.77
-47.68
-57.1
-64.23
-67.34
-65.26
-57.65
-45.17
-29.27
-11.79
5.49
21.2
34.4
44.57
51.37
54.68
54.65
51.85
47.29
42.11
37.35
33.5
30.48
27.71
24.53
20.61
16.07
11.44
7.29
3.92
1.14
-1.67
-5.35
-10.61
-17.84
-27
-37.53
-48.39
-58.07
-64.82
-67.02
-63.63
-54.55
-40.73
-23.88
-6.01
11.07
26.06
38.19
47.09
52.59
54.66
53.47
49.51
43.71
37.24
31.31
26.76
23.84
22.21
21.08
19.63
17.35
14.17
10.38
6.4
2.52
-1.32
-5.42
-10.29
-16.42
-24.15
-33.49
-43.91
-54.29
-62.94
-68.02
-67.98
-62.12
-50.86
-35.62
-18.34
-0.94
15.08
28.8
39.58
47.05
50.93
51.24
48.44
43.46
37.51
31.76
26.92
23.18
20.24
17.55
14.67
11.34
7.61
3.71
-0.1
-3.64
-6.9
-10.09
-13.63
-18.07
-23.95
-31.63
-41.03
-51.49
-61.58
-69.4
-73
-70.97
-62.93
-49.71
-33.04
-15.04
2.4
17.94
30.82
40.65
47.21
50.37
50.24
47.33
42.57
37.15
32.16
28.23
25.41
23.22
20.97
18.14
14.61
10.66
6.78
3.31
0.34
-2.43
-5.59
-9.81
-15.67
-23.48
-33.1
-43.77
-54.1
-62.22
-66.17
-64.52
-56.84
-43.87
-27.31
-9.26
8.35
24.1
37.18
47.19
53.97
57.47
57.84
55.55
51.38
46.33
41.34
37.1
33.84
31.37
29.18
26.73
23.62
19.77
15.39
10.82
6.31
1.92
-2.57
-7.52
-13.38
-20.47
-29.02
-38.98
-49.86
-60.6
-69.55
-74.74
-74.47
-67.9
-55.45
-38.72
-19.92
-1.27
15.7
30.15
41.86
50.78
56.79
59.75
59.64
56.84
52.15
46.61
41.21
36.55
32.8
29.68
26.79
23.74
20.34
16.61
12.66
8.62
4.48
0.16
-4.48
-9.57
-15.16
-21.38
-28.43
-36.65
-46.29
-57.26
-68.74
-79.1
-86.14
-87.76
-82.68
-70.97
-54.09
-34.4
-14.4
3.96
19.52
31.91
41.14
47.32
50.56
50.98
48.92
45.07
40.35
35.74
32
29.44
27.91
26.9
25.79
24.13
21.77
18.83
15.61
12.24
8.72
4.77
0.12
-5.43
-11.93
-19.33
-27.64
-36.86
-46.82
-56.86
-65.68
-71.44
-72.3
-67.09
-55.8
-39.72
-20.94
-1.78
15.93
31.03
42.98
51.55
56.56
57.92
55.73
50.57
43.5
35.89
29.04
23.83
20.48
18.51
17.11
15.42
12.92
9.55
5.68
1.81
-1.69
-4.77
-7.76
-11.13
-15.46
-21.16
-28.43
-37.23
-47.05
-56.94
-65.37
-70.6
-70.98
-65.64
-54.7
-39.41
-21.65
-3.47
13.43
28
39.68
48.24
53.53
55.45
54.14
50.11
44.28
37.81
31.81
27
23.54
21.03
18.77
16.08
12.53
8.16
3.37
-1.32
-5.48
-9.06
-12.4
-16.14
-21.05
-27.77
-36.51
-46.85
-57.63
-67.02
-72.95
-73.64
-68.18
-56.86
-41.08
-22.87
-4.25
13.18
28.39
40.8
49.99
55.64
57.63
56.17
51.98
46.15
39.85
34.08
29.32
25.61
22.53
19.52
16.05
11.87
7.08
1.99
-2.93
-7.36
-11.29
-15.05
-19.27
-24.65
-31.77
-40.83
-51.52
-62.84
-73.18
-80.49
-82.76
-78.66
-67.97
-51.75
-32.06
-11.31
8.37
25.56
39.56
50.14
57.26
60.93
61.27
58.72
54.12
48.61
43.3
38.97
35.82
33.48
31.28
28.6
25.13
20.91
16.33
11.75
7.41
3.33
-0.71
-4.97
-9.77
-15.35
-22.03
-30.03
-39.41
-49.76
-60.01
-68.44
-73.04
-72.13
-64.95
-52.02
-34.96
-15.99
2.72
19.62
33.79
44.86
52.7
57.21
58.42
56.58
52.31
46.6
40.56
35.14
30.88
27.81
25.53
23.42
20.87
17.58
13.56
9.14
4.76
0.71
-2.97
-6.58
-10.64
-15.77
-22.48
-31.06
-41.36
-52.7
-63.8
-72.85
-77.9
-77.36
-70.54
-57.92
-41.04
-22.07
-3.16
13.98
28.3
39.27
46.64
50.35
50.54
47.68
42.61
36.49
30.46
25.41
21.67
19.05
16.98
14.84
12.25
9.2
6
3.04
0.58
-1.48
-3.59
-6.37
-10.47
-16.35
-24.18
-33.66
-43.93
-53.58
-60.81
-63.85
-61.43
-53.34
-40.45
-24.48
-7.46
8.76
22.95
34.44
42.92
48.24
50.31
49.25
45.5
39.94
33.7
27.84
23.05
19.42
16.56
13.86
10.87
7.53
4.12
1.1
-1.29
-3.12
-4.87
-7.2
-10.77
-15.99
-22.99
-31.54
-40.96
-50.11
-57.43
-61.23
-60.13
-53.56
-41.98
-26.83
-10.1
6.28
20.89
33
42.35
48.94
52.73
53.68
51.93
47.95
42.6
36.92
31.9
28.06
25.35
23.24
21.02
18.09
14.25
9.77
5.19
1.01
-2.56
-5.75
-9.21
-13.8
-20.32
-29.23
-40.38
-52.96
-65.35
-75.47
-81.17
-80.88
-74.02
-61.3
-44.45
-25.65
-6.94
10.22
25.04
37.09
46.06
51.64
53.61
52.15
47.96
42.2
36.16
30.87
26.78
23.8
21.41
19.05
16.31
13.08
9.5
5.79
2.14
-1.43
-4.99
-8.78
-13.1
-18.27
-24.65
-32.44
-41.57
-51.36
-60.5
-67.13
-69.35
-65.82
-56.31
-41.84
-24.31
-5.97
11.37
26.53
39.01
48.56
54.96
57.95
57.45
53.82
48.06
41.53
35.58
31.08
28.17
26.29
24.56
22.2
18.88
14.77
10.38
6.22
2.48
-0.98
-4.72
-9.25
-15.05
-22.28
-30.9
-40.55
-50.57
-59.87
-66.93
-70.14
-68.15
-60.47
-47.64
-31.18
-13.14
4.48
20.12
32.83
42.11
47.75
49.73
48.36
44.28
38.53
32.31
26.66
22.14
18.74
16.02
13.37
10.34
6.86
3.16
-0.38
-3.49
-6.23
-8.98
-12.34
-16.93
-23.21
-31.33
-40.95
-51.14
-60.46
-67.06
-69.19
-65.7
-56.43
-42.37
-25.31
-7.38
9.54
24.17
35.82
44.23
49.28
51.03
49.68
45.83
40.4
34.52
29.11
24.67
21.13
17.96
14.6
10.73
6.45
2.17
-1.66
-4.88
-7.75
-10.92
-15.23
-21.33
-29.5
-39.32
-49.7
-58.95
-65.15
-66.62
-62.4
-52.57
-38.19
-21.02
-3.02
14.11
29.13
41.3
50.2
55.66
57.69
56.6
53.05
47.96
42.32
36.93
32.19
28.09
24.33
20.51
16.41
12.02
7.51
3.15
-0.89
-4.65
-8.46
-12.88
-18.56
-26.02
-35.35
-45.96
-56.46
-64.85
-69.05
-67.55
-59.87
-46.8
-30.08
-11.85
5.95
22.05
35.69
46.49
54.18
58.45
59.19
56.68
51.75
45.61
39.5
34.36
30.5
27.62
25.07
22.19
18.57
14.27
9.67
5.26
1.36
-2.1
-5.62
-9.96
-15.82
-23.67
-33.42
-44.4
-55.31
-64.38
-69.79
-70.03
-64.44
-53.34
-38.04
-20.38
-2.26
14.76
29.63
41.7
50.56
55.91
57.68
56.14
52.05
46.51
40.68
35.5
31.36
28.14
25.34
22.36
18.79
14.53
9.8
4.92
0.13
-4.53
-9.3
-14.6
-20.92
-28.69
-38.1
-48.91
-60.32
-70.91
-78.89
-82.45
-80.34
-72.3
-59.17
-42.67
-24.87
-7.71
7.41
19.56
28.27
33.37
35
33.74
30.63
27.05
24.35
23.42
24.41
26.64
28.95
30.12
29.42
26.69
22.49
17.59
12.72
8.22
3.9
-0.78
-6.56
-14.01
-23.35
-34.14
-45.28
-55.06
-61.49
-62.91
-58.4
-48.22
-33.65
-16.64
0.77
16.89
30.58
41.17
48.31
51.88
52.08
49.52
45.17
40.17
35.43
31.4
28.01
24.84
21.47
17.68
13.61
9.56
5.79
2.41
-0.79
-4.2
-8.37
-13.82
-20.89
-29.56
-39.23
-48.66
-56.14
-59.87
-58.51
-51.71
-40.13
-25.29
-9.03
7.01
21.6
33.97
43.55
50
53.18
53.22
50.71
46.56
41.8
37.24
33.31
29.96
26.88
23.67
20.03
15.93
11.55
7.22
3.16
-0.59
-4.34
-8.68
-14.34
-21.86
-31.31
-42.01
-52.49
-60.82
-65
-63.66
-56.4
-43.98
-28.1
-10.79
6
20.88
33.03
42.12
48.04
50.78
50.51
47.65
43.03
37.68
32.67
28.67
25.77
23.53
21.14
17.96
13.73
8.81
3.87
-0.43
-3.84
-6.64
-9.59
-13.6
-19.42
-27.35
-37.06
-47.56
-57.27
-64.29
-66.85
-63.82
-55.07
-41.56
-25.01
-7.47
9.26
23.83
35.45
43.73
48.53
49.96
48.43
44.68
39.65
34.29
29.29
24.94
21.19
17.79
14.51
11.26
8.1
5.14
2.45
-0.07
-2.68
-5.79
-9.82
-15.18
-22.11
-30.55
-40.05
-49.55
-57.55
-62.32
-62.43
-57.21
-47
-33.08
-17.25
-1.38
13.07
25.09
34.15
39.99
42.59
42.17
39.25
34.69
29.43
24.36
19.98
16.41
13.4
10.57
7.64
4.53
1.37
-1.67
-4.48
-7.2
-10.15
-13.85
-18.81
-25.38
-33.53
-42.53
-51.06
-57.3
-59.4
-56.12
-47.23
-33.7
-17.35
-0.39
15.31
28.46
38.46
45.14
48.53
48.8
46.31
41.75
36.05
30.2
24.94
20.55
16.88
13.45
9.88
6.01
2.05
-1.64
-4.78
-7.44
-10.05
-13.33
-18.05
-24.66
-33.12
-42.67
-51.91
-59.05
-62.25
-60.22
-52.55
-39.88
-23.74
-6.13
11
26.08
38.09
46.56
51.42
52.92
51.58
48.15
43.49
38.44
33.56
29.08
24.93
20.81
16.46
11.83
7.06
2.47
-1.73
-5.47
-8.97
-12.69
-17.27
-23.25
-30.97
-40.19
-49.9
-58.39
-63.51
-63.36
-56.98
-44.72
-28.2
-9.71
8.39
24.4
37.4
47.08
53.46
56.6
56.66
53.99
49.33
43.67
38.1
33.37
29.76
26.96
24.32
21.27
17.53
13.31
9.13
5.49
2.59
0.08
-2.78
-6.95
-13.17
-21.83
-32.67
-44.8
-56.75
-66.62
-72.52
-72.97
-67.4
-56.29
-41.06
-23.67
-6.06
10.23
24.23
35.4
43.46
48.2
49.61
47.94
43.89
38.53
33
28.22
24.56
21.84
19.49
16.88
13.68
9.98
6.23
2.91
0.28
-1.85
-4.01
-6.91
-11.21
-17.33
-25.38
-35
-45.35
-55.03
-62.24
-65.16
-62.54
-54.06
-40.58
-23.88
-6.07
10.92
25.76
37.68
46.42
51.86
54.04
53.18
49.72
44.43
38.24
32.06
26.52
21.84
17.84
14.15
10.4
6.49
2.56
-1.04
-4.09
-6.62
-9.04
-12
-16.26
-22.32
-30.31
-39.72
-49.45
-57.94
-63.43
-64.45
-60.15
-50.66
-36.96
-20.65
-3.52
12.82
27.1
38.39
46.06
49.82
49.68
46.21
40.42
33.59
27.03
21.58
17.52
14.5
11.89
9.07
5.76
2.07
-1.67
-5.12
-8.25
-11.33
-14.94
-19.72
-26.15
-34.38
-43.96
-53.86
-62.47
-67.92
-68.57
-63.46
-52.69
-37.36
-19.27
-0.43
17.34
32.71
44.73
52.9
57.07
57.5
54.9
50.27
44.69
39.06
33.88
29.26
25.07
21.07
17.11
13.21
9.43
5.92
2.67
-0.42
-3.69
-7.62
-12.77
-19.66
-28.44
-38.74
-49.44
-58.79
-64.79
-65.7
-60.65
-49.89
-34.79
-17.33
0.34
16.52
30.05
40.35
47.2
50.59
50.7
47.89
42.89
36.67
30.33
24.76
20.35
16.95
13.96
10.72
6.83
2.4
-2.08
-6.05
-9.19
-11.7
-14.18
-17.49
-22.36
-29.19
-37.84
-47.52
-56.83
-63.94
-67.03
-64.72
-56.57
-43.23
-26.29
-7.79
10.27
26.36
39.51
49.17
55.13
57.38
56.17
52.14
46.29
39.81
33.77
28.84
25.1
22.14
19.31
16.07
12.31
8.26
4.43
1.25
-1.15
-3.12
-5.3
-8.5
-13.43
-20.41
-29.33
-39.42
-49.34
-57.31
-61.47
-60.42
-53.65
-41.78
-26.35
-9.47
6.88
21.19
32.57
40.64
45.3
46.64
44.91
40.73
34.96
28.67
22.76
17.77
13.74
10.3
6.98
3.43
-0.41
-4.35
-8.04
-11.27
-14.09
-16.85
-20.15
-24.63
-30.7
-38.34
-46.97
-55.39
-62.02
-65.2
-63.63
-56.75
-44.92
-29.34
-11.81
5.74
21.61
34.52
43.68
48.78
49.91
47.6
42.76
36.55
30.14
24.37
19.61
15.68
12.16
8.57
4.74
0.81
-2.84
-5.86
-8.14
-9.94
-11.93
-14.9
-19.63
-26.46
-35.2
-44.93
-54.15
-61.01
-63.76
-61.22
-53.14
-40.25
-24.14
-6.73
10.07
24.73
36.24
44.11
48.26
49.01
46.96
42.91
37.76
32.24
26.89
21.91
17.34
13.07
9.05
5.29
1.82
-1.28
-4.07
-6.72
-9.63
-13.31
-18.34
-25.18
-33.87
-43.79
-53.49
-61.03
-64.3
-61.8
-53.11
-39.13
-21.78
-3.4
13.87
28.55
39.8
47.38
51.32
51.86
49.51
45.04
39.49
33.85
28.83
24.67
21.11
17.66
13.85
9.54
4.93
0.47
-3.43
-6.69
-9.66
-13.07
-17.77
-24.41
-33.1
-43.19
-53.26
-61.34
-65.38
-63.83
-56.18
-43.1
-26.34
-8.09
9.5
24.87
37.12
45.88
51.06
52.75
51.28
47.33
41.91
36.21
31.11
27.01
23.7
20.63
17.22
13.21
8.76
4.3
0.25
-3.26
-6.47
-10.02
-14.66
-21.05
-29.43
-39.43
-49.94
-59.2
-65.21
-66.22
-61.33
-50.71
-35.69
-18.22
-0.36
16.19
30.35
41.49
49.34
53.73
54.74
52.72
48.44
42.95
37.29
32.22
28.01
24.47
21.2
17.81
14.17
10.39
6.73
3.38
0.31
-2.81
-6.5
-11.39
-18.03
-26.59
-36.7
-47.28
-56.65
-62.82
-64.06
-59.43
-49.12
-34.43
-17.33
0.11
16.22
29.86
40.43
47.61
51.26
51.49
48.71
43.77
37.71
31.62
26.18
21.66
17.86
14.37
10.85
7.18
3.47
-0.04
-3.19
-6.06
-9
-12.58
-17.46
-24.15
-32.8
-42.86
-53.06
-61.49
-66.03
-65.02
-57.79
-45
-28.39
-10.26
7.24
22.54
34.82
43.79
49.37
51.61
50.71
47.16
41.85
35.87
30.21
25.42
21.56
18.2
14.84
11.18
7.29
3.48
0.11
-2.73
-5.36
-8.4
-12.67
-18.75
-26.85
-36.47
-46.39
-54.92
-60.16
-60.57
-55.39
-44.89
-30.28
-13.42
3.69
19.33
32.25
41.73
47.42
49.38
47.99
44.03
38.57
32.75
27.51
23.25
19.86
16.8
13.61
10.08
6.44
3.12
0.42
-1.66
-3.54
-5.85
-9.24
-14.22
-20.99
-29.38
-38.67
-47.54
-54.13
-56.54
-53.33
-44.17
-29.97
-12.66
5.45
22.39
36.85
48.2
56.23
60.89
62.18
60.28
55.78
49.59
42.88
36.59
31.31
27.05
23.43
19.94
16.23
12.25
8.18
4.34
0.88
-2.34
-5.79
-10.2
-16.29
-24.49
-34.58
-45.55
-55.68
-62.87
-65.25
-61.71
-52.29
-38.19
-21.36
-3.93
12.35
26.39
37.73
46.19
51.69
54.09
53.42
50.04
44.83
38.95
33.51
29.11
25.68
22.72
19.55
15.87
11.76
7.66
4.04
1.09
-1.4
-4.01
-7.44
-12.38
-19.26
-28.12
-38.4
-48.94
-58.03
-63.76
-64.57
-59.68
-49.43
-35.05
-18.36
-1.16
15.08
29.34
40.91
49.28
54.08
55.23
53.04
48.36
42.3
36.01
30.32
25.58
21.68
18.23
14.84
11.22
7.39
3.52
-0.1
-3.34
-6.3
-9.41
-13.28
-18.56
-25.68
-34.57
-44.55
-54.25
-61.87
-65.5
-63.78
-56.24
-43.58
-27.5
-10.1
6.58
21.1
32.65
40.94
45.89
47.62
46.36
42.66
37.43
31.73
26.48
22.21
18.83
15.88
12.73
9.02
4.79
0.4
-3.64
-7.05
-9.92
-12.73
-16.23
-21.21
-28.11
-36.87
-46.63
-55.85
-62.63
-65.11
-62.15
-53.63
-40.52
-24.5
-7.5
8.81
23.2
34.85
43.27
48.19
49.62
47.9
43.82
38.43
32.79
27.73
23.53
20.03
16.77
13.34
9.53
5.47
1.48
-2.14
-5.3
-8.29
-11.64
-16.02
-21.95
-29.56
-38.5
-47.86
-56.28
-62.09
-63.79
-60.34
-51.58
-38.27
-21.97
-4.61
11.99
26.44
37.89
45.97
50.63
52.03
50.54
46.78
41.55
35.81
30.29
25.47
21.42
17.86
14.41
10.79
6.94
2.99
-0.78
-4.21
-7.34
-10.53
-14.43
-19.72
-26.91
-35.95
-46.07
-55.72
-62.89
-65.66
-62.76
-54.13
-40.82
-24.66
-7.68
8.43
22.6
34.23
43
48.68
51.07
50.3
46.88
41.8
36.19
31.04
26.87
23.63
20.89
18.08
14.87
11.2
7.33
3.63
0.3
-2.71
-5.78
-9.47
-14.37
-20.87
-28.96
-38.09
-47.14
-54.57
-58.67
-58.11
-52.28
-41.51
-27.08
-10.77
5.5
20.19
32.21
40.99
46.28
48.07
46.6
42.5
36.72
30.4
24.54
19.72
16
12.99
10.15
7.14
3.9
0.67
-2.33
-5.03
-7.7
-10.84
-15.08
-20.87
-28.38
-37.37
-47.04
-56.15
-63.1
-66.27
-64.47
-57.24
-45.08
-29.39
-12.1
4.8
19.63
31.31
39.34
43.73
44.77
43.03
39.22
34.12
28.5
22.95
17.84
13.26
9.11
5.25
1.54
-2.05
-5.52
-8.81
-11.95
-15.06
-18.43
-22.53
-27.87
-34.85
-43.29
-52.25
-59.97
-64.35
-63.55
-56.74
-44.41
-28.14
-10.09
7.75
23.9
37.46
47.95
55.01
58.38
58.09
54.59
48.79
41.88
34.89
28.49
22.82
17.66
12.76
7.97
3.42
-0.73
-4.35
-7.57
-10.83
-14.77
-20.12
-27.39
-36.59
-47
-57.12
-64.84
-68.04
-65.24
-56.13
-41.68
-23.85
-4.96
12.94
28.42
40.7
49.43
54.51
56.08
54.55
50.68
45.46
39.85
34.51
29.59
24.9
20.05
14.89
9.52
4.35
-0.16
-3.82
-6.78
-9.64
-13.17
-18.2
-25.25
-34.32
-44.66
-54.81
-62.79
-66.62
-64.89
-57.17
-44.23
-27.68
-9.5
8.52
25.01
39.04
49.99
57.44
61.14
61.25
58.36
53.5
47.76
42.12
37.1
32.78
28.88
25.06
21.08
16.91
12.66
8.45
4.3
0.06
-4.58
-10.03
-16.72
-24.99
-34.92
-46.11
-57.54
-67.51
-74.03
-75.27
-70.22
-59.05
-43.07
-24.39
-5.22
12.64
28.03
40.33
49.29
54.8
56.84
55.66
51.84
46.36
40.33
34.75
30.16
26.53
23.41
20.19
16.47
12.2
7.72
3.49
-0.14
-3.22
-6.16
-9.65
-14.46
-21.15
-29.9
-40.32
-51.34
-61.32
-68.24
-70.26
-66.19
-55.96
-40.61
-22.06
-2.51
16.12
32.42
45.62
55.29
61.26
63.45
62.14
57.95
51.9
45.25
39.05
33.95
29.99
26.78
23.7
20.28
16.38
12.15
8.01
4.3
1.18
-1.54
-4.35
-7.92
-12.9
-19.73
-28.54
-38.88
-49.72
-59.42
-66.08
-67.99
-64.12
-54.55
-40.44
-23.72
-6.43
9.71
23.55
34.45
41.99
45.92
46.14
42.98
37.38
30.65
24.2
19.01
15.4
13.03
11.22
9.28
6.88
3.99
0.88
-2.16
-4.96
-7.59
-10.44
-14.04
-19.04
-25.86
-34.53
-44.41
-54.17
-61.98
-65.98
-64.84
-58.1
-46.38
-31.08
-14
3.15
18.96
32.37
42.62
49.16
51.76
50.63
46.54
40.68
34.3
28.35
23.18
18.62
14.24
9.74
5.17
0.93
-2.46
-4.73
-5.97
-6.78
-8.01
-10.59
-15.22
-22.24
-31.41
-41.79
-51.86
-59.67
-63.3
-61.42
-53.72
-40.97
-24.84
-7.35
9.64
24.7
36.96
45.87
51.15
52.8
51.13
46.9
41.17
35.09
29.55
24.97
21.24
17.96
14.66
11.07
7.19
3.26
-0.47
-3.83
-6.94
-10.15
-14.01
-19.08
-25.81
-34.2
-43.7
-53.02
-60.41
-63.98
-62.34
-54.98
-42.55
-26.6
-9.13
8
23.43
36.34
46.29
52.96
56.11
55.7
52.13
46.32
39.54
33.09
27.77
23.77
20.62
17.59
14.05
9.81
5.16
0.67
-3.18
-6.27
-9
-12.12
-16.5
-22.78
-31.16
-41.26
-52.06
-62.07
-69.42
-72.32
-69.53
-60.75
-46.82
-29.45
-10.77
7.24
23.15
36.1
45.68
51.72
54.19
53.35
49.79
44.46
38.45
32.69
27.79
23.84
20.61
17.72
14.78
11.64
8.29
4.83
1.38
-2.02
-5.47
-9.21
-13.6
-19.05
-25.98
-34.63
-44.76
-55.52
-65.32
-72.11
-73.97
-69.71
-59.37
-44.2
-26.29
-7.81
9.48
24.52
36.84
46.22
52.41
55.17
54.49
50.82
45.16
38.82
33.04
28.52
25.3
22.83
20.35
17.32
13.57
9.37
5.19
1.42
-1.82
-4.73
-7.79
-11.55
-16.5
-23.05
-31.32
-41.21
-52.08
-62.75
-71.51
-76.45
-75.95
-69.28
-56.84
-40.12
-21.25
-2.44
14.51
28.45
38.77
45.32
48.19
47.76
44.72
40.03
34.78
29.96
26.11
23.25
20.94
18.57
15.67
12.11
8.14
4.16
0.51
-2.78
-5.95
-9.52
-14.09
-20.2
-28.22
-38.01
-48.86
-59.3
-67.37
-71.07
-68.99
-60.89
-47.67
-31.11
-13.25
4.17
19.92
33.22
43.46
50.13
52.9
51.92
47.96
42.32
36.42
31.3
27.33
24.16
21.09
17.54
13.39
9.03
5.08
1.99
-0.29
-2.32
-5
-9.23
-15.61
-24.23
-34.59
-45.63
-55.81
-63.37
-66.63
-64.45
-56.54
-43.61
-27.16
-9.08
8.84
25.19
38.99
49.6
56.58
59.71
59.15
55.5
49.83
43.42
37.43
32.51
28.75
25.76
22.89
19.65
15.8
11.48
6.96
2.55
-1.62
-5.66
-9.92
-15
-21.54
-30.01
-40.39
-51.84
-62.66
-70.57
-73.34
-69.54
-59.1
-43.33
-24.51
-5.04
13.13
28.85
41.65
51.35
57.87
61.03
60.93
58.02
53.27
47.86
42.91
39.06
36.35
34.34
32.33
29.73
26.27
22.03
17.43
12.89
8.75
5.03
1.49
-2.38
-7.11
-13.22
-21.02
-30.62
-41.72
-53.47
-64.4
-72.55
-75.87
-72.87
-63.15
-47.62
-28.31
-7.75
11.75
28.56
41.96
51.86
58.55
62.38
63.66
62.73
60
56.06
51.5
46.87
42.59
38.79
35.49
32.53
29.76
27.04
24.26
21.35
18.17
14.56
10.36
5.47
-0.08
-6.13
-12.49
-19.03
-25.87
-33.32
-41.76
-51.3
-61.34
-70.46
-76.57
-77.58
-72.07
-60
-42.73
-22.61
-2.26
16.22
31.63
43.6
52.26
57.86
60.6
60.65
58.38
54.32
49.26
43.97
39.05
34.87
31.51
28.88
26.74
24.82
22.87
20.68
18.11
15.13
11.75
7.98
3.85
-0.71
-5.75
-11.38
-17.69
-24.8
-32.85
-41.91
-51.73
-61.5
-69.82
-74.85
-74.85
-68.81
-56.88
-40.47
-21.74
-3.03
13.75
27.55
38.01
45.22
49.43
50.83
49.67
46.32
41.46
35.95
30.69
26.29
23.02
20.65
18.69
16.59
14.03
10.99
7.72
4.54
1.68
-0.88
-3.44
-6.45
-10.4
-15.62
-22.32
-30.49
-39.84
-49.79
-59.2
-66.56
-70.11
-68.35
-60.55
-47.09
-29.45
-9.82
9.58
26.97
41.24
51.87
58.7
61.7
61.04
57.14
50.8
43.12
35.3
28.29
22.59
18.11
14.35
10.64
6.46
1.67
-3.49
-8.52
-13.01
-16.78
-20.1
-23.54
-27.84
-33.63
-41.17
-50.15
-59.56
-67.82
-73.05
-73.62
-68.68
-58.37
-43.83
-26.79
-9.05
7.89
22.98
35.46
44.76
50.39
52.19
50.4
45.89
39.91
33.81
28.58
24.56
21.48
18.7
15.63
11.99
7.94
3.89
0.2
-3.03
-6.04
-9.31
-13.41
-18.77
-25.66
-34.09
-43.66
-53.59
-62.55
-68.89
-70.94
-67.55
-58.51
-44.68
-27.75
-9.74
7.48
22.64
35.01
44.32
50.47
53.38
53.15
50.11
45.02
38.94
32.99
27.95
24.07
21.01
18.08
14.61
10.28
5.26
0.07
-4.69
-8.69
-12.02
-15.16
-18.89
-23.91
-30.76
-39.42
-49.3
-59.06
-66.87
-70.77
-69.24
-61.77
-48.96
-32.46
-14.35
3.39
19.34
32.68
43.01
50.16
54.03
54.68
52.43
48.02
42.45
36.76
31.75
27.71
24.5
21.58
18.4
14.61
10.21
5.54
1.05
-2.91
-6.36
-9.65
-13.38
-18.15
-24.42
-32.37
-41.78
-52.02
-61.89
-69.77
-73.83
-72.61
-65.46
-52.84
-36.29
-17.92
0.13
16.24
29.44
39.33
45.8
48.87
48.69
45.64
40.52
34.38
28.38
23.32
19.52
16.67
14.14
11.33
7.9
4.04
0.14
-3.33
-6.21
-8.74
-11.45
-15.03
-20.1
-27.05
-35.85
-45.97
-56.19
-64.79
-69.82
-69.65
-63.52
-51.77
-35.82
-17.65
0.59
17.2
30.94
41.09
47.29
49.5
48.08
43.79
37.79
31.35
25.51
20.87
17.37
14.5
11.59
8.23
4.34
0.27
-3.46
-6.57
-9.09
-11.51
-14.6
-19.18
-25.83
-34.63
-45.02
-55.69
-64.82
-70.4
-70.79
-65.18
-53.89
-38.25
-20.2
-1.79
15.28
29.8
41.13
48.9
53.09
53.89
51.81
47.66
42.38
36.89
31.81
27.42
23.59
20.03
16.4
12.44
8.15
3.69
-0.58
-4.43
-7.78
-10.99
-14.78
-20.09
-27.64
-37.58
-49.18
-60.73
-69.99
-74.69
-73.27
-65.34
-51.74
-34.29
-15.13
3.76
21.01
35.81
47.69
56.32
61.4
62.82
60.89
56.48
50.82
45.15
40.34
36.66
33.79
31.13
28.14
24.47
20.16
15.43
10.61
5.91
1.36
-3.19
-8.09
-13.75
-20.63
-29.03
-38.96
-49.97
-61
-70.45
-76.35
-77
-71.35
-59.49
-42.66
-22.91
-2.52
16.53
32.86
45.84
55.26
61.27
64.11
64.13
61.82
57.78
52.7
47.29
42.19
37.83
34.35
31.64
29.34
26.98
24.13
20.55
16.24
11.43
6.42
1.43
-3.46
-8.47
-13.97
-20.43
-28.24
-37.62
-48.4
-59.96
-71.08
-80.05
-84.95
-84.16
-76.87
-63.4
-45.19
-24.45
-3.5
15.68
31.83
44.32
53.1
58.35
60.45
59.88
57.25
53.22
48.51
43.75
39.44
35.91
33.24
31.28
29.72
28.07
25.87
22.85
18.96
14.34
9.23
3.84
-1.74
-7.52
-13.58
-20.12
-27.4
-35.71
-45.23
-55.67
-66.05
-74.68
-79.45
-78.56
-71.13
-57.61
-39.69
-19.72
-0.03
17.65
32.34
43.7
51.62
56.11
57.27
55.39
51.2
45.7
40.05
35.15
31.4
28.67
26.44
24.13
21.32
17.95
14.18
10.3
6.54
2.96
-0.56
-4.28
-8.51
-13.59
-19.83
-27.53
-36.82
-47.47
-58.66
-68.89
-76.2
-78.63
-74.87
-64.74
-49.32
-30.61
-10.91
7.84
24.35
37.97
48.39
55.39
58.77
58.49
55.01
49.29
42.66
36.45
31.54
28.1
25.62
23.29
20.34
16.48
11.88
7.04
2.52
-1.35
-4.65
-7.82
-11.49
-16.35
-22.92
-31.37
-41.48
-52.45
-62.94
-71.13
-75.17
-73.62
-65.96
-52.8
-35.78
-17.04
1.39
17.97
31.88
42.81
50.66
55.36
56.89
55.44
51.57
46.2
40.42
35.2
31.05
27.95
25.43
22.84
19.64
15.63
10.98
6.1
1.45
-2.73
-6.53
-10.42
-15.07
-21.09
-28.98
-38.72
-49.79
-61.08
-70.92
-77.46
-79.02
-74.64
-64.35
-49.26
-31.17
-12.12
6.12
22.36
35.87
46.28
53.36
56.98
57.22
54.54
49.8
44.09
38.5
33.76
30.15
27.38
24.93
22.23
18.97
15.18
11.09
7.06
3.27
-0.28
-3.89
-8.02
-13.21
-19.97
-28.59
-38.98
-50.35
-61.31
-69.95
-74.3
-72.91
-65.3
-52.17
-35.11
-16.2
2.63
19.81
34.35
45.64
53.31
57.24
57.53
54.72
49.71
43.66
37.72
32.68
28.81
25.82
23.12
20.08
16.44
12.27
7.94
3.83
0.09
-3.43
-7.14
-11.55
-17.11
-24.14
-32.77
-42.77
-53.41
-63.32
-70.67
-73.56
-70.63
-61.54
-47.14
-29.24
-10.05
8.36
24.43
37.2
46.24
51.45
53.07
51.6
47.87
42.87
37.61
32.78
28.69
25.2
21.86
18.23
14.02
9.31
4.44
-0.12
-4.07
-7.39
-10.46
-13.92
-18.56
-25.01
-33.54
-43.87
-54.98
-65.23
-72.58
-75.12
-71.63
-61.96
-47.19
-29.18
-10.16
7.99
23.94
36.98
46.7
52.84
55.3
54.23
50.27
44.46
38.06
32.13
27.17
23.08
19.29
15.2
10.48
5.33
0.25
-4.2
-7.82
-10.91
-14.2
-18.6
-24.82
-33.13
-43.16
-53.87
-63.7
-70.79
-73.47
-70.6
-61.99
-48.41
-31.46
-13.06
4.97
21.22
34.76
44.98
51.58
54.47
53.94
50.7
45.81
40.44
35.5
31.45
28.15
25.14
21.82
17.89
13.36
8.55
3.94
-0.16
-3.7
-7.02
-10.66
-15.31
-21.63
-29.94
-40.13
-51.38
-62.19
-70.52
-74.31
-72.05
-63.35
-49.12
-31.22
-11.96
6.65
23.23
37.14
48.12
56.05
60.76
62.15
60.47
56.41
51.1
45.7
41.1
37.59
34.82
32.09
28.65
24.13
18.61
12.64
6.89
1.86
-2.36
-6.13
-10.15
-15.14
-21.66
-29.99
-40.05
-51.32
-62.82
-73.07
-80.23
-82.5
-78.71
-68.69
-53.46
-34.93
-15.36
3.32
19.79
33.39
43.87
51.08
54.95
55.53
53.2
48.77
43.31
37.9
33.29
29.71
26.88
24.27
21.34
17.82
13.78
9.45
5.15
1.06
-2.83
-6.75
-11.07
-16.25
-22.75
-30.85
-40.57
-51.42
-62.32
-71.66
-77.57
-78.41
-73.22
-62.08
-46.03
-26.8
-6.22
14.09
32.97
49.54
62.99
72.53
77.48
77.68
73.63
66.61
58.27
50.13
43.09
37.22
32
26.63
20.56
13.7
6.46
-0.48
-6.56
-11.54
-15.75
-19.92
-25.08
-32.1
-41.52
-53.22
-66.26
-78.96
-89.02
-93.9
-91.33
-80.01
-60.27
-34.35
-5.99
20.54
41.68
55.62
62.53
64.06
62.31
58.98
54.93
50.36
45.35
40.2
35.45
31.54
28.47
25.72
22.59
18.59
13.76
8.64
3.85
-0.16
-3.6
-7.25
-12.2
-19.48
-29.54
-41.93
-55.11
-66.72
-74.14
-75.26
-69.16
-56.38
-38.74
-18.67
1.5
20.08
36.13
49.2
58.96
65.03
67.16
65.5
60.83
54.46
47.8
41.87
36.97
32.7
28.28
23.17
17.29
11.16
5.54
0.95
-2.64
-5.84
-9.64
-15.08
-22.83
-33.02
-45.04
-57.54
-68.55
-75.88
-77.63
-72.78
-61.52
-45.14
-25.64
-5.08
14.8
32.72
47.8
59.31
66.74
69.87
69.08
65.28
59.74
53.7
48
42.88
38.13
33.36
28.27
22.83
17.29
12.01
7.31
3.28
-0.25
-3.75
-7.92
-13.52
-21.21
-31.24
-43.16
-55.65
-66.64
-73.71
-74.85
-69.08
-56.83
-39.75
-20.16
-0.33
18.08
34.08
47.22
57.19
63.71
66.58
65.83
62.03
56.18
49.53
43.15
37.71
33.29
29.48
25.68
21.36
16.36
10.85
5.31
0.21
-4.23
-8.18
-12.17
-16.93
-23.18
-31.33
-41.33
-52.44
-63.27
-71.93
-76.4
-75.2
-67.73
-54.6
-37.37
-18.13
1.11
18.78
33.78
45.46
53.35
57.19
57.03
53.43
47.48
40.59
34.07
28.74
24.78
21.78
19.1
16.21
12.94
9.44
6.02
2.87
-0.03
-2.98
-6.38
-10.64
-16.11
-23.05
-31.51
-41.28
-51.52
-60.85
-67.41
-69.4
-65.64
-56
-41.53
-24.06
-5.64
12.02
27.7
40.69
50.48
56.7
59.14
57.97
53.92
48.13
41.92
36.31
31.81
28.29
25.23
22.05
18.37
14.21
9.85
5.69
1.98
-1.36
-4.71
-8.79
-14.31
-21.83
-31.45
-42.55
-53.75
-63.05
-68.33
-67.91
-61.22
-48.86
-32.51
-14.28
3.89
20.56
34.85
46.17
54.05
58.15
58.49
55.64
50.69
44.97
39.58
35.07
31.32
27.77
23.76
18.98
13.51
7.82
2.43
-2.35
-6.59
-10.82
-15.72
-21.96
-29.92
-39.52
-50.19
-60.74
-69.57
-74.87
-75.08
-69.33
-57.78
-41.67
-22.95
-3.79
14.01
29.17
41.05
49.36
54.07
55.29
53.42
49.18
43.58
37.7
32.34
27.83
23.95
20.21
16.09
11.39
6.27
1.16
-3.42
-7.25
-10.45
-13.57
-17.41
-22.8
-30.35
-40.06
-51.19
-62.16
-70.87
-75.24
-73.75
-65.97
-52.61
-35.33
-16.19
2.79
20.03
34.46
45.43
52.62
55.96
55.7
52.47
47.31
41.41
35.88
31.31
27.68
24.48
20.94
16.63
11.55
6.24
1.37
-2.54
-5.44
-7.81
-10.47
-14.3
-19.98
-27.79
-37.39
-47.85
-57.63
-64.83
-67.61
-64.73
-55.91
-41.98
-24.67
-6.09
11.79
27.49
40.08
49.09
54.32
55.8
53.89
49.35
43.27
36.89
31.15
26.49
22.7
19.18
15.31
10.74
5.56
0.19
-4.85
-9.22
-12.94
-16.37
-20.13
-24.97
-31.43
-39.74
-49.47
-59.49
-68.03
-73.04
-72.79
-66.34
-53.98
-37.16
-18.06
0.98
18.05
31.87
41.88
47.99
50.44
49.71
46.44
41.47
35.72
29.99
24.76
20.2
16.15
12.31
8.49
4.64
0.88
-2.69
-6.05
-9.42
-13.17
-17.81
-23.79
-31.38
-40.43
-50.22
-59.37
-65.99
-68.14
-64.45
-54.64
-39.74
-21.77
-3.13
14.14
28.71
40.03
47.98
52.58
53.89
52.1
47.79
41.91
35.6
29.82
25
20.99
17.25
13.26
8.77
4
-0.63
-4.72
-8.2
-11.49
-15.33
-20.59
-27.82
-37.06
-47.53
-57.74
-65.72
-69.53
-67.79
-60.1
-47.19
-30.69
-12.62
5.16
21.27
34.81
45.27
52.25
55.51
55.08
51.47
45.78
39.36
33.49
28.87
25.48
22.71
19.8
16.16
11.75
6.99
2.47
-1.37
-4.56
-7.57
-11.26
-16.45
-23.74
-33.15
-44.03
-55.03
-64.27
-69.71
-69.67
-63.4
-51.25
-34.7
-15.88
3.03
20.29
34.78
45.92
53.41
57.11
57.12
53.92
48.51
42.18
36.19
31.32
27.64
24.66
21.61
17.92
13.43
8.41
3.34
-1.33
-5.41
-9.02
-12.53
-16.48
-21.53
-28.22
-36.88
-47.36
-58.81
-69.65
-77.78
-81.13
-78.21
-68.7
-53.52
-34.63
-14.4
5.03
22.18
36.31
47.16
54.65
58.71
59.35
56.87
52.08
46.17
40.46
35.85
32.56
30.17
27.82
24.81
20.81
16.07
11.15
6.65
2.83
-0.48
-3.81
-7.8
-13.01
-19.75
-28.08
-37.75
-48.18
-58.31
-66.6
-71.32
-70.88
-64.49
-52.45
-36.18
-17.8
0.48
16.89
30.34
40.34
46.75
49.64
49.22
45.95
40.62
34.31
28.13
22.97
19.26
16.91
15.45
14.26
12.81
10.85
8.43
5.72
2.86
-0.25
-3.94
-8.71
-15.08
-23.35
-33.38
-44.44
-55.18
-63.81
-68.5
-67.89
-61.5
-49.88
-34.45
-17.02
0.57
16.88
30.9
41.84
49.17
52.49
51.86
47.9
41.8
35.02
28.87
24.06
20.55
17.76
14.88
11.39
7.22
2.77
-1.36
-4.8
-7.56
-10.17
-13.5
-18.45
-25.65
-35.13
-46.12
-57.08
-65.96
-70.67
-69.75
-62.68
-50.11
-33.56
-14.97
3.72
20.94
35.49
46.6
53.8
57.05
56.77
53.8
49.24
44.09
39.04
34.28
29.69
25
20.07
14.97
9.9
5.1
0.66
-3.5
-7.61
-12.01
-17.1
-23.3
-30.94
-40.06
-50.2
-60.19
-68.26
-72.45
-71.17
-63.81
-50.95
-34.23
-15.79
2.36
18.71
32.37
42.93
50.24
54.26
55.12
53.24
49.29
44.2
38.85
33.89
29.56
25.75
22.05
18.09
13.72
9.05
4.44
0.22
-3.49
-6.97
-10.84
-15.92
-22.95
-32.19
-43.22
-54.78
-64.9
-71.36
-72.25
-66.67
-54.95
-38.64
-19.89
-0.9
16.67
31.79
43.85
52.44
57.23
58.08
55.35
49.98
43.29
36.68
31.09
26.76
23.38
20.27
16.91
13.12
9.1
5.19
1.64
-1.6
-4.91
-8.74
-13.57
-19.72
-27.32
-36.26
-46.06
-55.78
-63.98
-69.01
-69.35
-64.18
-53.68
-38.99
-21.92
-4.45
11.72
25.4
35.83
42.7
45.93
45.71
42.59
37.44
31.38
25.48
20.53
16.74
13.84
11.24
8.43
5.18
1.63
-1.88
-5.06
-7.85
-10.57
-13.71
-17.82
-23.35
-30.37
-38.52
-46.76
-53.55
-57.03
-55.63
-48.56
-36.18
-19.95
-1.92
15.78
31.5
44.17
53.29
58.62
60.19
58.28
53.53
47
39.84
33.09
27.24
22.28
17.81
13.39
8.8
4.16
-0.21
-4.04
-7.26
-10.16
-13.32
-17.45
-23.2
-30.86
-40.15
-50
-58.67
-64.08
-64.4
-58.68
-47.22
-31.49
-13.68
4
19.85
32.91
42.88
49.78
53.73
54.89
53.54
50.22
45.67
40.67
35.79
31.2
26.74
22.05
16.96
11.49
6
0.94
-3.43
-7.14
-10.7
-14.89
-20.62
-28.51
-38.62
-50.17
-61.54
-70.58
-75.11
-73.67
-65.9
-52.67
-35.75
-17.2
1.16
18.02
32.52
44.09
52.24
56.65
57.3
54.68
49.8
43.92
38.24
33.46
29.65
26.31
22.77
18.45
13.26
7.58
1.96
-3.05
-7.36
-11.33
-15.64
-21.02
-28
-36.71
-46.82
-57.49
-67.38
-74.82
-78.06
-75.79
-67.56
-53.98
-36.63
-17.51
1.37
18.52
32.96
44.23
52.07
56.38
57.32
55.34
51.26
46.14
40.97
36.43
32.77
29.77
26.96
23.92
20.42
16.5
12.44
8.54
4.95
1.59
-1.89
-6.06
-11.52
-18.76
-27.79
-38.03
-48.08
-56.04
-59.93
-58.31
-50.84
-38.3
-22.42
-5.26
11.31
25.96
37.85
46.48
51.5
52.79
50.63
45.77
39.44
32.95
27.25
22.66
18.86
15.21
11.13
6.49
1.56
-3.16
-7.26
-10.69
-13.74
-16.94
-20.88
-26.13
-33.05
-41.7
-51.57
-61.48
-69.62
-73.98
-72.94
-65.92
-53.56
-37.5
-19.89
-2.72
12.54
24.95
34.01
39.47
41.35
40.01
36.2
30.96
25.35
20.19
15.85
12.26
9.07
5.93
2.63
-0.75
-4.01
-6.95
-9.5
-11.91
-14.68
-18.48
-23.93
-31.29
-40.22
-49.59
-57.64
-62.32
-61.95
-55.67
-43.81
-27.79
-9.72
8.24
24.34
37.42
46.96
52.82
55.24
54.72
51.99
47.97
43.46
39.06
34.95
31.05
27.15
23.1
18.91
14.73
10.73
6.91
3.14
-0.93
-5.74
-11.81
-19.62
-29.23
-40.12
-50.9
-59.55
-63.85
-62.11
-53.86
-39.98
-22.46
-3.7
14.14
29.59
41.9
50.82
56.29
58.4
57.44
53.94
48.68
42.52
36.2
30.14
24.44
19
13.69
8.48
3.47
-1.18
-5.34
-9.13
-12.88
-17.23
-22.91
-30.54
-40.16
-51.08
-61.69
-69.8
-73.26
-70.57
-61.5
-47.06
-29.19
-10.09
8.29
24.63
38.09
48.24
54.82
57.79
57.47
54.55
50.1
45.19
40.58
36.48
32.59
28.37
23.41
17.7
11.62
5.77
0.67
-3.48
-6.92
-10.33
-14.63
-20.69
-28.93
-39.11
-50.06
-59.83
-66.18
-67.14
-61.74
-50.28
-34.21
-15.62
3.43
21.38
37.27
50.54
60.84
67.76
71.05
70.74
67.35
61.88
55.5
49.27
43.78
39.15
35
30.82
26.17
20.89
15.16
9.38
4.01
-0.74
-4.92
-8.97
-13.52
-19.31
-26.94
-36.67
-48.23
-60.51
-71.68
-79.39
-81.45
-76.56
-64.86
-47.91
-28.15
-8.13
10.28
26.14
39.21
49.5
56.91
61.24
62.33
60.46
56.37
51.19
46.02
41.64
38.29
35.6
32.93
29.62
25.33
20.19
14.72
9.54
5.08
1.37
-2.09
-5.99
-11.08
-17.81
-26.31
-36.35
-47.4
-58.51
-68.25
-74.95
-76.91
-72.98
-62.97
-47.81
-29.34
-9.79
8.78
24.88
37.66
46.87
52.49
54.68
53.76
50.22
44.87
38.72
32.81
27.86
24.12
21.28
18.68
15.69
11.98
7.68
3.25
-0.77
-4.13
-6.89
-9.51
-12.62
-16.86
-22.79
-30.63
-40.18
-50.59
-60.36
-67.56
-70.28
-67.24
-58.2
-44.04
-26.49
-7.64
10.63
26.84
39.98
49.43
54.84
56.27
54.18
49.59
43.77
37.95
32.92
28.86
25.43
22.01
18.12
13.61
8.72
3.91
-0.43
-4.15
-7.44
-10.77
-14.79
-20.06
-27.01
-35.68
-45.62
-55.78
-64.53
-69.99
-70.49
-65.13
-54.08
-38.62
-20.7
-2.4
14.58
29.11
40.56
48.62
53.16
54.26
52.29
48
42.37
36.38
30.77
25.84
21.53
17.57
13.64
9.62
5.52
1.49
-2.33
-5.93
-9.56
-13.68
-18.89
-25.74
-34.5
-44.93
-56.09
-66.41
-73.9
-76.69
-73.55
-64.33
-50.02
-32.45
-13.72
4.33
20.33
33.48
43.25
49.3
51.55
50.31
46.39
40.91
35.15
30.02
25.92
22.65
19.64
16.31
12.3
7.71
2.89
-1.66
-5.63
-9.12
-12.59
-16.73
-22.18
-29.3
-37.95
-47.42
-56.46
-63.49
-66.85
-65.27
-58.19
-46.03
-30.11
-12.25
5.59
21.74
34.98
44.53
50.04
51.56
49.6
45.12
39.33
33.4
28.09
23.68
19.93
16.4
12.74
8.88
5
1.4
-1.78
-4.66
-7.59
-11.09
-15.66
-21.73
-29.46
-38.65
-48.6
-57.99
-65.05
-67.97
-65.39
-56.9
-43.26
-26.18
-7.81
9.76
24.96
36.83
45.03
49.6
50.86
49.35
45.77
40.95
35.7
30.65
26.11
22.08
18.29
14.42
10.31
6.03
1.82
-2.05
-5.52
-8.81
-12.36
-16.75
-22.53
-29.97
-39.01
-48.88
-58.23
-65.18
-67.85
-64.94
-56.23
-42.71
-26.21
-8.89
7.4
21.36
32.3
39.86
43.95
44.72
42.61
38.37
32.95
27.31
22.07
17.52
13.58
9.95
6.36
2.63
-1.21
-5.02
-8.6
-11.86
-14.97
-18.39
-22.85
-29.04
-37.26
-47.05
-57.06
-65.21
-69.25
-67.49
-59.38
-45.75
-28.48
-9.95
7.71
22.98
35.04
43.6
48.64
50.29
48.92
45.23
40.1
34.48
29.08
24.19
19.76
15.57
11.47
7.49
3.84
0.7
-1.95
-4.39
-7.25
-11.25
-17.08
-25.07
-34.95
-45.68
-55.53
-62.45
-64.58
-60.83
-51.21
-36.83
-19.49
-1.25
16.07
31.12
43.03
51.34
55.89
56.9
54.89
50.72
45.4
39.82
34.56
29.74
25.19
20.58
15.69
10.55
5.39
0.52
-3.91
-7.98
-12.16
-17.11
-23.54
-31.83
-41.77
-52.34
-61.77
-67.96
-69.02
-63.92
-52.76
-36.79
-17.92
1.73
20.35
36.57
49.47
58.52
63.46
64.47
62.18
57.6
51.92
46.11
40.71
35.72
30.81
25.62
19.97
14.03
8.19
2.91
-1.55
-5.23
-8.55
-12.2
-17
-23.72
-32.68
-43.55
-55.02
-65.03
-71.19
-71.49
-65
-52.15
-34.57
-14.51
5.81
24.64
40.82
53.63
62.62
67.58
68.59
66.16
61.23
54.95
48.45
42.54
37.5
33.19
29.17
24.95
20.22
14.96
9.39
3.92
-1.13
-5.68
-9.99
-14.7
-20.62
-28.48
-38.53
-50.28
-62.25
-72.27
-77.97
-77.52
-70.21
-56.72
-38.81
-18.77
1.24
19.58
35.21
47.51
56.13
60.86
61.78
59.37
54.56
48.59
42.64
37.51
33.46
30.19
27.11
23.7
19.68
15.2
10.67
6.48
2.82
-0.53
-4.09
-8.59
-14.65
-22.62
-32.45
-43.53
-54.74
-64.45
-70.83
-72.2
-67.57
-56.97
-41.55
-23.27
-4.3
13.42
28.62
40.58
49.03
53.9
55.27
53.45
49.13
43.36
37.29
31.9
27.67
24.49
21.78
18.86
15.29
10.99
6.3
1.7
-2.46
-6.15
-9.75
-13.87
-19.28
-26.56
-35.82
-46.51
-57.22
-65.98
-70.64
-69.61
-62.36
-49.64
-33.19
-15.1
2.79
19.23
33.45
44.98
53.34
58.14
59.27
57.15
52.7
47.08
41.27
35.83
30.79
25.88
20.82
15.53
10.18
5.12
0.66
-3.08
-6.29
-9.47
-13.41
-18.87
-26.42
-36.13
-47.38
-58.83
-68.58
-74.6
-75.18
-69.52
-57.9
-41.67
-22.86
-3.59
14.36
29.87
42.26
51.19
56.48
58.14
56.56
52.53
47.26
41.92
37.35
33.73
30.68
27.49
23.56
18.72
13.18
7.54
2.39
-1.92
-5.49
-8.84
-12.74
-18.09
-25.5
-35.15
-46.41
-57.92
-67.62
-73.28
-73.13
-66.39
-53.63
-36.56
-17.5
1.35
18.39
32.83
44.35
52.83
58.08
59.89
58.37
54.08
48.16
41.92
36.48
32.37
29.35
26.7
23.53
19.34
14.1
8.31
2.66
-2.33
-6.52
-10.22
-14.04
-18.68
-24.74
-32.57
-42.13
-52.84
-63.6
-72.71
-78.25
-78.49
-72.5
-60.45
-43.66
-24.22
-4.42
13.82
29.3
41.47
50.29
55.94
58.63
58.65
56.42
52.58
47.91
43.27
39.26
36.13
33.64
31.26
28.44
24.81
20.36
15.36
10.18
5.07
0.08
-4.97
-10.36
-16.38
-23.37
-31.62
-41.25
-52
-62.98
-72.62
-78.98
-80.3
-75.5
-64.69
-48.98
-30.23
-10.39
8.86
26.23
40.83
51.92
59.02
61.93
60.99
57.08
51.46
45.45
40.05
35.7
32.29
29.35
26.29
22.71
18.47
13.78
8.96
4.35
0.11
-3.85
-7.86
-12.4
-17.94
-24.85
-33.29
-43
-53.27
-62.76
-69.77
-72.54
-69.82
-61.31
-47.77
-30.88
-12.61
5.19
21.16
34.39
44.27
50.39
52.51
50.81
46.03
39.41
32.36
26.11
21.25
17.73
14.97
12.24
9.01
5.09
0.66
-3.89
-8.12
-11.78
-14.93
-17.96
-21.61
-26.72
-33.86
-42.98
-53.19
-62.81
-69.73
-71.98
-68.38
-58.88
-44.48
-26.99
-8.41
9.44
25.19
37.97
47.17
52.52
54.02
52.11
47.66
41.86
35.87
30.46
25.86
21.73
17.54
12.85
7.68
2.42
-2.39
-6.35
-9.5
-12.31
-15.58
-20.07
-26.33
-34.48
-44.13
-54.33
-63.59
-70.11
-72.15
-68.52
-59.02
-44.52
-26.84
-8.09
9.74
25.22
37.55
46.36
51.6
53.44
52.29
48.84
43.96
38.53
33.16
28.13
23.38
18.71
13.93
9.06
4.23
-0.28
-4.35
-8
-11.53
-15.43
-20.37
-26.97
-35.5
-45.66
-56.26
-65.41
-70.87
-70.79
-64.35
-52.05
-35.63
-17.39
0.51
16.56
29.96
40.44
47.89
52.2
53.34
51.61
47.72
42.67
37.5
32.86
28.93
25.39
21.73
17.62
13
8.23
3.69
-0.33
-3.96
-7.75
-12.5
-19.03
-27.75
-38.46
-50.06
-60.73
-68.3
-70.78
-67.07
-57.25
-42.61
-25.11
-6.88
10.37
25.5
37.84
46.96
52.58
54.62
53.43
49.84
45
40.06
35.77
32.25
29.13
25.79
21.84
17.25
12.43
7.91
4.01
0.68
-2.6
-6.56
-11.91
-19.1
-28.09
-38.3
-48.47
-56.88
-61.67
-61.31
-55.12
-43.59
-28.19
-10.98
6
21.23
33.73
43.04
48.91
51.32
50.46
46.96
41.78
36.04
30.69
26.16
22.42
18.95
15.3
11.19
6.69
2.15
-2.1
-5.9
-9.41
-13.06
-17.46
-23.17
-30.54
-39.51
-49.41
-58.95
-66.28
-69.52
-67.19
-58.82
-45.08
-27.61
-8.59
9.88
26.19
39.32
48.79
54.53
56.7
55.8
52.54
47.79
42.46
37.24
32.47
28.16
24.05
19.88
15.44
10.77
6.03
1.42
-2.97
-7.27
-11.91
-17.52
-24.69
-33.7
-44.12
-54.72
-63.57
-68.55
-68
-61.27
-48.97
-32.69
-14.49
3.76
20.67
35.41
47.39
56.14
61.23
62.42
60.01
54.85
48.24
41.45
35.38
30.29
25.89
21.6
16.93
11.72
6.15
0.61
-4.56
-9.22
-13.64
-18.37
-24.15
-31.63
-41
-51.8
-62.65
-71.6
-76.52
-75.73
-68.55
-55.43
-37.78
-17.51
3.48
23.56
41.46
56.18
66.89
73.01
74.44
71.66
65.78
58.28
50.55
43.53
37.51
32.22
27.13
21.8
16.09
10.14
4.28
-1.21
-6.23
-10.95
-15.69
-20.95
-27.17
-34.75
-43.78
-53.83
-63.83
-72.07
-76.57
-75.56
-68.1
-54.41
-35.8
-14.36
7.74
28.58
46.83
61.61
72.37
78.78
80.75
78.62
73.2
65.74
57.61
49.99
43.49
38.13
33.44
28.73
23.52
17.63
11.33
5.03
-0.86
-6.2
-11.21
-16.36
-22.22
-29.3
-37.88
-47.83
-58.46
-68.47
-76.08
-79.45
-77.17
-68.79
-54.89
-36.95
-16.78
3.86
23.53
41.03
55.25
65.25
70.34
70.45
66.3
59.28
51.01
42.9
35.74
29.67
24.44
19.66
15.12
10.8
6.82
3.21
-0.18
-3.61
-7.49
-12.13
-17.83
-24.74
-32.98
-42.47
-52.8
-63.01
-71.59
-76.8
-77.04
-71.43
-60.13
-44.29
-25.68
-6.21
12.43
29.01
42.6
52.57
58.47
60.18
58.1
53.13
46.56
39.71
33.58
28.56
24.43
20.62
16.52
11.85
6.68
1.4
-3.58
-8.1
-12.29
-16.68
-21.9
-28.54
-36.82
-46.45
-56.36
-64.94
-70.3
-70.82
-65.69
-55.11
-40.28
-22.92
-4.84
12.48
27.95
40.77
50.31
56.05
57.77
55.73
50.8
44.21
37.27
30.94
25.62
21.18
17.13
13.02
8.63
4.06
-0.37
-4.45
-8.17
-11.91
-16.21
-21.65
-28.56
-36.93
-46.23
-55.45
-63.12
-67.57
-67.34
-61.54
-50.27
-34.61
-16.36
2.42
19.96
34.92
46.57
54.51
58.65
59.17
56.61
51.79
45.72
39.4
33.4
27.97
22.95
18.1
13.25
8.48
4.03
0.1
-3.25
-6.27
-9.45
-13.42
-18.75
-25.8
-34.46
-44.05
-53.3
-60.45
-63.75
-61.85
-54.28
-41.6
-25.24
-7.1
10.96
27.37
41.04
51.23
57.59
60.04
58.89
54.87
49
42.39
35.93
30.12
25.01
20.34
15.76
11.01
6.06
1.1
-3.57
-7.74
-11.42
-14.91
-18.83
-23.9
-30.74
-39.45
-49.44
-59.29
-67.09
-70.92
-69.46
-62.4
-50.5
-35.34
-18.71
-2.25
12.86
25.81
36.04
43.06
46.58
46.65
43.78
39.04
33.61
28.55
24.38
21.03
18.01
14.75
10.87
6.42
1.77
-2.61
-6.33
-9.37
-12.1
-15.18
-19.36
-25.23
-32.97
-42.05
-51.25
-58.87
-63.01
-62.2
-55.82
-44.32
-29.05
-11.9
5.25
20.92
34.08
44.17
50.87
54.06
53.91
50.95
46.08
40.37
34.75
29.71
25.25
20.99
16.51
11.63
6.51
1.53
-2.91
-6.63
-9.8
-12.89
-16.55
-21.37
-27.8
-35.91
-45.14
-54.38
-61.9
-65.8
-64.53
-57.43
-44.97
-28.63
-10.47
7.53
23.78
37.28
47.44
53.98
56.84
56.24
52.84
47.65
41.82
36.27
31.48
27.33
23.36
19.06
14.18
8.88
3.58
-1.22
-5.23
-8.51
-11.53
-15.01
-19.73
-26.31
-34.91
-45.05
-55.48
-64.33
-69.52
-69.31
-62.97
-50.95
-34.84
-16.79
1.1
17.34
31.12
42.11
50.15
55.03
56.63
55.06
50.99
45.47
39.73
34.69
30.68
27.42
24.24
20.54
16.08
11.15
6.31
2.11
-1.24
-4.02
-6.93
-10.83
-16.42
-24.03
-33.58
-44.38
-55.24
-64.54
-70.46
-71.43
-66.6
-56.13
-41.23
-23.79
-5.82
11.02
25.7
37.65
46.61
52.35
54.8
54.12
50.85
45.96
40.53
35.54
31.45
28.27
25.59
22.8
19.43
15.31
10.62
5.72
1.05
-3.21
-7.11
-11.02
-15.52
-21.17
-28.45
-37.47
-47.82
-58.46
-67.75
-73.75
-74.78
-69.94
-59.42
-44.49
-26.99
-8.84
8.52
24.12
37.37
47.79
54.85
58.16
57.68
54.03
48.37
42.15
36.58
32.25
29.05
26.33
23.33
19.54
14.98
10.06
5.34
1.18
-2.43
-5.85
-9.64
-14.29
-20.2
-27.56
-36.28
-45.93
-55.55
-63.69
-68.57
-68.62
-62.92
-51.71
-36.27
-18.6
-0.83
15.33
28.77
38.98
45.77
49.2
49.51
47.19
43.07
38.12
33.28
29.12
25.72
22.74
19.6
15.86
11.38
6.41
1.38
-3.29
-7.4
-11.12
-14.92
-19.55
-25.73
-33.94
-43.99
-54.85
-64.64
-71.11
-72.27
-67.1
-55.91
-40.23
-22.25
-4.11
12.56
26.76
38
46.01
50.66
51.98
50.34
46.53
41.58
36.51
32
28.23
24.88
21.42
17.38
12.64
7.44
2.28
-2.36
-6.34
-9.92
-13.78
-18.79
-25.65
-34.59
-45.12
-55.99
-65.3
-71.01
-71.43
-65.8
-54.45
-38.8
-20.84
-2.63
14.2
28.6
39.99
48.08
52.67
53.78
51.77
47.42
41.82
36.02
30.8
26.32
22.32
18.3
13.88
8.99
3.94
-0.86
-5.07
-8.65
-11.93
-15.5
-20.03
-26.14
-34.19
-44.06
-54.96
-65.4
-73.32
-76.7
-74.09
-65.16
-50.88
-33.14
-14.16
4.2
20.69
34.69
45.81
53.73
58.05
58.6
55.72
50.33
43.77
37.39
32.13
28.24
25.32
22.63
19.42
15.35
10.49
5.37
0.55
-3.58
-7.06
-10.42
-14.46
-20.05
-27.75
-37.61
-48.95
-60.31
-69.73
-75.11
-74.8
-68.17
-55.78
-39.24
-20.68
-2.14
14.87
29.46
41.15
49.67
54.8
56.49
55.05
51.26
46.23
41.11
36.62
32.99
29.88
26.75
23.13
18.91
14.25
9.55
5.17
1.26
-2.23
-5.67
-9.55
-14.42
-20.78
-28.91
-38.68
-49.37
-59.63
-67.6
-71.37
-69.49
-61.53
-48.25
-31.4
-13.18
4.42
19.94
32.62
42.07
48.13
50.71
49.88
46.18
40.56
34.25
28.33
23.47
19.66
16.44
13.18
9.46
5.24
0.85
-3.25
-6.72
-9.55
-12.17
-15.3
-19.75
-26.14
-34.62
-44.69
-55.11
-64.04
-69.49
-69.81
-64.21
-52.98
-37.42
-19.38
-0.76
16.8
32.11
44.28
52.69
56.98
57.24
54.07
48.59
42.09
35.66
29.91
24.84
20.17
15.51
10.72
5.93
1.34
-2.92
-7
-11.28
-16.24
-22.33
-29.83
-38.74
-48.74
-59.12
-68.7
-75.99
-79.46
-77.94
-70.93
-58.85
-42.8
-24.32
-5.02
13.67
30.51
44.43
54.6
60.53
62.29
60.53
56.37
50.98
45.32
39.87
34.64
29.37
23.77
17.8
11.64
5.72
0.37
-4.33
-8.71
-13.54
-19.72
-28.09
-38.97
-51.95
-65.66
-77.95
-86.12
-87.49
-80.22
-64.13
-41.01
-14.34
11.71
33.67
49.7
59.81
65.27
67.59
67.75
66.06
62.58
57.6
51.95
46.67
42.46
39.33
36.54
33.16
28.56
22.89
16.89
11.47
7.24
4.01
0.82
-3.78
-11.15
-21.96
-35.69
-50.59
-63.99
-73.03
-75.56
-70.67
-59.02
-42.41
-23.2
-3.54
14.97
31.29
44.78
54.88
61.14
63.36
61.89
57.65
51.99
46.25
41.31
37.4
34.06
30.62
26.52
21.65
16.37
11.3
6.91
3.24
-0.15
-4.09
-9.39
-16.6
-25.82
-36.62
-48.05
-58.69
-66.77
-70.47
-68.41
-60.03
-45.9
-27.57
-7.22
12.91
31.01
45.83
56.71
63.42
66.05
65.08
61.31
55.84
49.79
44.1
39.2
35.03
31.2
27.18
22.68
17.65
12.37
7.19
2.35
-2.17
-6.73
-11.95
-18.54
-27.07
-37.69
-49.86
-62.25
-72.85
-79.42
-80.09
-74.02
-61.64
-44.55
-24.93
-4.97
13.59
29.57
42.19
50.91
55.42
55.75
52.49
46.73
39.82
33.02
27.07
22.1
17.8
13.67
9.32
4.68
-0.09
-4.74
-9.09
-13.18
-17.31
-21.99
-27.77
-35.08
-43.96
-53.8
-63.25
-70.45
-73.42
-70.69
-61.81
-47.55
-29.65
-10.24
8.68
25.64
39.74
50.46
57.53
60.86
60.67
57.59
52.62
46.86
41.2
36.1
31.5
27.07
22.45
17.57
12.63
8
3.91
0.26
-3.41
-7.82
-13.67
-21.39
-30.87
-41.33
-51.35
-59.02
-62.5
-60.4
-52.34
-38.99
-21.95
-3.24
15.26
32.04
46.15
56.99
64.27
67.88
68.07
65.49
61.03
55.74
50.37
45.27
40.34
35.27
29.78
23.89
17.89
12.23
7.22
2.8
-1.38
-5.97
-11.61
-18.86
-27.99
-38.87
-50.8
-62.37
-71.63
-76.44
-75.15
-67.16
-53.2
-35.14
-15.28
4.28
22.12
37.52
50.16
59.8
66.14
68.94
68.3
64.8
59.4
53.3
47.51
42.64
38.77
35.51
32.28
28.5
23.89
18.5
12.69
6.89
1.44
-3.6
-8.39
-13.24
-18.52
-24.52
-31.59
-40.03
-49.96
-61.07
-72.25
-81.69
-87.1
-86.51
-78.93
-64.79
-45.88
-24.75
-3.9
14.83
30.5
42.97
52.44
59.16
63.31
65.01
64.52
62.33
59.03
55.19
51.17
47.16
43.12
39.01
34.78
30.47
26.1
21.68
17.19
12.63
7.95
3.14
-1.82
-6.96
-12.32
-17.95
-23.98
-30.67
-38.46
-47.69
-58.26
-69.3
-79.07
-85.26
-85.75
-79.3
-66.18
-48.02
-27.31
-6.65
11.99
27.52
39.59
48.32
53.92
56.61
56.61
54.34
50.4
45.57
40.62
36.08
32.22
29.01
26.26
23.71
21.13
18.34
15.23
11.78
8
3.98
-0.25
-4.66
-9.38
-14.56
-20.46
-27.31
-35.31
-44.57
-54.83
-65.35
-74.72
-81.08
-82.52
-77.76
-66.68
-50.44
-31.19
-11.36
6.96
22.44
34.54
43.24
48.7
51.07
50.57
47.61
42.93
37.46
32.19
27.77
24.41
21.8
19.27
16.23
12.3
7.59
2.49
-2.45
-6.88
-10.78
-14.46
-18.43
-23.22
-29.24
-36.72
-45.63
-55.59
-65.67
-74.43
-80.05
-80.81
-75.67
-64.69
-49.07
-30.77
-11.92
5.79
21.26
33.96
43.61
49.96
52.82
52.24
48.74
43.28
37.09
31.25
26.37
22.47
19.13
15.74
11.87
7.45
2.73
-1.92
-6.19
-10.05
-13.71
-17.57
-22.1
-27.78
-34.95
-43.81
-54.01
-64.59
-73.85
-79.7
-80.28
-74.61
-62.99
-46.94
-28.67
-10.28
6.71
21.5
33.83
43.51
50.25
53.72
53.81
50.87
45.81
39.82
34.06
29.2
25.28
21.88
18.35
14.22
9.39
4.18
-0.89
-5.41
-9.22
-12.62
-16.14
-20.49
-26.29
-33.9
-43.42
-54.49
-66.26
-77.31
-85.78
-89.75
-87.72
-79.2
-64.9
-46.58
-26.43
-6.59
11.47
26.93
39.43
48.82
54.92
57.63
57.12
53.95
49.04
43.51
38.26
33.78
29.98
26.34
22.26
17.31
11.52
5.32
-0.65
-5.91
-10.41
-14.55
-19.07
-24.73
-32.11
-41.44
-52.53
-64.64
-76.47
-86.23
-91.92
-91.89
-85.32
-72.6
-55.17
-35.11
-14.5
5.03
22.39
36.94
48.17
55.67
59.25
59.12
56.05
51.17
45.72
40.6
36.22
32.47
28.96
25.28
21.18
16.7
11.97
7.21
2.5
-2.18
-7.04
-12.32
-18.35
-25.47
-34.01
-44.2
-55.8
-67.98
-79.07
-86.87
-89.2
-84.61
-72.97
-55.57
-34.73
-13
7.45
25.21
39.54
50.06
56.53
58.86
57.33
52.78
46.55
40.08
34.53
30.36
27.28
24.58
21.45
17.51
12.82
7.91
3.34
-0.56
-3.97
-7.56
-12.25
-18.99
-28.3
-40.11
-53.56
-67
-78.31
-85.25
-86.05
-79.87
-67.03
-48.93
-27.66
-5.47
15.65
34.17
49.01
59.46
65.2
66.34
63.59
58.17
51.51
44.91
39.13
34.32
30.11
26.01
21.68
17.17
12.77
8.71
5.01
