1626261000.00
64.000000
-0.00
-0.00
-0.00
-0.00
-0.00
-0.00
-0.00
-0.00
-0.00
-0.00
0.00
0.01
0.01
-0.00
-0.03
-0.05
-0.05
0.00
0.13
0.36
0.66
1.01
1.37
1.72
2.06
2.40
2.79
3.24
3.80
4.42
5.06
5.66
6.20
6.68
7.15
7.68
8.31
9.14
10.09
11.04
11.88
12.56
13.14
13.76
14.65
15.96
17.91
20.32
22.90
25.38
27.58
29.57
31.68
34.32
37.81
42.54
48.15
54.10
59.83
64.97
69.58
74.14
79.34
85.71
93.76
103.00
112.62
121.73
129.77
136.75
143.31
150.75
157.77
166.64
177.94
191.80
206.99
220.60
228.29
225.38
208.48
176.72
132.49
79.67
22.61
-35.44
-92.93
-149.64
-205.72
-260.91
-314.37
-364.62
-410.68
-451.81
-487.40
-516.59
-538.05
-550.08
-550.97
-539.61
-515.74
-480.45
-435.79
-384.34
-328.81
-271.56
-214.47
-158.89
-105.85
-56.06
-10.29
30.77
66.55
96.66
120.96
139.63
153.17
162.30
167.92
170.85
171.76
171.04
168.76
164.80
159.00
151.40
142.36
132.54
122.72
113.54
105.29
97.83
90.70
83.37
75.37
66.36
56.20
45.10
33.98
24.52
18.95
19.20
25.89
37.73
51.75
64.44
73.04
76.52
75.59
71.94
67.16
61.99
56.41
50.20
43.52
37.14
32.00
28.71
27.08
26.20
24.91
22.35
18.37
13.53
8.79
5.05
2.80
1.93
1.90
1.93
1.37
-0.03
-2.14
-4.59
-6.89
-8.57
-9.21
-8.46
-6.26
-3.00
0.43
2.78
3.02
0.83
-3.02
-6.88
-8.87
-7.83
-3.74
2.30
8.65
13.94
17.50
19.35
19.85
19.33
17.91
15.59
12.49
8.89
5.32
2.29
0.14
-1.08
-1.60
-1.79
-1.99
-2.38
-2.90
-3.33
-3.38
-2.87
-1.82
-0.51
0.68
1.38
1.44
0.99
0.33
-0.16
-0.24
0.18
0.97
1.94
2.88
3.67
4.33
4.94
5.61
6.39
7.28
8.10
8.68
8.83
8.41
7.43
5.91
4.03
1.84
-0.52
-2.92
-5.25
-7.42
-9.37
-11.13
-12.73
-14.19
-15.46
-16.44
-17.00
-17.05
-16.65
-15.95
-15.19
-14.55
-14.12
-13.84
-13.55
-13.07
-12.32
-11.38
-10.44
-9.78
-9.67
-10.27
-11.52
-13.02
-14.14
-14.07
-12.13
-8.02
-2.01
5.13
12.28
18.41
22.79
25.17
25.74
24.90
23.10
20.73
18.06
15.30
12.64
10.26
8.31
6.91
6.06
5.70
5.67
5.83
6.14
6.64
7.47
8.71
10.33
12.12
13.79
15.05
15.78
16.05
15.95
15.73
15.54
15.43
15.30
15.02
14.47
13.66
12.63
11.49
10.36
9.31
8.42
7.77
7.40
7.28
7.33
7.34
7.10
6.45
5.37
3.98
2.48
1.11
-0.02
-0.96
-1.88
-3.00
-4.48
-6.34
-8.47
-10.69
-12.87
-14.98
-17.11
-19.40
-21.92
-24.63
-27.36
-29.94
-32.25
-34.27
-36.16
-38.15
-40.50
-43.48
-47.27
-51.90
-57.16
-62.48
-66.95
-69.48
-69.13
-65.34
-58.23
-48.49
-37.19
-25.38
-13.89
-3.18
6.56
15.19
22.54
28.36
32.50
35.01
36.13
36.33
36.05
35.60
35.13
34.62
34.05
33.46
33.01
32.88
33.17
33.83
34.63
35.26
35.47
35.10
34.16
32.76
31.05
29.19
27.28
25.35
23.39
21.35
19.18
16.86
14.47
12.10
9.90
7.98
6.35
4.89
3.44
1.82
-0.06
-2.20
-4.49
-6.81
-9.13
-11.54
-14.16
-17.14
-20.49
-24.07
-27.63
-30.96
-33.99
-36.78
-39.49
-42.22
-44.96
-47.53
-49.67
-51.15
-51.82
-51.72
-51.02
-50.07
-49.37
-49.51
-51.08
-54.47
-59.57
-65.64
-71.34
-75.01
-75.23
-71.26
-63.35
-52.56
-40.31
-27.90
-16.13
-5.31
4.57
13.50
21.38
28.02
33.29
37.25
40.12
42.20
43.74
44.85
45.57
45.89
45.87
45.66
45.46
45.48
45.88
46.65
47.64
48.53
49.02
48.92
48.22
47.06
45.63
44.05
42.37
40.57
38.64
36.63
34.63
32.71
30.93
29.27
27.69
26.18
24.70
23.28
21.89
20.51
19.11
17.67
16.22
14.77
13.31
11.79
10.17
8.46
6.69
4.91
3.13
1.26
-0.81
-3.21
-5.90
-8.73
-11.44
-13.84
-15.88
-17.72
-19.72
-22.20
-25.37
-29.17
-33.35
-37.55
-41.46
-44.94
-48.04
-50.99
-54.18
-58.01
-62.88
-68.99
-76.18
-83.77
-90.54
-94.93
-95.46
-91.24
-82.27
-69.45
-54.28
-38.35
-22.92
-8.79
3.72
14.51
23.55
30.80
36.28
40.15
42.73
44.44
45.65
46.58
47.31
47.76
47.92
47.81
47.59
47.47
47.62
48.12
48.87
49.68
50.31
50.54
50.28
49.50
48.29
46.79
45.11
43.40
41.69
39.98
38.26
36.49
34.68
32.84
31.01
29.23
27.57
26.09
24.87
23.93
23.17
22.46
21.57
20.36
18.77
16.87
14.77
12.64
10.57
8.63
6.84
5.19
3.67
2.17
0.57
-1.24
-3.34
-5.66
-8.04
-10.32
-12.43
-14.42
-16.50
-18.91
-21.86
-25.39
-29.38
-33.55
-37.65
-41.51
-45.14
-48.73
-52.62
-57.23
-62.88
-69.65
-77.11
-84.29
-89.78
-92.09
-90.17
-83.81
-73.74
-61.34
-48.21
-35.60
-24.21
-14.23
-5.59
1.77
7.80
12.39
15.58
17.56
18.67
19.26
19.57
19.68
19.54
19.11
18.38
17.48
16.62
16.08
16.05
16.56
17.40
18.20
18.55
18.18
17.09
15.57
14.08
13.07
12.85
13.45
14.68
16.23
17.79
19.07
19.95
20.39
20.42
20.13
19.60
18.94
18.20
17.44
16.66
15.84
14.91
13.74
12.26
10.43
8.33
6.10
3.88
1.76
-0.35
-2.61
-5.21
-8.26
-11.73
-15.45
-19.21
-22.76
-26.00
-28.93
-31.75
-34.75
-38.31
-42.74
-48.15
-54.26
-60.30
-65.13
-67.47
-66.28
-61.11
-52.25
-40.60
-27.41
-13.94
-1.16
10.31
20.15
28.20
34.38
38.68
41.17
42.09
41.76
40.58
38.97
37.28
35.84
34.85
34.42
34.53
35.10
35.99
37.05
38.16
39.13
39.79
39.93
39.45
38.33
36.73
34.87
32.99
31.22
29.55
27.86
26.03
23.95
21.64
19.18
16.67
14.23
11.93
9.84
7.95
6.26
4.69
3.09
1.34
-0.67
-2.93
-5.36
-7.83
-10.24
-12.63
-15.10
-17.85
-21.02
-24.61
-28.46
-32.31
-35.92
-39.19
-42.27
-45.47
-49.23
-53.93
-59.77
-66.61
-73.86
-80.47
-85.09
-86.39
-83.41
-75.94
-64.56
-50.53
-35.37
-20.46
-6.77
5.20
15.30
23.59
30.17
35.15
38.74
41.16
42.72
43.70
44.36
44.82
45.19
45.48
45.77
46.12
46.61
47.32
48.24
49.30
50.33
51.16
51.62
51.59
51.03
49.94
48.37
46.43
44.25
41.97
39.69
37.47
35.30
33.18
31.11
29.16
27.37
25.79
24.41
23.17
21.97
20.75
19.53
18.33
17.22
16.21
15.26
14.26
13.09
11.64
9.89
7.88
5.72
3.56
1.53
-0.30
-1.98
-3.65
-5.54
-7.89
-10.80
-14.22
-17.94
-21.68
-25.17
-28.32
-31.22
-34.14
-37.37
-41.11
-45.34
-49.86
-54.30
-58.38
-61.95
-65.14
-68.28
-71.87
-76.38
-82.13
-89.02
-96.39
-102.99
-107.21
-107.50
-102.93
-93.55
-80.40
-65.13
-49.41
-34.47
-20.93
-8.90
1.63
10.67
18.14
24.00
28.42
31.79
34.52
36.95
39.19
41.14
42.62
43.51
43.83
43.75
43.56
43.55
43.90
44.63
45.54
46.30
46.57
46.12
44.94
43.18
41.14
39.10
37.23
35.51
33.84
32.04
30.03
27.80
25.45
23.14
21.01
19.14
17.53
16.12
14.83
13.57
12.31
11.00
9.63
8.18
6.65
5.05
3.46
1.94
0.56
-0.71
-1.97
-3.40
-5.16
-7.30
-9.70
-12.10
-14.17
-15.69
-16.64
-17.24
-17.89
-18.99
-20.86
-23.61
-27.16
-31.25
-35.57
-39.78
-43.61
-46.98
-50.01
-53.12
-56.88
-61.80
-68.04
-75.16
-82.05
-87.10
-88.75
-85.86
-78.18
-66.43
-51.97
-36.44
-21.25
-7.31
4.98
15.53
24.37
31.51
36.91
40.60
42.73
43.60
43.60
43.08
42.33
41.51
40.69
39.91
39.29
38.96
39.07
39.72
40.84
42.16
43.29
43.85
43.60
42.55
40.92
39.08
37.28
35.63
34.01
32.22
30.11
27.65
25.01
22.40
20.02
17.91
15.92
13.85
11.46
8.70
5.67
2.59
-0.30
-2.89
-5.25
-7.59
-10.21
-13.31
-16.97
-21.06
-25.32
-29.47
-33.32
-36.85
-40.22
-43.75
-47.84
-52.86
-59.02
-66.15
-73.60
-80.23
-84.58
-85.27
-81.45
-73.10
-61.03
-46.64
-31.46
-16.73
-3.25
8.65
18.90
27.55
34.61
40.08
44.03
46.60
48.06
48.74
48.95
48.91
48.75
48.54
48.28
48.04
47.93
48.04
48.40
48.92
49.39
49.55
49.20
48.28
46.83
45.00
42.92
40.71
38.39
35.92
33.26
30.40
27.41
24.39
21.50
18.85
16.49
14.37
12.41
10.51
8.68
6.91
5.21
3.48
1.61
-0.49
-2.81
-5.19
-7.45
-9.46
-11.29
-13.18
-15.42
-18.19
-21.46
-25.04
-28.62
-32.01
-35.16
-38.19
-41.34
-44.83
-48.81
-53.27
-58.08
-62.97
-67.64
-71.86
-75.52
-78.72
-81.74
-85.01
-89.01
-94.11
-100.34
-107.14
-113.28
-117.08
-116.83
-111.38
-100.65
-85.62
-68.00
-49.62
-31.89
-15.61
-1.04
11.82
22.94
32.26
39.77
45.58
50.00
53.37
56.00
58.04
59.55
60.54
61.06
61.19
61.09
60.92
60.81
60.87
61.14
61.53
61.85
61.84
61.25
59.99
58.11
55.84
53.43
51.09
48.83
46.58
44.17
41.54
38.73
35.89
33.19
30.76
28.66
26.83
25.14
23.49
21.76
19.88
17.84
15.65
13.39
11.15
9.02
7.01
5.07
3.06
0.82
-1.75
-4.61
-7.65
-10.68
-13.58
-16.36
-19.15
-22.16
-25.57
-29.39
-33.49
-37.65
-41.63
-45.33
-48.76
-52.09
-55.59
-59.62
-64.54
-70.61
-77.81
-85.60
-92.81
-97.77
-98.74
-94.56
-85.01
-71.00
-54.21
-36.55
-19.61
-4.38
8.76
19.80
28.82
35.96
41.36
45.23
47.91
49.75
51.02
51.87
52.38
52.52
52.33
51.89
51.36
50.94
50.82
51.08
51.65
52.32
52.74
52.60
51.72
50.07
47.85
45.33
42.79
40.42
38.26
36.27
34.36
32.42
30.39
28.27
26.14
24.12
22.34
20.89
19.80
18.96
18.20
17.28
16.06
14.52
12.76
11.01
9.45
8.19
7.17
6.17
4.92
3.21
0.97
-1.67
-4.44
-7.09
-9.47
-11.59
-13.60
-15.72
-18.15
-21.00
-24.29
-27.92
-31.72
-35.47
-39.02
-42.32
-45.50
-48.85
-52.76
-57.65
-63.73
-70.84
-78.26
-84.75
-88.80
-89.07
-84.78
-76.06
-63.89
-49.76
-35.17
-21.29
-8.73
2.28
11.73
19.57
25.73
30.13
32.86
34.23
34.66
34.59
34.34
34.09
33.85
33.64
33.46
33.40
33.59
34.09
34.85
35.64
36.16
36.13
35.45
34.18
32.55
30.80
29.05
27.30
25.47
23.45
21.25
18.96
16.71
14.59
12.65
10.86
9.18
7.57
5.99
4.40
2.78
1.13
-0.49
-2.00
-3.34
-4.50
-5.57
-6.68
-8.01
-9.66
-11.65
-13.92
-16.27
-18.53
-20.58
-22.44
-24.29
-26.42
-29.07
-32.35
-36.13
-40.12
-43.95
-47.37
-50.39
-53.25
-56.43
-60.42
-65.63
-72.13
-79.51
-86.83
-92.67
-95.49
-94.01
-87.65
-76.71
-62.28
-45.88
-29.05
-12.97
1.64
14.46
25.37
34.34
41.40
46.61
50.18
52.39
53.60
54.09
54.09
53.74
53.14
52.44
51.86
51.59
51.79
52.43
53.31
54.15
54.68
54.68
54.09
52.89
51.18
49.05
46.66
44.21
41.85
39.65
37.58
35.53
33.42
31.21
28.95
26.75
24.64
22.61
20.60
18.54
16.42
14.28
12.21
10.29
8.50
6.74
4.85
2.64
0.00
-3.08
-6.47
-9.99
-13.45
-16.76
-20.00
-23.36
-27.13
-31.53
-36.61
-42.25
-48.14
-53.93
-59.34
-64.26
-68.78
-73.21
-78.01
-83.65
-90.50
-98.53
-107.17
-115.15
-120.75
-122.19
-118.23
-108.53
-93.83
-75.63
-55.73
-35.72
-16.73
0.60
15.96
29.19
40.19
48.93
55.46
60.02
62.95
64.64
65.49
65.75
65.58
65.02
64.14
63.06
62.01
61.22
60.84
60.80
60.86
60.65
59.88
58.45
56.45
54.15
51.77
49.48
47.27
45.08
42.78
40.32
37.70
35.01
32.38
29.94
27.77
25.84
24.08
22.39
20.71
19.10
17.63
16.36
15.24
14.08
12.67
10.87
8.73
6.46
4.33
2.54
1.14
-0.03
-1.22
-2.69
-4.59
-6.91
-9.53
-12.26
-14.94
-17.47
-19.90
-22.36
-25.03
-28.06
-31.52
-35.37
-39.46
-43.60
-47.59
-51.29
-54.71
-57.99
-61.45
-65.52
-70.62
-76.95
-84.22
-91.53
-97.41
-100.17
-98.44
-91.65
-80.22
-65.48
-49.17
-32.86
-17.66
-4.04
7.90
18.23
26.98
34.08
39.55
43.54
46.34
48.29
49.63
50.48
50.85
50.75
50.28
49.64
49.13
48.97
49.29
49.99
50.83
51.48
51.66
51.17
49.98
48.21
46.04
43.68
41.27
38.87
36.45
33.93
31.27
28.46
25.59
22.76
20.06
17.50
15.09
12.77
10.56
8.49
6.58
4.83
3.13
1.33
-0.67
-2.92
-5.34
-7.77
-10.03
-12.05
-13.89
-15.73
-17.76
-20.15
-22.89
-25.83
-28.72
-31.33
-33.53
-35.40
-37.14
-38.99
-41.13
-43.62
-46.38
-49.26
-52.09
-54.73
-57.15
-59.40
-61.67
-64.32
-67.76
-72.37
-78.19
-84.73
-90.87
-95.05
-95.70
-91.73
-82.94
-70.06
-54.52
-37.94
-21.70
-6.70
6.63
18.14
27.79
35.55
41.40
45.42
47.78
48.77
48.73
48.01
46.89
45.65
44.50
43.61
43.11
43.07
43.51
44.34
45.35
46.30
46.92
46.98
46.40
45.19
43.46
41.35
38.98
36.46
33.84
31.16
28.42
25.63
22.75
19.75
16.58
13.25
9.80
6.34
2.99
-0.14
-3.04
-5.80
-8.57
-11.54
-14.84
-18.51
-22.49
-26.63
-30.77
-34.77
-38.54
-42.14
-45.80
-49.89
-54.85
-60.97
-68.19
-75.85
-82.73
-87.24
-87.87
-83.67
-74.55
-61.34
-45.47
-28.58
-12.08
3.08
16.38
27.62
36.77
43.90
49.09
52.52
54.44
55.17
55.08
54.52
53.80
53.11
52.55
52.14
51.90
51.86
52.12
52.75
53.68
54.68
55.38
55.44
54.70
53.27
51.42
49.49
47.62
45.78
43.78
41.45
38.73
35.79
32.84
30.12
27.67
25.43
23.22
20.90
18.45
15.96
13.60
11.49
9.68
8.04
6.35
4.39
2.01
-0.78
-3.84
-6.95
-9.98
-12.89
-15.86
-19.15
-23.02
-27.54
-32.61
-37.91
-43.10
-47.96
-52.45
-56.72
-61.05
-65.71
-71.03
-77.29
-84.69
-93.17
-102.16
-110.43
-116.25
-117.82
-113.91
-104.37
-90.16
-73.07
-55.02
-37.54
-21.49
-7.14
5.47
16.32
25.27
32.21
37.16
40.40
42.37
43.52
44.17
44.45
44.36
43.86
43.00
41.92
40.85
40.01
39.49
39.24
39.01
38.47
37.31
35.39
32.77
29.77
26.84
24.42
22.84
22.14
22.13
22.42
22.60
22.41
21.78
20.86
19.85
18.87
17.90
16.84
15.61
14.26
12.96
11.96
11.41
11.24
11.22
11.04
10.47
9.48
8.25
6.99
5.87
4.85
3.67
2.01
-0.38
-3.54
-7.25
-11.12
-14.79
-18.05
-20.95
-23.77
-26.82
-30.36
-34.40
-38.78
-43.22
-47.46
-51.36
-54.88
-58.16
-61.42
-65.02
-69.40
-74.96
-81.85
-89.67
-97.28
-102.91
-104.58
-100.75
-90.89
-75.72
-56.91
-36.59
-16.56
1.97
18.52
33.01
45.46
55.85
64.14
70.39
74.85
77.95
80.13
81.72
82.83
83.45
83.55
83.14
82.39
81.55
80.90
80.60
80.61
80.65
80.24
78.92
76.37
72.61
68.01
63.09
58.40
54.21
50.50
46.95
43.19
38.98
34.33
29.55
25.03
21.15
18.03
15.57
13.45
11.33
8.93
6.12
2.96
-0.41
-3.76
-6.95
-9.89
-12.60
-15.21
-17.86
-20.67
-23.70
-26.92
-30.22
-33.54
-36.84
-40.20
-43.73
-47.55
-51.69
-56.06
-60.44
-64.58
-68.26
-71.45
-74.33
-77.29
-80.87
-85.55
-91.57
-98.68
-105.99
-112.00
-114.92
-113.15
-105.86
-93.30
-76.77
-58.17
-39.49
-22.23
-7.26
5.14
15.06
22.63
28.00
31.34
32.90
33.12
32.53
31.66
30.94
30.62
30.77
31.32
32.18
33.27
34.56
36.04
37.68
39.34
40.77
41.61
41.54
40.38
38.20
35.31
32.10
28.96
26.03
23.27
20.42
17.28
13.76
9.96
6.14
2.54
-0.66
-3.45
-5.97
-8.45
-11.16
-14.28
-17.88
-21.88
-26.08
-30.24
-34.15
-37.79
-41.32
-45.06
-49.44
-54.86
-61.53
-69.26
-77.30
-84.33
-88.64
-88.60
-83.23
-72.52
-57.53
-40.02
-21.91
-4.72
10.59
23.68
34.53
43.23
49.86
54.46
57.18
58.25
58.02
56.90
55.30
53.57
52.01
50.81
50.10
49.94
50.30
51.06
52.02
52.89
53.37
53.16
52.11
50.24
47.71
44.79
41.77
38.89
36.26
33.85
31.49
28.98
26.15
22.94
19.51
16.10
12.96
10.21
7.75
5.34
2.66
-0.44
-3.92
-7.55
-11.06
-14.31
-17.39
-20.55
-24.09
-28.17
-32.70
-37.37
-41.83
-45.84
-49.43
-52.90
-56.70
-61.29
-67.00
-73.91
-81.75
-89.76
-96.68
-100.90
-100.79
-95.20
-83.93
-67.85
-48.71
-28.58
-9.22
8.24
23.41
36.34
47.23
56.22
63.35
68.68
72.41
74.92
76.63
77.88
78.89
79.68
80.22
80.46
80.45
80.33
80.23
80.24
80.25
80.02
79.20
77.48
74.66
70.75
65.91
60.46
54.71
48.98
43.48
38.30
33.45
28.81
24.26
19.67
15.04
10.48
6.12
2.10
-1.62
-5.22
-8.97
-13.04
-17.42
-21.84
-25.89
-29.21
-31.56
-32.90
-33.26
-32.61
-30.86
-27.93
-23.85
-18.97
-13.87
-9.18
-5.40
-2.75
-1.11
-0.19
0.27
0.43
0.25
-0.41
-1.72
-3.73
-6.34
-9.30
-12.31
-15.08
-17.50
-19.64
-21.80
-24.36
-27.62
-31.66
-36.26
-41.08
-45.73
-50.05
-54.10
-58.21
-62.86
-68.58
-75.84
-84.83
-95.26
-106.14
-115.85
-122.40
-124.04
-119.83
-110.01
-95.92
-79.53
-62.77
-46.99
-32.75
-20.00
-8.34
2.55
12.80
22.26
30.66
37.64
42.95
46.50
48.36
48.80
48.19
47.02
45.82
45.10
45.26
46.46
48.62
51.32
54.00
56.12
57.32
57.56
57.04
56.11
55.09
54.18
53.41
52.70
51.89
50.84
49.45
47.68
45.55
43.19
40.78
38.49
36.47
34.73
33.12
31.44
29.51
27.28
24.84
22.45
20.34
18.68
17.45
16.48
15.46
14.02
11.81
8.57
4.26
-0.90
-6.43
-11.75
-16.40
-20.20
-23.36
-26.29
-29.42
-32.99
-36.97
-41.17
-45.35
-49.34
-53.11
-56.75
-60.40
-64.21
-68.30
-72.63
-76.83
-80.15
-81.56
-79.96
-74.58
-65.24
-52.44
-37.27
-21.06
-5.14
9.46
22.03
32.22
39.91
45.17
48.09
48.90
47.87
45.43
42.17
38.71
35.64
33.33
31.88
31.20
31.12
31.55
32.51
34.03
36.06
38.37
40.56
42.17
42.91
42.71
41.75
40.31
38.63
36.80
34.74
32.34
29.55
26.51
23.46
20.65
18.19
16.01
13.87
11.58
9.06
6.39
3.72
1.15
-1.37
-4.00
-6.94
-10.29
-14.00
-17.89
-21.74
-25.40
-28.84
-32.15
-35.43
-38.74
-42.08
-45.36
-48.49
-51.43
-54.14
-56.65
-58.99
-61.23
-63.57
-66.34
-69.93
-74.57
-80.03
-85.41
-89.25
-89.86
-85.92
-76.92
-63.39
-46.68
-28.55
-10.67
5.73
19.93
31.65
40.89
47.79
52.60
55.57
57.02
57.23
56.45
54.90
52.76
50.23
47.50
44.77
42.22
40.00
38.22
36.96
36.21
35.95
36.05
36.28
36.40
36.15
35.41
34.14
32.48
30.57
28.56
26.52
24.46
22.37
20.28
18.23
16.33
14.69
13.39
12.44
11.76
11.22
10.65
9.94
9.08
8.18
7.41
6.93
6.79
6.89
7.01
6.95
6.61
6.03
5.38
4.82
4.38
3.96
3.35
2.31
0.74
-1.34
-3.77
-6.34
-8.91
-11.36
-13.65
-15.80
-17.84
-19.88
-22.10
-24.73
-27.95
-31.81
-36.22
-40.91
-45.62
-50.18
-54.65
-59.27
-64.42
-70.45
-77.43
-84.96
-92.10
-97.50
-99.64
-97.31
-89.93
-77.79
-61.96
-44.03
-25.72
-8.52
6.54
18.90
28.51
35.59
40.53
43.75
45.59
46.31
46.07
45.04
43.41
41.41
39.26
37.19
35.40
34.02
33.10
32.64
32.54
32.65
32.82
32.87
32.67
32.15
31.28
30.13
28.78
27.34
25.91
24.47
22.95
21.22
19.24
17.05
14.83
12.77
11.04
9.71
8.73
7.99
7.37
6.78
6.24
5.77
5.42
5.23
5.13
5.04
4.80
4.25
3.24
1.64
-0.62
-3.51
-6.90
-10.54
-14.13
-17.42
-20.38
-23.19
-26.12
-29.45
-33.24
-37.32
-41.34
-44.98
-48.08
-50.71
-53.17
-55.85
-59.18
-63.52
-69.05
-75.57
-82.39
-88.33
-91.90
-91.75
-87.07
-77.90
-65.11
-50.06
-34.23
-18.78
-4.47
8.32
19.48
28.98
36.88
43.36
48.70
53.22
57.25
60.97
64.41
67.48
70.02
71.91
73.12
73.70
73.79
73.56
73.12
72.54
71.82
70.91
69.81
68.60
67.40
66.36
65.47
64.58
63.33
61.38
58.48
54.67
50.23
45.58
41.07
36.86
32.91
29.06
25.20
21.34
17.62
14.16
11.03
8.10
5.19
2.13
-1.16
-4.60
-8.02
-11.23
-14.18
-16.92
-19.62
-22.47
-25.65
-29.23
-33.18
-37.42
-41.83
-46.23
-50.46
-54.41
-58.04
-61.49
-65.08
-69.29
-74.55
-81.06
-88.53
-96.15
-102.66
-106.65
-107.02
-103.28
-95.73
-85.30
-73.22
-60.65
-48.41
-36.99
-26.65
-17.54
-9.82
-3.57
1.28
4.93
7.73
10.10
12.32
14.55
16.77
18.90
20.88
22.71
24.51
26.43
28.55
30.82
32.99
34.80
36.03
36.66
36.86
36.82
36.69
36.48
36.09
35.42
34.46
33.29
32.03
30.80
29.62
28.47
27.32
26.22
25.25
24.49
23.96
23.60
23.26
22.77
21.98
20.81
19.26
17.43
15.50
13.61
11.87
10.25
8.59
6.69
4.34
1.45
-1.91
-5.56
-9.26
-12.85
-16.30
-19.68
-23.22
-27.08
-31.39
-36.13
-41.14
-46.16
-50.92
-55.26
-59.15
-62.83
-66.75
-71.50
-77.61
-85.26
-94.01
-102.73
-109.77
-113.30
-111.94
-105.04
-92.98
-76.88
-58.32
-38.91
-20.03
-2.68
12.49
25.08
34.97
42.25
47.25
50.42
52.26
53.16
53.40
53.15
52.49
51.56
50.52
49.57
48.92
48.71
48.97
49.59
50.39
51.12
51.58
51.64
51.32
50.66
49.74
48.62
47.31
45.84
44.19
42.39
40.47
38.46
36.38
34.29
32.29
30.44
28.76
27.20
25.62
23.91
22.00
19.93
17.82
15.82
14.01
12.39
10.87
9.33
7.65
5.73
3.53
1.06
-1.64
-4.47
-7.33
-10.13
-12.88
-15.66
-18.67
-22.07
-25.96
-30.28
-34.85
-39.41
-43.71
-47.68
-51.40
-55.14
-59.27
-64.22
-70.30
-77.54
-85.48
-93.15
-99.10
-101.83
-100.21
-93.93
-83.56
-70.34
-55.76
-41.04
-26.94
-13.75
-1.63
9.24
18.52
25.91
31.24
34.68
36.65
37.64
38.07
38.18
38.03
37.65
37.13
36.62
36.33
36.44
37.00
37.91
39.00
40.08
40.94
41.44
41.50
41.08
40.21
38.98
37.53
35.97
34.38
32.74
30.97
28.97
26.71
24.25
21.75
19.37
17.26
15.47
13.92
12.47
10.86
8.94
6.62
4.00
1.29
-1.30
-3.68
-5.90
-8.17
-10.71
-13.66
-17.04
-20.71
-24.49
-28.21
-31.73
-35.02
-38.10
-41.05
-44.06
-47.40
-51.40
-56.28
-62.00
-68.08
-73.52
-77.03
-77.32
-73.59
-65.72
-54.35
-40.65
-25.88
-11.13
2.88
15.65
26.83
36.06
43.05
47.69
50.17
50.96
50.64
49.77
48.68
47.50
46.23
44.87
43.52
42.39
41.69
41.57
41.99
42.78
43.64
44.27
44.48
44.18
43.41
42.27
40.85
39.13
37.05
34.51
31.50
28.10
24.49
20.87
17.40
14.20
11.29
8.69
6.42
4.43
2.62
0.80
-1.25
-3.69
-6.51
-9.53
-12.48
-15.11
-17.37
-19.42
-21.59
-24.26
-27.66
-31.78
-36.42
-41.22
-45.84
-50.05
-53.79
-57.19
-60.60
-64.49
-69.42
-75.77
-83.51
-91.89
-99.45
-104.25
-104.55
-99.38
-88.96
-74.61
-58.25
-41.69
-26.09
-11.88
0.99
12.61
22.88
31.50
38.20
43.01
46.24
48.39
49.89
50.91
51.39
51.24
50.45
49.26
48.05
47.22
46.99
47.33
48.02
48.70
49.03
48.77
47.82
46.23
44.19
41.91
39.63
37.50
35.57
33.80
32.10
30.37
28.61
26.85
25.12
23.45
21.82
20.20
18.59
17.00
15.47
13.97
12.47
10.91
9.29
7.67
6.15
4.83
3.66
2.48
1.06
-0.83
-3.22
-6.01
-8.96
-11.81
-14.45
-16.94
-19.48
-22.39
-25.87
-30.00
-34.65
-39.57
-44.41
-48.89
-52.90
-56.51
-60.02
-63.90
-68.67
-74.76
-82.25
-90.60
-98.60
-104.51
-106.49
-103.26
-94.59
-81.43
-65.59
-49.11
-33.59
-19.81
-7.79
2.84
12.44
21.07
28.53
34.59
39.19
42.47
44.81
46.55
47.96
49.09
49.91
50.36
50.52
50.60
50.85
51.47
52.48
53.64
54.56
54.86
54.29
52.88
50.88
48.66
46.55
44.68
43.01
41.33
39.43
37.16
34.49
31.54
28.53
25.66
23.10
20.92
19.08
17.48
15.95
14.34
12.52
10.50
8.38
6.29
4.38
2.69
1.15
-0.43
-2.22
-4.35
-6.83
-9.55
-12.35
-15.07
-17.63
-20.10
-22.67
-25.61
-29.12
-33.24
-37.78
-42.37
-46.60
-50.22
-53.26
-56.02
-59.00
-62.78
-67.82
-74.36
-82.18
-90.45
-97.67
-102.00
-101.67
-95.71
-84.35
-69.05
-52.00
-35.39
-20.72
-8.49
1.58
10.13
17.64
24.30
30.01
34.65
38.25
41.04
43.34
45.37
47.16
48.61
49.59
50.06
50.20
50.31
50.70
51.54
52.74
53.99
54.85
54.95
54.14
52.52
50.42
48.22
46.22
44.51
42.97
41.34
39.39
37.02
34.33
31.58
29.02
26.84
25.02
23.43
21.87
20.20
18.38
16.50
14.68
13.00
11.45
9.93
8.28
6.37
4.16
1.72
-0.81
-3.24
-5.47
-7.50
-9.53
-11.83
-14.70
-18.31
-22.64
-27.44
-32.32
-36.88
-40.89
-44.35
-47.54
-50.98
-55.26
-60.89
-68.05
-76.39
-84.89
-91.93
-95.68
-94.59
-88.01
-76.47
-61.53
-45.35
-29.98
-16.78
-6.24
1.88
8.15
13.15
17.25
20.60
23.24
25.24
26.72
27.82
28.70
29.51
30.37
31.38
32.60
34.07
35.78
37.70
39.76
41.83
43.69
45.05
45.60
45.13
43.60
41.21
38.34
35.35
32.52
29.88
27.24
24.30
20.88
17.03
13.04
9.38
6.42
4.29
2.80
1.51
-0.05
-2.21
-5.02
-8.26
-11.56
-14.60
-17.24
-19.59
-21.97
-24.74
-28.14
-32.20
-36.67
-41.13
-45.20
-48.65
-51.56
-54.25
-57.19
-60.84
-65.56
-71.52
-78.48
-85.73
-92.03
-95.85
-95.76
-90.97
-81.65
-68.94
-54.49
-39.97
-26.48
-14.47
-3.86
5.59
14.00
21.27
27.18
31.56
34.48
36.23
37.27
38.02
38.81
39.75
40.78
41.82
42.82
43.85
45.04
46.47
48.08
49.62
50.76
51.21
50.86
49.79
48.26
46.54
44.80
43.03
41.13
38.93
36.31
33.29
30.00
26.63
23.37
20.35
17.55
14.90
12.25
9.45
6.41
3.14
-0.26
-3.64
-6.86
-9.91
-12.85
-15.90
-19.26
-23.07
-27.29
-31.75
-36.19
-40.39
-44.25
-47.88
-51.58
-55.82
-61.04
-67.54
-75.19
-83.26
-90.40
-94.93
-95.28
-90.47
-80.50
-66.35
-49.59
-31.93
-14.77
1.01
14.95
26.83
36.53
44.01
49.35
52.78
54.75
55.68
55.95
55.78
55.31
54.61
53.76
52.90
52.19
51.72
51.56
51.64
51.87
52.10
52.14
51.81
50.95
49.50
47.49
45.08
42.47
39.87
37.38
35.05
32.83
30.63
28.38
26.04
23.63
21.21
18.90
16.82
15.02
13.45
11.97
10.37
8.43
6.06
3.26
0.18
-3.00
-6.08
-8.99
-11.77
-14.59
-17.67
-21.16
-25.10
-29.35
-33.66
-37.79
-41.60
-45.14
-48.60
-52.31
-56.67
-62.05
-68.69
-76.42
-84.53
-91.67
-96.16
-96.44
-91.60
-81.71
-67.82
-51.54
-34.58
-18.28
-3.46
9.52
20.58
29.70
36.90
42.25
45.93
48.29
49.74
50.65
51.29
51.77
52.04
52.02
51.64
51.05
50.48
50.24
50.52
51.28
52.23
52.91
52.91
52.01
50.23
47.82
45.10
42.33
39.68
37.18
34.80
32.51
30.25
27.98
25.66
23.29
20.90
18.57
16.40
14.43
12.71
11.18
9.78
8.43
7.08
5.68
4.21
2.66
1.08
-0.49
-1.99
-3.47
-5.01
-6.78
-8.92
-11.43
-14.22
-17.05
-19.68
-21.99
-24.00
-25.95
-28.15
-30.86
-34.18
-37.97
-41.90
-45.62
-48.87
-51.62
-54.08
-56.68
-59.94
-64.34
-70.13
-77.09
-84.40
-90.71
-94.34
-93.78
-88.18
-77.62
-63.15
-46.38
-29.00
-12.32
2.86
16.20
27.59
36.99
44.37
49.78
53.38
55.52
56.58
56.95
56.90
56.57
56.03
55.29
54.41
53.48
52.66
52.08
51.76
51.59
51.34
50.73
49.57
47.85
45.67
43.21
40.61
37.94
35.20
32.36
29.42
26.38
23.24
19.97
16.56
13.07
9.62
6.33
3.28
0.43
-2.33
-5.15
-8.07
-11.04
-13.92
-16.60
-19.05
-21.38
-23.79
-26.40
-29.27
-32.33
-35.52
-38.81
-42.24
-45.94
-49.97
-54.30
-58.71
-62.92
-66.60
-69.57
-71.82
-73.55
-75.13
-76.98
-79.43
-82.58
-86.08
-89.15
-90.64
-89.36
-84.39
-75.46
-63.00
-48.03
-31.84
-15.68
-0.47
13.18
24.94
34.60
42.04
47.21
50.16
51.15
50.59
49.02
47.02
45.11
43.61
42.62
42.04
41.71
41.52
41.50
41.76
42.39
43.33
44.27
44.79
44.50
43.25
41.20
38.73
36.23
33.96
31.88
29.78
27.43
24.70
21.66
18.52
15.48
12.62
9.88
7.13
4.26
1.26
-1.76
-4.67
-7.37
-9.88
-12.35
-14.99
-18.00
-21.47
-25.38
-29.59
-33.91
-38.16
-42.25
-46.21
-50.20
-54.46
-59.33
-65.15
-72.03
-79.70
-87.35
-93.62
-96.94
-95.94
-89.93
-79.15
-64.67
-48.00
-30.66
-13.81
1.82
15.85
28.05
38.24
46.30
52.22
56.14
58.36
59.25
59.21
58.59
57.61
56.45
55.18
53.86
52.61
51.57
50.95
50.86
51.24
51.86
52.31
52.22
51.38
49.83
47.78
45.55
43.35
41.29
39.30
37.30
35.21
33.00
30.77
28.59
26.55
24.73
23.14
21.72
20.42
19.11
17.71
16.18
14.50
12.74
10.97
9.23
7.55
5.92
4.30
2.64
0.94
-0.80
-2.52
-4.20
-5.84
-7.54
-9.41
-11.54
-13.94
-16.51
-19.13
-21.72
-24.33
-27.12
-30.28
-33.96
-38.08
-42.49
-46.90
-51.12
-55.04
-58.68
-62.20
-65.88
-70.15
-75.44
-82.06
-89.89
-98.13
-105.34
-109.70
-109.57
-104.04
-93.20
-78.10
-60.31
-41.46
-22.85
-5.33
10.56
24.46
36.10
45.28
51.98
56.38
58.83
59.80
59.68
58.82
57.46
55.77
53.93
52.11
50.48
49.16
48.20
47.53
46.97
46.29
45.26
43.75
41.72
39.22
36.41
33.46
30.56
27.81
25.28
22.90
20.58
18.22
15.80
13.36
11.04
8.96
7.24
5.96
5.18
4.94
5.22
5.97
7.01
8.16
9.24
10.15
10.91
11.54
12.04
12.28
12.12
11.43
10.23
8.70
7.06
5.50
4.05
2.59
1.01
-0.73
-2.54
-4.25
-5.77
-7.21
-8.84
-11.04
-14.12
-18.17
-23.07
-28.52
-34.18
-39.75
-45.03
-49.90
-54.34
-58.43
-62.44
-66.77
-71.89
-78.11
-85.25
-92.51
-98.42
-101.25
-99.55
-92.68
-81.03
-65.90
-49.01
-31.98
-15.93
-1.46
11.25
22.19
31.40
38.94
44.92
49.52
52.91
55.13
56.12
55.74
53.92
50.83
46.89
42.70
38.88
35.91
34.03
33.16
32.98
33.00
32.75
31.93
30.53
28.80
27.14
25.89
25.20
24.97
24.98
24.99
24.89
24.65
24.31
23.83
23.17
22.22
20.96
19.51
18.00
16.57
15.23
13.83
12.13
9.89
6.99
3.50
-0.36
-4.30
-8.10
-11.70
-15.15
-18.58
-22.07
-25.59
-28.98
-32.10
-34.97
-37.75
-40.78
-44.43
-48.98
-54.60
-61.31
-69.01
-77.35
-85.57
-92.47
-96.51
-96.14
-90.36
-79.13
-63.52
-45.38
-26.77
-9.42
5.69
18.21
28.24
35.96
41.46
44.77
46.01
45.54
43.94
41.81
39.61
37.53
35.53
33.56
31.70
30.21
29.38
29.36
30.01
30.90
31.56
31.61
31.01
29.89
28.45
26.75
24.70
22.15
18.99
15.30
11.30
7.23
3.31
-0.33
-3.58
-6.32
-8.41
-9.80
-10.56
-10.93
-11.30
-11.97
-13.09
-14.60
-16.26
-17.77
-18.99
-19.93
-20.85
-22.04
-23.76
-26.09
-28.88
-31.88
-34.83
-37.57
-40.11
-42.64
-45.51
-49.08
-53.70
-59.52
-66.26
-73.10
-78.63
-81.12
-78.97
-71.28
-58.21
-41.01
-21.56
-1.82
16.65
32.97
46.81
58.14
67.05
73.60
77.90
80.23
81.03
80.74
79.72
78.03
75.61
72.34
68.31
63.95
59.91
56.89
55.36
55.35
56.42
57.94
59.28
60.06
60.12
59.43
57.97
55.68
52.51
48.56
44.10
39.57
35.36
31.72
28.68
26.19
24.17
22.59
21.41
20.63
20.31
20.49
21.28
22.83
25.27
28.66
32.85
37.61
42.74
48.21
53.85
59.30
64.09
67.80
70.29
71.58
71.97
71.90
72.05
72.50
72.73
71.75
68.55
62.48
53.09
40.64
26.23
11.94
-1.02
-12.67
-24.38
-37.63
-52.98
-70.32
-87.95
-102.80
-110.63
-109.22
-98.62
-80.97
-58.95
-35.24
-13.96
0.75
6.03
2.37
-8.53
-23.67
-40.29
-56.28
-67.00
-70.99
-69.73
-72.85
-80.77
-90.04
-93.31
-88.03
-75.70
-60.79
-51.07
-52.77
-67.89
-92.82
-122.63
-153.03
-181.97
-208.52
-221.24
-213.19
-184.92
-144.37
-100.20
-58.64
-22.59
6.64
29.05
45.47
55.26
58.52
56.73
53.17
50.51
49.99
51.21
53.34
55.67
56.48
54.74
50.69
45.95
42.14
40.02
39.44
39.90
40.89
41.28
40.31
37.99
35.15
32.70
31.17
30.58
30.73
31.38
31.92
31.98
31.50
30.79
30.27
30.21
30.66
31.59
32.87
34.17
35.28
36.05
36.45
36.47
36.04
35.07
33.42
30.99
27.48
23.07
17.87
12.05
5.82
-0.56
-6.82
-12.70
-17.41
-21.24
-24.12
-26.11
-27.27
-27.72
-27.58
-26.95
-25.91
-24.53
-23.01
-21.39
-19.78
-18.27
-16.90
-15.66
-14.50
-13.59
-12.63
-11.66
-10.68
-9.79
-9.10
-8.65
-8.43
-8.30
-8.10
-7.65
-7.00
-6.26
-5.70
-5.58
-6.04
-7.03
-8.20
-9.14
-9.48
-9.20
-8.58
-8.22
-8.70
-10.34
-12.99
-16.02
-18.60
-20.05
-20.24
-19.70
-19.42
-20.42
-23.25
-27.68
-32.73
-37.14
-39.98
-41.00
-40.77
-40.42
-41.06
-43.55
-48.47
-56.03
-65.68
-75.62
-82.54
-82.36
-71.83
-50.40
-21.11
10.12
36.75
54.22
61.58
61.17
56.80
51.63
46.98
42.54
37.52
31.86
26.36
22.23
20.05
19.39
19.00
17.48
13.97
8.61
2.40
-3.39
-7.77
-10.46
-11.98
-13.28
-15.34
-18.60
-22.85
-27.28
-30.89
-32.87
-32.84
-30.96
-27.72
-23.66
-19.18
-14.43
-9.28
-3.59
2.63
9.16
15.57
21.35
26.09
29.49
31.47
32.14
31.67
30.30
28.23
25.64
22.68
19.47
16.08
12.56
8.93
5.27
1.64
-1.85
-5.01
-7.72
-9.86
-11.44
-12.59
-13.51
-14.35
-15.18
-15.95
-16.49
-16.64
-16.32
-15.70
-15.18
-15.31
-16.36
-18.38
-21.06
-23.80
-25.89
-26.91
-26.88
-26.35
-26.24
-27.02
-28.85
-31.31
-33.46
-34.28
-33.04
-29.72
-25.07
-20.24
-15.89
-12.33
-9.21
-5.57
-0.02
9.19
24.12
46.81
75.19
106.52
135.95
157.22
164.91
156.88
135.87
108.91
84.51
69.19
65.44
70.90
80.45
88.92
93.21
92.57
87.73
79.58
68.70
55.96
42.52
29.86
19.08
10.24
1.97
-7.74
-20.37
-35.57
-50.60
-61.49
-64.58
-58.18
-43.46
-24.00
-4.39
11.50
21.82
27.02
28.79
28.87
27.91
25.30
19.72
10.19
-3.14
-18.81
-34.41
-47.56
-56.77
-62.05
-64.99
-68.18
-74.26
-84.83
-99.84
-117.62
-135.61
-151.18
-162.46
-168.45
-168.86
-163.72
-152.96
-136.59
-114.91
-89.04
-61.08
-34.09
-11.48
3.91
10.80
10.06
4.41
-2.64
-8.07
-10.27
-9.01
-4.76
2.17
11.86
24.38
39.13
54.47
68.10
77.93
82.87
83.33
80.93
77.83
75.98
76.42
78.93
81.98
83.24
80.69
73.64
63.28
52.23
43.18
37.08
32.44
25.85
13.95
-4.52
-27.68
-51.25
-70.40
-81.74
-84.13
-78.29
-65.67
-47.54
-25.04
0.07
24.78
45.02
56.85
58.16
49.77
35.28
19.60
6.76
-1.59
-6.30
-9.78
-14.30
-20.52
-27.50
-33.59
-37.85
-40.71
-43.58
-47.54
-52.26
-55.87
-56.00
-51.38
-42.80
-32.85
-24.65
-20.05
-18.55
-17.20
-12.01
0.10
19.46
43.21
66.41
84.13
93.63
95.42
92.59
89.08
87.80
89.67
94.15
100.44
108.52
119.20
133.22
150.34
168.97
187.00
202.69
215.38
225.04
231.64
234.75
233.80
228.68
220.31
210.48
201.10
193.37
187.46
182.74
178.35
173.60
167.73
159.60
147.45
129.52
105.21
75.99
45.28
17.16
-5.60
-22.97
-37.63
-53.55
-74.02
-100.01
-129.83
-160.42
-189.04
-214.93
-239.95
-267.97
-303.24
-348.25
-401.86
-458.62
-509.58
-544.73
-555.86
-538.89
-495.06
-430.74
-356.19
-283.44
-223.59
-184.06
-166.37
-165.72
-172.46
-175.34
-165.28
-137.91
-94.16
-39.03
20.46
76.95
123.78
156.07
172.09
174.29
169.57
167.74
178.46
207.62
254.88
313.11
370.51
414.31
434.80
427.98
396.14
346.40
287.81
228.31
172.56
121.84
75.56
32.94
-5.93
-40.33
-69.75
-93.90
-111.90
-122.84
-126.32
-122.84
-113.53
-99.77
-83.11
-65.41
-48.32
-33.39
-21.71
-13.58
-8.30
-4.45
-0.53
4.46
10.39
16.90
23.03
27.72
30.25
30.43
28.59
25.26
20.82
14.69
6.89
-2.91
-15.00
-29.43
-45.85
-63.62
-81.92
-97.94
-111.58
-122.39
-130.55
-136.31
-139.89
-141.37
-140.70
-137.69
-132.14
-126.44
-119.11
-109.36
-96.89
-81.81
-64.49
-45.52
-25.61
-4.35
16.18
34.98
51.16
64.27
74.23
81.24
85.71
88.16
89.07
88.63
87.64
86.42
85.16
83.93
82.63
81.23
79.66
77.91
75.76
73.47
71.12
68.71
66.28
63.65
60.81
57.68
54.20
50.22
45.75
40.78
35.31
29.48
23.29
17.08
11.26
6.17
2.25
-0.40
-1.87
-2.49
-2.69
-3.24
-4.53
-6.82
-10.24
-14.46
-19.36
-24.63
-29.98
-33.20
-34.68
-34.23
-31.43
-27.71
-21.64
-12.69
-0.85
13.08
28.15
43.14
57.43
70.67
82.72
93.94
104.33
113.90
121.94
127.73
130.74
131.27
130.21
128.73
128.26
129.53
132.63
136.19
138.01
136.22
130.05
119.72
105.93
89.03
67.98
45.98
22.69
-4.39
-37.07
-75.35
-117.26
-159.76
-199.80
-234.98
-264.96
-291.41
-318.56
-350.03
-388.02
-433.10
-483.92
-536.89
-585.17
-621.04
-637.37
-632.59
-609.04
-572.78
-531.69
-492.84
-460.81
-436.09
-418.40
-388.46
-337.91
-269.28
-194.21
-125.58
-70.41
-35.69
-13.68
1.94
14.86
23.46
26.26
24.24
19.57
15.63
15.43
21.63
33.63
50.74
69.19
85.36
96.68
102.48
104.20
104.32
106.19
111.27
122.95
141.66
165.94
192.79
219.28
244.05
267.40
291.06
315.91
346.71
385.45
430.54
476.95
518.73
551.86
575.28
590.90
602.01
619.06
651.02
701.89
768.37
841.22
908.19
957.56
981.47
939.51
814.20
616.89
385.27
162.80
-21.97
-161.67
-262.56
-334.70
-387.03
-420.35
-435.40
-435.41
-425.81
-410.49
-389.89
-363.99
-332.75
-298.88
-263.37
-229.30
-201.01
-186.42
-186.63
-198.39
-216.82
-237.47
-257.52
-272.57
-279.39
-276.96
-267.14
-252.92
-238.22
-226.30
-218.83
-215.61
-213.75
-210.02
-202.14
-189.61
-173.03
-153.34
-131.82
-109.28
-85.96
-61.15
-34.14
-4.79
24.63
52.60
77.39
97.35
111.50
119.72
122.63
121.41
117.34
111.52
105.20
98.97
92.88
86.82
80.73
74.64
68.69
63.01
57.54
52.59
48.23
44.36
40.84
37.58
34.51
31.62
28.88
26.15
23.61
21.36
19.30
17.35
15.35
13.16
10.56
8.24
5.32
1.61
-2.89
-8.17
-14.07
-20.43
-26.99
-33.50
-39.71
-45.46
-50.43
-54.35
-57.07
-58.49
-58.47
-57.06
-54.58
-51.57
-48.54
-45.82
-43.59
-41.96
-40.94
-40.42
-40.34
-40.79
-42.08
-44.22
-47.10
-50.50
-54.14
-57.74
-60.77
-63.02
-64.85
-67.13
-70.23
-74.32
-79.18
-84.30
-89.05
-91.93
-92.21
-90.59
-88.93
-88.54
-89.96
-92.66
-95.24
-95.91
-90.81
-77.31
-54.91
-29.68
-5.76
14.76
32.07
47.95
64.70
87.46
118.78
156.80
196.16
231.86
261.22
284.47
303.77
321.95
346.21
381.57
428.47
482.35
536.38
582.64
613.09
620.72
573.77
461.65
301.44
130.48
-16.84
-124.46
-194.03
-235.76
-260.16
-274.12
-276.21
-265.00
-243.17
-217.73
-195.92
-181.75
-175.20
-173.53
-173.14
-167.68
-153.76
-132.56
-108.96
-88.10
-72.81
-63.16
-57.48
-54.17
-49.35
-41.25
-31.01
-21.90
-17.20
-18.50
-25.37
-35.11
-45.79
-54.60
-59.84
-61.40
-60.49
-58.59
-56.67
-54.97
-53.24
-51.32
-48.60
-44.89
-40.44
-35.87
-31.74
-28.37
-25.75
-23.69
-22.12
-20.85
-19.85
-19.06
-18.41
-17.85
-17.33
-16.82
-16.39
-16.11
-15.99
-16.08
-16.30
-16.59
-16.86
-17.10
-17.39
-17.86
-18.66
-19.90
-21.62
-23.67
-25.78
-27.64
-29.00
-29.76
-30.36
-30.96
-31.28
-31.06
-29.90
-27.35
-23.10
-17.27
-10.54
-3.98
1.33
4.62
5.77
5.37
4.46
4.00
4.36
5.06
4.96
2.89
-1.80
-8.70
-16.45
-23.17
-27.55
-29.26
-29.32
-29.53
-31.54
-36.32
-43.97
-54.15
-66.31
-79.42
-91.42
-99.13
-98.78
-87.87
-66.61
-38.28
-8.41
17.63
36.88
49.69
58.41
64.96
68.86
67.30
57.63
39.43
15.71
-8.15
-26.91
-37.74
-40.99
-39.16
-35.10
-29.85
-22.96
-13.10
0.85
18.99
39.91
60.72
77.69
83.74
74.21
47.96
8.77
-35.74
-76.84
-108.50
-129.69
-143.81
-155.70
-167.38
-176.81
-179.16
-170.64
-151.74
-127.96
-107.12
-95.11
-92.97
-96.28
-98.35
-93.77
-80.84
-61.34
-38.55
-15.33
6.66
26.07
41.08
49.09
47.73
36.34
16.69
-7.54
-32.23
-54.16
-71.64
-84.07
-91.38
-93.59
-90.90
-83.92
-73.85
-62.40
-51.31
-41.68
-33.81
-27.04
-20.08
-11.50
-0.17
14.66
33.54
56.94
84.80
115.61
145.79
170.19
184.05
185.32
176.09
161.90
149.17
142.29
142.10
146.67
153.42
161.08
169.94
180.66
192.44
202.41
206.78
203.15
192.24
177.75
164.41
155.35
150.25
145.58
136.76
120.87
98.34
72.88
49.27
30.78
17.30
5.53
-8.88
-29.14
-55.57
-85.77
-115.96
-142.75
-164.54
-181.74
-196.10
-209.44
-223.00
-237.12
-251.39
-264.86
-276.18
-283.77
-286.08
-281.82
-269.78
-249.65
-222.29
-189.79
-155.08
-121.25
-90.90
-65.63
-46.06
-30.29
-15.97
-1.28
14.40
30.38
45.30
57.88
67.38
73.71
80.70
92.16
110.51
135.58
164.85
194.91
223.04
247.83
268.99
292.33
323.15
364.21
414.14
468.19
520.73
567.92
608.58
643.64
682.16
732.43
799.03
880.86
972.06
1065.40
1155.58
1240.44
1275.24
1228.14
1085.75
862.64
595.42
324.20
76.81
-135.52
-313.49
-462.79
-581.72
-666.84
-715.73
-730.84
-720.62
-696.83
-670.59
-649.51
-636.76
-626.30
-610.43
-583.56
-545.05
-499.44
-453.67
-414.01
-384.21
-364.99
-351.23
-336.93
-317.55
-291.79
-261.71
-230.64
-201.37
-175.20
-152.19
-130.40
-108.48
-86.44
-65.13
-47.16
-34.49
-27.68
-25.97
-28.01
-31.86
-36.08
-39.97
-43.38
-46.44
-48.94
-50.23
-49.47
-46.14
-40.24
-32.36
-23.43
-14.54
-6.61
-0.12
4.81
8.31
10.63
12.19
13.51
15.11
17.26
19.73
22.01
23.31
22.88
20.30
15.89
10.51
5.38
1.79
0.78
3.03
8.56
17.54
28.69
39.79
48.33
52.32
51.09
45.44
37.26
28.66
21.13
15.05
10.05
5.52
1.03
-3.48
-7.91
-12.23
-16.57
-21.12
-26.06
-31.34
-36.66
-41.67
-46.17
-50.30
-54.61
-59.91
-66.99
-76.21
-87.08
-98.12
-107.18
-112.07
-111.30
-104.68
-93.27
-79.02
-63.98
-49.72
-36.97
-25.84
-16.11
-7.65
-0.45
5.37
9.71
12.57
14.10
14.54
14.19
13.40
12.52
11.88
11.72
12.07
12.80
13.68
14.58
15.54
16.71
18.26
20.23
22.40
24.35
25.60
25.75
24.67
22.50
19.58
16.31
13.01
9.81
6.63
3.34
-0.13
-3.67
-7.01
-9.89
-12.28
-14.48
-16.97
-20.23
-24.41
-29.22
-34.05
-38.21
-41.33
-43.45
-45.02
-46.66
-48.92
-51.97
-55.68
-59.60
-63.19
-66.10
-68.22
-69.77
-71.13
-72.80
-75.17
-78.53
-82.98
-88.29
-93.86
-98.57
-100.98
-99.58
-93.31
-81.86
-65.88
-46.77
-26.22
-5.86
13.11
29.89
44.02
55.21
63.37
68.68
71.78
73.79
76.10
79.88
85.53
92.40
98.96
103.40
104.52
102.35
98.22
94.20
92.20
93.08
96.35
100.46
103.62
104.57
102.99
99.48
95.18
91.36
89.14
89.44
92.75
98.73
105.73
110.76
110.28
101.57
84.32
61.27
37.50
18.49
7.96
6.48
11.72
19.79
27.02
31.25
31.85
29.11
23.41
14.77
3.11
-11.25
-27.30
-43.56
-58.52
-71.31
-82.01
-91.56
-101.21
-111.97
-124.02
-136.58
-148.13
-156.76
-160.77
-159.08
-151.58
-139.16
-123.38
-106.00
-88.47
-71.59
-55.51
-40.10
-25.31
-11.48
0.62
10.21
16.75
20.35
21.64
21.60
21.19
21.07
21.59
22.79
24.67
27.14
30.14
33.57
37.18
40.64
43.56
45.64
46.65
46.58
45.43
43.28
40.20
36.24
31.51
26.19
20.51
14.74
9.09
3.66
-1.64
-6.97
-12.53
-18.33
-24.23
-29.90
-34.95
-39.11
-42.35
-44.90
-47.18
-49.74
-53.14
-57.81
-63.86
-70.89
-77.84
-83.15
-85.05
-82.15
-73.90
-60.81
-44.32
-26.28
-8.43
8.02
22.39
34.41
43.94
50.88
55.14
56.81
56.28
54.20
51.33
48.41
46.05
44.78
44.96
46.82
50.25
54.74
59.49
63.58
66.29
67.31
66.77
65.04
62.48
59.29
55.48
51.05
46.09
40.88
35.74
30.95
26.58
22.51
18.57
14.63
10.68
6.86
3.37
0.29
-2.46
-5.09
-7.90
-11.17
-15.06
-19.55
-24.50
-29.61
-34.60
-39.18
-43.14
-46.48
-49.36
-52.05
-54.89
-58.21
-62.24
-66.95
-71.94
-76.28
-78.67
-77.62
-71.96
-61.32
-46.29
-28.39
-9.57
8.41
24.34
37.66
48.28
56.27
61.63
64.44
64.95
63.65
61.28
58.57
55.94
53.48
51.01
48.37
45.64
43.15
41.21
39.93
39.05
38.07
36.46
33.93
30.50
26.51
22.33
18.38
15.01
12.62
11.57
12.10
14.08
16.94
19.87
22.07
23.07
22.92
22.02
20.88
19.89
19.11
18.38
17.53
16.49
15.35
14.24
13.20
12.18
11.02
9.63
8.04
6.42
4.97
3.78
2.77
1.65
0.12
-2.07
-4.98
-8.44
-12.14
-15.73
-18.97
-21.77
-24.29
-26.81
-29.64
-32.97
-36.78
-40.90
-45.02
-48.83
-52.14
-54.91
-57.33
-59.80
-62.82
-66.90
-72.25
-78.56
-84.82
-89.49
-90.80
-87.32
-78.51
-64.87
-47.85
-29.35
-11.18
5.38
19.59
31.23
40.26
46.79
50.96
53.09
53.57
52.92
51.58
49.88
48.02
46.12
44.35
42.94
42.08
41.89
42.30
43.09
43.96
44.65
44.96
44.76
43.98
42.51
40.30
37.38
33.93
30.28
26.79
23.78
21.35
19.43
17.83
16.37
14.93
13.52
12.20
11.02
9.95
8.87
7.64
6.14
4.38
2.45
0.57
-1.14
-2.63
-4.04
-5.59
-7.46
-9.67
-12.06
-14.38
-16.43
-18.24
-20.08
-22.33
-25.23
-28.80
-32.79
-36.81
-40.50
-43.69
-46.46
-49.05
-51.82
-55.06
-59.04
-63.83
-69.20
-74.53
-78.77
-80.64
-78.92
-72.94
-62.85
-49.71
-35.18
-20.94
-8.27
2.26
10.62
17.07
21.74
24.54
25.25
23.77
20.36
15.72
10.75
6.39
3.33
1.97
2.47
4.87
9.12
15.16
22.75
31.36
40.21
48.35
54.90
59.24
61.20
61.02
59.25
56.53
53.35
50.05
46.69
43.22
39.54
35.65
31.67
27.81
24.34
21.44
19.17
17.39
15.79
14.02
11.76
8.82
5.21
1.11
-3.19
-7.40
-11.36
-15.00
-18.45
-21.90
-25.56
-29.52
-33.68
-37.78
-41.47
-44.53
-47.00
-49.17
-51.59
-54.86
-59.41
-65.26
-71.91
-78.31
-83.07
-84.69
-81.97
-74.40
-62.37
-47.13
-30.50
-14.32
-0.07
11.47
20.14
26.27
30.35
32.86
34.19
34.68
34.68
34.59
34.72
35.26
36.23
37.48
38.80
40.00
40.97
41.71
42.30
42.81
43.25
43.53
43.46
42.88
41.69
39.97
37.86
35.56
33.23
30.94
28.68
26.42
24.13
21.84
19.63
17.58
15.74
14.12
12.68
11.44
10.35
9.43
8.66
7.97
7.34
6.67
5.84
4.77
3.44
1.86
0.15
-1.60
-3.27
-4.79
-6.16
-7.38
-8.51
-9.58
-10.71
-11.98
-13.51
-15.30
-17.31
-19.44
-21.65
-24.01
-26.71
-30.01
-34.03
-38.68
-43.59
-48.23
-52.15
-55.20
-57.56
-59.78
-62.60
-66.75
-72.76
-80.61
-89.56
-98.04
-104.03
-105.54
-101.29
-91.17
-76.23
-58.31
-39.31
-20.67
-3.15
13.03
27.87
41.26
52.97
62.75
70.43
76.03
79.74
81.82
82.53
82.13
80.81
78.81
76.44
74.01
71.86
70.18
69.01
68.20
67.36
66.05
63.91
60.83
56.93
52.52
48.02
43.75
39.89
36.42
33.21
30.12
27.02
23.87
20.77
17.82
15.17
12.89
10.99
9.31
7.68
5.89
3.82
1.46
-1.07
-3.62
-6.00
-8.13
-10.04
-11.84
-13.70
-15.75
-18.05
-20.51
-22.99
-25.30
-27.35
-29.18
-30.93
-32.72
-34.61
-36.48
-38.10
-39.27
-39.87
-40.03
-40.13
-40.63
-41.95
-44.24
-47.33
-50.80
-54.15
-57.00
-59.19
-60.88
-62.46
-64.40
-67.16
-71.04
-75.97
-81.43
-86.32
-89.13
-88.32
-82.80
-72.39
-57.94
-41.07
-23.66
-7.33
6.93
18.73
28.14
35.40
40.73
44.31
46.31
46.99
46.69
45.80
44.66
43.55
42.67
42.09
41.80
41.80
42.07
42.60
43.35
44.18
44.84
45.02
44.44
42.98
40.72
37.92
34.84
31.69
28.56
25.42
22.26
19.09
15.98
13.02
10.23
7.59
5.01
2.40
-0.27
-2.99
-5.71
-8.33
-10.80
-13.13
-15.36
-17.66
-20.19
-23.11
-26.47
-30.22
-34.19
-38.16
-41.94
-45.44
-48.65
-51.74
-55.03
-59.02
-64.20
-70.81
-78.63
-86.76
-93.74
-97.83
-97.54
-92.04
-81.42
-66.59
-48.92
-29.93
-10.88
7.24
23.79
38.34
50.54
60.15
67.07
71.37
73.32
73.41
72.22
70.34
68.21
66.13
64.22
62.52
61.04
59.85
59.00
58.46
58.08
57.61
56.77
55.37
53.34
50.78
47.82
44.66
41.42
38.18
35.00
31.88
28.87
26.01
23.39
21.01
18.88
16.92
15.02
13.09
11.08
9.06
7.12
5.42
3.94
2.59
1.16
-0.55
-2.66
-5.17
-7.99
-11.02
-14.20
-17.52
-21.09
-25.05
-29.60
-34.86
-40.90
-47.55
-54.47
-61.19
-67.29
-72.56
-77.10
-81.32
-85.80
-91.00
-97.04
-103.47
-109.20
-112.65
-112.15
-106.51
-95.47
-79.83
-61.35
-42.09
-23.85
-7.70
6.05
17.56
27.12
34.82
40.65
44.54
46.68
47.52
47.66
47.64
47.70
47.83
47.82
47.50
46.92
46.30
45.99
46.17
46.80
47.55
47.97
47.70
46.59
44.75
42.38
39.77
37.16
34.67
32.39
30.31
28.40
26.55
24.68
22.74
20.72
18.71
16.82
15.12
13.64
12.35
11.20
10.18
9.32
8.61
8.03
7.51
6.96
6.34
5.67
4.93
4.13
3.23
2.21
1.10
-0.04
-1.11
-2.09
-3.08
-4.30
-5.96
-8.26
-11.25
-14.85
-18.82
-22.83
-26.57
-29.85
-32.69
-35.35
-38.25
-41.76
-46.02
-50.84
-55.81
-60.41
-64.28
-67.29
-69.59
-71.58
-73.70
-76.42
-80.09
-84.63
-89.43
-93.24
-94.45
-91.57
-83.76
-71.18
-55.01
-37.01
-19.00
-2.38
12.03
23.96
33.50
40.93
46.63
51.03
54.54
57.49
60.01
62.16
63.87
65.11
65.88
66.18
66.06
65.56
64.76
63.77
62.70
61.60
60.37
58.84
56.85
54.35
51.46
48.39
45.31
42.28
39.27
36.19
33.05
29.92
26.91
24.08
21.38
18.72
16.05
13.38
10.82
8.51
6.52
4.84
3.38
1.98
0.49
-1.22
-3.22
-5.53
-8.10
-10.84
-13.62
-16.33
-18.90
-21.38
-23.90
-26.60
-29.62
-32.94
-36.46
-39.97
-43.19
-45.92
-48.15
-50.07
-52.09
-54.70
-58.28
-62.88
-68.06
-72.80
-75.73
-75.46
-71.09
-62.44
-50.17
-35.55
-20.12
-5.28
7.97
19.05
27.78
34.16
38.31
40.43
40.84
39.90
38.03
35.70
33.27
30.97
28.81
26.63
24.20
21.40
18.25
14.93
11.74
8.87
6.46
4.54
3.09
2.19
2.03
2.88
4.91
8.14
12.27
16.88
21.40
25.25
27.97
29.27
29.06
27.47
24.78
21.37
17.67
14.06
10.70
7.58
4.44
0.95
-3.11
-7.80
-12.99
-18.38
-23.60
-28.39
-32.57
-36.22
-39.59
-43.09
-47.14
-51.97
-57.37
-62.58
-66.38
-67.25
-64.05
-56.27
-44.34
-29.46
-13.29
2.57
16.94
29.16
39.09
46.81
52.57
56.59
59.12
60.37
60.56
59.90
58.55
56.69
54.49
52.11
49.73
47.46
45.41
43.62
42.10
40.85
39.87
39.06
38.30
37.45
36.41
35.18
33.83
32.48
31.15
29.76
28.06
25.84
23.05
19.90
16.88
14.45
12.96
12.39
12.43
12.67
12.69
12.30
11.49
10.36
9.05
7.64
6.15
4.52
2.73
0.80
-1.21
-3.17
-4.95
-6.43
-7.58
-8.42
-9.02
-9.45
-9.78
-10.09
-10.45
-10.91
-11.51
-12.28
-13.26
-14.49
-16.04
-17.98
-20.28
-22.80
-25.39
-27.88
-30.24
-32.61
-35.28
-38.52
-42.45
-46.92
-51.58
-56.02
-59.85
-62.87
-65.13
-66.84
-68.36
-70.08
-72.46
-75.85
-80.32
-85.43
-90.11
-92.73
-91.64
-85.64
-74.46
-58.97
-40.87
-22.06
-4.17
11.80
25.50
36.95
46.25
53.48
58.69
62.02
63.77
64.36
64.23
63.78
63.19
62.48
61.57
60.36
58.87
57.26
55.77
54.58
53.73
53.05
52.25
51.03
49.20
46.77
43.87
40.69
37.36
34.05
30.84
27.83
25.09
22.55
20.10
17.66
15.18
12.67
10.28
8.11
6.32
4.97
4.02
3.40
3.01
2.72
2.41
2.00
1.42
0.66
-0.26
-1.30
-2.42
-3.56
-4.73
-5.85
-6.90
-7.84
-8.66
-9.36
-10.01
-10.66
-11.40
-12.28
-13.25
-14.26
-15.26
-16.28
-17.36
-18.62
-20.16
-22.05
-24.31
-26.80
-29.42
-32.11
-34.84
-37.68
-40.73
-44.04
-47.61
-51.36
-55.04
-58.40
-61.23
-63.45
-65.19
-66.80
-68.70
-71.29
-74.71
-78.71
-82.59
-85.30
-85.69
-82.80
-76.12
-65.76
-52.40
-37.16
-21.26
-5.86
8.12
20.07
29.70
37.01
42.23
45.67
47.74
48.76
49.05
48.86
48.44
48.01
47.70
47.57
47.57
47.69
47.84
48.03
48.26
48.50
48.73
48.78
48.48
47.67
46.25
44.20
41.56
38.48
35.10
31.60
28.10
24.72
21.54
18.65
16.06
13.78
11.83
10.10
8.53
6.98
5.36
3.57
1.56
-0.68
-3.17
-5.93
-9.01
-12.35
-15.79
-19.06
-21.90
-24.15
-25.83
-27.17
-28.53
-30.21
-32.37
-34.96
-37.82
-40.76
-43.75
-46.83
-50.19
-54.10
-58.72
-64.05
-69.81
-75.47
-80.18
-82.93
-82.67
-78.63
-70.53
-58.68
-44.00
-27.75
-11.36
3.96
17.27
28.13
36.47
42.48
46.57
49.09
50.39
50.70
50.24
49.22
47.83
46.31
44.80
43.46
42.32
41.46
40.98
40.98
41.44
42.21
42.98
43.37
43.12
42.12
40.47
38.47
36.35
34.27
32.24
30.17
27.95
25.54
22.96
20.33
17.81
15.48
13.45
11.73
10.33
9.19
8.26
7.43
6.62
5.74
4.71
3.51
2.10
0.56
-1.07
-2.67
-4.20
-5.60
-6.87
-8.07
-9.28
-10.58
-12.07
-13.85
-15.98
-18.52
-21.42
-24.50
-27.57
-30.48
-33.17
-35.74
-38.36
-41.18
-44.23
-47.43
-50.61
-53.62
-56.43
-59.14
-61.98
-65.28
-69.34
-74.38
-80.40
-86.93
-93.08
-97.47
-98.59
-95.17
-86.67
-73.43
-56.60
-37.88
-19.04
-1.50
13.77
26.35
36.18
43.42
48.44
51.67
53.53
54.47
54.87
54.97
54.88
54.62
54.15
53.45
52.63
51.85
51.35
51.30
51.69
52.37
53.07
53.41
53.14
52.12
50.37
48.11
45.60
43.09
40.85
38.97
37.35
35.82
34.18
32.29
30.16
27.91
25.67
23.55
21.63
19.84
18.15
16.50
14.86
13.30
11.88
10.66
9.69
8.93
8.24
7.50
6.58
5.42
4.11
2.72
1.30
-0.13
-1.61
-3.15
-4.68
-6.13
-7.45
-8.58
-9.59
-10.58
-11.67
-12.93
-14.42
-16.06
-17.82
-19.72
-21.76
-24.02
-26.66
-29.77
-33.39
-37.31
-41.11
-44.40
-47.01
-49.22
-51.75
-55.62
-61.58
-69.90
-80.10
-91.07
-101.33
-109.32
-113.68
-113.36
-107.86
-97.18
-82.07
-63.75
-43.83
-23.93
-5.36
10.98
24.62
35.50
43.89
50.13
54.70
57.97
60.17
61.41
61.68
61.06
59.82
58.31
56.89
55.80
55.10
54.67
54.38
54.09
53.79
53.45
53.03
52.44
51.53
50.26
48.63
46.79
44.90
43.10
41.42
39.78
38.01
36.00
33.67
31.04
28.26
25.50
22.92
20.61
18.56
16.66
14.84
13.04
11.27
9.63
8.18
6.87
5.58
4.10
2.28
0.12
-2.21
-4.45
-6.36
-7.86
-9.01
-9.99
-10.99
-12.11
-13.37
-14.73
-16.20
-17.81
-19.67
-21.87
-24.45
-27.37
-30.53
-33.72
-36.78
-39.63
-42.32
-44.99
-47.88
-51.13
-54.89
-59.18
-63.99
-69.28
-74.84
-80.12
-84.16
-85.70
-83.54
-77.00
-66.26
-52.33
-36.81
-21.27
-6.91
5.71
16.44
25.34
32.50
37.88
41.49
43.41
43.90
43.38
42.27
40.91
39.52
38.20
37.03
36.12
35.62
35.67
36.35
37.50
38.85
39.98
40.57
40.41
39.51
37.94
35.83
33.28
30.34
27.13
23.78
20.52
17.50
14.81
12.43
10.36
8.59
7.11
5.92
4.97
4.15
3.31
2.38
1.32
0.10
-1.33
-3.03
-5.00
-7.14
-9.24
-11.13
-12.70
-14.05
-15.43
-17.05
-19.01
-21.23
-23.59
-26.00
-28.58
-31.49
-34.94
-38.98
-43.41
-47.89
-51.96
-55.27
-57.67
-59.31
-60.53
-61.93
-64.07
-67.35
-71.87
-77.13
-82.11
-85.38
-85.49
-81.40
-72.78
-60.18
-44.80
-28.13
-11.60
3.77
17.32
28.74
37.91
44.90
49.86
53.07
54.88
55.70
55.83
55.50
54.84
53.80
52.41
50.67
48.73
46.79
45.15
44.05
43.60
43.74
44.21
44.67
44.81
44.43
43.49
42.09
40.41
38.58
36.72
34.88
33.02
31.10
29.07
26.94
24.74
22.48
20.23
18.05
16.01
14.17
12.56
11.14
9.89
8.72
7.61
6.59
5.66
4.80
3.95
3.04
1.99
0.75
-0.65
-2.19
-3.79
-5.36
-6.78
-7.90
-8.59
-8.81
-8.68
-8.47
-8.60
-9.40
-11.05
-13.46
-16.36
-19.45
-22.53
-25.55
-28.67
-32.10
-36.00
-40.38
-45.05
-49.69
-54.00
-57.71
-60.75
-63.21
-65.37
-67.65
-70.50
-74.26
-78.94
-84.06
-88.59
-91.14
-90.30
-85.05
-75.19
-61.37
-44.90
-27.40
-10.32
5.23
18.57
29.36
37.63
43.60
47.68
50.40
52.23
53.53
54.44
54.92
54.84
54.18
52.98
51.44
49.81
48.34
47.26
46.70
46.65
46.95
47.31
47.33
46.76
45.47
43.56
41.26
38.87
36.58
34.47
32.49
30.54
28.56
26.59
24.73
23.07
21.66
20.43
19.32
18.18
16.97
15.72
14.53
13.47
12.56
11.75
10.94
10.09
9.07
7.82
6.30
4.52
2.50
0.32
-1.94
-4.19
-6.34
-8.35
-10.24
-11.98
-13.59
-15.10
-16.60
-18.15
-19.83
-21.63
-23.54
-25.55
-27.66
-30.02
-32.74
-35.92
-39.55
-43.48
-47.44
-51.13
-54.40
-57.25
-59.95
-62.87
-66.39
-70.74
-75.86
-81.16
-85.60
-87.82
-86.46
-80.63
-70.23
-56.04
-39.53
-22.40
-6.15
8.22
20.22
29.75
36.91
41.90
44.98
46.46
46.81
46.49
45.89
45.21
44.51
43.70
42.71
41.54
40.37
39.46
39.09
39.45
40.44
41.78
43.01
43.68
43.48
42.34
40.37
37.85
35.12
32.44
29.99
27.86
26.01
24.36
22.84
21.36
19.87
18.30
16.60
14.74
12.79
10.81
8.94
7.27
5.84
4.61
3.53
2.51
1.53
0.61
-0.29
-1.27
-2.47
-4.08
-6.19
-8.75
-11.56
-14.37
-16.94
-19.22
-21.32
-23.46
-25.96
-28.99
-32.59
-36.58
-40.65
-44.44
-47.72
-50.42
-52.71
-55.00
-57.72
-61.25
-65.67
-70.71
-75.60
-79.19
-80.18
-77.44
-70.44
-59.41
-45.29
-29.51
-13.57
1.29
14.30
25.12
33.68
40.09
44.54
47.28
48.59
48.82
48.27
47.26
46.04
44.78
43.63
42.72
42.09
41.80
41.94
42.49
43.37
44.30
44.90
44.80
43.81
41.93
39.45
36.76
34.22
32.04
30.23
28.64
27.08
25.41
23.56
21.54
19.44
17.38
15.44
13.63
11.92
10.28
8.67
7.07
5.49
3.98
2.58
1.34
0.18
-1.05
-2.54
-4.50
-7.04
-10.12
-13.55
-17.10
-20.53
-23.83
-27.09
-30.50
-34.17
-38.07
-42.01
-45.69
-48.93
-51.62
-53.81
-55.70
-57.51
-59.50
-61.85
-64.76
-68.23
-71.99
-75.34
-77.19
-76.38
-71.97
-63.63
-51.72
-37.29
-21.68
-6.18
8.20
20.85
31.40
39.67
45.58
49.18
50.61
50.21
48.51
46.20
44.04
42.64
42.29
42.85
43.81
44.56
44.69
44.18
43.31
42.52
41.99
41.62
41.08
40.04
38.40
36.38
34.33
32.48
30.86
29.30
27.54
25.37
22.75
19.75
16.51
13.20
9.97
7.08
4.77
3.18
2.27
1.88
1.72
1.59
1.37
1.02
0.59
0.01
-0.77
-1.87
-3.33
-5.07
-6.94
-8.75
-10.39
-11.83
-13.21
-14.76
-16.70
-19.19
-22.22
-25.60
-29.04
-32.25
-35.10
-37.69
-40.29
-43.27
-46.85
-51.11
-55.89
-60.84
-65.55
-69.77
-73.48
-77.02
-80.97
-85.94
-92.24
-99.64
-107.17
-113.23
-116.05
-114.10
-106.76
-94.40
-78.41
-60.80
-43.70
-28.86
-17.37
-9.44
-4.48
-1.23
1.88
6.37
13.21
22.64
34.06
46.29
57.96
67.90
75.42
80.32
82.81
83.31
82.32
80.34
77.80
75.05
72.37
69.89
67.63
65.53
63.49
61.48
59.59
58.00
56.88
56.30
56.12
56.03
55.64
54.52
52.44
49.39
45.60
41.47
37.47
33.99
31.22
29.13
27.45
25.84
24.07
22.12
20.13
18.35
16.96
16.01
15.33
14.70
13.92
12.93
11.76
10.50
9.21
7.83
6.30
4.57
2.73
0.93
-0.64
-1.93
-2.94
-3.79
-4.62
-5.47
-6.38
-7.30
-8.30
-9.50
-11.05
-13.09
-15.60
-18.45
-21.43
-24.35
-27.15
-29.89
-32.76
-35.92
-39.48
-43.35
-47.32
-51.09
-54.35
-56.94
-58.87
-60.46
-62.21
-64.73
-68.40
-73.18
-78.40
-82.84
-84.95
-83.38
-77.37
-67.00
-53.20
-37.40
-21.13
-5.68
8.11
19.77
29.13
36.23
41.31
44.72
46.89
48.25
49.10
49.64
49.89
49.84
49.46
48.82
48.02
47.18
46.45
45.91
45.63
45.56
45.59
45.54
45.14
44.17
42.51
40.18
37.35
34.29
31.33
28.71
26.58
24.87
23.45
22.12
20.73
19.18
17.51
15.81
14.19
12.78
11.66
10.90
10.58
10.72
11.29
12.11
12.79
12.76
11.47
8.55
4.08
-1.42
-7.10
-12.01
-15.53
-17.44
-18.06
-17.97
-17.78
-17.95
-18.61
-19.72
-21.11
-22.70
-24.42
-26.32
-28.50
-31.02
-33.82
-36.76
-39.63
-42.19
-44.41
-46.40
-48.41
-50.75
-53.71
-57.46
-62.06
-67.29
-72.60
-77.06
-79.42
-78.32
-72.87
-62.87
-49.09
-33.02
-16.41
-0.82
12.77
23.96
32.77
39.37
43.99
46.75
47.85
47.64
46.52
44.97
43.39
41.99
40.82
39.82
38.95
38.21
37.70
37.54
37.78
38.34
39.07
39.69
39.99
39.80
39.02
37.69
35.91
33.84
31.63
29.44
27.35
25.30
23.19
20.84
18.17
15.19
12.02
8.85
5.89
3.29
1.15
-0.52
-1.83
-2.98
-4.22
-5.79
-7.80
-10.19
-12.75
-15.24
-17.45
-19.43
-21.33
-23.45
-25.97
-28.90
-32.11
-35.35
-38.41
-41.11
-43.49
-45.62
-47.77
-50.26
-53.43
-57.54
-62.49
-67.76
-72.28
-74.70
-73.71
-68.57
-59.32
-46.84
-32.55
-17.91
-4.09
8.17
18.59
27.10
33.73
38.54
41.61
43.13
43.40
42.80
41.68
40.31
38.90
37.57
36.38
35.38
34.66
34.36
34.61
35.45
36.73
38.09
39.10
39.38
38.78
37.37
35.41
33.20
30.97
28.81
26.71
24.59
22.42
20.22
18.00
15.79
13.60
11.37
9.04
6.59
4.05
1.51
-0.89
-3.00
-4.75
-6.08
-7.05
-7.80
-8.52
-9.43
-10.73
-12.43
-14.47
-16.68
-18.90
-21.10
-23.42
-26.07
-29.24
-32.94
-36.99
-41.09
-44.95
-48.39
-51.42
-54.17
-56.96
-60.14
-64.01
-68.70
-73.93
-78.95
-82.53
-83.26
-79.91
-71.91
-59.59
-44.12
-27.21
-10.59
4.45
17.19
27.45
35.41
41.30
45.36
47.85
49.05
49.38
49.32
49.19
49.11
48.95
48.45
47.45
46.03
44.46
43.20
42.60
42.77
43.50
44.35
44.76
44.34
42.93
40.64
37.81
34.81
31.95
29.44
27.33
25.50
23.85
22.26
20.63
18.94
17.20
15.43
13.74
12.16
10.75
9.57
8.62
7.88
7.26
6.66
6.00
5.28
4.57
3.97
3.53
3.21
2.85
2.30
1.46
0.29
-1.12
-2.70
-4.38
-6.18
-8.18
-10.43
-12.90
-15.50
-18.13
-20.64
-22.90
-24.81
-26.35
-27.60
-28.79
-30.25
-32.29
-35.10
-38.64
-42.62
-46.68
-50.49
-53.88
-56.90
-59.83
-63.05
-66.99
-71.79
-77.25
-82.62
-86.63
-87.84
-84.95
-77.39
-65.40
-50.16
-33.31
-16.51
-1.12
12.11
22.90
31.34
37.61
42.04
44.92
46.59
47.44
47.80
47.94
47.98
47.95
47.77
47.39
46.83
46.22
45.78
45.72
46.11
46.78
47.43
47.64
47.09
45.69
43.53
40.89
38.05
35.21
32.44
29.80
27.28
24.96
22.88
21.02
19.40
17.95
16.66
15.55
14.68
14.04
13.57
13.14
12.51
11.57
10.28
8.76
7.16
5.70
4.44
3.38
2.46
1.60
0.73
-0.19
-1.20
-2.37
-3.66
-5.03
-6.36
-7.55
-8.62
-9.70
-11.04
-12.80
-14.95
-17.30
-19.56
-21.50
-23.09
-24.51
-26.08
-28.07
-30.65
-33.77
-37.22
-40.76
-44.19
-47.33
-50.18
-52.88
-55.63
-58.79
-62.59
-67.14
-72.19
-77.06
-80.62
-81.52
-78.60
-71.21
-59.61
-44.89
-28.66
-12.65
1.76
13.79
23.24
30.34
35.53
39.19
41.64
43.11
43.77
43.83
43.46
42.77
41.86
40.82
39.66
38.51
37.55
37.01
37.11
37.93
39.29
40.84
42.04
42.44
41.81
40.22
37.96
35.49
33.17
31.13
29.26
27.32
25.05
22.41
19.51
16.53
13.68
11.11
8.86
6.87
5.08
3.41
1.88
0.47
-0.78
-1.84
-2.66
-3.30
-3.80
-4.30
-4.93
-5.80
-6.96
-8.40
-10.06
-11.93
-14.10
-16.65
-19.73
-23.39
-27.61
-32.22
-36.98
-41.60
-45.85
-49.58
-52.73
-55.40
-57.87
-60.55
-63.84
-67.97
-72.76
-77.49
-80.91
-81.65
-78.57
-71.24
-60.03
-46.04
-30.70
-15.38
-1.11
11.55
22.33
31.17
38.06
43.06
46.28
47.97
48.45
48.09
47.19
45.98
44.62
43.20
41.79
40.46
39.37
38.63
38.34
38.48
38.96
39.53
39.90
39.84
39.21
38.03
36.41
34.56
32.67
30.92
29.34
27.85
26.28
24.46
22.33
19.92
17.44
15.04
12.84
10.90
9.14
7.50
5.95
4.54
3.33
2.41
1.77
1.35
1.10
0.89
0.67
0.37
-0.06
-0.67
-1.50
-2.63
-4.11
-5.93
-8.14
-10.66
-13.46
-16.41
-19.34
-22.07
-24.48
-26.52
-28.31
-30.12
-32.22
-34.87
-38.14
-41.86
-45.71
-49.34
-52.48
-55.04
-57.18
-59.23
-61.68
-65.02
-69.54
-75.09
-80.95
-85.81
-88.03
-86.18
-79.41
-67.92
-52.83
-35.86
-18.74
-2.87
11.02
22.64
31.99
39.22
44.42
47.72
49.44
49.99
49.84
49.38
48.83
48.24
47.60
46.86
46.04
45.28
44.85
44.97
45.75
47.11
48.69
49.98
50.48
49.82
48.01
45.33
42.25
39.21
36.47
34.00
31.60
29.05
26.24
23.24
20.23
17.41
14.96
13.00
11.52
10.50
9.94
9.80
9.98
10.35
10.71
10.91
10.85
10.45
9.71
8.66
7.30
5.67
3.82
1.81
-0.25
-2.21
-3.92
-5.32
-6.43
-7.50
-8.74
-10.35
-12.43
-14.88
-17.50
-20.08
-22.49
-24.72
-26.93
-29.29
-31.90
-34.84
-38.06
-41.40
-44.71
-47.87
-50.75
-53.47
-56.21
-59.26
-62.96
-67.45
-72.61
-77.88
-82.26
-84.41
-83.06
-77.34
-67.12
-53.21
-36.98
-20.09
-4.04
10.16
22.06
31.57
38.84
44.08
47.51
49.47
50.38
50.66
50.68
50.62
50.47
50.10
49.42
48.39
47.18
46.01
45.11
44.59
44.40
44.33
44.12
43.50
42.30
40.48
38.17
35.57
32.97
30.58
28.49
26.67
25.00
23.31
21.50
19.60
17.64
15.73
13.90
12.18
10.61
9.22
8.08
7.27
6.77
6.47
6.18
5.70
4.87
3.71
2.38
1.09
-0.02
-0.96
-1.94
-3.11
-4.64
-6.51
-8.57
-10.58
-12.38
-13.92
-15.25
-16.55
-18.01
-19.82
-22.12
-24.87
-27.96
-31.11
-34.12
-36.85
-39.30
-41.63
-44.09
-46.91
-50.25
-54.20
-58.58
-62.88
-66.30
-67.75
-66.20
-61.01
-52.17
-40.42
-27.05
-13.46
-0.81
10.24
19.48
26.90
32.56
36.42
38.45
38.84
37.94
36.29
34.37
32.53
30.85
29.32
27.90
26.68
25.83
25.61
26.07
27.13
28.53
29.87
30.81
31.09
30.56
29.27
27.33
24.93
22.18
19.15
15.86
12.37
8.84
5.50
2.66
0.56
-0.67
-1.11
-1.01
-0.73
-0.60
-0.86
-1.59
-2.73
-4.07
-5.37
-6.41
-7.09
-7.51
-7.83
-8.32
-9.20
-10.56
-12.45
-14.86
-17.81
-21.35
-25.52
-30.20
-35.19
-40.09
-44.53
-48.29
-51.35
-53.92
-56.39
-59.19
-62.63
-66.85
-71.67
-76.42
-80.10
-81.45
-79.38
-73.27
-63.25
-50.16
-35.33
-20.19
-5.88
6.88
17.74
26.59
33.42
38.34
41.54
43.31
44.07
44.21
44.05
43.84
43.65
43.46
43.21
42.82
42.22
41.46
40.67
40.00
39.56
39.35
39.21
38.89
38.23
37.19
35.91
34.58
33.37
32.30
31.26
30.11
28.66
26.88
24.82
22.60
20.29
17.91
15.45
12.90
10.33
7.86
5.67
3.93
2.68
1.83
1.23
0.66
0.03
-0.74
-1.66
-2.74
-3.96
-5.31
-6.66
-7.88
-8.85
-9.53
-10.09
-10.81
-11.99
-13.80
-16.18
-18.84
-21.44
-23.80
-25.93
-28.12
-30.73
-34.03
-38.08
-42.65
-47.39
-51.90
-55.94
-59.45
-62.62
-65.81
-69.43
-73.83
-78.97
-84.36
-88.93
-91.30
-90.12
-84.49
-74.35
-60.46
-44.22
-27.19
-10.73
4.25
17.23
28.00
36.48
42.72
46.91
49.39
50.65
51.21
51.48
51.68
51.84
51.86
51.62
51.05
50.23
49.37
48.75
48.57
48.89
49.55
50.22
50.50
50.10
48.85
46.76
43.98
40.77
37.46
34.31
31.46
28.91
26.58
24.32
22.12
20.05
18.27
16.92
15.99
15.36
14.76
14.05
13.14
12.09
11.03
10.05
9.18
8.36
7.57
6.76
5.98
5.30
4.72
4.18
3.52
2.59
1.24
-0.43
-2.26
-3.94
-5.20
-5.95
-6.28
-6.54
-7.03
-8.07
-9.67
-11.73
-14.02
-16.29
-18.43
-20.42
-22.40
-24.49
-26.89
-29.71
-33.01
-36.72
-40.58
-44.23
-47.31
-49.67
-51.42
-53.00
-55.03
-58.07
-62.39
-67.63
-72.90
-76.79
-77.86
-75.00
-67.77
-56.54
-42.30
-26.44
-10.30
4.95
18.51
29.84
38.69
45.03
49.06
51.15
51.79
51.53
50.75
49.73
48.55
47.21
45.63
43.85
42.00
40.32
39.13
38.63
38.80
39.42
40.11
40.42
40.10
39.12
37.60
35.77
33.87
32.05
30.35
28.73
27.13
25.52
23.91
22.32
20.81
19.43
18.22
17.16
16.16
15.15
14.04
12.78
11.37
9.87
8.28
6.66
5.03
3.37
1.68
0.03
-1.54
-2.92
-3.99
-4.77
-5.30
-5.66
-6.06
-6.68
-7.69
-9.18
-11.08
-13.24
-15.44
-17.54
-19.48
-21.40
-23.57
-26.26
-29.64
-33.64
-37.98
-42.26
-46.06
-49.04
-51.10
-52.29
-52.97
-53.69
-55.01
-57.36
-60.77
-64.70
-68.02
-69.41
-67.57
-61.87
-52.39
-39.94
-25.73
-11.04
3.13
16.13
27.51
37.03
44.45
49.65
52.67
53.74
53.27
51.78
49.74
47.45
45.15
42.96
40.97
39.36
38.25
37.80
38.08
38.90
39.88
40.47
40.17
38.63
35.95
32.41
28.56
24.86
21.61
18.95
16.87
15.30
14.11
13.24
12.54
11.94
11.30
10.57
9.75
8.84
7.78
6.45
4.79
2.80
0.69
-1.24
-2.72
-3.50
-3.59
-3.12
-2.38
-1.65
-1.12
-0.88
-0.90
-1.16
-1.64
-2.41
-3.47
-4.79
-6.30
-7.87
-9.42
-10.93
-12.56
-14.43
-16.67
-19.21
-21.86
-24.36
-26.45
-28.06
-29.26
-30.36
-31.65
-33.42
-35.81
-38.81
-42.28
-45.90
-49.45
-52.65
-55.42
-57.78
-59.95
-62.30
-65.25
-69.14
-74.00
-79.44
-84.45
-87.72
-87.90
-84.03
-75.85
-63.89
-49.25
-33.28
-17.29
-2.25
11.24
22.82
32.39
39.96
45.67
49.75
52.52
54.28
55.39
56.04
56.25
55.90
54.77
52.76
50.04
47.07
44.50
42.84
42.18
42.25
42.47
42.22
41.21
39.42
37.02
34.27
31.37
28.39
25.44
22.70
20.30
18.35
16.85
15.61
14.47
13.25
11.88
10.43
9.02
7.77
6.75
5.98
5.38
4.89
4.42
3.94
3.43
2.86
2.20
1.42
0.51
-0.47
-1.40
-2.16
-2.67
-2.94
-3.10
-3.31
-3.69
-4.27
-5.06
-6.02
-7.19
-8.56
-10.14
-11.82
-13.45
-14.90
-16.12
-17.32
-18.76
-20.72
-23.33
-26.46
-29.78
-32.93
-35.64
-37.77
-39.33
-40.34
-40.84
-40.95
-40.90
-41.03
-41.68
-43.12
-45.41
-48.51
-52.36
-56.97
-62.29
-68.09
-73.68
-77.89
-79.34
-76.80
-69.70
-58.38
-43.99
-28.16
-12.48
1.88
14.37
24.85
33.46
40.31
45.40
48.75
50.44
50.78
50.25
49.31
48.19
47.00
45.63
44.03
42.37
41.02
40.39
40.76
42.09
43.98
45.86
47.11
47.29
46.25
44.16
41.40
38.43
35.68
33.38
31.58
30.13
28.79
27.34
25.62
23.62
21.40
19.09
16.84
14.79
13.09
11.80
10.87
10.11
9.35
8.45
7.37
6.23
5.14
4.27
3.64
3.28
3.09
2.94
2.66
2.06
1.00
-0.51
-2.28
-4.07
-5.62
-6.86
-7.91
-9.01
-10.45
-12.38
-14.72
-17.27
-19.77
-22.02
-24.03
-26.01
-28.22
-30.99
-34.42
-38.39
-42.61
-46.72
-50.38
-53.42
-55.88
-57.91
-59.85
-62.02
-64.76
-68.24
-72.32
-76.40
-79.40
-79.96
-76.82
-69.34
-57.62
-42.62
-25.85
-8.86
7.00
20.81
32.07
40.62
46.48
50.01
51.64
51.94
51.45
50.58
49.51
48.28
46.91
45.46
44.05
42.83
41.97
41.64
41.96
42.98
44.54
46.24
47.55
47.96
47.18
45.32
42.77
40.08
37.69
35.82
34.31
32.83
31.03
28.64
25.65
22.24
18.74
15.54
12.91
10.95
9.52
8.39
7.29
6.03
4.57
2.91
1.15
-0.63
-2.34
-3.97
-5.52
-7.06
-8.65
-10.44
-12.52
-14.91
-17.64
-20.67
-23.97
-27.58
-31.52
-35.72
-39.98
-44.03
-47.56
-50.42
-52.63
-54.44
-56.28
-58.59
-61.68
-65.66
-70.34
-75.17
-79.17
-81.15
-79.98
-74.89
-65.78
-53.20
-38.30
-22.43
-6.83
7.51
20.04
30.48
38.70
44.75
48.72
50.80
51.31
50.69
49.45
48.00
46.62
45.39
44.29
43.24
42.29
41.64
41.54
42.12
43.25
44.53
45.40
45.30
43.96
41.44
38.12
34.51
31.06
28.02
25.46
23.27
21.28
19.35
17.40
15.38
13.24
10.96
8.56
6.12
3.84
1.90
0.46
-0.48
-1.03
-1.38
-1.65
-1.92
-2.17
-2.46
-3.03
-4.08
-5.87
-8.40
-11.40
-14.52
-17.37
-19.81
-21.96
-24.20
-26.80
-29.95
-33.53
-37.16
-40.47
-43.21
-45.33
-47.02
-48.61
-50.38
-52.61
-55.59
-59.49
-64.32
-69.80
-75.18
-79.20
-80.40
-77.54
-70.11
-58.51
-43.96
-28.06
-12.27
2.36
15.31
26.41
35.61
42.90
48.28
51.87
53.87
54.70
54.72
54.24
53.46
52.52
51.50
50.43
49.35
48.24
47.15
46.10
45.12
44.18
43.23
42.18
40.94
39.46
37.73
35.83
33.87
31.96
30.17
28.45
26.66
24.67
22.37
19.82
17.16
14.63
12.43
10.69
9.36
8.34
7.55
6.94
6.57
6.48
6.65
6.99
7.36
7.59
7.53
7.13
6.29
4.95
3.01
0.49
-2.51
-5.70
-8.75
-11.40
-13.55
-15.28
-16.76
-18.19
-19.59
-20.90
-22.00
-22.81
-23.44
-24.16
-25.24
-26.91
-29.25
-32.21
-35.67
-39.49
-43.49
-47.53
-51.43
-55.07
-58.40
-61.60
-64.96
-68.71
-72.79
-76.60
-79.10
-78.96
-75.11
-67.08
-55.19
-40.53
-24.54
-8.72
5.81
18.28
28.37
36.04
41.48
45.12
47.40
48.82
49.64
50.06
50.07
49.60
48.63
47.15
45.31
43.26
41.24
39.54
38.48
38.23
38.84
40.08
41.53
42.73
43.21
42.76
41.37
39.28
36.83
34.32
31.90
29.50
26.94
24.11
21.04
17.95
15.13
12.84
11.13
9.87
8.88
8.02
7.28
6.79
6.63
6.81
7.21
7.61
7.79
7.58
6.93
5.87
4.48
2.85
1.13
-0.54
-2.02
-3.22
-4.14
-4.90
-5.74
-6.88
-8.46
-10.46
-12.68
-14.92
-17.01
-18.99
-21.07
-23.55
-26.57
-30.06
-33.69
-37.06
-39.92
-42.18
-44.05
-45.84
-47.94
-50.64
-54.15
-58.45
-63.31
-68.15
-72.05
-73.87
-72.60
-67.67
-59.15
-47.81
-34.81
-21.37
-8.49
3.20
13.41
22.02
29.01
34.40
38.18
40.49
41.56
41.62
40.97
39.87
38.54
37.11
35.66
34.20
32.81
31.69
31.02
31.00
31.66
32.77
33.92
34.62
34.53
33.56
31.93
29.88
27.71
25.57
23.48
21.42
19.41
17.44
15.55
13.81
12.21
10.81
9.65
8.77
8.21
7.88
7.61
7.18
6.46
5.39
4.07
2.54
0.80
-1.17
-3.44
-6.00
-8.74
-11.44
-13.86
-15.83
-17.38
-18.63
-19.85
-21.24
-22.90
-24.80
-26.74
-28.56
-30.16
-31.67
-33.41
-35.72
-38.78
-42.49
-46.53
-50.45
-53.93
-56.86
-59.38
-61.79
-64.44
-67.63
-71.59
-76.37
-81.70
-86.89
-90.78
-91.99
-89.35
-82.29
-71.14
-56.97
-41.28
-25.47
-10.60
2.77
14.43
24.34
32.53
39.05
44.06
47.82
50.62
52.68
54.09
54.87
54.88
54.12
52.62
50.59
48.46
46.67
45.61
45.45
46.08
47.06
47.95
48.36
48.10
47.20
45.78
44.02
41.95
39.62
37.03
34.22
31.27
28.30
25.39
22.62
20.09
17.92
16.18
14.90
14.02
13.40
12.88
12.34
11.72
11.09
10.53
10.11
9.78
9.46
9.10
8.63
8.10
7.52
6.85
5.99
4.79
3.15
1.08
-1.21
-3.47
-5.43
-6.96
-8.06
-8.94
-9.91
-11.23
-13.05
-15.31
-17.78
-20.17
-22.23
-23.88
-25.30
-26.80
-28.74
-31.38
-34.81
-38.87
-43.32
-47.85
-52.14
-55.95
-59.13
-61.74
-64.11
-66.72
-70.08
-74.42
-79.43
-84.19
-87.30
-87.29
-83.07
-74.32
-61.64
-46.27
-29.75
-13.51
1.33
14.08
24.51
32.61
38.66
43.04
46.18
48.49
50.28
51.70
52.74
53.34
53.40
52.86
51.75
50.21
48.50
46.97
45.90
45.48
45.69
46.28
46.94
47.34
47.24
46.57
45.37
43.71
41.69
39.42
36.89
34.17
31.30
28.32
25.34
22.44
19.69
17.17
14.92
12.94
11.23
9.82
8.69
7.81
7.13
6.54
6.03
5.59
5.23
4.92
4.62
4.28
3.84
3.30
2.69
2.07
1.43
0.70
-0.17
-1.25
-2.53
-3.99
-5.66
-7.67
-10.10
-12.97
-16.11
-19.20
-21.92
-24.14
-25.97
-27.79
-30.05
-33.01
-36.64
-40.68
-44.67
-48.27
-51.28
-53.69
-55.62
-57.33
-59.15
-61.41
-64.45
-68.35
-72.79
-76.93
-79.51
-79.10
-74.67
-65.87
-53.18
-37.82
-21.36
-5.30
9.14
21.32
31.02
38.32
43.49
46.92
49.04
50.27
50.94
51.26
51.29
50.97
50.23
49.10
47.75
46.47
45.55
45.21
45.46
46.14
46.95
47.53
47.62
47.09
45.93
44.25
42.29
40.26
38.37
36.72
35.23
33.77
32.11
30.05
27.51
24.59
21.52
18.60
16.05
13.93
12.19
10.64
9.10
7.41
5.52
3.46
1.35
-0.65
-2.40
-3.90
-5.26
-6.70
-8.45
-10.65
-13.32
-16.35
-19.53
-22.77
-26.09
-29.56
-33.24
-37.06
-40.81
-44.28
-47.27
-49.69
-51.69
-53.48
-55.35
-57.61
-60.54
-64.23
-68.55
-72.89
-76.24
-77.38
-75.15
-68.93
-58.80
-45.63
-30.79
-15.76
-1.84
10.11
19.67
26.86
32.00
35.47
37.67
38.94
39.50
39.60
39.43
39.16
38.89
38.60
38.25
37.81
37.40
37.19
37.44
38.27
39.55
40.96
42.01
42.31
41.65
40.04
37.67
34.79
31.70
28.61
25.72
23.07
20.68
18.45
16.27
14.04
11.77
9.53
7.41
5.52
3.96
2.80
2.07
1.74
1.69
1.81
1.92
1.89
1.62
1.04
0.09
-1.26
-3.03
-5.22
-7.78
-10.61
-13.61
-16.60
-19.41
-21.90
-23.99
-25.75
-27.44
-29.43
-32.02
-35.39
-39.44
-43.88
-48.33
-52.48
-56.12
-59.28
-62.15
-65.11
-68.56
-72.72
-77.46
-82.17
-85.70
-86.70
-84.03
-77.08
-66.08
-52.00
-36.23
-20.25
-5.31
7.83
18.83
27.57
34.19
38.94
42.12
44.11
45.30
45.96
46.32
46.45
46.32
45.91
45.27
44.50
43.83
43.48
43.63
44.36
45.66
47.30
48.94
50.17
50.57
49.91
48.20
45.70
42.76
39.72
36.74
33.83
30.88
27.78
24.53
21.29
18.25
15.58
13.34
11.48
9.90
8.52
7.29
6.21
5.31
4.57
3.91
3.21
2.33
1.19
-0.17
-1.69
-3.33
-5.09
-7.14
-9.52
-12.25
-15.21
-18.22
-21.05
-23.60
-25.89
-28.04
-30.32
-32.88
-35.81
-39.13
-42.76
-46.47
-50.03
-53.25
-56.05
-58.59
-61.12
-64.03
-67.60
-71.90
-76.54
-80.68
-83.06
-82.32
-77.51
-68.31
-55.32
-39.84
-23.45
-7.65
6.48
18.40
27.99
35.33
40.69
44.34
46.64
48.02
48.89
49.56
50.17
50.66
50.83
50.47
49.53
48.17
46.74
45.62
45.09
45.21
45.77
46.41
46.72
46.42
45.37
43.62
41.27
38.53
35.63
32.77
30.12
27.72
25.49
23.23
20.77
17.94
14.83
11.71
8.89
6.65
5.16
4.36
4.08
4.13
4.25
4.27
4.06
3.55
2.78
1.84
0.86
-0.05
-0.89
-1.85
-3.17
-5.05
-7.55
-10.46
-13.50
-16.34
-18.85
-21.08
-23.22
-25.55
-28.21
-31.22
-34.45
-37.70
-40.75
-43.46
-45.74
-47.66
-49.48
-51.58
-54.39
-58.08
-62.46
-66.77
-69.88
-70.48
-67.54
-60.66
-50.16
-37.11
-22.86
-8.82
4.01
15.03
24.11
31.37
36.93
40.96
43.43
44.40
43.97
42.49
40.39
38.14
36.11
34.50
33.38
32.71
32.47
32.63
33.25
34.29
35.55
36.74
37.49
37.55
36.77
35.21
33.06
30.56
27.94
25.33
22.81
20.39
18.11
15.96
13.95
12.08
10.29
8.49
6.60
4.66
2.66
0.67
-1.27
-3.19
-5.22
-7.51
-10.18
-13.20
-16.34
-19.36
-22.02
-24.28
-26.27
-28.35
-30.84
-33.92
-37.51
-41.29
-44.90
-48.06
-50.71
-53.04
-55.45
-58.38
-62.18
-66.89
-72.15
-77.13
-80.60
-81.24
-77.99
-70.44
-58.95
-44.60
-28.88
-13.26
1.04
13.29
23.17
30.73
36.28
40.16
42.83
44.62
45.84
46.67
47.16
47.30
47.03
46.34
45.24
43.91
42.60
41.63
41.29
41.64
42.60
43.75
44.61
44.74
43.88
42.04
39.53
36.77
34.14
31.86
29.86
27.90
25.72
23.20
20.42
17.57
14.92
12.60
10.62
8.85
7.14
5.40
3.59
1.87
0.29
-1.02
-2.11
-3.05
-4.03
-5.16
-6.55
-8.24
-10.18
-12.33
-14.62
-17.01
-19.50
-22.17
-25.09
-28.31
-31.88
-35.70
-39.59
-43.31
-46.63
-49.43
-51.73
-53.74
-55.77
-58.25
-61.52
-65.67
-70.30
-74.47
-76.89
-76.15
-71.34
-62.24
-49.52
-34.47
-18.63
-3.38
10.31
21.89
31.15
38.09
42.87
45.79
47.28
47.81
47.81
47.56
47.19
46.62
45.76
44.51
43.00
41.51
40.41
39.97
40.28
41.13
42.09
42.69
42.55
41.54
39.76
37.50
35.13
32.98
31.25
30.00
29.06
28.15
26.98
25.43
23.49
21.37
19.27
17.31
15.46
13.67
11.82
9.90
7.98
6.15
4.50
3.04
1.71
0.42
-0.93
-2.39
-3.93
-5.50
-7.00
-8.33
-9.47
-10.44
-11.35
-12.38
-13.73
-15.43
-17.46
-19.61
-21.65
-23.42
-24.94
-26.40
-28.06
-30.20
-32.86
-35.99
-39.40
-42.90
-46.32
-49.53
-52.44
-55.03
-57.44
-59.99
-63.10
-67.14
-72.06
-77.29
-81.62
-83.54
-81.63
-75.16
-64.28
-49.98
-33.75
-17.14
-1.39
12.69
24.71
34.48
41.94
47.12
50.19
51.48
51.47
50.65
49.46
48.15
46.81
45.43
43.98
42.51
41.11
39.98
39.28
39.10
39.37
39.84
40.21
40.14
39.45
38.06
36.07
33.69
31.21
28.86
26.83
25.14
23.69
22.31
20.81
19.08
17.13
15.07
13.04
11.16
9.47
7.93
6.42
4.85
3.18
1.43
-0.30
-1.88
-3.25
-4.35
-5.26
-6.11
-7.05
-8.15
-9.48
-11.09
-13.06
-15.51
-18.61
-22.47
-27.08
-32.25
-37.57
-42.55
-46.79
-50.12
-52.65
-54.81
-57.12
-60.09
-63.99
-68.70
-73.64
-77.82
-80.13
-79.50
-75.25
-67.30
-56.11
-42.65
-28.15
-13.79
-0.52
11.07
20.85
29.00
35.84
41.55
46.13
49.42
51.41
52.25
52.46
52.55
52.85
53.29
53.49
52.98
51.51
49.24
46.57
43.96
41.68
39.74
37.99
36.26
34.42
32.40
30.24
27.98
25.71
23.52
21.44
19.48
17.57
15.64
13.58
11.42
9.14
6.83
4.51
2.22
0.03
-1.88
-3.35
-4.28
-4.69
-4.87
-5.16
-5.87
-7.19
-9.05
-11.23
-13.53
-15.82
-18.17
-20.72
-23.66
-27.03
-30.82
-34.87
-39.06
-43.24
-47.34
-51.27
-54.91
-58.24
-61.32
-64.41
-67.79
-71.60
-75.48
-78.52
-79.42
-76.94
-70.36
-59.84
-46.31
-31.10
-15.58
-0.78
12.64
24.28
33.90
41.34
46.65
50.06
52.01
52.95
53.28
53.19
52.73
51.94
50.81
49.49
48.19
47.18
46.74
47.03
48.06
49.63
51.36
52.78
53.41
52.96
51.32
48.63
45.22
41.49
37.77
34.28
31.07
28.04
25.13
22.30
19.62
17.14
14.89
12.78
10.69
8.54
6.28
4.06
1.97
0.15
-1.33
-2.48
-3.29
-3.74
-3.77
-3.40
-2.69
-1.89
-1.23
-0.95
-1.15
-1.82
-2.85
-4.07
-5.35
-6.52
-7.52
-8.31
-8.93
-9.57
-10.40
-11.59
-13.18
-15.08
-17.14
-19.19
-21.19
-23.17
-25.32
-27.73
-30.48
-33.62
-37.12
-40.93
-44.91
-48.79
-52.20
-54.86
-56.73
-58.20
-59.91
-62.42
-65.81
-69.29
-71.48
-70.74
-65.93
-56.83
-44.22
-29.51
-14.22
0.46
13.86
25.58
35.39
43.03
48.34
51.31
52.25
51.72
50.30
48.52
46.67
44.81
42.92
40.93
38.89
36.88
35.09
33.68
32.74
32.28
32.16
32.16
31.98
31.46
30.47
29.05
27.34
25.50
23.67
21.94
20.33
18.87
17.50
16.18
14.86
13.51
12.10
10.71
9.44
8.47
7.91
7.78
7.97
8.28
8.51
8.46
8.04
7.25
6.16
4.87
3.51
2.15
0.80
-0.56
-2.00
-3.55
-5.26
-7.10
-8.99
-10.81
-12.46
-13.85
-14.99
-15.94
-16.75
-17.50
-18.20
-18.88
-19.57
-20.39
-21.53
-23.16
-25.44
-28.35
-31.79
-35.60
-39.62
-43.65
-47.55
-51.15
-54.35
-57.12
-59.58
-62.03
-64.85
-68.19
-71.75
-74.67
-75.72
-73.78
-68.21
-59.14
-47.40
-34.16
-20.53
-7.35
4.80
15.54
24.48
31.32
35.98
38.64
39.77
39.90
39.46
38.75
37.86
36.86
35.73
34.49
33.15
31.82
30.66
29.89
29.78
30.47
31.93
33.83
35.67
36.97
37.36
36.78
35.31
33.24
30.87
28.47
26.17
24.01
21.96
19.94
17.98
16.09
14.37
12.89
11.71
10.77
9.98
9.28
8.65
8.21
8.07
8.33
8.97
9.85
10.72
11.33
11.50
11.18
10.46
9.39
8.06
6.49
4.69
2.69
0.60
-1.48
-3.47
-5.35
-7.22
-9.25
-11.56
-14.24
-17.21
-20.28
-23.26
-26.09
-28.78
-31.53
-34.49
-37.77
-41.38
-45.22
-49.20
-53.25
-57.32
-61.22
-64.74
-67.60
-69.75
-71.44
-73.17
-75.55
-78.86
-82.80
-86.37
-88.22
-87.07
-82.17
-73.55
-61.84
-48.10
-33.47
-19.04
-5.79
5.50
14.28
20.43
24.30
26.57
27.97
29.10
30.23
31.25
31.83
31.60
30.24
27.72
24.33
20.71
17.76
16.33
16.88
19.32
23.00
26.96
30.29
32.35
32.99
32.40
31.04
29.44
28.15
27.60
28.02
29.39
31.35
33.37
34.78
35.06
33.96
31.63
28.54
25.35
22.78
21.26
20.84
21.17
21.59
21.45
20.32
18.21
15.49
12.74
10.48
9.01
8.31
8.12
8.10
7.92
7.40
6.48
5.18
3.59
1.83
-0.07
-2.10
-4.34
-6.83
-9.56
-12.37
-15.10
-17.57
-19.76
-21.81
-24.00
-26.59
-29.79
-33.62
-37.91
-42.46
-46.94
-51.03
-54.42
-56.92
-58.52
-59.55
-60.60
-62.38
-65.42
-69.65
-74.28
-77.88
-78.82
-75.77
-68.19
-56.43
-41.51
-24.83
-7.70
8.80
23.86
36.90
47.50
55.51
61.06
64.58
66.57
67.58
68.00
68.03
67.75
67.12
66.13
64.76
63.21
61.78
60.94
61.07
62.34
64.51
66.93
68.80
69.46
68.75
66.95
64.72
62.69
61.15
60.02
58.82
57.01
54.20
50.33
45.70
40.85
36.36
32.67
29.96
28.12
26.80
25.55
24.03
22.04
19.67
17.22
15.03
13.36
12.25
11.52
10.82
9.89
8.68
7.47
6.70
6.77
7.74
9.21
10.49
10.76
9.58
6.88
3.19
-0.65
-3.71
-5.38
-5.62
-5.06
-4.98
-6.91
-12.23
-21.35
-33.56
-46.85
-58.42
-65.41
-65.91
-59.52
-47.50
-32.24
-16.10
-0.66
13.68
27.39
40.93
54.08
65.67
74.12
78.14
77.54
73.40
67.61
62.22
58.73
57.80
58.98
60.88
61.13
56.92
45.98
27.74
4.04
-21.22
-43.22
-58.25
-65.03
-65.02
-61.37
-57.27
-54.67
-53.72
-53.56
-53.16
-52.15
-50.89
-49.99
-49.79
-50.10
-50.37
-49.95
-48.57
-46.44
-44.21
-42.55
-41.89
-42.04
-42.29
-41.70
-39.55
-35.75
-30.92
-26.18
-22.72
-21.30
-22.03
-24.33
-27.31
-30.13
-32.36
-34.11
-35.88
-38.41
-42.27
-47.77
-54.73
-62.50
-70.20
-76.98
-82.35
-86.35
-89.45
-92.16
-94.82
-97.43
-99.85
-102.18
-104.83
-108.23
-112.42
-116.44
-118.48
-116.41
-108.65
-94.85
-76.00
-53.95
-30.73
-8.08
12.68
30.40
44.15
53.31
57.93
58.81
57.38
55.19
53.49
52.92
53.48
54.64
55.61
55.53
53.76
50.23
45.60
41.19
38.67
39.37
43.74
51.07
59.67
67.46
72.64
74.22
72.26
67.77
62.23
57.06
53.07
50.25
47.97
45.39
41.90
37.47
32.49
27.45
22.72
18.41
14.58
11.33
8.87
7.42
7.02
7.42
8.10
8.52
8.37
7.63
6.54
5.42
4.43
3.43
1.99
-0.43
-4.14
-9.01
-14.48
-19.73
-24.09
-27.38
-30.08
-33.05
-37.18
-42.85
-49.97
-57.96
-66.08
-73.76
-80.60
-86.43
-91.17
-94.91
-98.02
-101.18
-105.17
-110.31
-116.16
-121.31
-123.70
-121.28
-112.69
-97.75
-77.45
-53.62
-28.45
-4.19
17.03
33.51
44.20
48.94
48.62
44.95
39.94
35.47
32.75
32.18
33.39
35.42
37.09
37.38
35.88
33.03
30.16
28.96
30.87
36.40
44.81
54.40
63.10
69.23
71.91
71.25
68.01
63.39
58.54
54.33
51.16
48.96
47.22
45.25
42.59
39.12
35.21
31.49
28.45
26.30
24.90
23.83
22.66
21.21
19.53
17.81
16.31
15.14
14.40
14.13
14.30
14.73
15.00
14.55
12.86
9.72
5.38
0.54
-4.00
-7.72
-10.62
-13.22
-16.31
-20.57
-26.29
-33.38
-41.38
-49.60
-57.24
-63.37
-67.39
-69.21
-69.60
-69.93
-71.68
-75.70
-81.52
-87.40
-90.73
-89.04
-80.74
-65.69
-44.98
-20.60
5.13
29.96
51.89
69.53
82.18
90.01
93.91
95.24
95.27
94.98
94.79
94.62
94.10
92.78
90.37
86.96
83.04
79.50
77.37
77.57
80.36
85.26
91.06
96.18
99.25
99.42
96.55
91.08
83.81
75.57
67.08
58.86
51.21
44.33
38.17
32.66
27.59
22.81
18.22
13.83
9.76
6.11
2.99
0.44
-1.62
-3.41
-5.09
-6.86
-8.80
-10.86
-13.02
-15.23
-17.47
-19.72
-21.96
-24.12
-26.16
-28.07
-29.89
-31.75
-33.76
-36.02
-38.54
-41.31
-44.25
-47.27
-50.23
-52.91
-55.27
-57.41
-59.70
-62.54
-66.31
-71.15
-76.92
-83.25
-89.59
-95.40
-100.16
-103.78
-106.45
-108.88
-111.84
-115.83
-120.55
-124.86
-127.07
-125.47
-119.11
-107.91
-92.63
-74.48
-54.78
-34.87
-16.12
0.11
12.74
21.23
25.89
27.71
28.01
28.07
28.65
30.09
32.27
34.72
36.75
37.64
36.93
34.80
32.30
30.89
32.18
37.05
45.22
55.31
65.31
73.33
78.05
79.05
76.58
71.53
65.03
58.20
51.97
46.78
42.67
39.22
35.91
32.30
28.24
23.84
19.34
15.01
11.10
7.88
5.66
4.75
5.25
6.96
9.29
11.43
12.68
12.64
11.42
9.36
6.96
4.47
1.83
-1.26
-5.14
-9.92
-15.43
-21.20
-26.76
-31.67
-35.81
-39.42
-42.95
-47.00
-51.98
-58.07
-65.12
-72.72
-80.38
-87.58
-93.97
-99.24
-103.42
-106.80
-110.09
-113.99
-118.87
-124.27
-128.74
-130.22
-126.51
-116.19
-99.02
-76.05
-49.20
-20.79
6.88
31.67
51.79
66.12
74.32
77.09
75.96
72.87
69.63
67.42
66.70
67.18
68.13
68.64
67.92
65.63
62.02
57.97
54.78
53.78
55.77
60.70
67.53
74.58
80.06
82.61
81.69
77.73
71.91
65.66
60.26
56.30
53.66
51.70
49.52
46.49
42.32
37.19
31.51
25.81
20.59
16.20
12.92
10.81
9.78
9.50
9.57
9.47
8.95
7.87
6.36
4.63
2.90
1.28
-0.28
-2.03
-4.28
-7.24
-10.91
-15.06
-19.35
-23.51
-27.52
-31.63
-36.15
-41.33
-47.27
-53.85
-60.90
-68.20
-75.54
-82.55
-88.80
-93.93
-97.94
-101.26
-104.55
-108.29
-112.28
-115.43
-115.98
-112.07
-102.35
-86.56
-65.51
-40.91
-14.97
9.95
31.69
48.55
59.60
64.87
65.25
62.27
57.64
52.88
48.96
46.21
44.40
42.85
40.77
37.59
33.23
28.36
24.21
22.23
23.45
28.07
35.26
43.48
50.98
56.37
58.83
58.27
55.09
50.02
44.00
37.99
32.79
28.95
26.53
25.21
24.37
23.34
21.66
19.24
16.35
13.48
11.27
10.09
10.11
11.11
12.55
13.88
14.49
14.12
12.72
10.60
8.14
5.74
3.63
1.81
0.17
-1.60
-3.72
-6.34
-9.36
-12.58
-15.70
-18.49
-20.88
-22.90
-24.87
-27.13
-30.05
-33.86
-38.58
-43.94
-49.33
-54.03
-57.38
-59.21
-59.98
-60.65
-62.32
-65.51
-69.75
-73.47
-74.50
-70.68
-60.84
-45.05
-24.59
-1.56
21.88
43.83
62.92
78.29
89.58
96.80
100.39
101.10
99.81
97.43
94.62
91.69
88.65
85.42
81.93
78.42
75.42
73.56
73.38
74.99
77.87
80.99
83.09
83.06
80.33
75.09
67.98
59.96
51.91
44.40
37.72
31.88
26.68
21.85
17.03
11.89
6.24
0.15
-6.05
-11.75
-16.34
-19.38
-20.76
-20.77
-19.93
-18.88
-18.19
-18.38
-19.70
-22.22
-25.73
-29.74
-33.72
-37.19
-40.04
-42.54
-45.29
-48.93
-53.81
-59.86
-66.60
-73.41
-79.74
-85.20
-89.64
-93.08
-95.78
-98.29
-101.25
-105.17
-110.05
-114.97
-118.20
-117.59
-111.37
-98.90
-80.94
-59.50
-37.15
-16.39
0.92
13.71
21.75
25.61
26.36
25.37
23.96
23.19
23.62
25.36
28.12
31.38
34.53
36.90
38.06
37.87
36.76
35.64
35.68
37.72
41.94
47.74
53.81
58.73
61.37
61.24
58.54
53.99
48.65
43.51
39.29
36.15
33.88
31.91
29.63
26.73
23.19
19.33
15.52
12.16
9.41
7.33
5.87
4.84
4.11
3.44
2.71
1.85
0.89
-0.12
-1.19
-2.44
-4.10
-6.42
-9.56
-13.42
-17.71
-22.08
-26.23
-30.11
-33.88
-37.89
-42.40
-47.65
-53.63
-60.15
-66.93
-73.60
-79.78
-85.09
-89.35
-92.66
-95.58
-98.79
-102.75
-107.26
-111.17
-112.72
-110.01
-101.83
-87.94
-69.24
-47.32
-24.07
-1.29
19.46
36.83
49.94
58.40
62.53
63.30
62.04
60.11
58.55
57.93
58.27
59.17
59.93
59.86
58.52
56.04
53.11
50.79
50.16
51.73
55.28
59.81
63.98
66.58
66.86
64.79
60.90
56.05
51.07
46.59
42.88
39.85
37.22
34.62
31.75
28.49
24.84
20.97
17.12
13.53
10.36
7.72
5.55
3.80
2.37
1.14
-0.03
-1.26
-2.67
-4.33
-6.27
-8.49
-10.96
-13.69
-16.73
-20.18
-24.13
-28.57
-33.30
-37.92
-41.88
-44.77
-46.41
-47.16
-47.80
-49.30
-52.44
-57.43
-63.91
-71.02
-77.81
-83.38
-87.28
-89.45
-90.27
-90.56
-91.31
-93.38
-96.96
-101.28
-104.49
-104.27
-98.54
-86.25
-67.90
-45.26
-20.89
2.74
23.68
40.76
53.49
61.93
66.64
68.46
68.51
67.85
67.32
67.31
67.71
68.00
67.58
66.04
63.30
59.83
56.44
54.15
53.74
55.54
59.25
64.01
68.77
72.55
74.75
75.21
74.10
71.84
68.91
65.82
62.93
60.50
58.51
56.78
54.98
52.79
50.06
46.86
43.45
40.14
37.30
35.07
33.47
32.30
31.21
29.78
27.68
24.76
21.12
17.16
13.28
9.86
6.90
4.09
0.78
-3.63
-9.59
-17.17
-25.98
-35.42
-44.73
-53.26
-60.55
-66.43
-71.18
-75.43
-80.06
-85.76
-92.58
-99.59
-105.03
-106.78
-103.09
-93.39
-78.43
-60.02
-40.32
-21.20
-3.91
10.97
23.21
32.75
39.49
43.45
44.87
44.29
42.53
40.49
38.89
37.91
37.26
36.36
34.72
32.33
29.75
27.94
27.73
29.50
32.84
36.87
40.48
42.86
43.56
42.52
39.96
36.22
31.75
27.03
22.49
18.41
14.89
11.82
9.06
6.47
4.02
1.75
-0.27
-2.07
-3.70
-5.27
-6.77
-8.11
-9.17
-9.87
-10.30
-10.71
-11.55
-13.20
-15.95
-19.68
-24.00
-28.38
-32.36
-35.76
-38.77
-41.82
-45.37
-49.70
-54.75
-60.26
-65.81
-71.11
-76.00
-80.42
-84.30
-87.61
-90.45
-93.18
-96.39
-100.60
-105.81
-111.18
-114.99
-115.16
-109.92
-98.56
-81.65
-60.80
-38.11
-15.60
5.13
22.97
37.25
47.68
54.35
57.81
59.04
59.15
59.16
59.65
60.70
61.92
62.69
62.49
61.06
58.61
55.70
53.07
51.43
51.21
52.50
54.90
57.76
60.28
61.80
61.99
60.82
58.63
55.83
52.88
50.06
47.51
45.15
42.79
40.21
37.27
33.97
30.41
26.80
23.33
20.17
17.35
14.82
12.50
10.37
8.55
7.18
6.37
6.11
6.25
6.52
6.61
6.26
5.27
3.63
1.35
-1.42
-4.49
-7.63
-10.61
-13.26
-15.59
-17.75
-19.97
-22.46
-25.31
-28.49
-31.92
-35.60
-39.60
-44.06
-49.03
-54.43
-59.94
-65.13
-69.66
-73.34
-76.21
-78.53
-80.72
-83.27
-86.66
-91.09
-96.23
-101.11
-104.19
-103.71
-98.32
-87.44
-71.58
-52.08
-30.84
-9.78
9.46
25.71
38.37
47.37
53.12
56.33
57.86
58.45
58.60
58.57
58.46
58.27
57.89
57.21
56.06
54.37
52.30
50.29
48.96
48.79
49.93
51.96
54.11
55.45
55.43
53.93
51.28
48.03
44.71
41.64
38.89
36.40
33.95
31.39
28.66
25.77
22.84
19.94
17.13
14.43
11.90
9.68
7.94
6.89
6.55
6.82
7.35
7.75
7.77
7.43
6.95
6.58
6.41
6.21
5.66
4.37
2.25
-0.50
-3.45
-6.10
-8.11
-9.42
-10.21
-10.81
-11.61
-12.92
-14.86
-17.40
-20.31
-23.28
-26.00
-28.34
-30.36
-32.41
-34.84
-37.92
-41.70
-45.95
-50.21
-53.93
-56.65
-58.17
-58.75
-58.99
-59.81
-62.06
-66.14
-71.68
-77.39
-81.31
-81.38
-76.11
-65.10
-49.23
-30.34
-10.63
7.85
23.67
36.24
45.57
52.07
56.28
58.69
59.73
59.80
59.26
58.43
57.54
56.74
56.07
55.54
55.22
55.26
55.89
57.31
59.48
62.05
64.47
66.13
66.53
65.49
63.11
59.72
55.76
51.61
47.51
43.58
39.82
36.15
32.49
28.79
25.03
21.30
17.72
14.39
11.46
8.98
6.97
5.31
3.86
2.42
0.81
-1.04
-3.14
-5.37
-7.66
-9.99
-12.42
-15.05
-18.07
-21.51
-25.25
-29.04
-32.50
-35.36
-37.50
-39.07
-40.44
-42.15
-44.62
-48.10
-52.59
-57.79
-63.28
-68.62
-73.44
-77.53
-80.96
-84.05
-87.29
-91.24
-96.04
-101.26
-105.63
-107.39
-104.75
-96.60
-82.96
-65.03
-44.78
-24.24
-5.12
11.57
25.32
36.00
43.61
48.35
50.68
51.25
50.98
50.70
50.97
51.90
53.17
54.18
54.37
53.51
51.68
49.42
47.41
46.20
46.06
46.83
48.03
49.06
49.46
48.90
47.38
45.11
42.40
39.59
36.96
34.56
32.36
30.22
28.01
25.68
23.33
21.07
19.05
17.25
15.59
13.88
12.10
10.26
8.52
7.10
6.10
5.55
5.29
5.05
4.60
3.77
2.51
0.91
-0.91
-2.81
-4.66
-6.43
-8.15
-9.96
-12.00
-14.33
-16.88
-19.50
-22.06
-24.55
-27.18
-30.32
-34.35
-39.46
-45.52
-52.09
-58.57
-64.47
-69.36
-73.07
-75.71
-77.65
-79.50
-81.95
-85.61
-90.60
-96.40
-101.69
-104.66
-103.52
-97.07
-85.14
-68.58
-49.04
-28.44
-8.61
9.09
23.76
35.05
43.03
48.10
50.96
52.36
53.04
53.48
53.88
54.21
54.35
54.20
53.67
52.81
51.66
50.47
49.58
49.40
50.27
52.18
54.73
57.11
58.44
57.95
55.47
51.33
46.24
41.04
36.37
32.51
29.28
26.38
23.44
20.35
17.27
14.45
12.17
10.51
9.39
8.53
7.69
6.77
5.81
4.93
4.17
3.48
2.63
1.46
-0.12
-2.03
-4.10
-6.16
-8.09
-9.90
-11.62
-13.35
-15.13
-16.97
-18.85
-20.73
-22.51
-24.09
-25.47
-26.80
-28.40
-30.66
-33.87
-38.06
-42.92
-47.96
-52.61
-56.50
-59.59
-62.15
-64.75
-68.05
-72.62
-78.63
-85.61
-92.26
-96.69
-96.86
-91.27
-79.49
-62.43
-42.06
-20.84
-1.11
15.54
28.35
37.44
43.37
46.91
48.78
49.50
49.50
49.09
48.54
47.99
47.54
47.13
46.64
46.02
45.40
45.08
45.39
46.58
48.59
51.06
53.41
55.01
55.37
54.25
51.81
48.47
44.88
41.58
38.94
36.94
35.35
33.74
31.79
29.39
26.63
23.78
21.03
18.48
16.10
13.79
11.57
9.48
7.71
6.40
5.62
5.29
5.16
4.97
4.50
3.76
2.85
1.98
1.27
0.72
0.05
-1.19
-3.49
-7.20
-12.26
-18.27
-24.54
-30.29
-34.94
-38.30
-40.64
-42.64
-45.09
-48.71
-53.75
-59.99
-66.64
-72.48
-76.12
-76.31
-72.26
-63.84
-51.72
-37.15
-21.78
-7.20
5.38
15.35
22.65
27.60
30.64
32.19
32.54
31.97
30.80
29.39
28.10
27.16
26.63
26.48
26.65
27.26
28.48
30.49
33.31
36.67
40.12
43.08
45.09
45.85
45.22
43.20
39.92
35.64
30.76
25.75
20.99
16.74
13.07
9.83
6.85
3.95
1.00
-2.03
-5.08
-8.03
-10.68
-12.82
-14.41
-15.55
-16.55
-17.76
-19.39
-21.37
-23.44
-25.35
-27.09
-28.95
-31.42
-34.97
-39.87
-46.02
-53.08
-60.58
-68.04
-75.05
-81.22
-86.34
-90.41
-93.86
-97.41
-101.78
-107.24
-113.11
-117.75
-118.95
-114.73
-104.15
-87.73
-67.21
-44.90
-22.97
-2.98
14.23
28.25
38.99
46.57
51.34
53.98
55.37
56.31
57.36
58.69
60.08
61.18
61.66
61.29
60.11
58.38
56.59
55.36
55.22
56.33
58.41
60.80
62.64
63.25
62.32
60.03
56.87
53.41
50.03
46.87
43.84
40.75
37.49
34.08
30.70
27.62
25.02
22.94
21.31
19.91
18.57
17.22
15.90
14.68
13.65
12.75
11.82
10.65
9.11
7.23
5.27
3.55
2.33
1.68
1.38
1.01
0.11
-1.58
-4.00
-6.73
-9.24
-11.09
-12.16
-12.67
-13.13
-14.06
-15.81
-18.34
-21.32
-24.27
-26.77
-28.78
-30.53
-32.53
-35.28
-39.18
-44.35
-50.64
-57.51
-64.16
-69.68
-73.32
-74.87
-74.91
-74.77
-75.97
-79.53
-85.16
-91.18
-95.02
-94.17
-87.17
-74.03
-56.14
-35.71
-15.02
4.01
20.06
32.36
40.67
45.27
46.93
46.77
46.04
45.73
46.42
48.11
50.29
52.12
52.83
51.94
49.49
46.13
42.90
40.83
40.57
42.13
44.84
47.69
49.63
50.00
48.61
45.81
42.18
38.39
34.92
31.96
29.43
27.02
24.46
21.61
18.52
15.46
12.73
10.54
8.98
7.90
7.10
6.37
5.62
4.88
4.24
3.82
3.63
3.59
3.56
3.43
3.05
2.46
1.71
0.89
0.09
-0.67
-1.42
-2.26
-3.30
-4.76
-6.79
-9.43
-12.61
-16.05
-19.42
-22.43
-25.07
-27.47
-30.01
-33.05
-36.78
-41.15
-45.88
-50.54
-54.73
-58.14
-60.66
-62.43
-63.92
-65.87
-69.05
-73.81
-79.81
-85.73
-89.59
-89.30
-83.42
-71.71
-55.23
-36.00
-16.25
2.09
17.81
30.40
39.86
46.49
50.72
52.98
53.72
53.45
52.64
51.71
50.98
50.60
50.64
51.05
51.83
52.95
54.45
56.32
58.51
60.88
63.13
64.85
65.55
64.91
62.76
59.31
55.05
50.62
46.68
43.60
41.34
39.57
37.74
35.40
32.36
28.76
24.93
21.31
18.12
15.37
12.82
10.14
7.16
3.92
0.75
-1.99
-4.07
-5.60
-6.99
-8.76
-11.38
-14.94
-19.14
-23.38
-27.16
-30.11
-32.31
-34.17
-36.21
-38.98
-42.70
-47.28
-52.35
-57.43
-62.09
-66.06
-69.32
-71.97
-74.32
-76.79
-79.89
-84.05
-89.32
-95.11
-100.07
-102.44
-100.46
-93.07
-80.29
-63.29
-43.93
-24.23
-5.86
10.08
23.05
33.04
40.28
45.19
48.31
50.17
51.30
52.03
52.56
52.87
52.82
52.24
51.01
49.21
47.12
45.27
44.19
44.30
45.58
47.57
49.43
50.29
49.54
47.07
43.27
38.85
34.61
31.11
28.56
26.87
25.71
24.69
23.51
21.99
20.15
18.13
16.08
14.16
12.53
11.26
10.40
9.92
9.70
9.47
8.95
7.88
6.14
3.85
1.31
-1.12
-3.19
-4.75
-5.85
-6.57
-7.06
-7.49
-8.06
-9.07
-10.82
-13.46
-16.90
-20.76
-24.54
-27.84
-30.57
-33.06
-35.89
-39.57
-44.26
-49.72
-55.35
-60.49
-64.63
-67.58
-69.54
-71.03
-72.74
-75.37
-79.46
-85.07
-91.57
-97.56
-101.15
-100.41
-94.04
-81.80
-64.62
-44.38
-23.30
-3.41
13.79
27.53
37.72
44.77
49.40
52.38
54.38
55.87
57.04
57.89
58.34
58.30
57.67
56.41
54.55
52.34
50.22
48.84
48.76
50.27
53.10
56.43
59.18
60.34
59.42
56.60
52.59
48.27
44.36
41.17
38.53
36.12
33.57
30.74
27.69
24.55
21.45
18.48
15.65
12.97
10.52
8.38
6.63
5.32
4.42
3.83
3.39
2.88
2.10
0.93
-0.60
-2.34
-4.06
-5.63
-7.11
-8.70
-10.69
-13.21
-16.22
-19.49
-22.77
-25.86
-28.74
-31.56
-34.60
-38.10
-42.16
-46.81
-51.93
-57.35
-62.75
-67.79
-72.10
-75.47
-77.90
-79.75
-81.68
-84.29
-87.86
-92.00
-95.54
-96.83
-94.26
-86.88
-74.66
-58.59
-40.25
-21.40
-3.63
11.94
24.70
34.44
41.31
45.76
48.39
49.91
50.92
51.85
52.91
54.04
55.00
55.45
55.08
53.77
51.78
49.63
48.03
47.56
48.35
50.08
52.01
53.35
53.51
52.33
50.04
47.12
44.05
41.16
38.61
36.37
34.32
32.31
30.20
27.97
25.66
23.41
21.38
19.72
18.50
17.72
17.28
16.97
16.54
15.80
14.63
13.09
11.39
9.79
8.50
7.58
6.87
6.05
4.88
3.25
1.31
-0.64
-2.27
-3.45
-4.30
-5.14
-6.40
-8.43
-11.40
-15.28
-19.84
-24.75
-29.64
-34.17
-38.16
-41.67
-44.99
-48.64
-53.13
-58.70
-65.14
-71.67
-76.96
-79.49
-77.98
-71.82
-61.29
-47.49
-32.04
-16.61
-2.53
9.44
18.99
26.10
30.93
33.65
34.51
33.92
32.43
30.70
29.39
28.83
29.01
29.62
30.22
30.54
30.69
31.02
31.98
33.88
36.55
39.45
41.88
43.20
43.10
41.64
39.17
36.15
32.94
29.77
26.67
23.62
20.59
17.61
14.80
12.27
10.11
8.28
6.60
4.92
3.15
1.34
-0.38
-1.86
-3.06
-4.03
-4.92
-5.87
-6.95
-8.08
-9.15
-10.09
-10.90
-11.72
-12.74
-14.14
-16.04
-18.48
-21.35
-24.49
-27.71
-30.91
-34.11
-37.49
-41.25
-45.52
-50.35
-55.60
-60.96
-66.04
-70.50
-74.21
-77.30
-80.16
-83.40
-87.56
-92.79
-98.49
-103.31
-105.37
-102.94
-94.97
-81.51
-63.69
-43.38
-22.57
-2.98
14.19
28.28
38.99
46.45
51.07
53.61
54.89
55.65
56.32
56.98
57.51
57.70
57.42
56.67
55.54
54.18
52.81
51.70
51.14
51.39
52.43
53.97
55.48
56.34
56.09
54.55
51.90
48.58
45.10
41.87
39.08
36.62
34.23
31.65
28.77
25.72
22.75
20.19
18.19
16.73
15.63
14.61
13.50
12.25
10.95
9.81
9.01
8.58
8.38
8.18
7.72
6.90
5.78
4.53
3.30
2.06
0.65
-1.17
-3.49
-6.14
-8.74
-10.93
-12.50
-13.53
-14.34
-15.36
-16.90
-19.11
-21.85
-24.80
-27.60
-29.94
-31.65
-32.87
-33.96
-35.45
-37.92
-41.76
-47.03
-53.35
-60.06
-66.30
-71.35
-74.86
-77.08
-78.86
-81.40
-85.72
-92.07
-99.57
-106.28
-109.70
-107.62
-98.86
-83.76
-63.97
-41.94
-20.21
-0.87
14.77
26.18
33.59
37.78
39.83
40.89
41.90
43.40
45.54
48.11
50.76
53.01
54.52
55.00
54.39
52.88
50.92
49.18
48.23
48.44
49.63
51.24
52.49
52.76
51.80
49.81
47.29
44.78
42.66
40.94
39.39
37.72
35.70
33.33
30.80
28.28
25.86
23.58
21.41
19.36
17.60
16.27
15.42
14.94
14.56
14.05
13.28
12.28
11.20
10.13
9.08
7.95
6.68
5.18
3.44
1.49
-0.74
-3.27
-6.08
-9.03
-11.86
-14.30
-16.30
-17.98
-19.69
-21.80
-24.55
-27.94
-31.78
-35.67
-39.25
-42.24
-44.54
-46.29
-47.85
-49.74
-52.54
-56.71
-62.22
-68.41
-73.96
-77.12
-76.30
-70.48
-59.57
-44.56
-27.12
-9.20
7.46
21.62
32.64
40.38
45.04
47.09
47.11
45.72
43.59
41.29
39.23
37.60
36.35
35.30
34.19
32.89
31.50
30.33
29.80
30.19
31.50
33.39
35.30
36.59
36.82
35.85
33.76
30.87
27.61
24.38
21.45
18.92
16.71
14.56
12.26
9.66
6.84
4.08
1.75
0.04
-1.01
-1.67
-2.21
-2.80
-3.34
-3.53
-3.03
-1.71
0.23
2.25
3.73
4.09
3.06
0.68
-2.76
-6.85
-11.24
-15.78
-20.54
-25.83
-31.96
-39.06
-46.95
-55.19
-63.23
-70.61
-77.08
-82.49
-86.92
-90.52
-93.66
-96.86
-100.69
-105.40
-110.50
-114.61
-115.72
-111.87
-101.91
-86.00
-65.62
-43.03
-20.57
-0.04
17.48
31.55
42.11
49.39
53.81
56.01
56.79
57.00
57.34
58.10
59.18
60.19
60.61
60.12
58.64
56.52
54.35
52.77
52.23
52.76
54.05
55.49
56.47
56.58
55.66
53.88
51.47
48.76
45.97
43.23
40.52
37.80
34.96
31.94
28.78
25.55
22.44
19.64
17.32
15.47
14.07
12.95
11.89
10.77
9.52
8.20
6.96
5.93
5.19
4.68
4.33
3.96
3.47
2.78
1.82
0.58
-1.01
-2.99
-5.35
-8.03
-10.92
-13.85
-16.72
-19.48
-22.11
-24.71
-27.38
-30.21
-33.38
-37.08
-41.45
-46.57
-52.33
-58.45
-64.52
-70.09
-74.79
-78.48
-81.38
-83.98
-86.93
-90.77
-95.48
-100.37
-104.08
-104.87
-101.18
-92.13
-77.82
-59.29
-38.25
-16.63
3.70
21.29
35.26
45.35
51.98
55.94
58.17
59.50
60.41
61.06
61.40
61.34
60.80
59.80
58.29
56.32
54.05
51.86
50.28
49.88
50.83
52.82
55.13
56.80
57.09
55.69
52.85
49.15
45.29
41.76
38.75
36.20
33.81
31.29
28.46
25.30
21.94
18.60
15.44
12.59
10.06
7.87
6.11
4.89
4.30
4.31
4.70
5.13
5.24
4.77
3.58
1.75
-0.51
-2.98
-5.38
-7.50
-9.19
-10.48
-11.46
-12.38
-13.43
-14.77
-16.37
-18.12
-19.90
-21.75
-23.91
-26.70
-30.42
-35.17
-40.79
-46.85
-52.78
-58.06
-62.31
-65.48
-67.77
-69.68
-71.90
-75.05
-79.38
-84.45
-89.11
-91.55
-89.90
-82.83
-70.08
-52.64
-32.49
-11.99
6.77
22.41
34.36
42.73
48.03
50.92
52.06
52.08
51.47
50.62
49.69
48.72
47.58
46.22
44.68
43.21
42.27
42.30
43.63
46.31
49.97
53.93
57.33
59.45
59.91
58.82
56.66
54.03
51.48
49.28
47.40
45.63
43.72
41.51
39.02
36.41
33.88
31.60
29.60
27.84
26.22
24.59
22.84
20.92
18.77
16.41
13.92
11.39
8.96
6.73
4.58
2.23
-0.69
-4.48
-9.14
-14.32
-19.51
-24.13
-27.88
-30.85
-33.51
-36.49
-40.28
-45.15
-50.96
-57.38
-63.96
-70.23
-75.77
-80.41
-84.25
-87.73
-91.57
-96.43
-102.50
-109.05
-114.48
-116.55
-113.18
-103.32
-87.34
-66.98
-44.72
-22.98
-3.55
12.70
25.58
35.33
42.24
46.63
48.84
49.42
48.96
48.09
47.28
46.73
46.37
45.90
44.98
43.48
41.61
39.90
39.05
39.67
41.91
45.32
48.98
51.82
53.08
52.55
50.60
47.90
45.16
42.79
40.85
39.08
37.17
34.82
31.98
28.69
25.14
21.49
17.82
14.23
10.84
7.82
5.35
3.63
2.72
2.57
2.96
3.56
4.06
4.18
3.74
2.63
0.89
-1.37
-3.98
-6.76
-9.65
-12.59
-15.64
-18.87
-22.25
-25.64
-28.80
-31.57
-33.95
-36.27
-38.95
-42.48
-47.10
-52.73
-58.96
-65.26
-71.06
-76.00
-80.00
-83.25
-86.27
-89.77
-94.37
-100.33
-107.21
-113.66
-117.65
-117.05
-110.23
-96.75
-77.50
-54.48
-30.22
-7.10
13.18
29.64
42.03
50.60
55.86
58.59
59.67
59.99
60.31
61.02
62.08
63.05
63.35
62.48
60.33
57.30
54.15
51.83
51.08
52.13
54.58
57.59
60.13
61.35
60.90
58.85
55.60
51.73
47.69
43.75
40.06
36.61
33.32
30.09
26.87
23.65
20.54
17.68
15.13
12.90
10.94
9.21
7.72
6.52
5.63
5.01
4.56
4.12
3.59
2.88
1.93
0.76
-0.60
-2.13
-3.68
-5.11
-6.40
-7.62
-9.07
-11.09
-13.91
-17.47
-21.49
-25.48
-29.07
-32.12
-34.78
-37.49
-40.68
-44.61
-49.25
-54.29
-59.32
-63.95
-67.83
-70.80
-72.88
-74.34
-75.74
-77.79
-81.14
-85.90
-91.41
-96.11
-97.86
-94.64
-85.27
-69.91
-50.12
-28.33
-7.10
11.55
26.49
37.51
45.05
49.79
52.41
53.53
53.71
53.48
53.23
53.16
53.21
53.12
52.64
51.59
50.10
48.57
47.61
47.81
49.49
52.54
56.35
60.02
62.57
63.36
62.30
59.76
56.52
53.33
50.66
48.55
46.73
44.77
42.37
39.52
36.38
33.32
30.68
28.70
27.40
26.63
26.14
25.65
24.95
23.91
22.55
20.98
19.35
17.73
16.13
14.41
12.28
9.52
5.98
1.79
-2.76
-7.27
-11.50
-15.50
-19.66
-24.53
-30.51
-37.69
-45.73
-53.97
-61.75
-68.43
-73.70
-77.53
-80.27
-82.63
-85.60
-90.11
-96.48
-104.08
-111.08
-114.97
-113.34
-104.83
-89.62
-69.46
-46.93
-24.60
-4.41
12.59
26.09
36.18
43.13
47.29
49.11
49.12
47.97
46.22
44.30
42.40
40.55
38.66
36.65
34.55
32.54
31.02
30.45
31.19
33.37
36.66
40.36
43.53
45.39
45.51
44.06
41.63
38.96
36.63
34.70
32.86
30.66
27.82
24.42
20.88
17.64
14.94
12.68
10.54
8.16
5.42
2.47
-0.40
-2.89
-4.86
-6.42
-7.73
-9.08
-10.70
-12.70
-15.01
-17.50
-19.99
-22.35
-24.69
-27.19
-30.29
-34.35
-39.62
-46.02
-53.23
-60.67
-67.70
-73.79
-78.59
-82.09
-84.66
-87.04
-90.10
-94.44
-100.08
-106.08
-110.75
-111.98
-107.96
-97.79
-81.72
-61.18
-38.27
-15.26
5.85
23.64
37.38
46.99
52.99
56.25
57.75
58.42
58.90
59.54
60.32
61.00
61.25
60.70
59.23
56.95
54.31
51.99
50.68
50.85
52.51
55.23
58.19
60.47
61.35
60.49
58.01
54.38
50.25
46.20
42.59
39.50
36.74
34.05
31.16
27.96
24.55
21.15
18.04
15.44
13.45
12.00
10.93
9.93
8.71
7.12
5.15
2.99
0.96
-0.68
-1.84
-2.65
-3.53
-4.92
-7.16
-10.32
-14.16
-18.27
-22.27
-25.93
-29.25
-32.43
-35.75
-39.42
-43.61
-48.33
-53.49
-58.85
-64.05
-68.65
-72.31
-75.00
-77.16
-79.54
-82.98
-87.85
-93.73
-99.21
-102.28
-100.83
-93.48
-80.03
-61.55
-40.04
-17.89
2.82
20.60
34.77
45.21
52.30
56.65
58.94
59.92
60.15
60.08
59.86
59.48
58.73
57.44
55.51
53.09
50.54
48.45
47.47
48.02
50.11
53.22
56.40
58.60
59.09
57.60
54.47
50.37
46.09
42.15
38.74
35.75
32.94
30.08
27.10
24.04
21.04
18.27
15.87
13.92
12.40
11.23
10.23
9.25
8.19
7.08
6.02
5.13
4.43
3.83
3.12
2.06
0.50
-1.62
-4.18
-6.96
-9.74
-12.36
-14.78
-17.14
-19.64
-22.46
-25.59
-28.77
-31.61
-33.78
-35.24
-36.32
-37.66
-39.90
-43.44
-48.29
-53.96
-59.69
-64.72
-68.51
-70.94
-72.30
-73.21
-74.48
-76.88
-80.82
-86.06
-91.56
-95.55
-96.04
-91.39
-80.94
-65.25
-46.00
-25.39
-5.54
12.04
26.55
37.84
46.14
51.85
55.47
57.49
58.39
58.58
58.35
57.84
57.06
55.95
54.49
52.80
51.14
49.90
49.52
50.25
52.12
54.77
57.56
59.78
60.80
60.32
58.42
55.47
51.97
48.43
45.18
42.41
40.08
38.10
36.26
34.38
32.34
30.10
27.69
25.17
22.64
20.19
17.90
15.82
13.96
12.30
10.75
9.17
7.33
5.02
2.13
-1.29
-5.10
-9.17
-13.45
-18.09
-23.30
-29.22
-35.82
-42.75
-49.45
-55.34
-60.04
-63.49
-66.02
-68.20
-70.73
-74.22
-78.89
-84.44
-89.85
-93.54
-93.79
-89.26
-79.49
-65.10
-47.63
-29.04
-11.18
4.61
17.65
27.74
35.02
39.81
42.47
43.47
43.22
42.21
40.80
39.36
38.06
36.97
36.05
35.17
34.34
33.69
33.55
34.19
35.76
38.02
40.45
42.39
43.26
42.80
41.07
38.49
35.57
32.76
30.32
28.23
26.30
24.17
21.66
18.72
15.56
12.51
9.86
7.75
6.07
4.68
3.36
2.10
0.99
0.12
-0.47
-0.92
-1.49
-2.49
-4.02
-6.12
-8.64
-11.42
-14.39
-17.55
-20.88
-24.29
-27.77
-31.29
-35.00
-39.07
-43.67
-48.77
-54.11
-59.29
-63.89
-67.71
-70.81
-73.60
-76.63
-80.47
-85.49
-91.47
-97.64
-102.59
-104.55
-101.90
-93.71
-80.01
-61.81
-40.88
-19.12
1.69
20.17
35.43
47.08
55.16
60.17
62.94
64.36
65.20
65.84
66.28
66.24
65.40
63.59
60.93
57.79
54.61
51.91
50.07
49.36
49.85
51.34
53.39
55.38
56.61
56.53
54.94
52.05
48.39
44.56
40.99
37.80
34.81
31.74
28.44
25.01
21.75
18.98
16.92
15.51
14.55
13.77
12.97
12.11
11.23
10.44
9.83
9.45
9.26
9.13
8.89
8.35
7.36
5.86
3.95
1.79
-0.37
-2.35
-4.10
-5.67
-7.27
-9.12
-11.44
-14.30
-17.67
-21.39
-25.23
-29.03
-32.72
-36.42
-40.36
-44.82
-49.90
-55.52
-61.35
-66.91
-71.74
-75.51
-78.16
-79.92
-81.32
-83.08
-85.87
-90.06
-95.37
-100.79
-104.65
-105.02
-100.31
-89.74
-73.67
-53.44
-31.02
-8.49
12.34
30.17
44.29
54.53
61.18
64.90
66.49
66.82
66.60
66.23
65.87
65.38
64.49
62.91
60.50
57.35
53.92
50.94
49.12
48.88
50.11
52.12
53.86
54.37
53.11
50.13
45.96
41.32
36.90
33.07
29.92
27.29
24.95
22.70
20.46
18.21
15.97
13.84
11.89
10.21
8.91
8.12
7.82
7.92
8.19
8.31
8.07
7.37
6.27
4.97
3.66
2.44
1.31
0.23
-0.86
-1.91
-2.80
-3.39
-3.57
-3.40
-3.14
-3.24
-4.12
-6.16
-9.49
-13.96
-19.18
-24.53
-29.45
-33.62
-37.02
-39.91
-42.82
-46.17
-50.23
-55.02
-60.20
-65.34
-69.99
-73.83
-76.77
-79.10
-81.38
-84.26
-88.30
-93.45
-98.94
-103.22
-104.39
-100.75
-91.37
-76.42
-57.04
-35.10
-12.64
8.36
26.34
40.38
50.13
55.91
58.44
58.72
57.60
55.81
53.82
51.88
50.11
48.49
46.83
44.85
42.45
39.79
37.47
36.23
36.58
38.55
41.47
44.27
45.89
45.76
43.85
40.69
37.01
33.39
30.24
27.61
25.38
23.31
21.20
18.91
16.42
13.86
11.41
9.33
7.77
6.87
6.69
7.24
8.37
9.85
11.32
12.36
12.69
12.21
11.08
9.68
8.38
7.41
6.75
6.26
5.64
4.77
3.61
2.30
1.00
-0.22
-1.41
-2.77
-4.50
-6.68
-9.26
-12.04
-14.80
-17.34
-19.69
-22.04
-24.64
-27.77
-31.51
-35.78
-40.30
-44.71
-48.59
-51.64
-53.74
-54.98
-55.82
-57.01
-59.39
-63.52
-69.25
-75.36
-79.76
-80.02
-74.23
-61.74
-43.46
-21.57
1.23
22.56
40.91
55.62
66.73
74.56
79.47
81.88
82.29
81.29
79.56
77.68
75.93
74.30
72.59
70.58
68.26
65.92
64.06
63.15
63.45
64.76
66.51
67.91
68.25
67.12
64.53
60.84
56.53
52.08
47.74
43.67
39.87
36.33
33.07
30.05
27.27
24.64
22.07
19.55
17.22
15.38
14.22
13.69
13.43
12.81
11.28
8.66
5.19
1.56
-1.46
-3.35
-4.12
-4.19
-4.18
-4.68
-6.06
-8.34
-11.36
-14.69
-17.80
-20.17
-21.48
-21.95
-22.42
-24.19
-28.49
-35.86
-45.81
-56.76
-66.69
-73.94
-77.98
-79.54
-80.29
-82.04
-86.05
-92.60
-101.00
-109.86
-117.59
-122.94
-125.35
-125.25
-123.96
-123.51
-125.66
-131.05
-138.53
-145.07
-146.84
-140.56
-125.02
-101.50
-73.30
-44.33
-17.74
4.76
22.85
36.76
46.77
52.99
55.71
55.70
54.30
53.04
52.97
54.36
56.60
58.59
59.21
57.77
54.25
49.29
44.14
40.23
38.78
40.28
44.37
49.78
54.76
57.82
58.11
55.76
51.55
46.60
41.78
37.63
34.30
31.64
29.47
27.52
25.57
23.34
20.80
18.06
15.46
13.38
12.04
11.50
11.55
11.98
12.62
13.48
14.49
15.50
16.18
16.19
15.41
13.99
12.32
10.81
9.68
8.83
7.89
6.45
4.25
1.37
-1.84
-4.84
-7.13
-8.45
-8.97
-9.24
-9.97
-11.84
-15.13
-19.63
-24.75
-29.67
-33.81
-36.96
-39.45
-41.89
-45.04
-49.50
-55.62
-63.46
-72.64
-82.30
-91.13
-97.57
-100.52
-99.98
-97.41
-95.37
-96.34
-101.37
-109.16
-116.26
-118.39
-112.24
-96.82
-73.63
-45.92
-17.28
9.25
31.69
48.89
60.30
65.89
66.40
63.33
58.75
54.74
52.70
52.99
54.95
57.18
58.19
56.91
53.02
47.27
41.22
36.76
35.42
37.73
42.95
49.39
55.06
58.46
59.15
57.62
54.96
52.25
50.14
48.72
47.65
46.30
44.12
40.89
36.70
32.04
27.54
23.71
20.73
18.36
16.06
13.26
9.77
5.84
2.13
-0.49
-1.47
-0.72
1.19
3.33
4.73
4.79
3.46
1.21
-1.23
-3.35
-5.06
-6.83
-9.38
-13.30
-18.64
-24.83
-30.96
-36.07
-39.75
-42.10
-43.69
-45.23
-47.27
-50.16
-53.93
-58.50
-63.56
-68.69
-73.31
-76.83
-78.98
-80.05
-81.03
-83.18
-87.52
-94.02
-101.22
-106.49
-106.75
-99.68
-84.56
-62.58
-36.29
-8.79
17.17
39.62
57.50
70.49
78.70
82.76
83.55
82.15
79.53
76.38
72.96
69.20
64.96
60.24
55.29
50.62
46.90
44.72
44.51
46.38
50.02
54.76
59.72
63.91
66.53
67.11
65.60
62.45
58.49
54.63
51.62
49.84
49.20
49.28
49.54
49.61
49.30
48.64
47.81
47.08
46.79
47.23
48.52
50.54
52.90
55.00
56.19
56.01
54.38
51.62
48.30
45.00
42.06
39.34
36.33
32.38
27.05
20.30
12.46
3.97
-4.93
-14.35
-24.63
-36.02
-48.46
-61.45
-74.21
-85.90
-95.87
-103.71
-109.32
-112.92
-115.12
-117.03
-119.98
-124.97
-131.98
-139.55
-144.77
-144.35
-135.74
-118.33
-93.69
-64.97
-35.68
-8.54
14.83
33.77
47.96
57.13
61.14
60.47
56.39
50.75
45.39
41.40
38.86
36.99
34.79
31.51
27.14
22.34
18.21
15.88
16.17
19.41
25.15
32.29
39.36
44.93
48.02
48.38
46.46
43.14
39.39
35.84
32.77
30.10
27.62
25.19
22.84
20.71
18.86
17.16
15.30
12.93
9.90
6.46
3.13
0.55
-0.82
-0.96
-0.23
0.70
1.15
0.67
-0.84
-3.20
-5.95
-8.66
-11.10
-13.32
-15.69
-18.71
-22.75
-27.74
-33.21
-38.39
-42.67
-45.93
-48.72
-52.09
-57.03
-64.05
-72.88
-82.62
-92.11
-100.41
-106.99
-111.79
-115.23
-117.96
-120.94
-125.21
-131.39
-139.16
-146.85
-151.57
-149.98
-139.65
-119.94
-92.44
-60.38
-27.55
2.85
28.83
49.52
64.83
74.98
80.51
82.28
81.59
79.91
78.53
78.20
78.90
80.00
80.49
79.52
76.64
71.92
66.10
60.33
55.93
54.01
55.04
58.58
63.49
68.23
71.40
72.25
70.74
67.32
62.72
57.63
52.53
47.75
43.42
39.55
36.06
32.80
29.67
26.67
23.95
21.70
20.04
18.86
17.86
16.71
15.19
13.35
11.49
9.96
8.95
8.44
8.20
7.99
7.67
7.10
6.23
4.96
3.14
0.63
-2.55
-6.12
-9.55
-12.29
-14.11
-15.18
-16.12
-17.79
-20.82
-25.40
-31.12
-37.13
-42.48
-46.56
-49.30
-51.21
-53.22
-56.25
-60.93
-67.47
-75.50
-84.26
-92.70
-99.75
-104.57
-106.86
-107.11
-106.66
-107.31
-110.51
-116.44
-123.46
-128.38
-127.36
-117.40
-97.51
-69.22
-36.11
-2.47
27.88
52.48
70.34
81.60
87.02
87.77
85.20
80.79
76.01
72.04
69.52
68.41
68.08
67.62
66.23
63.64
60.23
57.03
55.37
56.35
60.40
66.95
74.54
81.40
86.04
87.76
86.80
84.01
80.39
76.72
73.27
69.91
66.36
62.34
57.86
53.15
48.57
44.51
41.31
39.18
38.12
38.00
38.64
39.78
41.21
42.73
44.17
45.46
46.56
47.36
47.71
47.35
45.97
43.35
39.42
34.33
28.34
21.78
14.95
7.96
0.82
-6.54
-14.21
-22.17
-30.23
-38.07
-45.31
-51.64
-57.04
-61.90
-66.92
-72.87
-80.17
-88.65
-97.62
-106.08
-113.13
-118.28
-121.54
-123.48
-125.01
-127.38
-131.64
-138.36
-146.84
-154.99
-159.53
-157.00
-145.13
-123.88
-95.56
-64.05
-33.40
-6.53
15.23
31.85
43.94
52.06
56.59
57.91
56.80
54.26
51.50
49.50
48.68
49.07
50.23
51.54
52.35
52.21
51.09
49.46
48.24
48.34
50.36
54.13
58.78
62.99
65.53
65.67
63.40
59.34
54.40
49.43
45.00
41.24
38.04
35.11
32.27
29.55
27.12
25.15
23.67
22.47
21.21
19.72
18.02
16.42
15.35
15.10
15.62
16.53
17.27
17.34
16.58
15.14
13.34
11.50
9.74
8.00
6.07
3.74
0.95
-2.21
-5.50
-8.66
-11.49
-13.92
-16.02
-18.01
-20.28
-23.18
-26.94
-31.46
-36.32
-40.88
-44.60
-47.38
-49.71
-52.55
-56.89
-63.37
-71.93
-81.82
-91.74
-100.35
-106.61
-110.24
-111.86
-112.84
-115.03
-119.92
-127.90
-137.64
-146.24
-149.91
-145.38
-130.99
-107.31
-77.01
-43.80
-11.45
17.07
39.88
56.19
66.12
70.51
70.83
68.92
66.62
65.28
65.41
66.80
68.67
70.07
70.16
68.40
64.62
59.26
53.37
48.39
45.84
46.54
50.31
55.81
61.09
64.33
64.62
62.13
57.83
52.97
48.47
44.67
41.42
38.39
35.23
31.86
28.32
24.81
21.47
18.44
15.86
13.86
12.65
12.32
12.86
14.01
15.44
16.79
17.85
18.58
19.16
19.78
20.45
21.02
21.16
20.58
19.08
16.74
13.84
10.83
8.14
6.02
4.45
3.13
1.57
-0.71
-4.04
-8.42
-13.51
-18.69
-23.40
-27.30
-30.41
-33.18
-36.19
-39.99
-44.86
-50.68
-56.96
-62.98
-68.01
-71.63
-73.96
-75.71
-78.07
-82.19
-88.69
-97.14
-105.86
-112.21
-113.38
-107.19
-92.83
-71.15
-44.34
-15.43
12.53
37.05
56.58
70.56
79.29
83.69
84.94
84.23
82.61
80.83
79.47
78.77
78.77
79.29
80.12
81.02
82.00
83.28
85.30
88.46
92.85
98.06
103.07
106.62
107.45
104.88
98.89
90.17
79.89
69.25
59.17
50.12
42.10
34.84
28.10
21.72
15.71
10.21
5.29
1.03
-2.55
-5.44
-7.61
-9.01
-9.70
-9.91
-9.97
-10.25
-11.03
-12.38
-14.16
-16.06
-17.79
-19.28
-20.70
-22.43
-24.89
-28.30
-32.61
-37.45
-42.20
-46.17
-48.93
-50.44
-51.19
-52.19
-54.75
-60.04
-68.73
-80.67
-94.86
-109.73
-123.54
-134.92
-143.28
-148.99
-153.21
-157.43
-162.63
-168.66
-173.75
-174.96
-169.06
-153.93
-129.44
-97.71
-62.46
-27.78
3.02
28.14
47.15
60.62
69.42
74.42
76.48
76.51
75.55
74.61
74.49
75.49
77.30
79.00
79.48
77.81
73.75
68.00
62.06
57.73
56.39
58.47
63.21
68.92
73.67
76.00
75.34
72.12
67.32
62.08
57.24
53.18
49.81
46.78
43.61
40.05
36.14
32.13
28.44
25.36
22.92
20.88
18.92
16.84
14.73
12.96
11.95
11.91
12.74
13.95
14.91
15.10
14.25
12.37
9.67
6.44
2.99
-0.37
-3.46
-6.28
-8.99
-11.99
-15.63
-20.02
-24.92
-29.78
-34.09
-37.66
-40.85
-44.40
-49.11
-55.34
-62.80
-70.64
-77.74
-83.16
-86.52
-88.10
-88.79
-89.86
-92.43
-97.18
-103.93
-111.54
-118.00
-120.81
-117.67
-107.21
-89.66
-67.01
-42.58
-20.14
-2.78
7.93
12.31
12.24
10.39
9.32
10.82
15.60
23.46
33.56
44.72
55.66
65.09
71.91
75.44
75.68
73.45
70.29
67.98
68.03
71.06
76.55
83.03
88.67
91.93
92.03
89.07
83.81
77.26
70.30
63.51
57.06
50.89
44.84
38.81
32.91
27.39
22.56
18.67
15.68
13.35
11.31
9.24
7.09
5.04
3.43
2.49
2.21
2.27
2.17
1.39
-0.39
-3.21
-6.82
-10.78
-14.64
-18.10
-21.20
-24.15
-27.37
-31.12
-35.38
-39.83
-44.06
-47.73
-50.90
-53.99
-57.59
-62.20
-68.02
-74.91
-82.37
-89.81
-96.57
-102.04
-105.74
-107.59
-108.14
-108.57
-110.35
-114.48
-120.70
-127.13
-130.61
-127.70
-116.03
-95.20
-67.10
-35.08
-3.02
25.86
49.48
66.96
78.36
84.26
85.69
83.96
80.58
76.93
74.12
72.59
72.17
72.25
72.03
70.91
68.78
66.01
63.41
61.94
62.37
64.90
69.13
74.01
78.24
80.71
80.78
78.48
74.40
69.48
64.60
60.39
57.01
54.25
51.63
48.65
45.06
40.86
36.40
32.10
28.39
25.44
23.18
21.33
19.62
17.88
16.16
14.70
13.66
13.07
12.73
12.28
11.37
9.90
8.00
6.04
4.46
3.46
2.93
2.49
1.51
-0.50
-3.81
-8.40
-13.96
-20.02
-26.05
-31.55
-36.30
-40.46
-44.63
-49.80
-57.02
-66.73
-78.31
-89.95
-98.98
-102.76
-99.63
-89.42
-73.55
-54.43
-34.58
-15.96
0.23
13.56
24.01
31.70
36.86
39.61
40.18
38.85
36.07
32.46
28.74
25.52
23.11
21.46
20.20
19.04
18.11
17.97
19.46
23.06
28.50
34.63
39.85
42.77
42.81
40.39
36.53
32.41
28.80
25.83
23.21
20.46
17.26
13.58
9.68
5.87
2.47
-0.42
-2.85
-4.96
-6.98
-9.02
-11.07
-12.92
-14.33
-15.07
-15.12
-14.81
-14.64
-15.24
-17.02
-20.03
-23.93
-28.09
-31.94
-35.17
-38.06
-41.26
-45.64
-51.83
-59.95
-69.48
-79.41
-88.66
-96.34
-102.08
-105.97
-108.59
-110.86
-113.86
-118.51
-125.03
-132.56
-138.95
-141.23
-136.53
-123.14
-101.36
-73.41
-42.73
-12.87
13.43
34.67
50.44
61.01
67.07
69.54
69.55
68.41
67.33
67.26
68.49
70.64
72.83
74.01
73.35
70.58
66.18
61.26
57.28
55.50
56.59
60.29
65.53
70.81
74.73
76.42
75.78
73.24
69.52
65.27
60.91
56.60
52.37
48.16
43.94
39.76
35.72
31.99
28.71
26.03
24.00
22.55
21.53
20.69
19.78
18.63
17.21
15.61
14.02
12.63
11.55
10.78
10.13
9.30
7.97
5.91
3.14
-0.12
-3.47
-6.52
-9.09
-11.26
-13.40
-16.03
-19.53
-23.95
-28.96
-33.92
-38.22
-41.49
-43.88
-46.01
-48.75
-52.83
-58.54
-65.61
-73.26
-80.62
-86.91
-91.83
-95.57
-98.79
-102.41
-107.35
-114.12
-122.42
-130.93
-137.42
-139.23
-134.08
-120.95
-100.47
-74.82
-47.17
-20.57
2.62
21.21
35.12
45.03
51.94
56.83
60.53
63.52
66.13
68.41
70.30
71.60
72.01
71.26
69.14
65.74
61.46
57.06
53.49
51.57
51.75
53.80
56.94
60.05
62.08
62.44
61.13
58.60
55.52
52.54
49.96
47.80
45.79
43.59
40.92
37.69
34.03
30.15
26.36
22.87
19.81
17.29
15.34
14.01
13.25
12.97
12.87
12.66
12.07
11.06
9.88
8.82
8.09
7.58
6.90
5.48
2.88
-0.98
-5.73
-10.65
-15.03
-18.47
-21.05
-23.20
-25.60
-28.77
-32.93
-37.91
-43.21
-48.21
-52.37
-55.36
-57.22
-58.42
-59.80
-62.34
-66.77
-73.07
-80.27
-86.32
-88.75
-85.39
-75.15
-58.43
-37.10
-13.83
8.70
28.35
44.07
55.62
63.42
68.22
70.88
72.15
72.57
72.49
71.98
71.02
69.53
67.44
64.84
61.95
59.11
56.61
54.85
54.01
54.18
55.08
56.10
56.48
55.43
52.56
47.91
42.13
36.06
30.64
26.39
23.33
21.10
19.14
17.02
14.54
11.77
8.89
6.14
3.72
1.74
0.29
-0.67
-1.25
-1.63
-2.16
-3.11
-4.66
-6.78
-9.28
-11.82
-14.09
-15.95
-17.50
-19.09
-21.17
-24.11
-27.98
-32.56
-37.43
-42.19
-46.66
-51.04
-55.73
-61.17
-67.55
-74.67
-81.93
-88.61
-94.08
-98.00
-100.41
-101.84
-103.14
-105.35
-109.44
-115.76
-123.67
-131.36
-136.09
-134.96
-126.00
-108.89
-85.14
-57.59
-29.50
-3.61
18.32
35.49
47.86
55.86
60.20
61.91
62.16
62.04
62.30
63.20
64.47
65.62
66.13
65.67
64.17
61.88
59.32
57.19
56.18
56.74
58.84
61.96
65.17
67.45
68.01
66.61
63.54
59.43
55.01
50.84
47.14
43.78
40.50
37.03
33.30
29.51
25.97
23.02
20.84
19.43
18.55
17.92
17.29
16.53
15.63
14.71
13.87
13.16
12.51
11.70
10.53
8.82
6.48
3.58
0.32
-3.08
-6.37
-9.42
-12.16
-14.69
-17.12
-19.69
-22.50
-25.56
-28.71
-31.78
-34.68
-37.50
-40.54
-44.17
-48.72
-54.27
-60.61
-67.28
-73.74
-79.45
-84.12
-87.66
-90.32
-92.69
-95.58
-99.78
-105.63
-112.62
-119.15
-122.90
-121.37
-112.79
-96.80
-74.63
-48.75
-22.11
2.65
23.70
40.17
51.96
59.50
63.51
64.90
64.67
63.80
63.07
62.90
63.24
63.68
63.67
62.76
60.89
58.45
56.16
54.78
54.94
56.69
59.57
62.69
65.01
65.66
64.23
60.86
56.13
50.86
45.74
41.17
37.23
33.72
30.37
27.00
23.56
20.14
16.90
13.95
11.32
9.07
7.25
5.99
5.40
5.47
6.06
6.84
7.43
7.45
6.76
5.33
3.40
1.28
-0.77
-2.59
-4.13
-5.52
-6.90
-8.49
-10.52
-13.10
-16.19
-19.64
-23.15
-26.42
-29.28
-31.81
-34.33
-37.32
-41.17
-45.95
-51.48
-57.19
-62.46
-66.74
-69.75
-71.61
-72.83
-74.27
-76.72
-80.75
-86.06
-91.50
-95.13
-94.69
-88.42
-75.71
-57.43
-35.69
-13.26
7.33
24.32
37.00
45.58
50.70
53.22
53.93
53.51
52.61
51.77
51.33
51.35
51.65
51.82
51.60
51.00
50.39
50.35
51.42
53.79
57.13
60.75
63.70
65.25
65.04
63.21
60.27
56.93
53.82
51.31
49.49
48.17
47.05
45.81
44.22
42.21
39.85
37.33
34.72
32.03
29.09
25.78
22.02
17.96
13.93
10.30
7.33
4.98
2.93
0.71
-2.07
-5.57
-9.69
-14.08
-18.33
-22.10
-25.26
-27.96
-30.66
-33.97
-38.49
-44.57
-52.13
-60.65
-69.24
-76.93
-83.01
-87.31
-90.33
-93.11
-96.96
-102.85
-110.79
-119.55
-126.70
-129.36
-125.14
-113.09
-94.06
-70.43
-45.25
-21.23
-0.21
17.04
30.47
40.37
47.08
50.98
52.61
52.67
51.97
51.20
50.77
50.71
50.70
50.26
49.00
46.87
44.24
41.88
40.69
41.36
44.00
48.06
52.39
55.70
57.04
56.08
53.20
49.18
44.95
41.11
37.83
34.96
32.08
28.87
25.19
21.17
17.07
13.25
9.94
7.24
5.12
3.46
2.13
0.98
0.01
-0.85
-1.56
-2.18
-2.86
-3.83
-5.32
-7.53
-10.50
-14.08
-17.97
-21.75
-25.09
-27.89
-30.35
-32.94
-36.20
-40.53
-45.95
-52.11
-58.43
-64.28
-69.28
-73.35
-76.72
-79.85
-83.33
-87.71
-93.23
-99.63
-105.84
-110.13
-110.41
-105.04
-93.32
-75.91
-54.61
-31.80
-9.77
9.85
26.18
38.99
48.43
54.90
58.92
61.11
62.12
62.57
62.90
63.31
63.67
63.65
62.84
60.97
58.12
54.80
51.82
50.03
49.94
51.44
53.85
56.17
57.43
57.12
55.28
52.37
48.99
45.64
42.51
39.58
36.68
33.64
30.42
27.12
23.92
21.03
18.62
16.78
15.51
14.71
14.20
13.81
13.41
12.91
12.28
11.56
10.71
9.69
8.39
6.59
4.22
1.31
-1.91
-5.05
-7.76
-9.90
-11.57
-13.11
-14.92
-17.25
-20.07
-23.08
-25.94
-28.43
-30.69
-33.09
-36.11
-40.08
-44.99
-50.53
-56.17
-61.39
-65.80
-69.30
-71.95
-74.04
-76.17
-79.01
-83.22
-89.00
-95.73
-101.95
-105.58
-104.52
-97.43
-84.21
-66.02
-44.94
-23.29
-3.02
14.51
28.64
39.24
46.66
51.39
54.19
55.73
56.55
57.02
57.21
57.03
56.30
54.92
52.86
50.32
47.61
45.20
43.67
43.42
44.62
46.92
49.63
51.81
52.76
52.13
50.11
47.28
44.25
41.49
39.13
37.06
35.01
32.84
30.48
27.98
25.41
22.78
20.09
17.33
14.58
12.02
9.91
8.45
7.66
7.43
7.46
7.49
7.32
6.86
6.15
5.25
4.23
3.11
1.93
0.71
-0.47
-1.58
-2.72
-4.03
-5.71
-7.91
-10.63
-13.64
-16.68
-19.45
-21.88
-24.14
-26.59
-29.58
-33.36
-37.88
-42.81
-47.72
-52.11
-55.66
-58.31
-60.31
-62.20
-64.68
-68.29
-73.14
-78.66
-83.53
-86.00
-84.36
-77.54
-65.52
-49.38
-30.87
-12.02
5.50
20.59
32.74
41.93
48.37
52.39
54.42
54.98
54.57
53.70
52.76
51.96
51.28
50.70
50.18
49.84
49.90
50.62
52.17
54.53
57.43
60.25
62.33
63.01
61.99
59.36
55.53
51.10
46.60
42.33
38.29
34.34
30.32
26.18
22.05
18.11
14.58
11.56
9.07
7.03
5.35
3.94
2.75
1.76
0.86
-0.08
-1.23
-2.76
-4.68
-6.87
-9.12
-11.20
-12.92
-14.24
-15.24
-16.12
-17.13
-18.51
-20.43
-22.94
-25.94
-29.15
-32.29
-35.19
-38.00
-41.10
-44.98
-49.99
-56.15
-63.09
-70.19
-76.79
-82.38
-86.76
-90.04
-92.63
-95.21
-98.49
-102.94
-108.39
-113.67
-116.81
-115.55
-108.19
-94.31
-75.08
-52.79
-30.13
-9.32
8.33
22.43
33.15
40.88
46.09
49.24
50.96
51.97
52.91
54.19
55.91
57.72
59.12
59.67
59.07
57.45
55.28
53.29
52.20
52.45
54.01
56.29
58.41
59.49
58.99
56.88
53.59
49.77
45.99
42.64
39.75
37.15
34.60
31.94
29.17
26.37
23.69
21.22
19.00
16.97
15.12
13.46
12.05
11.00
10.33
9.97
9.77
9.59
9.30
8.92
8.46
7.99
7.50
6.91
6.11
4.95
3.37
1.38
-0.91
-3.29
-5.62
-7.78
-9.76
-11.69
-13.70
-15.95
-18.57
-21.53
-24.71
-27.92
-30.93
-33.67
-36.31
-39.18
-42.72
-47.25
-52.80
-59.04
-65.43
-71.32
-76.22
-79.97
-82.74
-85.09
-87.82
-91.68
-97.03
-103.52
-109.87
-114.04
-113.82
-107.52
-94.67
-76.24
-54.21
-31.14
-9.31
9.67
25.02
36.55
44.55
49.56
52.25
53.51
54.17
54.90
56.04
57.48
58.77
59.32
58.63
56.54
53.39
49.88
46.89
45.22
45.22
46.71
49.07
51.42
52.95
53.23
52.18
50.11
47.45
44.55
41.64
38.78
35.93
32.98
29.94
26.88
23.93
21.27
19.03
17.31
16.10
15.28
14.69
14.18
13.64
13.02
12.32
11.58
10.79
9.88
8.79
7.53
6.18
4.89
3.77
2.86
2.01
0.97
-0.52
-2.58
-5.10
-7.85
-10.48
-12.81
-14.77
-16.59
-18.58
-21.10
-24.36
-28.38
-33.02
-37.96
-42.86
-47.37
-51.33
-54.83
-58.25
-62.18
-67.21
-73.64
-81.06
-88.37
-93.80
-95.37
-91.46
-81.43
-65.81
-46.28
-25.11
-4.59
13.45
28.07
39.08
46.90
52.16
55.47
57.29
57.94
57.67
56.78
55.59
54.44
53.58
53.22
53.44
54.31
55.88
58.15
61.06
64.34
67.50
69.84
70.67
69.54
66.41
61.67
56.07
50.33
45.00
40.21
35.73
31.27
26.62
21.86
17.36
13.60
10.99
9.63
9.27
9.38
9.43
8.96
7.85
6.21
4.35
2.56
1.00
-0.35
-1.62
-2.94
-4.50
-6.44
-8.92
-12.02
-15.69
-19.70
-23.63
-27.06
-29.61
-31.23
-32.11
-32.67
-33.43
-34.90
-37.52
-41.62
-47.41
-54.87
-63.79
-73.55
-83.34
-92.28
-99.60
-104.92
-108.41
-110.79
-113.27
-116.99
-122.49
-129.16
-135.10
-137.57
-133.85
-122.31
-103.14
-78.22
-50.50
-23.07
1.60
22.04
37.73
48.73
55.57
58.98
59.96
59.60
58.96
58.80
59.40
60.63
61.96
62.78
62.59
61.17
58.75
55.94
53.61
52.57
53.26
55.53
58.65
61.56
63.20
62.95
60.73
57.05
52.63
48.19
44.15
40.66
37.56
34.62
31.68
28.68
25.69
22.70
19.71
16.66
13.49
10.27
7.15
4.42
2.38
1.21
0.95
1.51
2.68
4.18
5.78
7.14
7.97
7.91
6.70
4.21
0.55
-3.94
-8.83
-13.73
-18.50
-23.29
-28.47
-34.38
-41.18
-48.69
-56.45
-63.85
-70.29
-75.38
-79.00
-81.34
-82.89
-84.45
-86.97
-91.25
-97.44
-104.69
-111.11
-114.17
-111.53
-101.82
-85.20
-63.35
-38.83
-14.33
8.07
27.14
42.44
54.03
62.18
67.28
69.79
70.31
69.49
68.01
66.39
64.88
63.52
62.12
60.46
58.38
55.95
53.48
51.38
50.12
49.91
50.66
51.90
52.96
53.16
52.14
49.80
46.41
42.40
38.23
34.29
30.76
27.63
24.81
22.23
19.87
17.75
15.93
14.38
13.05
11.90
10.86
9.94
9.14
8.46
7.79
7.02
5.96
4.48
2.58
0.38
-1.95
-4.30
-6.67
-9.25
-12.22
-15.72
-19.67
-23.80
-27.75
-31.23
-34.26
-37.10
-40.29
-44.23
-49.20
-55.11
-61.54
-67.96
-73.74
-78.44
-81.88
-84.32
-86.28
-88.58
-91.85
-96.25
-101.22
-105.34
-106.69
-103.35
-94.12
-78.93
-59.02
-36.49
-13.80
6.94
24.33
37.79
47.44
53.82
57.70
59.83
60.86
61.27
61.37
61.24
60.79
59.87
58.30
56.06
53.34
50.57
48.34
47.30
47.92
50.22
53.72
57.49
60.55
62.10
61.82
59.89
56.81
53.19
49.48
45.94
42.57
39.36
36.30
33.37
30.58
27.83
24.99
21.98
18.80
15.57
12.53
9.91
7.77
6.01
4.32
2.34
-0.12
-3.04
-6.18
-9.17
-11.67
-13.60
-15.16
-16.80
-19.06
-22.30
-26.56
-31.58
-36.83
-41.73
-45.83
-48.91
-51.05
-52.65
-54.24
-56.46
-59.75
-64.16
-69.21
-73.74
-76.20
-75.01
-69.08
-58.14
-42.92
-24.87
-5.79
12.62
29.10
42.90
53.71
61.48
66.39
68.70
68.79
67.13
64.19
60.39
55.96
51.07
45.92
40.86
36.43
33.21
31.67
31.94
33.73
36.39
39.11
41.21
42.28
42.26
41.30
39.63
37.43
34.85
31.94
28.67
25.04
21.01
16.69
12.27
8.05
4.32
1.28
-1.04
-2.80
-4.21
-5.48
-6.66
-7.69
-8.55
-9.36
-10.40
-12.09
-14.82
-18.78
-23.82
-29.54
-35.35
-40.83
-45.87
-50.70
-55.81
-61.72
-68.58
-76.19
-83.95
-91.08
-96.98
-101.30
-104.05
-105.65
-106.88
-108.70
-112.03
-117.29
-123.82
-129.83
-132.56
-129.26
-118.17
-99.36
-74.71
-47.29
-20.35
3.70
23.54
38.90
50.13
57.76
62.41
64.82
65.79
66.18
66.61
67.33
68.16
68.66
68.33
66.86
64.29
61.03
57.85
55.59
54.94
56.17
58.94
62.36
65.33
66.87
66.48
64.23
60.73
56.68
52.72
49.19
46.09
43.22
40.28
37.05
33.48
29.72
26.01
22.62
19.78
17.59
16.00
14.87
14.01
13.28
12.60
11.99
11.50
11.20
11.08
11.07
11.00
10.56
9.45
7.43
4.49
0.91
-2.79
-6.08
-8.60
-10.34
-11.64
-13.09
-15.23
-18.35
-22.32
-26.68
-30.88
-34.54
-37.59
-40.39
-43.45
-47.28
-52.14
-57.95
-64.40
-71.02
-77.29
-82.70
-86.91
-89.85
-91.90
-93.94
-97.05
-102.04
-108.72
-115.65
-120.21
-119.58
-111.67
-96.04
-74.11
-48.58
-22.56
1.38
21.60
37.48
49.01
56.65
61.02
62.98
63.59
63.90
64.71
66.30
68.41
70.33
71.28
70.69
68.44
64.99
61.15
57.89
55.95
55.60
56.54
58.01
59.07
58.89
57.12
53.87
49.69
45.23
41.03
37.25
33.79
30.32
26.62
22.75
19.02
15.86
13.62
12.37
11.84
11.63
11.38
10.86
10.11
9.28
8.52
7.95
7.63
7.53
7.58
7.72
7.75
7.51
6.82
5.60
3.85
1.69
-0.71
-3.14
-5.37
-7.29
-8.78
-9.90
-10.83
-11.87
-13.33
-15.33
-17.78
-20.33
-22.60
-24.33
-25.65
-26.98
-28.93
-31.96
-36.21
-41.46
-47.11
-52.52
-57.10
-60.49
-62.63
-63.78
-64.57
-65.84
-68.40
-72.54
-77.78
-82.70
-85.22
-83.32
-75.70
-62.36
-44.62
-24.69
-4.99
12.46
26.54
37.01
44.30
49.14
52.20
54.00
54.83
54.91
54.38
53.46
52.36
51.23
50.26
49.57
49.41
50.02
51.67
54.39
58.00
62.01
65.72
68.52
69.95
69.95
68.69
66.52
63.85
60.95
57.95
54.78
51.28
47.25
42.61
37.32
31.52
25.54
19.81
14.79
10.84
8.19
6.75
6.28
6.29
6.29
5.87
4.76
2.96
0.64
-1.90
-4.43
-6.86
-9.25
-11.81
-14.73
-18.11
-21.84
-25.69
-29.34
-32.64
-35.58
-38.45
-41.74
-46.00
-51.63
-58.67
-66.73
-75.06
-82.78
-89.20
-94.08
-97.79
-101.20
-105.37
-111.05
-118.26
-125.93
-132.04
-134.11
-130.07
-119.01
-101.55
-79.65
-55.86
-32.64
-11.75
5.86
19.92
30.48
37.80
42.42
45.06
46.64
48.06
49.87
52.23
54.86
57.29
59.02
59.76
59.44
58.35
56.94
55.81
55.44
56.04
57.45
59.14
60.45
60.79
59.83
57.59
54.38
50.65
46.83
43.25
40.05
37.20
34.53
31.92
29.27
26.61
24.13
21.98
20.33
19.18
18.39
17.75
17.06
16.19
15.14
14.01
12.95
12.07
11.35
10.61
9.67
8.30
6.40
4.02
1.26
-1.67
-4.58
-7.27
-9.60
-11.48
-12.96
-14.25
-15.69
-17.60
-20.11
-23.09
-26.24
-29.30
-32.26
-35.44
-39.34
-44.37
-50.64
-57.84
-65.39
-72.67
-79.16
-84.58
-88.90
-92.33
-95.30
-98.52
-102.65
-108.08
-114.48
-120.50
-123.98
-122.57
-114.59
-99.73
-79.20
-55.36
-30.89
-8.12
11.54
27.37
39.28
47.43
52.29
54.60
55.38
55.77
56.65
58.42
60.80
63.11
64.49
64.34
62.52
59.38
55.68
52.35
50.20
49.69
50.81
53.06
55.65
57.71
58.62
58.15
56.49
54.06
51.28
48.47
45.69
42.86
39.88
36.71
33.40
30.09
26.92
23.99
21.35
19.07
17.21
15.83
14.96
14.57
14.50
14.53
14.38
13.83
12.80
11.41
9.92
8.58
7.62
7.05
6.76
6.43
5.77
4.51
2.62
0.27
-2.27
-4.68
-6.86
-8.92
-11.26
-14.34
-18.55
-23.97
-30.31
-36.97
-43.10
-47.99
-51.18
-52.75
-53.34
-54.02
-55.98
-60.03
-66.25
-73.66
-80.51
-84.64
-84.14
-77.97
-66.25
-50.22
-31.86
-13.38
3.38
17.22
27.67
34.94
39.53
42.08
43.18
43.29
42.74
41.78
40.59
39.28
37.91
36.44
34.90
33.43
32.34
32.05
32.89
34.99
38.11
41.68
44.88
46.94
47.32
45.86
42.76
38.57
33.95
29.55
25.77
22.74
20.33
18.31
16.42
14.60
12.90
11.45
10.26
9.20
8.01
6.44
4.33
1.76
-0.97
-3.53
-5.63
-7.24
-8.52
-9.82
-11.53
-14.01
-17.43
-21.73
-26.58
-31.53
-36.20
-40.39
-44.29
-48.30
-52.86
-58.21
-64.22
-70.44
-76.33
-81.39
-85.41
-88.54
-91.29
-94.42
-98.74
-104.73
-112.17
-119.94
-125.99
-127.87
-123.44
-111.67
-93.12
-69.69
-44.09
-18.94
3.76
22.92
38.17
49.62
57.57
62.52
65.16
66.33
66.90
67.44
68.16
68.82
68.93
68.05
66.01
63.03
59.69
56.76
54.96
54.74
56.16
58.75
61.73
64.22
65.54
65.35
63.83
61.32
58.32
55.19
51.98
48.66
45.07
41.15
36.95
32.68
28.59
24.95
21.96
19.64
17.96
16.77
15.90
15.12
14.22
12.95
11.15
8.77
5.91
2.91
0.11
-2.22
-4.06
-5.60
-7.23
-9.31
-12.08
-15.51
-19.29
-23.02
-26.28
-28.84
-30.79
-32.53
-34.68
-37.78
-42.19
-47.80
-54.26
-60.96
-67.34
-72.99
-77.80
-82.10
-86.45
-91.68
-98.35
-106.51
-115.20
-122.48
-125.86
-123.04
-112.81
-95.51
-73.03
-48.14
-23.73
-1.90
16.21
30.32
40.75
47.92
52.38
54.67
55.46
55.43
55.20
55.13
55.24
55.34
55.03
54.16
52.80
51.36
50.48
50.73
52.44
55.39
58.96
62.19
64.14
64.25
62.44
59.09
54.81
50.28
45.91
41.97
38.47
35.34
32.50
29.85
27.34
24.91
22.50
20.06
17.56
15.02
12.48
10.03
7.79
5.91
4.43
3.29
2.28
1.08
-0.59
-2.98
-6.04
-9.55
-13.07
-16.20
-18.69
-20.63
-22.34
-24.31
-27.06
-30.82
-35.57
-40.92
-46.27
-50.98
-54.60
-57.08
-58.72
-60.28
-62.56
-66.23
-71.37
-77.33
-82.64
-85.37
-83.63
-76.14
-62.79
-44.62
-23.67
-2.35
17.22
33.66
46.46
55.87
62.43
66.73
69.25
70.31
70.11
68.93
66.99
64.53
61.71
58.69
55.65
52.85
50.63
49.28
48.96
49.52
50.49
51.20
51.02
49.50
46.60
42.58
37.87
33.00
28.30
23.96
20.00
16.35
12.84
9.28
5.46
1.19
-3.53
-8.60
-13.73
-18.46
-22.40
-25.30
-27.23
-28.56
-29.97
-32.14
-35.57
-40.34
-46.14
-52.30
-58.12
-63.08
-66.97
-69.98
-72.52
-75.21
-78.70
-83.52
-89.86
-97.16
-104.01
-108.29
-107.82
-100.98
-87.56
-68.77
-46.86
-24.46
-3.69
14.18
28.76
40.19
48.87
55.13
59.23
61.49
62.24
62.01
61.28
60.44
59.58
58.57
57.14
55.10
52.64
50.20
48.47
47.98
48.81
50.55
52.40
53.52
53.27
51.55
48.56
44.76
40.67
36.68
33.04
29.80
26.95
24.36
21.98
19.71
17.52
15.42
13.44
11.62
9.95
8.45
7.06
5.78
4.58
3.48
2.48
1.50
0.50
-0.67
-2.05
-3.64
-5.39
-7.18
-9.03
-11.00
-13.33
-16.16
-19.50
-23.17
-26.78
-30.00
-32.58
-34.69
-36.71
-39.29
-42.92
-47.84
-53.79
-60.18
-66.21
-71.22
-74.90
-77.35
-79.14
-81.12
-84.27
-89.26
-96.12
-103.99
-111.02
-114.80
-113.06
-104.37
-88.78
-67.77
-43.79
-19.48
2.87
21.82
36.75
47.63
54.93
59.31
61.61
62.62
63.00
63.00
62.56
61.36
58.98
55.16
49.89
43.43
36.28
29.19
23.02
18.64
16.63
17.17
19.94
24.30
29.48
34.86
40.13
45.25
50.22
54.89
58.90
61.74
63.01
62.51
60.42
57.18
53.34
49.43
45.77
42.43
39.35
36.37
33.36
30.34
27.39
24.65
22.26
20.27
18.60
17.05
15.33
13.18
10.44
7.14
3.55
0.04
-3.02
-5.51
-7.56
-9.57
-12.04
-15.33
-19.47
-24.09
-28.63
-32.55
-35.69
-38.33
-41.03
-44.43
-48.82
-54.07
-59.65
-64.94
-69.42
-72.90
-75.44
-77.29
-78.89
-80.81
-83.74
-88.15
-94.00
-100.36
-105.37
-106.69
-102.31
-91.29
-74.24
-53.12
-30.54
-8.93
10.04
25.68
37.99
47.38
54.25
58.97
61.87
63.27
63.58
63.18
62.41
61.43
60.31
59.00
57.50
55.88
54.35
53.29
53.04
53.78
55.38
57.36
59.04
59.78
59.17
57.19
54.20
50.76
47.38
44.39
41.81
39.49
37.14
34.52
31.57
28.35
25.07
21.92
19.07
16.57
14.36
12.38
10.58
8.97
7.65
6.73
6.27
6.20
6.29
6.28
5.91
5.04
3.65
1.85
-0.25
-2.48
-4.66
-6.61
-8.21
-9.47
-10.57
-11.96
-14.10
-17.29
-21.46
-26.18
-30.74
-34.57
-37.44
-39.70
-42.07
-45.42
-50.38
-57.12
-65.25
-73.86
-81.62
-86.96
-88.36
-84.75
-75.84
-62.28
-45.62
-27.85
-10.87
3.96
16.03
25.32
32.13
36.73
39.32
40.05
39.23
37.36
35.10
33.07
31.63
30.78
30.24
29.74
29.19
28.78
28.91
29.89
31.75
34.13
36.35
37.73
37.82
36.53
34.15
31.10
27.79
24.50
21.31
18.27
15.35
12.53
9.77
7.01
4.15
1.17
-1.85
-4.69
-7.09
-8.90
-10.17
-11.16
-12.27
-13.80
-15.87
-18.39
-21.10
-23.71
-26.12
-28.37
-30.74
-33.56
-37.10
-41.53
-46.74
-52.50
-58.37
-63.89
-68.68
-72.57
-75.72
-78.62
-81.99
-86.48
-92.35
-99.12
-105.45
-109.37
-108.82
-102.34
-89.57
-71.48
-50.04
-27.61
-6.34
12.29
27.60
39.60
48.66
55.35
60.25
63.80
66.35
68.03
68.88
68.87
68.03
66.46
64.35
61.90
59.34
56.89
54.81
53.42
52.92
53.35
54.40
55.49
55.95
55.23
53.20
50.07
46.39
42.71
39.42
36.57
33.94
31.22
28.18
24.81
21.30
17.97
15.09
12.82
11.15
9.93
9.02
8.25
7.52
6.80
6.08
5.37
4.68
4.00
3.34
2.70
2.12
1.63
1.31
1.20
1.28
1.53
1.84
2.10
2.16
1.87
1.16
0.01
-1.51
-3.26
-5.16
-7.14
-9.26
-11.62
-14.29
-17.29
-20.53
-23.82
-26.98
-29.91
-32.67
-35.53
-38.80
-42.77
-47.52
-52.94
-58.69
-64.38
-69.63
-74.18
-77.95
-81.15
-84.24
-87.90
-92.76
-99.01
-106.04
-112.33
-115.71
-114.04
-105.93
-91.35
-71.66
-49.17
-26.45
-5.67
11.86
25.68
35.94
43.19
48.05
51.17
53.18
54.66
56.07
57.65
59.34
60.79
61.50
61.07
59.41
56.90
54.25
52.26
51.46
51.91
53.18
54.53
55.23
54.85
53.33
50.94
48.13
45.24
42.48
39.84
37.22
34.49
31.59
28.59
25.60
22.77
20.20
17.94
15.98
14.29
12.81
11.51
10.32
9.12
7.87
6.56
5.22
3.88
2.52
1.00
-0.87
-3.21
-6.06
-9.25
-12.54
-15.72
-18.71
-21.68
-24.84
-28.46
-32.64
-37.37
-42.51
-47.79
-52.92
-57.54
-61.35
-64.22
-66.36
-68.33
-70.96
-74.95
-80.50
-86.96
-92.76
-95.87
-94.34
-87.06
-74.09
-56.73
-36.99
-17.04
1.39
17.31
30.36
40.61
48.26
53.56
56.75
58.17
58.31
57.66
56.68
55.57
54.37
53.02
51.55
50.20
49.39
49.56
50.97
53.54
56.77
59.92
62.26
63.25
62.72
60.84
58.03
54.75
51.36
47.98
44.52
40.75
36.46
31.61
26.36
21.09
16.18
11.83
8.01
4.38
0.54
-3.79
-8.59
-13.54
-18.19
-22.14
-25.27
-27.84
-30.34
-33.34
-37.24
-42.11
-47.73
-53.67
-59.44
-64.63
-68.95
-72.37
-75.13
-77.77
-81.04
-85.57
-91.48
-98.03
-103.55
-105.83
-102.90
-93.74
-78.80
-59.78
-39.10
-19.03
-1.16
13.79
25.75
34.94
41.63
46.05
48.54
49.57
49.75
49.70
49.80
50.12
50.40
50.23
49.28
47.53
45.38
43.51
42.65
43.24
45.16
47.77
50.11
51.23
50.63
48.34
44.92
41.12
37.61
34.70
32.37
30.28
28.09
25.58
22.75
19.74
16.77
13.94
11.26
8.72
6.28
4.07
2.20
0.78
-0.22
-0.90
-1.46
-2.11
-3.01
-4.34
-6.24
-8.82
-12.08
-15.89
-19.91
-23.80
-27.37
-30.67
-34.04
-37.87
-42.48
-47.85
-53.69
-59.49
-64.73
-69.09
-72.45
-75.05
-77.36
-80.05
-83.75
-88.76
-94.77
-100.69
-104.75
-104.93
-99.66
-88.32
-71.56
-51.11
-29.21
-8.04
10.82
26.49
38.74
47.77
54.02
58.07
60.56
62.13
63.25
64.16
64.83
64.98
64.30
62.58
59.89
56.63
53.41
50.92
49.71
49.99
51.50
53.62
55.52
56.49
56.09
54.31
51.45
48.03
44.55
41.32
38.42
35.72
33.04
30.20
27.22
24.24
21.51
19.22
17.42
16.00
14.76
13.53
12.23
10.98
9.92
9.20
8.81
8.61
8.33
7.70
6.53
4.80
2.61
0.21
-2.19
-4.42
-6.50
-8.57
-10.87
-13.61
-16.85
-20.47
-24.14
-27.51
-30.35
-32.77
-35.13
-38.00
-41.84
-46.73
-52.34
-58.02
-63.07
-67.06
-70.04
-72.44
-74.89
-78.05
-82.32
-87.74
-93.81
-99.54
-103.39
-103.61
-98.73
-88.01
-71.85
-51.77
-30.00
-8.80
9.97
25.33
37.01
45.26
50.64
53.76
55.28
55.77
55.75
55.56
55.35
55.08
54.61
53.79
52.56
51.05
49.51
48.35
47.94
48.46
49.78
51.45
52.85
