-161.64
-181.61
-197.73
-208.95
-214.7
-215.18
-211.33
-204.62
-196.55
-188.3
-180.41
-172.68
-164.45
-155.06
-144.3
-132.61
-120.74
-109.3
-98.17
-86.37
-72.45
-55.28
-34.47
-10.59
14.96
40.05
61.7
75.92
77.98
63.6
30.8
-18.33
-77.27
-136.62
-187.13
-222.76
-242.32
-248.86
-247.41
-242.4
-236.03
-228.43
-218.88
-207.32
-194.97
-183.93
-176.06
-172
-170.75
-170.36
-168.95
-165.75
-161.43
-157.64
-156.01
-157.09
-159.98
-162.75
-163.41
-160.97
-155.85
-149.57
-144.01
-140.59
-139.9
-141.84
-145.99
-151.8
-158.55
-165.01
-169.29
-169.07
-162.07
-146.85
-123.32
-92.86
-57.95
-21.56
13.58
45.43
72.84
95.5
113.69
128.03
139.22
147.92
154.64
159.72
163.37
165.67
166.65
166.34
164.95
162.88
160.75
159.24
158.9
159.93
161.99
164.33
165.96
165.98
163.87
159.65
153.79
147
139.98
133.15
126.67
120.36
113.95
107.18
99.94
92.31
84.51
76.86
69.55
62.67
56.12
49.74
43.39
37.01
30.64
24.41
18.47
12.96
7.99
3.5
-0.76
-5.24
-10.48
-16.75
-23.83
-30.76
-36.01
-37.86
-34.97
-26.78
-13.75
2.84
21.27
39.74
56.75
71.17
82.28
89.72
93.49
93.91
91.57
87.28
81.89
76.17
70.64
65.65
61.32
57.66
54.66
52.31
50.62
49.58
49.1
48.96
48.8
48.19
46.69
44
40.06
35.01
29.19
22.97
16.67
10.41
4.18
-2.16
-8.7
-15.43
-22.21
-28.76
-34.8
-40.08
-44.52
-48.21
-51.46
-54.67
-58.31
-62.71
-67.89
-73.34
-78.01
-80.51
-79.43
-73.84
-63.54
-49.18
-32.01
-13.53
4.84
21.96
37.02
49.48
59
65.5
69.1
70.21
69.46
67.48
64.84
61.82
58.54
54.99
51.23
47.47
44.09
41.52
40.07
39.79
40.46
41.62
42.74
43.37
43.23
42.16
40.22
37.58
34.51
31.29
28.14
25.2
22.45
19.83
17.26
14.66
12.01
9.29
6.54
3.78
1.07
-1.45
-3.69
-5.56
-7.1
-8.47
-9.94
-11.77
-14.16
-17.1
-20.44
-23.93
-27.31
-30.45
-33.44
-36.54
-40.09
-44.35
-49.35
-54.86
-60.47
-65.72
-70.3
-74.08
-77.26
-80.24
-83.55
-87.7
-92.87
-98.7
-104.04
-107.16
-106.17
-99.61
-87.06
-69.26
-47.91
-25.13
-2.86
17.46
34.92
49.05
59.65
66.81
70.92
72.65
72.85
72.29
71.47
70.48
69.15
67.22
64.55
61.2
57.48
53.82
50.65
48.3
46.96
46.62
47.06
47.87
48.49
48.42
47.29
45.06
42.01
38.59
35.27
32.33
29.81
27.51
25.2
22.71
20.01
17.18
14.33
11.56
9
6.75
4.93
3.58
2.7
2.13
1.67
1.09
0.2
-1.07
-2.71
-4.65
-6.74
-8.91
-11.1
-13.32
-15.64
-18.11
-20.74
-23.42
-26.03
-28.51
-30.99
-33.75
-37.15
-41.38
-46.36
-51.67
-56.73
-61.03
-64.34
-66.77
-68.68
-70.53
-72.77
-75.76
-79.65
-84.35
-89.28
-93.35
-95.14
-93.22
-86.68
-75.49
-60.47
-43.07
-24.9
-7.34
8.62
22.33
33.43
41.79
47.52
50.98
52.74
53.44
53.54
53.27
52.59
51.4
49.61
47.29
44.7
42.23
40.29
39.16
38.97
39.51
40.37
41.02
41.01
40.13
38.45
36.32
34.15
32.25
30.66
29.16
27.37
24.88
21.56
17.57
13.44
9.83
7.26
5.86
5.28
4.89
4
2.16
-0.77
-4.53
-8.52
-11.82
-13.3
-11.97
-7.57
-1.02
5.57
9.5
8.6
2.24
-8.33
-20.53
-31.66
-39.97
-45.11
-47.86
-49.34
-50.45
-51.61
-53.06
-55.03
-57.75
-61.18
-64.7
-67.03
-66.59
-62.17
-53.39
-40.94
-26.35
-11.51
1.96
13.06
21.53
27.66
31.97
34.96
36.92
37.91
37.88
36.78
34.66
31.75
28.4
25.05
22.14
20.05
19.01
19.06
20.09
21.86
24
26.07
27.59
28.15
27.45
25.43
22.31
18.52
14.58
10.97
7.95
5.58
3.66
1.91
-0.02
-2.37
-5.25
-8.64
-12.36
-16.19
-19.89
-23.33
-26.45
-29.36
-32.23
-35.28
-38.71
-42.62
-46.95
-51.46
-55.76
-59.47
-62.43
-64.76
-66.96
-69.63
-73.17
-77.47
-81.77
-84.78
-85.05
-81.49
-73.71
-62.09
-47.65
-31.71
-15.59
-0.33
13.3
24.83
34.06
40.99
45.82
48.89
50.59
51.28
51.24
50.61
49.46
47.83
45.76
43.44
41.15
39.24
38.03
37.7
38.25
39.44
40.87
42.1
42.77
42.63
41.6
39.72
37.18
34.19
31.05
28.01
25.23
22.67
20.12
17.29
13.92
9.99
5.76
1.73
-1.6
-3.96
-5.43
-6.49
-7.77
-9.84
-12.92
-16.77
-20.83
-24.45
-27.25
-29.35
-31.26
-33.63
-36.97
-41.39
-46.7
-52.63
-58.95
-65.24
-70.55
-73.41
-72.34
-66.92
-58.58
-50.37
-45.74
-46.8
-53
-61.4
-68.05
-69.8
-65.46
-55.78
-42.37
-26.71
-9.76
7.55
23.72
36.55
43.85
44.54
39.43
31.12
23.08
18.32
18.25
22.38
28.94
36
42.58
49.1
57
67.59
81.11
96.17
109.92
119.03
120.75
113.94
99.47
79.96
59.21
41.15
28.96
24.31
27.09
35.6
47.08
58.44
67
70.92
69.43
62.73
51.67
37.42
21.27
4.55
-11.35
-25.18
-36.13
-44.37
-51.22
-58.59
-67.85
-78.78
-89.27
-96.09
-96.54
-90.04
-78.65
-66.19
-56.64
-52.48
-54.04
-59.77
-67.29
-74.43
-79.89
-83.46
-85.72
-87.68
-90.31
-94.17
-99.1
-104.22
-107.93
-108.41
-104.02
-93.86
-78.12
-58.14
-36
-13.89
6.53
24.51
40.11
53.7
65.48
75.13
81.86
84.8
83.3
77.23
67.29
55.26
44.02
36.85
36.06
41.63
50.89
59.42
63.16
60.46
52.91
44.31
38.53
37.45
40.16
43.82
45.48
43.48
38.04
30.7
23.42
17.79
14.83
15.02
18.45
24.87
33.73
44.28
55.53
66.31
75.47
82.06
85.53
85.71
82.77
77.08
69.07
59.1
47.53
34.66
20.82
6.34
-8.17
-21.69
-32.75
-39.77
-41.94
-40
-36.45
-35.02
-39.17
-50.5
-67.8
-87.32
-104.33
-115.01
-117.92
-114.32
-107.21
-99.83
-94.25
-90.79
-88.34
-85.22
-80.17
-72.69
-62.94
-51.19
-37.57
-22.14
-5.38
11.46
26.48
37.67
43.86
45.32
43.63
41.04
39.37
39.35
40.6
42.1
42.96
42.88
42.05
40.84
39.35
37.44
35
32.19
29.47
27.21
25.33
23.2
19.99
15.17
8.91
2.01
-4.57
-10.2
-14.75
-18.38
-21.14
-22.69
-22.45
-20.02
-15.66
-10.34
-5.46
-2.31
-1.63
-3.53
-7.6
-13.17
-19.47
-25.71
-31.15
-35.18
-37.57
-38.57
-38.88
-39.38
-40.81
-43.46
-47.21
-51.65
-56.33
-60.87
-64.95
-68.23
-70.33
-70.9
-69.68
-66.51
-61.3
-53.93
-44.39
-32.87
-19.91
-6.22
7.52
21.06
34.56
48.23
61.79
74.08
83.35
88.1
87.91
83.91
78.37
73.61
70.88
69.84
68.83
65.98
60.2
51.73
42.02
32.99
26.25
22.64
22.12
24.01
27.24
30.58
32.95
33.6
32.36
29.62
26.26
23.32
21.51
20.9
20.78
19.92
16.99
11.09
2.09
-9.32
-21.81
-33.82
-43.95
-51.36
-55.88
-57.98
-58.41
-57.97
-57.21
-56.44
-55.77
-55.2
-54.66
-53.92
-52.61
-50.36
-47.06
-43.08
-39.28
-36.61
-35.78
-36.83
-39.26
-42.26
-45.11
-47.34
-48.67
-48.92
-48.15
-46.76
-45.68
-46.06
-48.82
-54.03
-60.67
-66.85
-70.45
-69.83
-64.36
-54.44
-41.28
-26.38
-11.17
3.2
15.97
26.74
35.39
41.91
46.32
48.62
48.89
47.58
45.57
44.02
43.93
45.69
48.86
52.33
54.9
55.85
55.32
54.17
53.43
53.75
55.13
57.12
59.19
61.04
62.6
63.8
64.27
63.39
60.52
55.39
48.23
39.78
31.01
22.97
16.62
12.73
11.71
13.38
16.81
20.54
23.01
23.28
21.31
17.91
14.22
11.08
8.69
6.68
4.6
2.36
0.41
-0.52
0.09
2.22
5.15
7.8
8.94
7.56
2.95
-5.2
-16.69
-30.73
-45.91
-60.51
-72.92
-82.14
-88.05
-91.19
-92.22
-91.28
-87.81
-80.88
-69.79
-54.53
-35.82
-14.57
8.58
33.39
59.75
87.31
115.24
142.41
167.9
191.39
213.15
233.72
253.27
271.29
286.58
297.63
303.13
302.38
295.43
282.98
266.08
245.88
223.34
199.05
173.3
146.16
117.76
88.37
58.54
28.98
0.53
-26.03
-50.06
-71.18
-89.23
-104.17
-115.93
-124.21
-128.45
-127.97
-122.33
-111.68
-97
-80.06
-63.05
-48.15
-37.2
-31.38
-31.08
-35.94
-45.02
-57.08
-71.1
-86.58
-103.62
-122.63
-143.84
-166.94
-191.01
-214.71
-236.64
-255.64
-271
-282.43
-290.06
-294.33
-295.79
-294.81
-291.35
-284.87
-274.67
-260.36
-242.39
-222.15
-201.55
-182.39
-165.69
-151.57
-139.52
-128.9
-119.2
-109.97
-100.63
-90.32
-78.2
-63.98
-48.43
-33.26
-20.52
-11.39
-5.46
-0.67
5.67
15.56
29.26
45.28
61.15
74.66
84.8
91.89
96.97
100.98
104.15
105.91
105.32
101.72
95.19
86.65
77.51
69.16
62.59
58.13
55.59
54.48
54.23
54.26
54.03
53.02
50.92
47.83
44.41
41.74
40.99
42.67
46.23
50.05
51.92
50.05
43.8
33.98
22.52
11.62
2.82
-3.48
-7.97
-11.83
-16.06
-20.9
-25.86
-29.95
-32.11
-31.48
-27.52
-20.05
-9.19
4.58
20.36
36.82
52.43
65.72
75.66
81.85
84.52
84.33
82.06
78.5
74.33
70.26
66.95
64.93
64.35
64.91
65.93
66.61
66.35
65.03
62.96
60.71
58.78
57.42
56.48
55.56
54.27
52.36
49.9
47.04
43.87
40.35
36.32
31.79
27.01
22.45
18.54
15.31
12.3
8.64
3.64
-2.85
-10.18
-17.18
-22.62
-25.75
-26.55
-25.68
-24.11
-22.77
-22.33
-23.1
-25.17
-28.45
-32.73
-37.59
-42.22
-45.45
-45.98
-42.74
-35.33
-24.2
-10.54
4.13
18.42
31.48
42.99
52.99
61.43
68
72.1
73.09
70.75
65.42
58.09
50.03
42.43
36.01
30.98
27.15
24.21
22.01
20.59
20.12
20.75
22.4
24.75
27.25
29.23
29.97
28.81
25.33
19.5
11.82
3.25
-5.02
-11.92
-16.87
-19.93
-21.7
-22.88
-23.94
-24.81
-25.06
-24.23
-22.16
-19.25
-16.35
-14.44
-14.19
-15.77
-18.79
-22.56
-26.47
-30.2
-33.75
-37.32
-41.07
-44.97
-48.79
-52.26
-55.31
-58.24
-61.6
-65.97
-71.54
-77.83
-83.69
-87.59
-88.11
-84.35
-76.19
-64.18
-49.34
-32.74
-15.4
1.9
18.47
33.7
46.97
57.65
65.13
68.92
68.8
65.02
58.39
50.19
41.82
34.43
28.73
24.95
23.02
22.8
24.11
26.67
30.07
33.69
36.99
39.55
41.26
42.16
42.31
41.66
40.15
37.84
35.04
32.23
29.77
27.74
25.88
23.77
21.16
18.14
15.09
12.5
10.75
9.95
10.04
10.91
12.43
14.36
16.29
17.57
17.5
15.69
12.22
7.74
3.09
-1.1
-4.63
-7.78
-10.9
-14.23
-17.59
-20.66
-23.21
-25.29
-27.3
-29.69
-32.73
-36.43
-40.61
-45.09
-49.73
-54.44
-59.06
-63.36
-67.14
-70.4
-73.41
-76.6
-80.34
-84.64
-89.07
-92.88
-95.19
-95.26
-92.66
-87.22
-79
-68.24
-55.28
-40.62
-24.96
-9.27
5.4
18
27.78
34.49
38.4
40.11
40.36
39.8
38.86
37.83
36.87
36.08
35.39
34.61
33.48
31.93
30.21
29.02
29.26
31.71
36.6
43.45
51.08
57.96
62.69
64.42
63.06
59.23
53.97
48.37
43.24
39
35.72
33.2
31.14
29.2
27.08
24.6
21.75
18.81
16.23
14.49
13.91
14.37
15.4
16.27
16.4
15.5
13.76
11.63
9.6
7.93
6.45
4.73
2.27
-1.23
-5.66
-10.61
-15.51
-19.97
-23.81
-27.12
-30.07
-32.82
-35.38
-37.76
-40.08
-42.58
-45.59
-49.39
-54.05
-59.35
-64.86
-70.1
-74.74
-78.8
-82.65
-86.83
-91.86
-97.91
-104.62
-111.05
-115.81
-117.42
-114.68
-107.08
-94.92
-79.28
-61.77
-44.11
-27.86
-14.09
-3.37
4.3
9.3
12.16
13.46
13.68
13.14
12.14
10.91
9.68
8.48
7.01
4.58
0.23
-6.89
-17.05
-29.56
-42.82
-54.84
-63.99
-69.68
-72.77
-75.17
-79.12
-86.21
-96.68
-109.43
-122.44
-133.42
-140.23
-141.1
-134.5
-119.3
-94.97
-61.93
-21.66
23.73
72.37
123.32
176.65
232.43
289.42
344.17
391.43
425.78
443.87
445.67
434.34
414.6
390.68
365.01
338.06
309.39
278.91
247.47
216.5
187.16
159.65
133.12
106.44
79.08
51.64
25.8
3.71
-13.01
-24
-30.31
-33.98
-37.38
-42.63
-51.22
-63.78
-80
-98.5
-116.98
-132.57
-142.68
-145.78
-142.06
-133.26
-122.02
-110.93
-101.84
-95.66
-92.71
-93.11
-96.91
-103.97
-113.57
-124.29
-134.31
-141.95
-146.08
-146.46
-143.52
-138.18
-131.31
-123.59
-115.38
-106.84
-98.14
-89.48
-81.24
-73.91
-68.07
-64.22
-62.67
-63.33
-65.6
-68.42
-70.54
-71.01
-69.51
-66.57
-63.26
-60.72
-59.57
-59.66
-60.18
-60.24
-59.36
-57.8
-56.33
-55.73
-56.36
-58.06
-60.25
-62.26
-63.38
-62.81
-59.35
-51.54
-38.09
-18.66
5.71
32.63
59.06
82.29
100.75
114.19
123.32
129.04
131.92
132.07
129.44
124.32
117.67
110.94
105.47
101.72
98.79
94.56
86.57
73.25
54.86
33.75
13.51
-2.41
-12
-15.13
-13.29
-8.65
-3.35
0.71
1.81
-1.58
-10.37
-24.13
-40.71
-56.57
-68.02
-72.69
-70.66
-64.48
-57.99
-54.66
-56.08
-61.51
-68.49
-74.21
-76.8
-76.02
-73.12
-70.03
-68.29
-68.36
-69.32
-69.24
-65.96
-57.8
-44.08
-25.34
-3.21
19.98
41.84
60.35
74.33
83.5
88.33
89.71
88.72
86.42
83.66
81.03
78.56
75.78
71.87
66.05
58.2
49.09
40.36
33.91
31.12
32.26
36.44
41.99
47.16
50.72
52.22
51.83
49.96
47.11
43.78
40.56
38.16
37.21
37.99
40.13
42.53
43.75
42.49
38.15
31.13
22.72
14.66
8.5
5.08
4.29
5.3
7.02
8.55
9.43
9.64
9.48
9.32
9.4
9.8
10.4
10.92
10.96
10.21
8.61
6.49
4.51
3.33
3.27
4.04
4.81
4.69
3.14
0.27
-3.34
-7.06
-10.56
-14
-17.85
-22.53
-28.07
-34
-39.45
-43.49
-45.47
-45.36
-44.02
-42.95
-43.69
-46.98
-52.07
-56.71
-57.93
-53.36
-42.34
-26.23
-7.69
10.47
26.19
38.3
46.15
49.36
47.91
42.86
36.56
32.22
32.48
37.91
46.46
54.17
56.98
52.56
41.16
25.25
8.32
-6.34
-16.45
-20.77
-19.12
-12.26
-1.92
9.41
19.05
24.93
26.32
23.81
18.94
13.3
7.92
3.09
-1.35
-5.67
-10.04
-14.47
-18.95
-23.42
-27.8
-31.94
-35.64
-38.78
-41.29
-43.07
-43.88
-43.28
-40.66
-35.56
-27.86
-17.89
-6.42
5.55
16.89
26.59
33.99
39.07
42.51
45.44
48.89
53.06
57.11
59.55
59.22
56.16
51.97
49.13
49.7
53.99
59.99
63.9
61.55
50.04
28.79
-0.29
-33.43
-66.04
-93.78
-113.29
-122.65
-121.55
-111.47
-95.43
-77.51
-61.71
-50.81
-45.48
-44.32
-44.62
-43.81
-40.62
-35.35
-29.37
-24.04
-19.79
-15.98
-11.54
-5.75
1.33
8.98
16.47
23.39
29.68
35.1
38.94
40.11
37.75
31.89
23.6
14.59
6.38
-0.31
-5.58
-9.83
-13.28
-15.69
-16.73
-16.43
-15.44
-14.86
-15.67
-18.31
-22.45
-27.17
-31.41
-34.22
-35.13
-34.08
-31.45
-27.82
-23.75
-19.53
-15.27
-11.02
-7.06
-4.1
-3.08
-4.69
-8.95
-15
-21.36
-26.46
-29.23
-29.3
-26.96
-22.8
-17.41
-11.35
-5.11
0.78
5.81
9.64
12.26
14.04
15.55
17.32
19.46
21.64
23.19
23.51
22.44
20.42
18.41
17.4
18.05
20.48
24.28
28.75
33.14
36.85
39.39
40.42
39.62
36.76
31.67
24.32
14.87
3.7
-8.42
-20.38
-30.89
-38.81
-43.55
-45.25
-44.62
-42.56
-39.79
-36.72
-33.56
-30.56
-28.15
-26.75
-26.49
-27
-27.43
-26.99
-25.5
-23.59
-22.54
-23.58
-27.08
-32.23
-37.2
-40.01
-39.41
-35.45
-29.37
-22.86
-17.2
-12.7
-8.89
-5.08
-1.12
2.23
3.65
1.9
-3.4
-11.5
-20.82
-29.77
-37.49
-44.15
-50.75
-58.45
-67.83
-78.45
-88.99
-97.78
-103.21
-103.98
-99.01
-87.29
-68.27
-42.46
-12.09
18.87
45.6
63.92
71.94
70.71
63.61
54.71
46.95
41.22
36.81
32.68
28.6
25.5
24.6
26.3
29.64
32.67
33.72
32.57
30.78
30.86
34.64
42.09
51.11
58.66
62.4
61.91
58.83
55.85
55.15
57.3
61.13
64.6
66.06
65.22
63.14
61.4
60.96
61.56
61.92
60.62
57.05
51.78
46.08
41.07
36.99
33.16
28.47
22.12
14.02
4.81
-4.58
-13.39
-21.24
-28.01
-33.56
-37.54
-39.42
-38.82
-35.82
-31.19
-26.21
-22.27
-20.45
-21.09
-23.77
-27.47
-30.84
-32.68
-32.26
-29.61
-25.63
-21.88
-20.11
-21.59
-26.66
-34.52
-43.72
-52.71
-60.48
-66.77
-71.98
-76.69
-81.28
-85.69
-89.49
-92
-92.52
-90.41
-85.23
-76.84
-65.38
-51.32
-35.31
-18.07
-0.38
16.92
32.82
46.29
56.47
62.9
65.81
66.05
64.94
63.88
63.93
65.6
68.69
72.46
75.85
77.83
77.72
75.52
71.84
67.69
63.96
61.01
58.53
55.78
52.04
46.91
40.38
32.69
24.14
15.05
5.89
-2.5
-9.06
-12.72
-12.95
-10.04
-5.26
-0.4
2.77
3.07
0.29
-4.84
-10.82
-15.99
-19.02
-19.4
-17.54
-14.45
-11.14
-8.1
-5.26
-2.26
1.04
4.29
6.77
7.93
7.71
6.55
5.14
3.97
3.1
2.32
1.31
-0
-1.56
-3.22
-4.91
-6.6
-8.31
-10.19
-12.55
-15.93
-20.81
-27.09
-33.84
-39.37
-41.91
-40.38
-34.72
-25.7
-14.33
-1.37
12.65
27
40.41
51.19
57.92
60.25
59.24
56.94
55.35
55.49
57.01
58.65
59.12
57.98
55.76
53.71
52.98
54.11
56.72
59.74
61.9
62.27
60.6
57.33
53.37
49.56
46.21
42.79
38.16
31.08
20.82
7.56
-7.74
-23.74
-39.21
-53.33
-65.56
-75.41
-82.29
-85.72
-85.56
-82.31
-77
-70.88
-64.89
-59.43
-54.46
-49.83
-45.49
-41.62
-38.46
-36.17
-34.66
-33.75
-33.26
-33.09
-33.22
-33.61
-34.16
-34.77
-35.42
-36.25
-37.54
-39.69
-43.07
-47.92
-54.16
-61.26
-68.23
-73.78
-76.71
-76.42
-73.22
-68.09
-62.07
-55.63
-48.39
-39.46
-28.27
-15.24
-1.84
9.93
18.48
23.29
24.97
24.76
23.94
23.38
23.52
24.47
26.09
27.99
29.59
30.27
29.8
28.55
27.51
27.88
30.54
35.64
42.49
49.88
56.53
61.47
64.25
64.96
64.05
62.16
59.85
57.45
54.94
52.16
48.99
45.63
42.56
40.4
39.55
39.91
40.89
41.62
41.37
39.89
37.48
34.79
32.41
30.57
29.1
27.54
25.49
22.82
19.76
16.72
14.11
12.07
10.46
8.78
6.25
2.03
-4.51
-13.47
-24.13
-35.04
-44.52
-51.34
-55.39
-57.68
-59.79
-63.08
-67.92
-73.66
-79.23
-83.89
-87.84
-92.03
-97.47
-104.31
-111.38
-116.4
-116.82
-110.97
-98.72
-81.54
-61.84
-42.02
-23.62
-7.2
7.25
19.62
29.28
35.3
37.1
35.13
31.01
26.97
24.92
25.65
28.59
32.26
35.12
36.39
36.23
35.54
35.37
36.35
38.5
41.35
44.23
46.63
48.29
49.31
49.95
50.42
50.82
51.12
51.27
51.32
51.44
51.75
52.35
53.21
54.2
55.14
55.76
55.64
54.21
50.94
45.58
38.43
30.38
22.61
16.09
11.13
7.36
4.07
0.73
-2.63
-5.46
-7.08
-7.28
-6.64
-6.37
-7.74
-11.41
-17.17
-24.09
-31.12
-37.58
-43.28
-48.41
-53.16
-57.53
-61.41
-64.87
-68.31
-72.24
-76.97
-82.24
-87.24
-91.17
-93.63
-94.92
-95.73
-96.53
-97.07
-96.37
-93.13
-86.28
-75.48
-61.25
-44.71
-27.22
-10.09
5.53
18.64
28.54
34.97
38.17
38.9
38.3
37.61
37.84
39.52
42.58
46.32
49.73
51.79
51.91
50.25
47.62
45.22
44.04
44.53
46.33
48.55
50.16
50.44
49.21
46.7
43.32
39.25
34.4
28.5
21.34
13.07
4.07
-5.32
-15.02
-25.25
-36.17
-47.49
-58.3
-67.32
-73.43
-76.23
-76.2
-74.44
-72.19
-70.39
-69.41
-69.13
-69
-68.13
-65.52
-60.48
-53.09
-44.5
-36.7
-31.74
-30.86
-34.01
-40.03
-47.48
-55.43
-63.67
-72.39
-81.36
-89.46
-94.88
-95.85
-91.56
-82.64
-70.93
-58.68
-47.74
-39.03
-32.5
-27.49
-23.28
-19.38
-15.78
-12.88
-11.26
-11.33
-12.87
-14.91
-15.83
-13.75
-7.02
5.39
23.92
48.61
79.15
114.82
154.18
194.97
234.32
269.39
297.95
318.96
332.76
340.66
344.3
344.95
343.27
339.43
333.23
323.96
311.02
294.42
275.04
254.22
233.12
212.4
192.22
172.44
152.11
130.41
107.41
84.39
63.14
44.97
30.31
18.9
10.16
2.09
-7.32
-18.82
-31.26
-42.44
-50.94
-56.92
-62.19
-69.8
-84.85
-111.95
-152.9
-205.48
-264.63
-325.11
-382.94
-435.79
-470.85
-475.91
-447
-392.56
-327.07
-261.95
-203.05
-152.17
-109.34
-74.59
-49.45
-35.21
-31.36
-35.7
-43.69
-52.03
-59.34
-65.72
-72.76
-83.59
-101.46
-128.31
-163.49
-203.72
-244.44
-281.06
-304.55
-309.58
-295.74
-267.01
-229.77
-189.84
-150.71
-113.53
-77.85
-42.72
-8.49
23.57
52.01
76.06
95.8
111.69
123.67
131.31
134.44
133.07
128.16
121.5
115.54
112.95
116.18
126.91
145.51
170.73
199.24
226.78
249.27
263.97
269.97
267.91
259.04
244.52
225.18
201.86
176.24
150.98
129.19
113.23
103.81
99.76
98.56
97.21
92.93
83.83
69.02
48.83
24.77
-0.68
-24.72
-45.08
-60.65
-71.73
-79.59
-85.92
-92.07
-98.9
-106.71
-115.33
-124.15
-132.04
-137.45
-138.73
-134.62
-124.73
-109.83
-91.65
-72.44
-54.32
-38.59
-25.52
-14.44
-4.2
6.38
17.98
30.57
43.47
55.6
65.75
72.89
76.39
76.21
73.01
68.15
63.49
60.84
61.49
65.63
72.24
79.41
85.03
87.53
86.41
82.37
76.88
71.53
67.41
64.8
63.22
61.68
59.24
55.24
49.43
41.93
33.12
23.54
13.93
5.16
-1.79
-6.06
-7.32
-6.09
-3.75
-2.09
-2.53
-5.44
-9.88
-14.04
-16.02
-14.84
-10.94
-6.05
-2.52
-2.41
-6.65
-14.82
-25.44
-36.55
-46.41
-53.77
-58.03
-58.98
-56.73
-51.69
-44.68
-36.98
-30.14
-25.6
-24.33
-26.54
-31.75
-39.03
-47.32
-55.52
-62.63
-67.95
-71.24
-72.89
-73.72
-74.52
-75.5
-75.98
-74.66
-70.17
-61.73
-49.47
-34.37
-17.85
-1.38
13.7
26.42
36.33
43.65
49.21
54.11
59.16
64.38
68.94
71.6
71.36
68.03
62.32
55.62
49.42
44.9
42.72
43.01
45.5
49.56
54.41
59.06
62.55
64.09
63.29
60.33
56.03
51.54
47.91
45.58
44.15
42.64
40.04
35.91
30.6
25.08
20.3
16.72
14.13
11.82
9.13
5.68
1.51
-3.1
-7.87
-12.57
-17.01
-21.02
-24.43
-27.13
-29.09
-30.4
-31.1
-31.25
-30.89
-30.17
-29.34
-28.76
-28.74
-29.49
-31
-33.08
-35.52
-38.23
-41.27
-44.82
-49.02
-53.9
-59.39
-65.26
-71.26
-77.18
-82.8
-88.12
-93.25
-98.57
-104.56
-111.66
-119.96
-129.06
-138.03
-145.65
-150.8
-152.81
-151.55
-147.43
-141.1
-133.47
-125.64
-118.83
-114.32
-113.3
-116.38
-123.32
-132.95
-143.47
-153.13
-160.67
-165.34
-166.49
-163.03
-153.35
-135.82
-109.74
-76.18
-38.06
0.81
37
68.78
96.52
122.2
148.34
177.28
210.85
250.4
296.43
347.81
400.96
449.98
487.85
508.67
509.82
492.93
463.04
426.54
388.85
353
319.7
288.4
258.57
230.31
204.23
180.78
159.81
140.55
122.07
103.74
85.56
68.14
52.35
38.92
28.12
19.71
13.06
7.51
2.6
-1.76
-5.29
-7.57
-8.33
-7.83
-6.96
-7.17
-10.15
-17.28
-29.33
-46.16
-66.82
-89.68
-112.77
-134.01
-151.55
-164.08
-171.17
-173.37
-172.21
-169.6
-167.12
-165.35
-163.65
-160.52
-154.55
-145.44
-134.58
-124.8
-119.16
-119.34
-124.46
-131.08
-134.54
-130.94
-118.75
-99.3
-75.96
-52.59
-32.19
-16.31
-5.09
2.23
6.99
10.91
15.8
23.09
33.26
45.54
58.32
70.07
80.2
89.21
98
106.66
113.78
116.74
113.02
101.59
83.53
61.57
38.64
16.35
-5.7
-29.59
-58.15
-93.65
-136.7
-185.51
-235.88
-281.77
-316.58
-334.69
-332.88
-311.2
-272.87
-223.49
-169.69
-118.23
-74.85
-43.6
-26.04
-20.85
-24.24
-31.19
-37.41
-40.94
-42.85
-46.38
-55.23
-71.73
-95.84
-125.11
-155.57
-183.13
-204.67
-218.54
-224.41
-222.72
-214.08
-198.92
-177.44
-149.79
-116.32
-77.7
-34.97
10.28
55.69
98.12
134.21
161.01
177.11
183.03
180.95
173.71
163.79
152.77
141.62
131.29
123.07
118.37
117.91
121.11
126.04
130.27
131.93
130.4
126.2
120.36
113.71
106.68
99.49
92.54
86.52
81.99
78.86
76.18
72.51
66.71
58.6
49.1
39.79
32.09
26.66
23.18
20.52
17.37
12.66
6.1
-1.68
-9.33
-15.41
-19.01
-20.19
-19.82
-19.1
-18.81
-19.09
-19.64
-20.17
-20.84
-22.06
-24.01
-26.28
-27.93
-28.23
-27.32
-26.49
-27.44
-31.14
-36.79
-41.8
-42.99
-38.28
-28.08
-15.41
-4.72
0.03
-3
-12.96
-27.16
-42.73
-57.9
-72.56
-87.33
-102.43
-116.61
-127.22
-131.15
-126.11
-111.63
-88.99
-60.76
-29.89
0.9
29.3
53.36
71.39
82.14
85.16
81.3
72.77
62.7
54.24
49.41
48.42
49.69
50.81
49.92
46.84
43.09
40.99
42.18
46.62
52.6
57.79
60.66
61.15
60.37
59.59
59.29
59.09
58.25
56.47
54.16
52.26
51.58
52.29
53.74
54.81
54.38
51.79
47.05
40.78
33.93
27.4
21.88
17.75
15.13
13.87
13.57
13.5
12.83
10.8
7.19
2.61
-1.72
-4.55
-5.5
-5.44
-6.24
-9.85
-17.27
-27.98
-40.09
-51.13
-59.01
-62.77
-62.77
-60.5
-57.94
-56.78
-57.91
-61.15
-65.51
-69.71
-72.76
-74.24
-73.99
-71.74
-66.74
-57.96
-44.7
-27.32
-7.57
11.79
28.06
39.57
46.16
48.9
49.27
48.36
46.56
43.79
39.93
35.17
29.9
24.48
18.95
13.22
7.39
2.01
-2.02
-3.85
-3.21
-0.6
2.96
6.45
9.22
11.12
12.23
12.79
13.04
13.5
15.1
19.07
26.36
36.96
49.38
60.96
68.84
71.07
67.48
59.6
49.87
40.59
33.17
27.89
24.24
21.35
18.24
13.73
6.33
-5.49
-22.64
-44.5
-68.58
-91
-107.83
-116.78
-117.97
-113.86
-108.06
-103.65
-101.97
-102.21
-101.99
-98.49
-89.75
-75.53
-57.45
-38.43
-21.59
-9.06
-1.32
2.83
5.47
8.37
12.3
16.91
21.37
25.17
28.51
32.11
36.42
41.2
45.44
48.07
48.68
47.83
46.75
46.5
47.45
49.13
50.85
52.45
54.64
58.67
65.39
74.45
84.09
91.75
95.25
93.76
88.11
80.18
71.99
64.83
58.99
54.11
49.69
45.57
41.88
38.89
36.62
34.73
32.57
29.44
24.79
18.54
11.1
3.33
-3.81
-9.61
-13.84
-16.68
-18.42
-19.13
-18.57
-16.53
-13.43
-10.56
-9.84
-12.92
-20.15
-30.1
-40.14
-47.68
-51.55
-52.48
-52.49
-53.57
-56.53
-60.78
-65.22
-69.44
-74.42
-81.91
-93.09
-107.17
-121.18
-131.03
-133.3
-126.68
-112.27
-92.67
-70.61
-48.22
-27.09
-8.94
4.03
9.7
7.2
-1.91
-13.78
-23.66
-27.88
-25.41
-17.89
-8.27
0.97
9.02
16.67
25.1
34.72
44.64
53.16
58.8
61.1
60.72
58.87
56.63
54.43
52.17
49.53
46.55
43.79
42.23
42.84
45.99
51.08
56.64
60.95
62.97
62.86
61.96
61.88
63.34
65.52
66.3
63.5
56.29
45.82
34.72
25.63
19.71
16.13
12.87
8.19
1.94
-4.35
-8.45
-8.99
-6.39
-2.69
-0.32
-0.67
-3.35
-6.56
-8.4
-8.06
-6.4
-5.3
-6.54
-10.76
-17.15
-24.14
-30.33
-35.27
-39.45
-43.76
-48.73
-54.18
-59.48
-64.15
-68.36
-72.9
-78.69
-86.03
-94.18
-101.44
-105.89
-106.18
-102.06
-94.25
-83.88
-71.8
-58.31
-43.37
-27.14
-10.52
4.81
16.97
24.62
27.61
26.9
24.05
20.55
17.36
15.01
13.98
15.04
18.95
25.89
34.98
44.24
51.26
54.2
52.55
47.27
40.18
33.16
27.57
24.05
22.75
23.58
26.3
30.36
34.76
38.09
38.94
36.41
30.51
22.13
12.65
3.52
-4.19
-9.91
-13.59
-15.56
-16.37
-16.67
-17.05
-17.82
-18.86
-19.63
-19.43
-17.72
-14.62
-10.88
-7.56
-5.3
-3.85
-2.1
1.36
7.31
15.31
23.65
30.13
33.09
32.23
28.6
23.91
19.64
16.38
13.86
11.43
8.57
5.09
0.96
-3.9
-9.68
-16.4
-23.66
-30.46
-35.3
-36.73
-33.79
-26.43
-15.53
-2.64
10.51
22.43
32.24
39.72
45.12
48.8
50.91
51.39
50.2
47.72
44.89
42.9
42.68
44.34
47.21
50.16
52.24
53.16
53.29
53.4
54.23
56.17
59.11
62.33
64.64
64.56
60.63
51.95
38.59
21.68
3.15
-14.94
-30.96
-44.13
-54.51
-62.66
-69.24
-74.72
-79.31
-83.07
-86.02
-88.23
-89.7
-90.32
-89.64
-87.04
-81.92
-74.05
-63.83
-52.33
-41.03
-31.41
-24.53
-20.89
-20.42
-22.72
-27.15
-32.78
-38.37
-42.43
-43.6
-41.18
-35.42
-27.47
-18.95
-11.34
-5.57
-2.02
-0.7
-1.35
-3.4
-5.8
-6.97
-5.2
0.72
10.83
23.88
37.72
50.11
59.41
64.89
66.71
65.62
62.73
59.26
56.28
54.46
53.81
53.61
52.56
49.26
42.75
33
20.98
8.4
-2.91
-11.67
-17.61
-21.43
-24.33
-27.41
-31.05
-34.66
-37.13
-37.5
-35.6
-32.3
-29.09
-27.27
-27.4
-29.1
-31.34
-32.93
-32.98
-31.05
-27.21
-21.94
-16.11
-10.93
-7.78
-7.83
-11.47
-17.85
-24.72
-28.83
-26.88
-16.78
1.3
24.54
48.02
66.26
75.1
73.29
62.79
47.78
32.71
20.48
11.48
4.11
-3.9
-14.01
-26.13
-38.85
-50.43
-59.75
-66.87
-72.9
-79.35
-87.37
-97.26
-108.17
-118.27
-125.25
-126.94
-121.94
-110.17
-92.77
-71.81
-49.51
-27.6
-7.2
11.15
27.02
39.8
48.68
53.1
53.03
49.33
43.66
37.97
34.15
33.42
36.04
41.19
47.35
52.77
56.3
57.79
57.94
57.74
57.79
58
57.75
56.3
53.13
48.09
41.25
32.75
23
12.95
4.38
-0.2
1.62
11.03
27.14
46.8
65.43
78.53
83.13
78.72
67.23
52.04
36.66
23.56
13.62
6.33
0.63
-4.44
-9.3
-13.87
-17.79
-20.61
-21.92
-21.44
-19.08
-15.17
-10.53
-6.33
-3.75
-3.54
-5.76
-9.71
-14.1
-17.18
-17.21
-12.79
-3.44
9.92
24.71
37.3
44.14
43.15
34.63
21.1
6.12
-7.38
-18.23
-27.09
-35.36
-43.87
-52.19
-58.96
-63.05
-64.41
-64.3
-64.38
-65.63
-67.5
-68.11
-65.33
-58.05
-47
-34.38
-22.82
-14.05
-8.19
-3.96
0.42
6.04
12.79
19.34
24.04
25.92
25.36
23.89
23.35
24.79
27.92
31.45
34.03
35.13
35.4
36.04
37.9
40.66
42.97
43.17
40.44
35.34
29.57
25.08
23.18
24.01
26.82
30.44
33.95
36.81
38.76
39.54
38.77
36.05
31.28
24.78
17.38
10.15
4.1
-0.14
-2.39
-2.89
-2.1
-0.4
1.99
5.03
8.78
13.1
17.44
20.63
21.15
17.72
10.07
-0.55
-11.7
-20.66
-25.77
-27.16
-26.7
-27.05
-30.38
-37.39
-47.25
-58.19
-68.28
-76.1
-80.77
-81.96
-79.73
-74.53
-67.26
-59.05
-50.84
-43
-35.3
-27.25
-18.55
-9.42
-0.45
7.76
14.97
21.1
25.95
28.72
28.25
23.59
14.81
3.36
-8.35
-17.93
-24.09
-26.89
-27.41
-26.67
-24.91
-21.42
-15.17
-5.66
6.52
19.71
31.91
41.51
47.9
51.49
53.23
53.96
53.9
52.57
49.13
42.95
34.14
23.64
12.92
3.43
-3.87
-8.73
-11.52
-12.97
-13.93
-15.14
-16.97
-19.29
-21.54
-22.8
-22.09
-18.71
-12.51
-4.18
4.72
11.83
14.67
11.42
1.92
-11.93
-26.68
-38.59
-45.26
-46.67
-45.04
-43.44
-44.17
-47.58
-52.32
-56.63
-59.71
-62.48
-66.97
-75.1
-87.28
-101.91
-115.97
-126.19
-130.16
-127.03
-117.46
-103.17
-86.42
-69.43
-54.07
-41.44
-31.57
-23.45
-15.46
-6.12
5.06
17.36
29.18
38.83
45.22
48.12
47.87
44.85
39.22
31.14
21.22
10.7
1.17
-6.22
-11.49
-15.88
-21.17
-28.62
-38.32
-49.27
-60.16
-70.25
-79.63
-88.76
-97.74
-105.87
-111.77
-114.07
-112.13
-106.38
-98.11
-88.79
-79.44
-70.16
-60.13
-47.89
-31.84
-10.74
15.81
47.11
81.54
116.87
150.87
181.82
209.04
233.06
255.29
277.35
300.08
322.96
344.11
361.07
371.4
373.8
368.56
357.31
342.01
324.11
304.23
282.73
260.28
237.35
214.39
191.83
170.2
149.84
130.73
112.55
95.06
78.26
61.34
43.18
23.3
2.56
-17.12
-33.88
-46.8
-56.26
-63.87
-73.5
-89.79
-116.06
-152.84
-197.96
-248.07
-299.8
-350.27
-388.48
-402.5
-386.5
-345.52
-291.46
-235.19
-183.04
-137.46
-98.78
-66.38
-40.54
-21.84
-9.87
-2.8
2.33
8.03
15.54
24.87
35.39
45.41
53.15
57.92
60.1
61.21
62.19
63.42
64.23
63.56
59.99
52.6
41.73
28.34
14.34
1.28
-10.25
-20.73
-31.12
-42.56
-55.71
-70.27
-86.12
-102.35
-118.25
-133.73
-149.67
-168.01
-192.07
-226.59
-269.34
-319.3
-372.37
-421.02
-455.67
-467.85
-453.48
-414.75
-359.43
-297.74
-239.62
-190.51
-151.08
-118.72
-90.02
-62.34
-34.18
-4.74
26.23
56.99
83.9
101.37
103.52
87
53.5
10.41
-31.41
-61.49
-74.12
-69.32
-51.83
-28.06
-3
21.21
44.54
67.25
88.29
105.21
115.76
119.76
119.78
120.18
125.01
135.94
151.23
166.76
177.96
181.88
178.02
167.87
153.69
137.64
121.84
108.7
101.06
101.27
109.84
124.53
140.66
152.93
157.72
154.58
146.06
135.85
126.72
119.25
112.24
104.05
94.01
83.17
73.63
67.61
66.25
69.07
74.27
79.38
82.13
81.12
76.41
69.37
62.32
57.68
56.92
59.93
65.09
70.13
73.39
74.8
75.8
78.38
83.89
92.03
100.8
107.44
109.63
106.46
98.43
86.91
73.14
57.8
40.96
22.67
3.36
-15.79
-33.21
-47.53
-58.28
-66.07
-72.33
-78.5
-85.17
-91.53
-95.57
-94.77
-87.32
-73.06
-53.83
-33.03
-14.53
-1.28
5.58
6.89
4.84
1.9
-0.13
-0.58
0.24
1.55
2.65
3.24
3.44
3.58
4.02
5.07
7.05
10.26
14.96
21.2
28.79
37.28
46.11
54.65
62.25
68.39
72.78
75.51
77.04
77.92
78.33
77.77
75.02
68.64
57.86
43.29
27.14
12.52
2.35
-2.01
-1.12
2.85
7.36
10.59
12.01
12.28
12.43
13.12
14.19
14.88
14.23
11.56
6.73
0.13
-7.54
-15.54
-23.24
-30.27
-36.41
-41.62
-45.85
-48.95
-50.7
-50.83
-49.45
-47.25
-45.56
-46.01
-49.74
-56.74
-65.48
-73.51
-78.4
-78.76
-74.71
-67.49
-58.57
-48.72
-37.76
-25.07
-10.48
5.16
20.09
32.21
39.9
42.47
40.26
34.33
26.23
17.66
10.22
5.07
2.64
2.64
4.15
6.14
7.85
8.92
9.38
9.37
9.15
9.07
9.53
10.93
13.46
17.01
21.18
25.52
29.57
32.9
35.1
35.71
34.41
31.22
26.69
21.78
17.53
14.56
12.93
12.24
11.96
11.62
10.95
9.86
8.41
6.83
5.46
4.56
4.22
4.31
4.46
4.3
3.54
1.85
-1.15
-5.88
-12.64
-21.3
-31.11
-40.79
-49.07
-55.28
-59.73
-63.51
-67.9
-73.53
-80.03
-86.18
-90.57
-92.37
-91.62
-89.07
-85.58
-81.6
-77.02
-71.32
-63.88
-54.12
-41.54
-25.8
-7.13
13.17
32.37
46.82
53.09
49.54
37.34
20.41
4.01
-7.21
-10.88
-7.63
-0.43
6.8
10.79
9.93
4.47
-3.82
-12.46
-19.01
-21.71
-20.03
-14.84
-8.58
-4.64
-6.47
-16.09
-33.23
-55.13
-77.33
-95.24
-105.7
-107.9
-103.21
-94.46
-84.8
-76.74
-71.43
-68.63
-66.99
-64.77
-60.83
-55.2
-49.47
-46.3
-48.44
-57.59
-73.58
-94.16
-115.44
-132.88
-142.45
-141.9
-131.34
-113.09
-90.96
-69
-50.41
-36.88
-28.77
-25.75
-27.44
-33.45
-43.04
-54.68
-65.71
-72.89
-73.5
-66.58
-53.46
-37.5
-22.74
-12.13
-6.26
-3.07
1.01
9.41
24.01
44.72
69.82
96.81
123.06
146.06
163.61
174.13
177.2
174.09
167.61
161.45
159.12
163.05
174.32
192.83
217.61
246.9
278.16
308.02
332.83
349.64
357.09
355.65
347.19
333.85
317.28
298.36
277.38
254.4
229.7
204.01
178.46
154.07
131.51
111
92.56
76.21
61.64
48.53
36.92
27.35
20.46
16.62
15.67
17.01
19.86
22.69
23.92
22.65
18.98
13.64
7.3
0.45
-6.8
-14.63
-24.89
-40.18
-62.6
-92.73
-129.5
-170.83
-213.94
-256.9
-292.32
-312.64
-314.92
-302.11
-279.78
-252.8
-224.77
-198.02
-173.91
-152.64
-134.9
-120.88
-110
-102.01
-95.67
-90.96
-88.65
-89.52
-93.37
-100.33
-109.98
-121.38
-133.57
-146.17
-160.29
-178.26
-203.55
-235.81
-275.77
-322.54
-372.08
-417.16
-448.9
-459.98
-447.23
-412.97
-363.92
-309.43
-257.4
-212.06
-173.96
-141.43
-112.91
-87.81
-66.32
-48.31
-33.01
-18.5
-2.5
16.46
38.39
61.78
84.46
104.62
121.72
136.3
149.93
164.43
181.18
200.86
223.32
247.74
272.52
295.32
313.22
323.5
324.66
317.02
302.76
285
266.59
249.2
233.09
217.61
202.07
186.31
170.69
155.68
141.37
127.41
113.24
98.54
83.38
68.18
53.49
39.76
27.42
17.06
9.53
5.75
6.16
10.16
15.87
20.57
21.64
17.6
8.72
-3.24
-15.82
-26.97
-35.59
-41.72
-46.06
-49.51
-52.8
-56.39
-60.52
-65.14
-69.73
-73.19
-73.84
-69.85
-59.89
-43.69
-22.46
1.41
24.94
45.46
61.37
72.18
78.11
79.48
76.36
68.85
57.66
44.63
32.56
24.23
21.27
23.48
28.91
34.91
39.32
41.12
40.49
38.06
34.26
29.18
22.82
15.58
8.42
2.59
-0.88
-1.67
-0.32
2.1
4.5
6.18
7.01
7.3
7.45
7.48
6.86
4.6
-0.21
-7.84
-17.56
-27.59
-35.73
-40.17
-40.24
-36.59
-30.84
-24.92
-20.4
-18.14
-18.35
-20.77
-24.95
-30.33
-36.33
-42.47
-48.45
-54.15
-59.4
-63.61
-65.58
-63.78
-56.94
-44.81
-28.56
-10.61
6.3
20.1
30.13
37.09
42.43
47.3
51.94
55.53
56.71
54.42
48.51
39.96
30.46
21.77
15.14
11.12
9.72
10.79
14.28
20.1
27.95
37.06
46.27
54.34
60.39
64.02
65.27
64.29
61.18
55.99
49
40.91
32.76
25.68
20.44
17.29
15.97
15.96
16.74
17.97
19.42
20.92
22.21
22.89
22.6
21.1
18.46
15.07
11.65
8.99
7.74
8.19
10.03
12.49
14.59
15.66
15.58
14.99
14.88
15.88
17.71
18.94
17.43
11.24
-0.31
-16.14
-33.58
-49.34
-60.81
-66.99
-68.85
-68.71
-69.12
-71.82
-77.15
-84.29
-91.91
-98.95
-104.98
-110.07
-114.26
-117.3
-118.77
-118.64
-117.63
-117.09
-118.3
-121.43
-125.07
-126.6
-123.14
-112.77
-95.22
-71.84
-45.03
-17.47
8.39
30.58
47.86
59.89
67.22
71.21
73.38
74.92
76.26
77.11
76.98
75.66
73.48
71.24
69.82
69.82
71.29
73.72
76.17
77.49
76.51
72.28
64.29
52.67
38.23
22.42
7.09
-5.92
-15.16
-19.94
-20.35
-17.2
-11.6
-4.78
2.13
8.18
12.58
14.87
14.96
13.23
10.54
7.94
6.35
6.26
7.59
9.81
12.18
14.03
14.99
15.15
14.92
14.83
15.16
15.72
15.86
14.84
12.18
7.96
2.77
-2.65
-7.78
-12.59
-17.37
-22.44
-27.82
-33.14
-37.94
-41.97
-45.42
-48.66
-51.92
-54.85
-56.61
-56.42
-54.25
-51.28
-49.64
-51.48
-57.73
-67.3
-77.25
-83.93
-84.64
-78.83
-68.35
-56.52
-46.67
-40.93
-39.85
-42.89
-49.07
-57.52
-67.32
-77.07
-84.66
-87.69
-84.28
-74.04
-58.4
-40.12
-22.18
-6.66
5.72
15.38
23.16
29.61
34.8
38.62
41.28
43.47
46.15
49.94
54.63
59.04
61.59
61
57.02
50.55
43.23
36.74
32.09
29.38
28
27.03
25.68
23.62
21.05
18.56
17.02
17.19
19.44
23.54
28.65
33.63
37.52
39.85
40.71
40.6
39.89
38.58
36.4
33.05
28.66
23.84
19.53
16.42
14.77
14.25
14.21
14.08
13.5
12.37
10.7
8.52
5.8
2.53
-1.25
-5.41
-9.78
-14.18
-18.39
-22.2
-25.43
-27.98
-29.98
-31.82
-33.95
-36.65
-39.88
-43.19
-46.01
-47.9
-48.87
-49.37
-50.11
-51.69
-54.27
-57.39
-60.03
-60.89
-58.85
-53.24
-44.09
-31.91
-17.61
-2.21
13.2
27.43
39.37
48.05
52.9
53.93
51.71
47.16
41.31
35.08
29.24
24.41
21.04
19.32
19.02
19.58
20.23
20.4
19.85
18.79
17.62
16.7
16.25
16.27
16.62
17.15
17.64
17.79
17.26
15.82
13.48
10.55
7.51
4.78
2.58
0.88
-0.41
-1.23
-1.34
-0.52
1.17
3.2
4.71
4.94
3.65
1.16
-1.83
-4.75
-7.52
-10.49
-14.11
-18.52
-23.44
-28.38
-33.04
-37.67
-42.85
-49.17
-56.62
-64.48
-71.58
-76.9
-80.13
-81.84
-83.09
-84.77
-87
-89
-89.46
-87.22
-81.74
-73.26
-62.38
-49.62
-35.2
-19.19
-1.92
15.73
32.36
46.57
57.49
65.03
69.64
71.87
72.04
70.25
66.75
62.35
58.41
56.37
56.93
59.52
62.38
63.34
60.88
54.87
46.67
38.28
31.37
26.52
23.21
20.38
17.31
13.94
10.8
8.48
7.1
6.27
5.52
4.86
4.96
6.88
11.31
18.05
25.81
32.73
37.19
38.38
36.6
32.94
28.66
24.66
21.27
18.33
15.58
13
10.91
9.85
10.15
11.63
13.55
14.91
15.01
13.8
11.96
10.35
9.42
8.86
7.72
5.07
0.55
-5.24
-11.1
-15.85
-18.93
-20.66
-22.02
-24.02
-27.21
-31.5
-36.3
-40.97
-45.23
-49.31
-53.8
-59.33
-66.23
-74.3
-82.81
-90.63
-96.36
-98.59
-96.09
-88.06
-74.43
-56.04
-34.58
-12.33
8.4
25.72
38.58
46.85
51.18
52.73
52.81
52.64
53.1
54.61
57.01
59.6
61.43
61.64
59.84
56.48
52.61
49.56
48.32
48.98
50.63
51.61
50.22
45.37
37.11
26.61
15.72
6.39
0.04
-2.76
-2.3
0.52
4.51
8.55
11.74
13.65
14.4
14.73
15.78
18.61
23.62
30.14
36.51
40.65
41.02
37.31
30.61
22.86
15.95
10.91
7.69
5.52
3.61
1.67
-0.03
-1.04
-1.21
-0.82
-0.37
-0.16
-0.05
0.28
1
1.71
1.54
-0.35
-4.26
-9.66
-15.43
-20.49
-24.44
-27.69
-31.15
-35.62
-41.25
-47.46
-53.32
-58.11
-61.77
-65
-68.87
-74.1
-80.54
-86.92
-91.29
-91.74
-87.18
-77.72
-64.47
-49.07
-33.06
-17.62
-3.48
8.84
18.93
26.45
31.16
32.93
31.68
27.26
19.67
9.34
-2.71
-14.8
-25
-31.61
-33.7
-31.35
-25.48
-17.53
-9.03
-1.2
5.32
10.54
14.99
19.54
24.99
31.74
39.61
47.87
55.51
61.57
65.43
66.88
65.99
63.07
58.41
52.31
45.08
37.12
28.91
20.91
13.32
6.06
-1.26
-9.01
-17.25
-25.62
-33.43
-39.94
-44.59
-47.27
-48.15
-47.66
-46.33
-44.7
-43.16
-41.88
-40.73
-39.43
-37.72
-35.64
-33.64
-32.48
-32.98
-35.62
-40.46
-47.09
-54.69
-62.28
-68.66
-72.68
-73.43
-70.5
-64.19
-55.38
-45.23
-34.65
-24.02
-13.14
-1.53
11.17
24.82
38.7
51.73
62.81
71.24
76.87
80.07
81.36
81.13
79.53
76.47
71.99
66.47
60.67
55.43
51.34
48.44
46.2
43.92
41.11
37.75
34.24
31.12
28.71
26.98
25.71
24.66
23.76
23.03
22.46
21.82
20.74
18.81
15.81
11.81
7.15
2.34
-2.06
-5.55
-7.78
-8.72
-8.72
-8.48
-8.79
-10.18
-12.7
-15.9
-19.18
-22.1
-24.55
-26.71
-28.78
-30.77
-32.38
-33.16
-32.78
-31.23
-28.83
-26.24
-24.1
-22.95
-23.09
-24.57
-27.24
-30.86
-35.19
-39.97
-44.97
-49.92
-54.63
-59.08
-63.45
-68.04
-72.96
-77.83
-81.58
-82.71
-79.8
-72.16
-60.23
-45.54
-30.25
-16.38
-5.3
2.6
7.74
10.97
13.14
14.77
16.03
16.75
16.76
16.15
15.33
15.01
15.89
18.33
22.09
26.47
30.63
34.08
36.93
39.75
43.15
47.31
51.72
55.25
56.72
55.29
50.94
44.41
37.08
30.42
25.51
22.72
21.56
21.05
20.24
18.68
16.54
14.35
12.5
10.9
8.99
6.21
2.5
-1.58
-5.14
-7.57
-8.95
-9.98
-11.51
-13.95
-16.98
-19.76
-21.45
-21.67
-20.68
-19.17
-17.96
-17.69
-18.72
-21.21
-25.22
-30.75
-37.72
-45.88
-54.88
-64.37
-74.11
-83.91
-93.42
-101.91
-108.16
-110.8
-108.86
-102.38
-92.67
-81.95
-72.54
-66
-62.52
-60.99
-59.47
-55.98
-49.16
-38.4
-23.96
-6.97
10.71
26.64
38.35
44.1
43.71
39.09
33.79
32.21
38.2
53.94
79.36
112.34
149.63
187.91
224.49
257.33
285.01
306.54
321.39
329.64
331.96
329.46
323.4
314.68
303.37
289.02
271.22
250.11
226.39
201.03
175
149.01
123.58
98.37
73.04
47.85
23.79
2.08
-16.52
-31.87
-44.3
-54.26
-63.68
-74.4
-87.05
-100.58
-113.07
-122.9
-129.32
-132.23
-131.8
-130.66
-131.27
-134.43
-138.62
-141.46
-141.57
-139.23
-135.85
-133.37
-137.27
-153.28
-184.92
-231.85
-290.68
-356.7
-425.18
-491.55
-531.43
-525.16
-468.44
-377.03
-275.2
-181.45
-103.87
-43.38
2.66
38.04
63.01
77.11
81
77.58
69.91
60.73
50.41
37.87
22.03
0.66
-26.13
-54.07
-75.57
-83.41
-74.58
-51.81
-21.58
9.31
34.43
49.54
55.08
55.4
55.68
59.17
66.18
75.23
84.53
92.22
97.24
99.61
99.91
98.67
95.97
91.79
86.48
80.95
76.06
72.34
69.76
67.6
64.61
59.73
52.68
44.27
36.06
29.51
25.39
23.49
22.79
21.88
19.56
15.25
9.02
1.45
-6.7
-14.71
-22.01
-28.26
-33.42
-37.78
-41.9
-46.5
-52.15
-59.02
-66.47
-73.07
-76.86
-76.02
-69.53
-57.53
-41.26
-22.5
-3.04
15.84
33.36
49.02
62.38
72.94
80.36
84.63
86.2
85.91
84.66
83.15
81.67
80.11
78.13
75.5
72.32
69.1
66.57
65.39
65.78
67.38
69.38
70.78
70.82
69.15
65.91
61.56
56.67
51.69
46.88
42.34
37.99
33.77
29.63
25.61
21.79
18.23
14.93
11.75
8.48
4.9
0.91
-3.43
-7.87
-12.05
-15.65
-18.53
-20.83
-22.97
-25.51
-28.93
-33.44
-38.92
-44.97
-51.09
-56.85
-61.92
-66.16
-69.63
-72.56
-75.41
-78.75
-82.92
-87.75
-92.28
-94.96
-94.1
-88.46
-77.75
-62.59
-44.38
-24.67
-4.93
13.61
29.96
43.38
53.45
60.2
64.19
66.25
67.31
68.01
68.61
69.02
68.95
68.04
66.04
62.93
58.95
54.67
50.87
48.32
47.52
48.46
50.61
53.05
54.86
55.37
54.33
51.89
48.44
44.48
40.42
36.6
33.15
30.13
27.46
25.03
22.71
20.38
18.02
15.59
13.18
10.9
8.95
7.48
6.59
6.23
6.2
6.24
6.09
5.61
4.74
3.52
1.99
0.16
-1.91
-4.17
-6.52
-8.87
-11.23
-13.69
-16.34
-19.22
-22.19
-25.03
-27.55
-29.69
-31.62
-33.69
-36.27
-39.61
-43.76
-48.57
-53.76
-58.99
-63.95
-68.3
-71.86
-74.59
-76.75
-78.85
-81.49
-84.99
-89.1
-92.83
-94.68
-93.13
-87.09
-76.31
-61.41
-43.64
-24.53
-5.65
11.63
26.23
37.45
45.13
49.61
51.64
52.21
52.16
52.06
52.05
51.98
51.46
50.13
47.79
44.54
40.8
37.24
34.63
33.52
34.13
36.2
39.01
41.66
43.26
43.24
41.47
38.31
34.39
30.43
26.96
24.14
21.85
19.81
17.74
15.55
13.27
11.05
9.04
7.33
5.98
5.01
4.45
4.31
4.53
4.99
5.52
5.93
6.03
5.7
4.94
3.8
2.44
1.03
-0.28
-1.4
-2.36
-3.28
-4.37
-5.88
-7.99
-10.7
-13.76
-16.71
-19.1
-20.71
-21.65
-22.38
-23.53
-25.63
-28.88
-33.11
-37.9
-42.64
-46.8
-49.98
-52.09
-53.3
-54.11
-55.14
-56.92
-59.63
-62.84
-65.58
-66.45
-64.16
-57.89
-47.56
-33.88
-18.1
-1.77
13.63
26.87
37.22
44.47
48.95
51.35
52.56
53.29
53.94
54.54
54.9
54.79
54.08
52.85
51.34
49.93
49.08
49.22
50.61
53.08
55.98
58.32
59.08
57.71
54.35
49.83
45.26
41.61
39.31
38.17
37.58
36.74
35.02
32.08
27.95
22.99
17.7
12.61
8.14
4.53
1.74
-0.39
-2.12
-3.7
-5.37
-7.37
-9.91
-13.15
-17
-21.17
-25.17
-28.56
-31.13
-33.01
-34.7
-36.72
-39.48
-43
-47.03
-51.22
-55.29
-59.18
-62.95
-66.62
-70.09
-73.24
-76.08
-78.87
-81.96
-85.53
-89.27
-92.25
-93.17
-90.83
-84.58
-74.56
-61.65
-47.14
-32.34
-18.39
-6.06
4.21
12.27
18.27
22.48
25.33
27.2
28.47
29.42
30.21
30.88
31.28
31.15
30.25
28.53
26.25
24.02
22.54
22.38
23.67
26.08
28.92
31.4
32.88
33.1
32.09
30.2
27.84
25.43
23.25
21.43
19.9
18.5
17.08
15.54
13.92
12.32
10.82
9.42
8.07
6.71
5.38
4.17
3.22
2.62
2.27
1.99
1.53
0.71
-0.51
-2.11
-4.02
-6.16
-8.52
-11.08
-13.84
-16.73
-19.69
-22.63
-25.53
-28.45
-31.49
-34.81
-38.49
-42.57
-46.98
-51.6
-56.24
-60.67
-64.62
-67.89
-70.43
-72.5
-74.57
-77.23
-80.8
-85.09
-89.24
-91.96
-91.88
-87.99
-79.94
-68.09
-53.3
-36.68
-19.46
-2.89
11.89
23.93
32.71
38.33
41.39
42.9
43.81
44.77
45.95
47.11
47.83
47.74
46.75
45.03
43.03
41.27
40.26
40.41
41.88
44.53
47.9
51.31
54
55.29
54.82
52.65
49.22
45.23
41.39
38.15
35.62
33.61
31.8
29.92
27.88
25.72
23.52
21.33
19.19
17.13
15.26
13.77
12.81
12.4
12.35
12.3
11.88
10.8
9.03
6.71
4.08
1.4
-1.23
-3.81
-6.41
-9.11
-11.89
-14.7
-17.43
-20.02
-22.54
-25.16
-28.11
-31.54
-35.52
-39.99
-44.78
-49.72
-54.62
-59.28
-63.53
-67.23
-70.41
-73.28
-76.2
-79.5
-83.21
-86.87
-89.44
-89.65
-86.26
-78.58
-66.69
-51.39
-34.03
-16.19
0.63
15.21
26.83
35.24
40.72
43.88
45.51
46.3
46.72
46.92
46.8
46.11
44.67
42.44
39.67
36.81
34.53
33.46
34.01
36.19
39.54
43.27
46.51
48.54
49.05
48.03
45.78
42.7
39.27
35.89
32.89
30.45
28.56
27.02
25.55
23.89
21.88
19.52
16.96
14.42
12.13
10.25
8.87
7.93
7.29
6.74
6.12
5.36
4.4
3.19
1.59
-0.52
-3.21
-6.34
-9.54
-12.39
-14.59
-16.18
-17.52
-19.13
-21.49
-24.81
-29.01
-33.76
-38.7
-43.41
-47.51
-50.7
-52.9
-54.31
-55.44
-56.96
-59.35
-62.56
-65.86
-68.01
-67.56
-63.43
-55.2
-43.24
-28.57
-12.58
3.27
17.74
29.95
39.43
46.18
50.47
52.8
53.72
53.72
53.13
52.14
50.83
49.24
47.46
45.65
44.07
42.96
42.54
42.86
43.88
45.46
47.42
49.58
51.75
53.75
55.38
56.5
57.08
57.21
57.05
56.63
55.87
54.5
52.28
49.09
45.08
40.62
36.18
32.17
28.85
26.25
24.15
22.19
19.94
17
13.2
8.61
3.51
-1.73
-6.9
-11.99
-17.13
-22.47
-27.99
-33.49
-38.76
-43.69
-48.37
-52.99
-57.67
-62.38
-66.93
-71.15
-75.03
-78.81
-82.79
-87.11
-91.47
-95.09
-96.91
-95.86
-91.32
-83.2
-72.08
-58.84
-44.51
-29.96
-15.89
-2.88
8.57
17.91
24.73
28.83
30.44
30.17
28.94
27.68
27.08
27.35
28.22
29.17
29.63
29.37
28.54
27.69
27.47
28.33
30.35
33.19
36.23
38.79
40.3
40.46
39.26
36.91
33.81
30.37
26.99
23.93
21.31
19.11
17.22
15.48
13.71
11.74
9.49
6.99
4.44
2.1
0.21
-1.17
-2.19
-3.13
-4.3
-5.9
-8.02
-10.66
-13.72
-17.08
-20.58
-24.03
-27.34
-30.56
-33.88
-37.57
-41.81
-46.58
-51.65
-56.73
-61.55
-65.96
-69.92
-73.42
-76.55
-79.5
-82.57
-86
-89.75
-93.28
-95.52
-95.08
-90.74
-81.81
-68.46
-51.59
-32.66
-13.34
4.79
20.42
32.71
41.4
46.82
49.75
51.22
52.15
53.11
54.25
55.36
56.06
55.97
54.88
52.84
50.16
47.33
44.97
43.6
43.55
44.79
47.04
49.74
52.25
53.98
54.51
53.63
51.4
48.12
44.16
39.95
35.83
32.03
28.71
25.9
23.59
21.68
19.98
18.28
16.47
14.61
12.87
11.51
10.68
10.34
10.29
10.2
9.77
8.82
7.29
5.23
2.74
-0.09
-3.18
-6.48
-9.97
-13.55
-17.07
-20.34
-23.18
-25.56
-27.67
-29.83
-32.47
-35.84
-40
-44.74
-49.7
-54.53
-58.94
-62.79
-66.03
-68.79
-71.33
-73.97
-77
-80.4
-83.63
-85.68
-85.2
-80.98
-72.36
-59.51
-43.37
-25.44
-7.37
9.36
23.63
34.74
42.53
47.24
49.53
50.28
50.37
50.43
50.72
51.08
51.08
50.24
48.33
45.54
42.42
39.75
38.27
38.36
39.95
42.52
45.29
47.48
48.54
48.21
46.56
43.85
40.49
36.89
33.37
30.14
27.19
24.44
21.73
19.01
16.31
13.72
11.38
9.36
7.7
6.4
5.38
4.57
3.83
2.99
1.93
0.61
-0.85
-2.31
-3.6
-4.69
-5.7
-6.88
-8.49
-10.66
-13.36
-16.38
-19.39
-22.14
-24.49
-26.53
-28.58
-31.01
-34.12
-38.01
-42.54
-47.39
-52.14
-56.41
-59.92
-62.5
-64.19
-65.27
-66.25
-67.74
-70.19
-73.52
-77
-79.25
-78.69
-74.08
-64.98
-51.88
-36.04
-19.13
-2.74
11.85
23.87
33.06
39.55
43.79
46.41
47.98
48.95
49.54
49.75
49.47
48.57
46.95
44.7
42.03
39.39
37.32
36.38
36.91
38.88
41.82
44.94
47.39
48.54
48.11
46.31
43.58
40.42
37.26
34.31
31.65
29.24
27.04
24.94
22.81
20.5
17.91
15.04
12.04
9.19
6.78
4.94
3.56
2.34
0.91
-0.99
-3.38
-6.05
-8.67
-10.99
-12.95
-14.72
-16.57
-18.73
-21.31
-24.24
-27.4
-30.66
-33.91
-37.08
-40.1
-42.9
-45.54
-48.22
-51.31
-55.12
-59.7
-64.59
-68.82
-71.22
-70.79
-67.15
-60.64
-52.2
-43.01
-34.11
-26.2
-19.62
-14.49
-10.98
-9.37
-10.04
-13.36
-19.5
-28.25
-38.97
-50.7
-62.29
-72.73
-81.36
-88.04
-93.1
-97.14
-100.74
-104.16
-107.13
-108.8
-107.86
-102.83
-92.55
-76.79
-56.76
-35.28
-16.28
-3.81
-0.84
-8.25
-24.63
-46.85
-71.03
-93.36
-110.96
-122.2
-126.62
-124.73
-117.93
-108.21
-97.82
-88.7
-81.73
-76.74
-72.58
-67.51
-59.56
-46.95
-28.62
-4.6
23.75
54.23
84.09
110.73
132.64
149.85
163.73
175.96
187.7
199.16
210.94
223.16
235.51
247.32
257.86
266.49
272.55
275.62
275.93
276.69
280.71
288.73
298.94
308.2
313.74
314.09
309.39
301.12
294.77
294.08
299.02
306.07
311.12
311.79
307.9
300.67
291.8
287.26
290.59
300.83
312.83
320.3
318.48
304.95
279.54
216.61
109.12
-28.04
-164.89
-276.14
-352.73
-398.38
-421.43
-429.56
-428.08
-416
-393.3
-363.31
-332.03
-304.87
-284.11
-269.08
-257.68
-247.81
-234.72
-216.07
-193.08
-169.6
-149.35
-133.9
-122.73
-114.32
-107.12
-97.83
-84.72
-68.27
-50.75
-34.46
-20.56
-9.14
0.2
7.54
14.09
20.17
25.08
27.46
26.2
21.07
12.63
2.5
-8.26
-18.23
-26.42
-32.41
-36.37
-38.65
-39.6
-39.51
-38.58
-37.13
-35.37
-33.54
-31.74
-30.08
-28.56
-27.17
-25.9
-24.7
-23.59
-22.56
-21.64
-20.84
-20.15
-19.57
-19.07
-18.66
-18.32
-18.04
-17.84
-17.76
-17.83
-18.06
-18.52
-19.22
-20.26
-22
-24.15
-26.56
-29.06
-31.37
-33.07
-34.14
-33.9
-32.05
-28.44
-23.08
-16.25
-8.37
0.01
8.3
16
22.74
28.2
32.29
35.14
36.95
38.04
38.73
39.29
39.95
40.86
41.96
43.12
44.23
45.18
45.89
46.33
46.54
46.63
46.84
47.19
47.74
48.61
49.95
51.85
54.42
57.7
61.79
66.82
72.38
78.23
84.13
89.95
95.51
100.75
105.69
110.47
115.44
120.2
124.69
128.9
132.96
136.93
140.93
145.08
149.56
154.63
159.51
163.73
166.71
167.92
166.66
162.02
152.68
136.53
117.55
96.94
75.67
54.44
33.87
14.49
-3.26
-19.02
-32.47
-43.17
-51.68
-58.21
-62.91
-65.81
-66.86
-65.97
-63
-57.84
-50.25
-40.84
-30.01
-18.21
-5.86
6.61
18.82
30.44
41.24
51.16
59.8
66.95
72.52
76.52
79.06
80.35
80.69
80.43
79.92
79.26
78.48
77.57
76.46
75.1
73.43
71.6
69.77
68.22
67.11
66.52
66.47
66.85
67.54
68.43
69.48
70.72
72.18
73.7
74.94
75.31
74.13
70.87
65.32
57.76
48.81
39.27
29.67
20.05
9.98
-1.34
-14.55
-29.75
-46.36
-63.24
-79.23
-93.66
-106.96
-120.49
-136.16
-155.71
-179.87
-208.1
-238.98
-270.71
-301.89
-332.09
-361.85
-392.41
-425.58
-463.47
-508.02
-559.96
-617.5
-675.53
-726.25
-761.43
-775.69
-768.95
-746.78
-718.29
-692.51
-675.27
-667.82
-667.74
-671.12
-674.35
-674.94
-671.16
-661.43
-644.06
-617.89
-583.05
-541.34
-495.92
-450.54
-408.29
-370.69
-337.46
-306.85
-276.51
-244.47
-209.75
-172.55
-133.92
-95.26
-57.7
-21.85
12.1
44.18
74.21
101.72
125.91
145.98
161.3
171.71
177.57
179.57
178.53
175.11
169.74
162.59
153.65
142.91
130.5
116.66
101.8
86.36
70.79
55.55
41.07
27.8
16.23
7.42
2.27
1.16
4.01
10.43
20.05
32.69
48.14
66.17
86.94
110.35
135.69
161.82
187.39
211.23
232.52
250.74
265.55
278.22
289.76
300.27
308.95
314.82
317.41
316.95
314.07
309.58
308.21
313.33
325.26
341.22
357.35
370.88
380.71
386.81
389.72
398.27
418.72
451.45
490.77
529.22
561.8
587.13
606.1
620.5
645.19
690.62
757.55
836.87
916.4
987.71
1047.8
1097.3
1137.9
1188.5
1262.1
1359.3
1467.8
1571.5
1659
1725.4
1770.1
1687.1
1422.3
993.17
484.19
-7.85
-421.83
-739.09
-967.43
-1125.1
-1232.1
-1288.4
-1295.2
-1261.2
-1203.4
-1139.5
-1079.7
-1025.7
-975.14
-924.71
-860.18
-774.58
-674.58
-579.04
-507.02
-467.39
-456.59
-462.97
-473.78
-472.55
-451.8
-414.67
-371.43
-332.1
-301.55
-279.23
-261.63
-244.84
-221.66
-188.67
-146.86
-101.37
-58.56
-23.6
0.78
14.28
18.18
15.7
9.68
2.36
-4.13
-6.74
-2.77
9.41
29.4
55.44
84.84
115.06
144.34
166.48
175.93
167.56
139.69
96.26
46.7
1.38
-33.32
-57.46
-76.18
-94.95
-115.72
-134.73
-145
-139.11
-115.87
-83.67
-55.96
-42.49
-44.04
-55.29
-68.43
-80.77
-91.67
-100.5
-104.92
-100.37
-81.3
-43.43
12.43
79.57
145.56
195.64
216.45
200.97
152.69
86.43
24.11
-13.64
-16.05
12.59
55.24
89.44
97.97
76.5
34.42
-11.65
-47.37
-66.76
-72.89
-72.99
-73.43
-76.28
-79.75
-81.69
-82.81
-86.58
-96.49
-113.09
-131.78
-145.68
-148.36
-138.89
-121.83
-104.78
-94.14
-93.09
-101.14
-113.86
-126.21
-134.14
-135.01
-127.85
-113.42
-93.61
-71.03
-48.48
-27.1
-7.77
9.02
24.46
39.97
56.24
73.43
92.27
106.67
115.16
117.64
114.78
110.12
107.02
107.5
111.8
119.36
129.32
142.05
157.01
172.78
190.74
212.14
237.19
265.11
295.17
327.21
362.63
402.5
426.7
422.56
388.62
334.08
269.33
198.94
122.67
41.42
-40.35
-115.12
-172.12
-205.03
-214.82
-208.82
-196.02
-182.86
-171.46
-161.46
-152.31
-141.86
-129.38
-115.52
-101.56
-88.11
-74.79
-60.65
-45.74
-31.52
-18.74
-8.6
-2.38
-1.03
-4.55
-11.95
-21.87
-32.84
-44.44
-56.1
-67.36
-77.63
-86.1
-91.74
-93.74
-91.97
-87.39
-81.98
-77.59
-75.34
-75.19
-75.99
-75.96
-73.71
-69.01
-63.15
-58.26
-56.45
-58.54
-63.58
-69.6
-74.38
-76.59
-75.95
-72.81
-67.89
-62.44
-58.43
-58.02
-62.41
-70.24
-77.12
-77.11
-65.7
-42.42
-11.81
18.24
39.43
46.42
38.65
20.07
-2.31
-21.03
-30.2
-27.3
-14
4.55
21.83
33.38
38.44
40.04
42.5
48.27
56.41
63.43
65.86
62.67
55.99
49.38
45.42
44.39
44.24
42.15
36.39
27.49
17.75
10.1
6.54
7.45
11.47
16.1
18.88
18.28
14.24
7.93
1.21
-4.29
-7.69
-8.83
-8.53
-8.04
-8.55
-10.64
-14.15
-18.23
-21.68
-23.48
-22.68
-19.31
-14.22
-8.69
-4.02
-1.04
0.17
0.13
-0.15
1.3
6.46
16.81
32.39
51.07
68.51
79.32
79.04
62.29
29.77
-13.04
-57.71
-95.82
-121.59
-133.36
-133.36
-126.2
-116.65
-107.02
-97.13
-84.56
-66.12
-39.5
-4.51
36.68
80.37
122.66
160.89
192.98
217.04
230.89
232.81
222.62
202.67
177.75
153.2
132.99
117.69
104.69
89.71
69.28
42.55
11.68
-19.32
-46.67
-68.22
-83.87
-94.53
-100.77
-102.14
-97.86
-88.51
-77.04
-68.43
-67.44
-76
-91.63
-108.03
-117.95
-116.91
-105.54
-89.25
-75.28
-68.62
-68.99
-70.73
-65.36
-45.6
-8.97
40.74
94.83
142.56
174.63
185.72
175.46
148.25
111.86
75.26
46.35
29.95
26.52
32.53
42.04
49.01
49.43
42.05
28.08
10.09
-9.04
-26.84
-41.31
-51.1
-55.68
-55.45
-51.81
-46.93
-42.91
-40.85
-40.23
-38.88
-33.83
-22.8
-5.62
15.04
34.43
47.7
52.12
48.5
41.07
35.77
38.03
50.9
74.31
105.48
139.97
172.98
200.59
220.52
232.14
235.88
232.33
221.59
203.21
177.13
144.74
109.53
76.28
49.06
29.38
15.35
2.9
-11.95
-30.87
-52.65
-74.27
-92.74
-106.55
-115.75
-121.3
-124.19
-125.39
-126.3
-129.18
-136.88
-151.44
-172.7
-197.95
-223.26
-245.33
-262.81
-275.92
-284.77
-287.58
-280.35
-258.4
-218.82
-162.64
-95.16
-24.56
40.64
94.17
133.11
157.65
169.77
171.66
165
150.82
130.16
104.64
76.93
50.66
29.55
16.2
11.15
12.76
18.03
24.11
29.5
34.71
41.89
53.56
71.07
93.23
116.03
133.97
142.5
140.52
131.35
121.46
117.08
120.69
129.12
134.81
129.47
108.27
72
26.21
-21.78
-65.69
-101.09
-124.75
-133.49
-124.79
-98.75
-60.38
-19.31
13.19
28.88
25.96
9.07
-14.22
-37.9
-60.38
-84.1
-112.25
-145.27
-179.42
-208.01
-224.5
-225.58
-212.42
-189.9
-164.32
-141.25
-123.98
-113.44
-108.96
-109.45
-114.07
-121.94
-131.54
-140.21
-144.71
-142.57
-133.58
-119.79
-104.43
-89.69
-74.98
-56.96
-30.98
6.29
54.52
108.96
161.68
204.19
230.56
239.47
234.35
221.69
208.26
198.24
191.63
184.76
172.51
151.26
120.95
85.18
49.54
19.27
-2.57
-15.45
-20.62
-20.01
-15.61
-9.41
-3.87
-2.3
-8.52
-25.95
-56.08
-97.06
-143.36
-187.09
-220.83
-240.84
-248.49
-249.35
-249.84
-253.32
-258.13
-258.74
-248.95
-225.35
-189
-144.67
-98.71
-57.01
-24.09
-2.85
5.66
2.86
-7.32
-19.58
-29.71
-36.62
-42.34
-49.7
-59.4
-68.77
-73.39
-70.51
-61.04
-48.99
-38.56
-31.48
-26.67
-22
-16.51
-11.18
-8.04
-8.29
-11.57
-16.2
-20.23
-21.99
-20.37
-15.12
-7.82
-2.51
-4.89
-19.73
-47.31
-81.52
-111.59
-126.76
-121.23
-96.33
-58.59
-15.87
25.67
62.13
90.37
106.52
106.43
87.63
51.52
3.92
-46.65
-91.72
-125.35
-144.98
-151.05
-145.72
-131.88
-112.68
-91.07
-69.43
-48.94
-29.45
-10.14
9.11
26.85
39.78
44.39
39.22
26.57
12.61
5.22
10.65
30.72
62.13
97.99
131.05
156.73
174.51
187.42
200.2
217.08
240.31
269.58
302.14
333.64
358.93
373.01
372.19
355.25
324.1
283.51
239.72
198.49
163.52
135.93
115.13
100.4
91.76
89.81
94.66
104.72
116.8
127.25
133.5
134.9
132.36
127.01
119.19
108.43
94.33
77.81
61.45
48.47
41.42
41.18
46.83
56.75
69.98
86.59
106.58
128.5
148.79
162.5
165.47
156.63
138.88
117.85
99.09
85.43
76.01
67.46
56.16
40.32
20.59
-0.51
-19.76
-34.27
-42.25
-43.45
-39.56
-34.3
-32.97
-40.57
-59.6
-88.32
-121.07
-149.97
-168.25
-173.15
-166.87
-155.26
-145.17
-140.72
-141.21
-141.26
-133.3
-111.64
-75.81
-31.45
12.22
46.84
68.82
80.56
88.14
97.11
108.64
119
122.17
114.13
95.86
73.04
52.99
40.79
37.06
38.56
41.08
42.47
43.74
48.1
58.13
73.32
89.68
101.44
103.58
94.49
76.42
53.89
31.44
11.37
-7.07
-26.96
-52.08
-84.69
-124.01
-165.53
-201.79
-224.2
-225.83
-203.63
-159.72
-100.83
-36.4
23.96
72.42
104.04
117.03
112.51
94.13
67.16
37.03
7.54
-20.14
-47.13
-75
-104.09
-133.04
-159.89
-183.18
-202.3
-216.43
-223.73
-221.6
-208.87
-188.16
-166.27
-151.94
-152.18
-169
-199.09
-236.15
-274.04
-308.74
-338.13
-360.35
-372.9
-373.16
-359.88
-334.34
-300.05
-260.99
-220.31
-179.39
-138.4
-97.22
-56.06
-15.25
25.21
65.94
107.57
149.9
191.44
229.78
262.4
287.85
306.04
317.65
323.29
323.04
316.44
303.6
285.94
266.28
248.06
234.2
225.99
222.94
223.1
223.79
222.32
216.43
204.64
186.7
163.65
137.4
109.99
82.58
55.13
26.86
-2.91
-34.07
-65.66
-96.29
-124.66
-149.6
-169.64
-182.73
-186.37
-178.32
-157.86
-126.66
-88.95
-50.73
-18.13
4.18
14.09
12.31
1.73
-13.78
-30.84
-47.47
-63.39
-79.17
-95.1
-110.35
-122.95
-130.53
-131.27
-124.61
-111.29
-92.97
-71.76
-49.84
-29.24
-11.82
0.7
6.98
6.26
-1.16
-13.75
-28.86
-43.43
-55.04
-62.63
-66.8
-69.2
-71.3
-73.38
-74.48
-73.23
-69.23
-63.77
-59.12
-57.03
-57.04
-56.12
-50.08
-35.93
-13.67
13.52
40.74
63.65
80.19
90.56
96.15
97.96
95.85
88.84
76.25
58.55
37.46
15.35
-5.52
-23.43
-37.2
-45.88
-48.74
-45.46
-36.59
-23.68
-9.09
4.54
14.97
20.7
21.22
16.93
9.14
-0.17
-8.62
-14.1
-15.53
-13.4
-9.63
-6.8
-6.94
-10.72
-17.26
-24.81
-31.86
-37.95
-43.51
-49.01
-53.98
-56.86
-55.6
-48.84
-36.61
-20.26
-1.61
17.83
36.94
54.36
67.72
73.59
68.56
50.85
21.56
-15.52
-55.17
-92.58
-124.53
-149.52
-167.22
-177.76
-181.31
-178.2
-169.2
-155.78
-140.14
-125.04
-113.48
-108.19
-110.9
-121.48
-137.52
-154.52
-167.16
-170.96
-163.65
-145.54
-118.89
-86.55
-50.79
-12.89
26.53
66.78
106.8
145.24
181.23
214.93
247.66
281.25
317.31
356.82
399.96
446.24
494.14
540.62
580.93
609.33
620.74
612.58
585.9
544.77
494.67
440.57
385.66
331.34
277.83
225.14
173.43
122.88
73.38
24.48
-24.14
-72.16
-118.7
-162.92
-204.42
-243.57
-281.66
-320.96
-363.97
-411.76
-462.48
-510.63
-548.16
-566.93
-561.95
-533.55
-487.68
-433.41
-378.97
-328.75
-282.54
-237.27
-189.27
-136.21
-77.4
-13.98
49.64
107.4
154.08
187.43
208.01
217.73
218.12
210.3
195.58
175.92
154.29
133.99
117.53
105.57
97.23
90.56
83.48
74.69
64.04
52.62
42.26
34.5
29.67
27.32
26.29
25.38
23.86
21.65
19.36
17.96
19.7
23.55
28.21
32.26
34.47
34.24
31.63
27.41
22.71
18.63
15.52
13.49
12.34
11.83
12.04
13.18
15.74
20.44
27.94
38.62
52.59
68.95
85.54
99.14
105.96
103.17
90.09
68.58
42.21
15.34
-8.62
-28.6
-43.41
-52.82
-57.29
-57.66
-55.05
-50.89
-46.59
-43.19
-41.17
-40.38
-40.56
-41.61
-43.58
-46.56
-50.47
-54.99
-59.55
-63.48
-66.02
-66.53
-64.29
-58.64
-49.21
-36.41
-21.72
-7.47
4.01
11.26
14.12
13.7
11.93
10.64
10.92
12.88
15.81
18.69
20.35
19.68
15.77
8.39
-1.77
-13.05
-23.18
-30.17
-33.04
-32.29
-29.54
-26.78
-25.45
-26.07
-28.25
-31.25
-34.42
-37.33
-39.73
-41.34
-41.84
-41.07
-39.26
-36.94
-34.77
-33.3
-32.69
-32.74
-33.04
-33.17
-32.94
-32.38
-31.64
-30.76
-29.55
-27.64
-24.58
-20.09
-14.27
-7.72
-1.52
3.05
4.96
3.8
0.06
-5.04
-9.93
-13.27
-14.25
-12.78
-9.46
-5.41
-2
-0.39
-1.17
-4.03
-7.79
-10.9
-12.03
-10.6
-6.78
-1.09
6.11
14.81
25.01
36.19
47.07
55.97
61.68
64.18
64.78
65.44
67.78
72.13
77.54
82.31
84.96
84.92
82.74
79.68
77.13
75.97
76.26
77.27
77.72
76.23
71.87
64.44
54.58
43.45
32.31
22.06
13.21
5.89
0.01
-4.75
-9.11
-14.15
-21.02
-30.37
-41.81
-53.84
-64.53
-72.5
-77.72
-81.53
-85.8
-91.82
-99.51
-107.61
-114.49
-119.17
-121.7
-122.98
-124.1
-125.69
-127.66
-129.34
-129.77
-127.94
-122.82
-113.6
-99.88
-81.98
-61.01
-38.68
-16.84
2.99
19.9
33.58
43.96
51.14
55.28
56.84
56.64
55.7
54.87
54.38
53.66
51.66
47.45
40.91
33
25.49
20.2
18.11
18.86
21.07
23.08
23.98
24.06
24.61
27.12
32.18
38.87
44.76
46.79
42.52
31.34
14.99
-2.91
-18.04
-27.01
-28.57
-23.93
-16.03
-8.08
-2.17
1.65
5.17
11.29
22.77
41.18
66.34
96.1
126.84
154.2
174.16
184.04
183.36
173.98
159.5
143.9
130.07
118.65
107.88
94.56
75.75
50.43
20.32
-10.81
-38.73
-60.47
-75.26
-84.15
-88.77
-90.11
-87.96
-81.46
-70.19
-55.01
-38.19
-22.86
-12.05
-7.73
-10.25
-18.26
-29.08
-39.57
-47.2
-51.09
-52.19
-52.64
-54.47
-58.44
-63.69
-68.4
-71
-71.16
-69.92
-68.99
-69.57
-71.72
-74.49
-76.66
-77.45
-76.74
-74.53
-70.46
-63.62
-52.99
-38.36
-20.94
-3.35
11.22
20.23
22.84
20.2
14.76
9.17
5.24
3.48
3.37
4.19
5.64
8.2
12.92
20.69
31.58
44.46
57.18
67.42
73.6
75.41
73.89
70.74
67.58
65.34
64.23
63.88
63.79
63.59
63.1
62.28
61.07
59.34
56.89
53.56
49.38
44.71
40.38
37.33
36.26
37.09
38.66
39.04
36.26
29.12
17.78
3.73
-11.01
-24.92
-37.73
-50.6
-65.25
-82.77
-102.72
-123.04
-141.05
-154.52
-162.59
-165.8
-165.68
-163.78
-161.18
-158.3
-154.96
-150.46
-143.68
-133.39
-118.8
-100.4
-80.11
-61
-45.97
-36.45
-31.51
-28.49
-24.21
-16.38
-4.38
11.13
29.12
49
70.69
93.82
116.68
136.02
147.81
149.12
139.68
122.26
101.67
82.65
67.97
57.77
50.22
42.9
33.97
22.78
9.89
-3.17
-14.06
-20.07
-18.74
-8.92
8.34
29.49
49.45
63.17
67.35
61.41
47.37
28.98
10.28
-5.62
-17.34
-25.36
-31.59
-38.3
-47.13
-58.32
-70.56
-81.58
-89.1
-91.85
-90.08
-85.38
-80.06
-76.1
-74.44
-74.77
-75.75
-75.76
-73.59
-68.82
-61.66
-52.45
-41.17
-27.33
-10.44
9.22
30.24
50.11
66.18
76.76
81.79
82.89
82.33
81.94
82.25
82.45
81.11
77.12
70.39
61.77
52.59
43.89
36.07
28.93
22.02
15.11
8.37
2.26
-2.69
-6.06
-7.64
-7.43
-5.7
-2.96
0.1
2.75
4.48
5.14
4.98
4.39
3.63
2.7
1.32
-0.78
-3.69
-7.21
-10.98
-14.68
-18.18
-21.55
-24.89
-28.19
-31.28
-33.87
-35.74
-36.9
-37.55
-37.94
-38.16
-37.92
-36.62
-33.6
-28.41
-21.11
-12.33
-3
5.87
13.57
19.7
24.15
26.87
27.84
27.08
24.83
21.65
18.32
15.6
13.9
13.12
12.71
12.03
10.64
8.51
5.97
3.48
1.38
-0.2
-1.25
-1.77
-1.68
-0.95
0.18
1.11
1.02
-0.75
-4.31
-8.95
-13.31
-15.92
-15.73
-12.53
-6.83
0.46
8.53
17
25.78
34.86
43.91
52.25
59.11
64.17
67.84
71.12
75.03
79.91
85.12
89.32
91.29
90.65
88.1
84.86
81.78
78.66
74.16
66.68
55.23
40.17
23.09
6.16
-8.66
-20.21
-28.24
-33.29
-36.24
-38
-39.17
-39.79
-39.37
-37.16
-32.67
-26.07
-18.42
-11.19
-5.7
-2.62
-1.86
-3.01
-5.88
-10.91
-18.99
-30.96
-46.89
-65.55
-84.37
-99.84
-108.54
-108.04
-97.69
-78.85
-54.47
-28.15
-3.17
18.16
34.67
46.11
52.79
55.53
55.66
55.05
55.7
59.15
65.76
74.49
83.2
89.44
91.35
88.18
80.33
68.95
55.35
40.53
24.93
8.64
-8.39
-25.95
-43.42
-59.83
-74.15
-85.63
-94
-99.3
-101.57
-100.56
-95.78
-86.81
-73.83
-57.96
-41.09
-25.38
-12.47
-2.96
3.62
8.49
12.96
17.93
23.69
30
36.27
41.93
46.56
49.97
52.22
53.36
53.29
51.62
47.8
41.31
32.14
20.87
8.6
-3.37
-14.05
-22.95
-30.08
-35.64
-39.75
-42.37
-43.38
-42.81
-40.82
-37.72
-33.89
-29.75
-25.9
-23.26
-23.05
-26.53
-34.6
-47.39
-64.12
-83.22
-102.69
-120.66
-135.75
-147.18
-154.71
-158.41
-158.51
-155.22
-148.69
-138.9
-125.71
-109.05
-89.2
-67.09
-44.35
-22.98
-4.79
9.2
19.03
25.54
29.84
32.76
34.58
35.25
34.84
33.83
33.13
33.68
36
39.98
44.99
50.22
55.01
59.13
62.68
65.9
68.93
71.57
73.2
72.88
69.56
62.4
51.26
36.86
20.76
4.95
-8.77
-19.21
-25.79
-28.21
-26.07
-18.9
-6.5
10.28
29.32
47.45
61.46
69.14
69.97
65.02
56.31
46.02
36.02
27.74
22.35
20.71
23.15
29.14
37.18
45.18
51.24
54.31
54.53
52.84
50.16
46.72
41.88
34.63
24.36
11.51
-2.36
-14.99
-23.96
-27.47
-24.77
-16.47
-4.71
6.93
14.19
13.29
2.33
-17.64
-42.71
-67.19
-85.33
-93.13
-89.39
-75.76
-56.04
-34.95
-16.96
-5.24
-0.99
-3.15
-8.72
-13.53
-13.37
-5.11
12.47
38.46
69.92
102.57
131.5
152.04
160.81
156.6
140.8
117.14
90.69
66.23
46.85
33.14
23.58
15.58
6.94
-3.34
-15
-26.99
-38.29
-48.17
-56.12
-61.49
-63.34
-60.77
-53.51
-42.46
-29.61
-17.3
-7.3
-0.08
5.13
9.69
14.5
19.32
22.89
23.6
20.51
13.94
5.4
-3.07
-9.86
-14.34
-16.95
-18.72
-20.52
-22.63
-24.71
-26.05
-26.07
-24.52
-21.54
-17.51
-12.91
-8.19
-3.82
-0.25
2.08
2.82
1.83
-0.74
-4.42
-8.37
-11.45
-12.44
-10.5
-5.58
1.37
8.63
14.39
17.41
17.55
15.58
12.64
9.52
6.32
2.62
-1.93
-7.18
-12.3
-16.18
-18.03
-17.73
-15.88
-13.35
-10.73
-8.08
-4.97
-1.03
3.68
8.44
12.11
13.67
12.68
9.49
5.09
0.67
-2.9
-5.23
-6.39
-6.66
-6.29
-5.42
-4.1
-2.5
-0.85
0.52
1.35
1.65
1.64
1.69
2.09
2.83
3.68
4.25
4.27
3.73
2.78
1.71
0.67
-0.25
-1.07
-1.72
-2.07
-1.95
-1.36
-0.53
0.13
0.22
-0.38
-1.36
-2.08
-1.81
-0.1
3.01
6.95
10.85
13.83
15.39
15.39
14.07
11.78
8.8
5.27
1.27
-3.05
-7.44
-11.6
-15.4
-18.86
-22.13
-25.29
-28.13
-30.13
-30.61
-28.98
-25.06
-19.19
-12.21
-5.26
0.58
4.48
6.05
5.38
2.92
-0.7
-4.79
-8.78
-12.28
-15.08
-17.13
-18.4
-18.98
-18.93
-18.44
-17.73
-17.02
-16.43
-15.93
-15.32
-14.4
-13.05
-11.3
-9.31
-7.16
-4.75
-1.82
1.89
6.38
11.26
15.87
19.48
21.64
22.28
21.65
20.12
17.99
15.45
12.67
9.9
7.47
5.72
4.83
4.76
5.18
5.73
6.08
6.17
6.11
6.17
6.55
7.33
8.39
9.43
10.14
10.29
9.85
8.97
7.94
6.99
6.29
5.84
5.56
5.22
4.56
3.33
1.45
-0.79
-2.79
-3.71
-2.81
0.17
4.85
10.32
15.49
19.45
21.72
22.28
21.34
19.18
15.98
11.94
7.39
2.86
-1.01
-3.68
-4.96
-5.09
-4.66
-4.27
-4.31
-4.68
-5.02
-4.9
-4.12
-2.86
-1.57
-0.73
-0.71
-1.6
-3.31
-5.65
-8.34
-10.99
-13.09
-14.08
-13.56
-11.48
-8.23
-4.45
-0.81
2.27
4.72
6.66
8.2
9.34
10.01
10.13
9.83
9.39
9.12
9.13
9.18
8.82
7.56
5.16
1.77
-2.14
-5.94
-9.1
-11.36
-12.75
-13.44
-13.62
-13.34
-12.53
-11.09
-9.08
-6.82
-4.83
-3.67
-3.74
-5.05
-7.3
-9.97
-12.55
-14.7
-16.26
-17.21
-17.56
-17.33
-16.56
-15.29
-13.54
-11.31
-8.61
-5.43
-1.84
1.95
5.72
9.25
12.46
15.34
17.88
19.95
21.23
21.39
20.28
18.12
15.48
12.99
11.06
9.65
8.4
6.9
5.03
3.05
1.46
0.65
0.63
1
1.08
0.34
-1.45
-4.09
-7.1
-9.97
-12.33
-14.05
-15.17
-15.86
-16.25
-16.44
-16.41
-16.12
-15.49
-14.46
-12.96
-10.89
-8.19
-4.79
-0.77
3.6
7.85
11.43
13.9
15.06
15.03
14.09
12.58
10.71
8.51
5.94
3.03
0
-2.74
-4.75
-5.77
-5.82
-5.21
-4.39
-3.69
-3.21
-2.85
-2.42
-1.86
-1.34
-1.15
-1.57
-2.67
-4.28
-6.07
-7.71
-8.95
-9.66
-9.78
-9.32
-8.31
-6.89
-5.29
-3.67
-2.08
-0.34
1.83
4.61
7.92
11.41
14.57
17.02
18.6
19.39
19.48
18.83
17.23
14.54
10.86
6.71
2.85
-0.02
-1.54
-1.88
-1.54
-1.04
-0.7
-0.47
-0.09
0.68
1.9
3.32
4.57
5.22
5
3.8
1.75
-0.82
-3.55
-6.08
-8.2
-9.81
-11
-11.87
-12.52
-12.93
-13.06
-12.92
-12.63
-12.32
-12.07
-11.83
-11.43
-10.69
-9.46
-7.67
-5.24
-2.12
1.72
6.1
10.7
15.02
18.61
21.2
22.74
23.34
23.06
21.85
19.58
16.31
12.36
8.35
4.94
2.56
1.2
0.54
0.15
-0.22
-0.58
-0.67
-0.25
0.79
2.28
3.84
5.04
5.58
5.38
4.56
3.41
2.19
1.1
0.19
-0.53
-1.13
-1.58
-1.85
-1.91
-1.83
-1.75
-1.87
-2.33
-3.13
-4.13
-5.15
-6.04
-6.75
-7.38
-8.02
-8.79
-9.71
-10.7
-11.64
-12.44
-13.07
-13.52
-13.84
-14.07
-14.25
-14.42
-14.6
-14.83
-15.03
-14.96
-14.25
-12.47
-9.41
-5.14
-0.05
5.27
10.23
14.43
17.61
19.6
20.28
19.57
17.51
14.39
10.72
7.08
3.97
1.64
0.04
-1.08
-1.98
-2.83
-3.61
-4.16
-4.27
-3.79
-2.7
-1.22
0.28
1.42
1.94
1.81
1.22
0.44
-0.28
-0.82
-1.22
-1.54
-1.88
-2.26
-2.68
-3.15
-3.69
-4.42
-5.52
-7.2
-9.54
-12.39
-15.38
-17.98
-19.69
-20.2
-19.49
-17.79
-15.44
-12.74
-9.91
-7.09
-4.35
-1.71
0.89
3.54
6.26
9.04
11.68
14
15.84
17.2
18.14
18.62
18.45
17.3
14.94
11.46
7.31
3.2
-0.21
-2.52
-3.64
-3.72
-2.95
-1.44
0.76
3.54
6.67
9.76
12.37
14.14
14.92
14.81
14.09
13.09
12.13
11.37
10.87
10.54
10.22
9.81
9.29
8.76
8.39
8.32
8.64
9.33
10.33
11.48
12.66
13.74
14.67
15.63
16.94
19.05
22.29
26.67
31.78
36.9
41.18
43.96
44.92
43.98
41.26
36.88
30.97
23.65
15.17
5.96
-3.37
-12.05
-19.34
-24.73
-28
-29.31
-29.05
-27.71
-25.81
-23.77
-21.98
-20.77
-20.32
-20.6
-21.4
-22.39
-23.42
-24.52
-25.88
-27.55
-29.43
-31.26
-32.94
-34.78
-37.48
-41.7
-47.65
-54.76
-61.73
-67.02
-69.36
-68.1
-63.33
-55.71
-46.17
-35.82
-25.8
-17.29
-11.38
-8.95
-10.61
-16.49
-26.24
-39.05
-53.6
-68.31
-81.52
-91.78
-98.22
-100.61
-99.41
-95.49
-89.96
-83.89
-78.09
-73.09
-69.1
-66
-63.27
-59.99
-54.97
-47.04
-35.46
-20.2
-2.07
17.54
37.03
54.99
70.38
82.55
91.24
96.57
99.09
99.76
99.74
99.89
100.29
100.15
98.23
93.62
86.47
78.19
70.98
66.89
66.98
70.84
76.93
83.23
88.06
90.47
90.25
87.62
82.82
75.93
66.85
55.6
42.51
28.32
14.23
1.65
-8.11
-14.08
-15.84
-13.64
-8.3
-1.05
6.66
13.45
18.34
20.91
21.47
20.89
20.23
20.19
20.7
20.82
19.08
14.15
5.52
-6.17
-19.37
-32.18
-43.15
-51.67
-57.95
-62.63
-66.35
-69.44
-71.94
-73.66
-74.26
-73.27
-70.29
-65.16
-58.25
-50.5
-43.08
-36.86
-31.93
-27.62
-23
-17.65
-12
-7.1
-3.77
-1.81
0.18
4.36
12.54
25.34
41.78
59.74
76.75
90.75
100.56
105.76
106.36
102.39
93.75
80.25
61.89
39.14
13.17
-14.19
-40.62
-63.72
-81.45
-92.44
-96.14
-92.85
-83.57
-69.83
-53.47
-36.33
-19.91
-5.12
7.72
18.71
28.01
35.6
41.19
44.43
45.15
43.52
39.98
34.98
28.85
21.77
13.97
5.83
-2.07
-9.11
-14.8
-18.97
-21.7
-23.26
-24.02
-24.32
-24.48
-24.72
-25.1
-25.56
-25.98
-26.28
-26.48
-26.73
-27.12
-27.56
-27.72
-27.13
-25.5
-22.86
-19.55
-16.05
-12.65
-9.32
-5.76
-1.67
3
7.94
12.65
16.71
20.02
22.76
25.19
27.43
29.36
30.77
31.47
31.51
31.13
30.54
29.75
28.52
26.54
23.67
20.15
16.55
13.55
11.61
10.81
10.85
11.24
11.6
11.78
11.81
11.79
11.62
11
9.51
6.87
3.06
-1.61
-6.63
-11.55
-16.03
-19.95
-23.23
-25.76
-27.25
-27.45
-26.37
-24.53
-22.89
-22.39
-23.49
-25.64
-27.39
-26.95
-23
-15.47
-5.64
4.37
12.52
17.66
19.81
19.77
18.41
16.16
12.9
8.38
2.76
-3.16
-8.17
-11.16
-11.72
-10.39
-8.33
-6.72
-6.27
-6.98
-8.32
-9.7
-10.73
-11.35
-11.73
-12.08
-12.45
-12.7
-12.69
-12.36
-11.86
-11.48
-11.53
-12.27
-13.87
-16.25
-19.11
-21.94
-24.13
-25.05
-24.26
-21.52
-16.96
-10.94
-3.97
3.41
10.63
17.12
22.33
25.9
27.87
28.8
29.76
31.94
36.02
41.87
48.49
54.36
58.05
58.81
56.7
52.38
46.67
40.2
33.36
26.59
20.46
15.63
12.59
11.3
11.03
10.57
8.74
4.95
-0.52
-6.67
-12.14
-15.73
-16.82
-15.44
-12.14
-7.58
-2.31
3.31
9.04
14.64
19.77
24.04
27.1
28.71
28.69
26.79
22.63
15.83
6.24
-5.72
-18.89
-31.47
-41.47
-47.16
-47.64
-43
-34.26
-23.17
-11.69
-1.59
5.89
10.22
11.45
10.02
6.53
1.62
-4.1
-9.98
-15.37
-19.77
-22.87
-24.61
-25.08
-24.35
-22.49
-19.6
-15.93
-11.81
-7.5
-2.98
2.12
8.36
16.14
25.32
35.18
44.57
52.26
57.29
59.03
57.11
51.31
41.55
28.11
11.94
-5.4
-21.94
-35.85
-45.96
-51.88
-53.83
-52.25
-47.46
-39.62
-29.07
-16.63
-3.86
7.21
14.68
17.36
15.13
8.77
-0.37
-11.02
-22.15
-33.09
-43.28
-52.15
-59.07
-63.55
-65.4
-64.76
-62.02
-57.57
-51.63
-44.22
-35.3
-24.99
-13.64
-1.88
9.45
19.43
27.18
31.99
33.55
32.03
28.14
23
17.83
13.62
10.94
9.81
9.93
10.74
11.74
12.59
13.12
13.33
13.3
13.1
12.75
12.23
11.49
10.45
9.1
7.46
5.58
3.6
1.73
0.24
-0.66
-0.9
-0.65
-0.24
0.02
0.09
0.27
1.08
2.9
5.68
8.85
11.48
12.81
12.5
10.83
8.37
5.58
2.56
-0.94
-5.24
-10.31
-15.71
-20.8
-24.96
-28
-30.1
-31.62
-32.8
-33.63
-33.86
-33.3
-32.06
-30.58
-29.53
-29.5
-30.7
-32.85
-35.31
-37.22
-37.84
-36.72
-33.83
-29.58
-24.71
-19.98
-15.81
-11.97
-7.46
-0.76
9.59
24.38
43.16
64.2
84.91
102.59
115.21
121.87
122.85
119.11
111.83
101.97
90.16
76.92
62.85
48.81
35.68
24.12
14.27
5.68
-2.43
-10.84
-19.96
-29.63
-39.2
-47.66
-53.9
-56.94
-56.13
-51.26
-42.79
-31.73
-19.57
-7.89
1.94
9.08
13.23
14.5
13.19
9.57
3.93
-3.29
-11.26
-18.76
-24.45
-27.34
-27.19
-24.6
-20.85
-17.25
-14.68
-13.35
-12.91
-12.84
-12.76
-12.59
-12.39
-12.15
-11.69
-10.76
-9.24
-7.39
-5.7
-4.72
-4.66
-5.17
-5.5
-4.89
-2.98
-0.01
3.34
6.29
8.34
9.37
9.58
9.19
8.36
7.17
5.78
4.51
3.68
3.37
3.17
2.28
-0.07
-4.1
-9.21
-14.19
-17.73
-19.08
-18.35
-16.31
-13.82
-11.42
-9.23
-7.25
-5.8
-5.45
-6.59
-8.97
-11.41
-12.24
-10.13
-4.79
2.93
11.46
19.39
26.08
31.68
36.71
41.46
45.71
48.89
50.38
49.72
46.61
40.81
32.08
20.32
5.86
-10.41
-27.03
-42.2
-54.28
-62.13
-65.28
-63.98
-58.89
-50.88
-40.61
-28.37
-14.06
2.61
21.86
43.51
66.68
89.76
110.59
126.87
136.79
139.65
136.06
127.97
118.08
108.99
102.54
99.42
99.36
101.78
106.32
112.9
121.33
130.6
138.25
140.77
134.61
117.54
89.72
53.72
13.49
-27.07
-65.28
-100.25
-132.28
-162.19
-191.03
-220.12
-251.09
-285.29
-322.44
-359.38
-389.89
-406.16
-401.51
-373.11
-323.2
-258.47
-187.94
-120.44
-62.72
-18.6
11.2
28.51
36.97
40.89
43.87
47.84
52.79
57.38
60.26
61.11
60.66
60.07
60.16
60.87
61.58
61.74
61.37
60.99
61.24
62.32
63.77
64.66
64.04
61.4
56.98
51.69
46.71
43.05
41.12
40.65
40.86
40.77
39.55
36.7
32.07
25.76
18.14
9.93
2.26
-3.57
-6.6
-6.88
-5.87
-6.17
-10.54
-20.55
-35.68
-53.2
-69.18
-80.14
-84.51
-83.08
-78.25
-72.6
-67.42
-62.19
-55.17
-44.7
-30.33
-13.24
4.42
20.61
34.16
45.07
54.03
61.62
67.92
72.62
75.3
75.92
74.7
71.89
67.54
61.45
53.33
43.21
31.8
20.46
11.04
5.19
3.98
7.66
15.57
26.22
37.69
47.93
55.19
58.43
57.39
52.67
45.38
36.72
27.56
18.36
9.15
-0.25
-9.75
-18.91
-26.87
-32.51
-34.84
-33.16
-27.33
-17.96
-6.29
6.11
17.78
27.6
34.96
39.68
41.96
42.19
40.74
37.94
34.05
29.32
24.14
19.17
15.27
13.31
13.72
16.11
19.38
22.03
22.84
21.24
17.42
12.07
6.15
0.74
-3.06
-4.29
-2.46
2.14
8.37
14.63
19.54
22.4
23.31
22.78
21.13
18.03
12.66
4.21
-7.63
-22.23
-37.92
-52.1
-61.59
-63.35
-55.52
-38.43
-15.07
9.45
29.42
40.36
40.53
31.33
16.56
0.99
-11.23
-17.64
-17.86
-13.12
-5.68
2.04
8.03
11.06
10.72
7.3
1.62
-5.29
-12.42
-18.99
-24.53
-28.91
-32.18
-34.45
-35.72
-35.89
-34.79
-32.29
-28.3
-22.8
-15.81
-7.46
1.95
11.86
21.52
30.06
36.73
41.05
42.93
42.68
40.71
37.43
32.95
27.15
19.85
11.17
1.68
-7.59
-15.53
-21.44
-25.46
-28.48
-31.71
-35.92
-40.93
-45.5
-47.84
-46.37
-40.4
-30.41
-17.84
-4.52
7.83
18.01
25.39
29.72
31
29.39
25.25
19.07
11.58
3.49
-4.56
-12.15
-19.07
-25.19
-30.29
-33.95
-35.63
-34.85
-31.49
-25.91
-18.9
-11.52
-4.72
0.88
5.08
7.97
9.78
10.71
10.92
10.62
10.13
9.86
10.16
11.14
12.63
14.28
15.72
16.79
17.58
18.29
19.11
20.03
20.82
21.13
20.63
19.06
16.3
12.38
7.5
1.98
-3.75
-9.27
-14.24
-18.57
-22.31
-25.67
-28.78
-31.68
-34.26
-36.37
-37.94
-39
-39.72
-40.31
-40.89
-41.38
-41.56
-41.1
-39.69
-37.17
-33.46
-28.59
-22.65
-15.75
-8.08
0.03
8.07
15.46
21.57
25.89
28.14
28.36
26.87
24.18
20.9
17.59
14.68
12.45
10.97
10.17
9.89
9.86
9.82
9.62
9.3
9.07
9.28
10.15
11.71
13.66
15.49
16.66
16.83
15.95
14.22
11.99
9.62
7.38
5.44
3.92
2.87
2.35
2.31
2.64
3.21
3.86
4.5
5.06
5.49
5.69
5.59
5.2
4.61
3.99
3.49
3.12
2.73
2.08
0.99
-0.51
-2.19
-3.71
-4.8
-5.33
-5.29
-4.72
-3.61
-1.98
0.02
2.05
3.65
4.47
4.47
4
3.59
3.65
4.18
4.73
4.71
3.66
1.54
-1.28
-4.28
-7.02
-9.25
-10.94
-12.07
-12.57
-12.34
-11.43
-10.08
-8.76
-7.93
-7.87
-8.51
-9.46
-10.2
-10.28
-9.5
-7.9
-5.74
-3.35
-1.06
0.8
2.03
2.49
2.18
1.26
0.01
-1.24
-2.21
-2.75
-2.91
-2.86
-2.82
-2.98
-3.36
-3.91
-4.54
-5.2
-5.92
-6.74
-7.62
-8.41
-8.86
-8.74
-7.96
-6.68
-5.21
-3.95
-3.25
-3.25
-3.84
-4.71
-5.4
-5.43
-4.43
-2.31
0.7
4.1
7.32
9.87
11.48
12.13
12.01
11.34
10.35
9.17
7.89
6.54
5.15
3.71
2.28
0.94
-0.21
-0.97
-1.21
-0.87
0
1.26
2.73
4.28
5.8
7.24
8.51
9.5
10.02
9.89
9.05
7.53
5.52
3.25
0.94
-1.3
-3.48
-5.66
-7.92
-10.27
-12.68
-15.06
-17.29
-19.19
-20.55
-21.13
-20.78
-19.49
-17.44
-14.98
-12.48
-10.23
-8.33
-6.68
-5.15
-3.68
-2.41
-1.63
-1.61
-2.38
-3.68
-5
-5.81
-5.83
-5.13
-4.03
-2.86
-1.73
-0.48
1.17
3.38
6.04
8.76
11.13
12.89
14.08
14.93
15.7
16.45
16.97
16.91
15.98
14.13
11.63
8.98
6.7
5.19
4.6
4.89
5.9
7.46
9.43
11.73
14.26
16.9
19.51
21.9
23.96
25.59
26.74
27.38
27.49
27.02
25.86
23.92
21.22
18.01
14.78
12.16
10.69
10.67
12.02
14.37
17.19
19.9
21.99
23.05
22.86
21.45
19.08
16.11
12.87
9.52
6.02
2.34
-1.52
-5.43
-9.3
-13.2
-17.41
-22.25
-27.86
-34.07
-40.52
-46.92
-53.16
-59.23
-64.98
-69.88
-73.01
-73.39
-70.49
-64.43
-56.07
-46.56
-36.86
-27.54
-18.69
-10.1
-1.58
7
15.68
24.34
32.77
40.61
47.41
52.74
56.35
58.21
58.49
57.45
55.25
52.01
47.85
43.1
38.39
34.56
32.36
32.22
33.95
36.9
40.15
43
45.24
47.36
50.4
55.69
64.33
76.8
92.55
109.99
126.73
140.12
147.93
148.95
143.42
132.97
120.09
107.32
96.42
87.8
80.6
73.1
63.49
50.61
34.42
15.95
-3.18
-21.52
-38.53
-54.81
-71.97
-91.98
-116.6
-146.84
-182.92
-224.34
-269.93
-317.58
-364.1
-405.27
-436.48
-453.73
-454.5
-438.3
-406.36
-361.12
-305.87
-244.32
-180.51
-118.32
-60.88
-10.14
33.14
68.87
96.76
115.97
125.51
125.3
117.21
105.09
93.63
86.61
85.46
88.84
93.62
96.62
96.08
92.31
87.01
82.02
78.14
74.6
69.54
61.15
48.88
33.72
17.85
3.7
-7.1
-14.15
-18.05
-19.76
-19.86
-18.19
-14.16
-7.22
2.61
14.6
27.53
40.06
51.09
59.97
66.6
71.23
74.41
76.81
78.95
81.08
82.99
84.07
83.58
80.96
76.09
69.55
62.55
56.56
52.84
51.85
52.98
54.7
55.17
53.11
48.45
42.37
36.59
32.49
30.34
29.3
27.94
25.16
20.82
15.7
11.04
7.81
6.32
6.2
6.85
7.91
9.46
11.62
13.95
15.15
13.24
6.58
-5.1
-20.13
-35.48
-48.33
-57.82
-65.7
-75.39
-89.99
-110.11
-133.33
-155.24
-171.64
-180.6
-182.77
-180.18
-174.19
-164.32
-148.6
-125.38
-95.38
-62.46
-32.51
-10.96
-0.29
0.99
-2.54
-5.53
-4.2
2.4
12.71
24.15
34.69
43.53
50.84
56.92
61.64
64.39
64.67
62.66
59.4
56.48
55.22
56.08
58.42
60.78
61.56
59.67
54.98
48.36
41.35
35.58
32.29
31.98
34.4
38.89
44.6
50.76
56.65
61.48
64.33
64.36
61.13
54.88
46.46
36.95
27.17
17.35
7.12
-4.05
-16.36
-29.34
-41.77
-52.03
-58.64
-60.75
-58.47
-52.79
-45.34
-37.82
-31.45
-26.49
-22.01
-16.21
-7.03
6.86
25.31
46.24
65.94
80.15
85.48
80.67
67.35
49.69
33.34
23.73
24.58
36.84
58.55
85.48
112.37
134.5
148.77
154.39
152.5
145.28
134.75
121.9
106.61
88.11
65.91
40.5
13.41
-13.12
-36.89
-56.43
-71.54
-83.33
-93.86
-105.4
-119.59
-136.56
-154.68
-170.85
-181.59
-184.29
-178.18
-164.57
-146.26
-126.42
-107.54
-90.85
-76.34
-63.2
-50.48
-37.52
-24.29
-11.3
0.45
9.74
15.51
17.26
15.51
11.83
8.39
7.1
8.79
12.8
17.48
21.12
22.95
23.5
24.03
25.56
28.01
30.15
30.32
27.59
22.39
16.3
11.06
7.47
4.95
1.9
-3.23
-11.03
-20.73
-30.68
-39.1
-44.7
-46.77
-44.89
-38.87
-29.12
-17.37
-7.05
-2.72
-8.38
-25.59
-52.36
-83.51
-112.54
-133.79
-144.2
-143.74
-134.67
-120.25
-103.55
-86.68
-70.57
-55.24
-40.35
-25.93
-12.81
-2.45
3.84
5.9
5.27
4.64
6.5
11.8
19.42
26.97
32.33
34.86
35.68
36.69
39.3
43.62
48.54
52.7
55.49
57.44
59.86
63.96
70.04
77.26
84.12
89.2
92.01
93.26
94.49
97.37
102.66
109.72
116.46
120.13
118.44
110.52
97.32
81.14
64.7
50.12
38.33
28.99
20.94
12.83
3.64
-6.95
-18.61
-30.5
-41.64
-51.36
-59.76
-67.91
-77.7
-91.05
-108.91
-130.22
-151.5
-167.56
-173.16
-165.04
-143.45
-112.44
-78.6
-48.87
-28.14
-17.92
-16.24
-18.93
-21.33
-19.91
-13.13
-1.5
12.91
27.35
39.3
47.28
51.21
52.28
52.54
54
58.05
65.23
75.54
88.93
105.65
126.05
149.7
174.8
197.94
214.98
222.42
218.77
205.01
183.9
158.55
130.92
101.14
67.96
30.03
-12.69
-58.16
-102.42
-140.7
-168.75
-184.14
-186.86
-179.23
-164.96
-147.94
-131.01
-115.22
-99.86
-83.22
-63.68
-40.78
-15.71
8.99
30.34
46.15
55.85
60.47
62.01
62.24
61.93
60.77
58.07
53.61
48.13
42.89
38.67
34.91
29.59
20.15
4.99
-15.55
-39.16
-62.58
-82.92
-98.53
-109.12
-115.08
-116.87
-114.78
-109.15
-100.72
-90.69
-80.48
-71.26
-63.74
-58.34
-55.4
-55.28
-58.09
-63.38
-69.88
-75.73
-78.94
-78.01
-72.35
-62.39
-49.46
-35.35
-21.85
-10.31
-1.28
5.61
11.39
17.24
23.94
31.63
40.01
48.78
58.02
68.24
79.98
93.3
107.52
121.35
133.4
142.69
149.03
152.92
155.12
156.14
155.86
153.56
148.32
139.52
127.38
112.96
97.79
83.18
69.53
56.34
42.65
27.99
12.92
-0.95
-11.6
-17.59
-18.66
-15.9
-11.21
-6.65
-3.81
-3.51
-5.71
-9.55
-13.51
-15.82
-15.1
-11.08
-5.21
-0.48
-0.6
-8.55
-25.22
-48.74
-74.85
-98.19
-113.96
-119.32
-113.87
-99.39
-78.87
-55.55
-32.17
-10.75
7.27
20.65
28.24
29.11
22.97
10.69
-5.56
-22.73
-37.77
-48.45
-53.75
-53.48
-47.48
-34.98
-14.87
13.21
47.46
83.2
113.49
131.02
130.51
110.5
73.82
26.51
-24.13
-71.66
-111.76
-142.55
-163.9
-176.34
-180.29
-175.72
-162.33
-140.21
-110.35
-74.96
-37.42
-1.8
27.88
48.48
58.49
58.33
50.25
37.73
24.54
13.92
8.13
8.37
15
27.73
45.71
67.45
90.82
113.28
132.15
145.08
150.59
148.5
140.16
128.29
116.25
107.06
102.33
101.55
102.23
100.74
93.56
78.6
55.77
26.87
-4.98
-35.84
-61.81
-79.77
-88.22
-87.96
-82.33
-76.58
-76.54
-86.05
-104.65
-127.52
-147.48
-158.37
-158.18
-149.82
-139.51
-134.31
-138.82
-153.64
-176.47
-203.87
-232.7
-260.25
-283.55
-298.87
-303.22
-294.81
-273.17
-240.01
-198.47
-152.19
-104.62
-58.16
-13.8
27.52
65.6
101.69
137.04
172.23
206.78
237.3
257.56
269.46
276.72
278.88
276.3
269.08
257.4
241.96
224.07
205.76
189.41
175.67
164.08
154.36
145.5
136.54
126.96
116.58
105.53
94.24
82.46
70.25
58.77
48.16
38.19
28.36
18.12
7.15
-4.43
-16.51
-28.68
-40.15
-52.43
-67.19
-85.05
-104.59
-122.99
-137.13
-145.25
-147.57
-146.03
-145.89
-151.38
-163.61
-180.13
-197.57
-214.11
-231.13
-252.29
-266.09
-263.96
-242.95
-207.42
-164.13
-118.52
-74.09
-33.96
-0.39
25.68
42.46
49.82
48.03
40.71
30.83
20.12
8.59
-4.3
-19.47
-39.88
-67.48
-103.27
-146.37
-194.47
-238.62
-269.51
-278.83
-262.18
-222.1
-164.51
-98.47
-32.97
25.82
76.26
119.41
157.47
191.81
221.94
249.76
276.19
300.94
323.2
342.68
358.98
371.83
381.16
387.43
395.91
409.88
428.21
445.96
456.26
452.03
428.43
384.28
300.36
180.21
47.01
-70.92
-156.76
-209.25
-235.61
-243.99
-240.99
-232.06
-217.88
-200.7
-183.93
-168.87
-151.82
-127.3
-91.23
-43.87
9.06
62.22
108.69
135.97
141.06
129.88
112.74
98.71
94.69
97.55
104.44
111.48
114.93
113.65
108.6
102.17
97.01
94.56
94.9
99.05
106.03
113.04
117.23
115.73
106.34
88.09
61.38
27.67
-9.76
-47.7
-83.41
-114.21
-138.59
-156.4
-169.03
-179.24
-190.79
-207.18
-231.44
-265.21
-307.74
-355.8
-403.67
-443.87
-468.93
-473.9
-458.28
-427.04
-389.42
-355.87
-334.56
-328.61
-335.3
-347.7
-357.79
-359.45
-350.05
-330.17
-301.94
-267.33
-227.31
-182.28
-132.91
-80.97
-29.44
18.39
59.99
94.16
120.97
141.3
156.15
166.23
171.94
173.52
171.21
165.61
157.88
149.64
142.46
137.28
133.99
131.66
129.31
126.77
125.07
125.81
130.1
137.64
146.71
154.85
159.96
160.98
157.82
150.75
139.91
125.3
107.26
87.02
66.64
48.35
33.61
22.32
12.9
3.19
-8.43
-22.35
-37.74
-53.23
-67.51
-79.49
-87.99
-91.34
-87.43
-74.48
-52.11
-22.04
12.21
46.48
77.55
104.11
126.75
147.01
166.04
183.7
198.54
208.5
211.94
208.44
199.09
186.06
171.9
158.69
147.57
138.66
131.35
124.87
118.71
112.67
106.7
100.56
93.63
84.95
73.69
59.59
43.32
26.39
10.62
-2.48
-12.24
-18.88
-23.24
-26.35
-29.1
-32.25
-36.57
-42.96
-52.27
-64.83
-80.03
-96.15
-110.74
-121.42
-126.66
-126.2
-120.88
-112.06
-100.98
-88.32
-74.28
-58.88
-42.3
-25.02
-7.88
8.19
22.28
33.62
41.61
45.88
46.41
43.64
38.49
32.19
26.07
21.21
18.27
17.4
18.29
20.36
22.9
25.23
26.88
27.64
27.7
27.46
27.32
27.39
27.38
26.71
24.81
21.53
17.19
12.53
8.19
4.52
1.36
-1.66
-4.8
-7.93
-10.53
-11.9
-11.56
-9.45
-5.96
-1.82
2.17
5.25
6.94
6.97
5.31
2.12
-2.29
-7.5
-12.99
-18.24
-22.79
-26.32
-28.68
-29.89
-30.06
-29.36
-27.94
-25.92
-23.42
-20.57
-17.58
-14.67
-12.18
-10.45
-9.91
-10.95
-13.75
-18.09
-23.2
-27.85
-30.67
-30.61
-27.31
-21.29
-13.69
-5.88
0.96
6.16
9.5
11.13
11.37
10.63
9.35
8.03
7.13
7
7.78
9.35
11.39
13.47
15.16
16.08
15.99
14.82
12.67
9.82
6.66
3.58
0.92
-1.12
-2.5
-3.31
-3.71
-3.86
-3.87
-3.82
-3.74
-3.7
-3.8
-4.16
-4.95
-6.21
-7.88
-9.78
-11.66
-13.29
-14.58
-15.52
-16.25
-16.88
-17.51
-18.05
-18.31
-17.98
-16.76
-14.5
-11.26
-7.37
-3.22
0.81
4.54
8
11.32
14.54
17.56
20.07
21.71
22.24
21.69
20.31
18.45
16.38
14.21
11.9
9.39
6.76
4.22
2.08
0.6
-0.09
-0.05
0.54
1.42
2.33
3.04
3.37
3.26
2.74
1.94
1.02
0.11
-0.78
-1.68
-2.68
-3.76
-4.88
-5.89
-6.71
-7.29
-7.64
-7.83
-7.95
-8.08
-8.29
-8.66
-9.23
-9.94
-10.7
-11.36
-11.81
-11.98
-11.86
-11.5
-10.96
-10.3
-9.58
-8.83
-8.03
-7.13
-5.94
-4.21
-1.72
1.61
5.68
10.1
14.39
18.09
20.84
22.52
23.15
22.85
21.81
20.24
18.37
16.41
14.5
12.68
10.83
8.76
6.27
3.33
0.07
-3.2
-6.12
-8.38
-9.88
-10.73
-11.2
-11.62
-12.21
-13.04
-14.03
-15.08
-16.18
-17.45
-19.11
-21.29
-23.96
-26.82
-29.44
-31.38
-32.25
-31.81
-29.9
-26.48
-21.7
-15.89
-9.59
-3.52
1.67
5.49
7.72
8.37
7.61
5.75
3.18
0.43
-1.96
-3.47
-3.78
-2.74
-0.32
3.43
8.41
14.39
20.88
27.16
32.38
35.81
37.07
36.23
33.72
30.08
25.76
21.01
15.93
10.65
5.41
0.58
-3.4
-6.22
-7.8
-8.31
-8.08
-7.45
-6.63
-5.61
-4.28
-2.51
-0.34
1.99
4.12
5.67
6.42
6.3
5.42
3.96
2.09
-0
-2.21
-4.43
-6.61
-8.72
-10.75
-12.68
-14.42
-15.84
-16.8
-17.15
-16.84
-15.88
-14.41
-12.68
-11
-9.74
-9.19
-9.49
-10.42
-11.5
-12.07
-11.57
-9.77
-6.89
-3.63
-0.83
0.76
0.85
-0.33
-2.12
-3.76
-4.63
-4.5
-3.5
-2
-0.33
1.33
2.99
4.76
6.7
8.71
10.61
12.2
13.4
14.2
14.7
14.97
15.05
14.91
14.42
13.45
11.86
9.54
6.56
3.1
-0.5
-3.94
-6.99
-9.58
-11.73
-13.45
-14.71
-15.47
-15.74
-15.72
-15.74
-16.17
-17.2
-18.76
-20.47
-21.83
-22.4
-21.98
-20.58
-18.49
-16.16
-14.07
-12.54
-11.57
-10.85
-9.83
-8.05
-5.34
-1.99
1.46
4.46
6.73
8.32
9.51
10.51
11.31
11.68
11.37
10.36
8.91
7.43
6.3
5.66
5.39
5.22
4.92
4.42
3.82
3.35
3.27
3.81
5.03
6.82
8.86
10.76
12.15
12.79
12.64
11.79
10.37
8.51
6.29
3.79
1.19
-1.34
-3.62
-5.55
-7.18
-8.62
-9.99
-11.34
-12.58
-13.56
-14.13
-14.24
-13.94
-13.43
-12.94
-12.65
-12.58
-12.5
-12
-10.66
-8.23
-4.78
-0.67
3.56
7.45
10.72
13.33
15.36
16.83
17.69
17.81
17.12
15.71
13.87
11.93
10.23
8.94
8.08
7.55
7.26
7.11
7.14
7.42
7.97
8.7
9.38
9.72
9.52
8.76
7.62
6.4
5.31
4.37
3.47
2.38
0.99
-0.69
-2.5
-4.28
-5.9
-7.33
-8.55
-9.54
-10.25
-10.65
-10.79
-10.79
-10.75
-10.64
-10.24
-9.24
-7.4
-4.74
-1.56
1.62
4.35
6.4
7.81
8.79
9.49
9.86
9.65
8.66
6.83
4.38
1.73
-0.74
-2.75
-4.25
-5.24
-5.79
-5.86
-5.4
-4.45
-3.12
-1.7
-0.47
0.33
0.59
0.29
-0.53
-1.82
-3.58
-5.78
-8.32
-11.02
-13.63
-15.92
-17.75
-19.06
-19.88
-20.24
-20.16
-19.69
-18.94
-18.11
-17.35
-16.61
-15.6
-13.84
-10.91
-6.71
-1.56
3.91
8.97
13.11
16.14
18.09
19.1
19.22
18.51
17.08
15.16
13.1
11.22
9.67
8.36
7.05
5.51
3.71
1.85
0.26
-0.71
-0.89
-0.31
0.79
2.07
3.13
3.65
3.41
2.31
0.37
-2.25
-5.28
-8.38
-11.17
-13.35
-14.75
-15.39
-15.47
-15.28
-15.1
-15.1
-15.31
-15.64
-15.92
-15.93
-15.45
-14.19
-11.89
-8.43
-3.95
1.14
6.27
10.89
14.64
17.41
19.25
20.24
20.4
19.69
18.13
15.92
13.39
10.93
8.83
7.15
5.77
4.52
3.3
2.14
1.2
0.65
0.57
0.9
1.44
1.9
2.02
1.65
0.76
-0.61
-2.4
-4.58
-7.12
-9.92
-12.77
-15.39
-17.47
-18.82
-19.44
-19.48
-19.17
-18.69
-18.16
-17.6
-16.92
-15.96
-14.49
-12.24
-9.01
-4.76
0.24
5.52
10.48
14.6
17.58
19.39
20.2
20.21
19.62
18.53
17.02
15.22
13.29
11.44
9.84
8.57
7.61
6.88
6.26
5.75
5.42
5.4
5.77
6.46
7.26
7.9
8.13
7.82
7.04
5.91
4.57
3.13
1.61
-0
-1.69
-3.43
-5.15
-6.79
-8.26
-9.5
-10.49
-11.26
-11.91
-12.55
-13.23
-13.78
-13.86
-12.98
-10.77
-7.18
-2.55
2.43
7.04
10.73
13.28
14.76
15.38
15.34
14.72
13.55
11.93
10.09
8.31
6.89
5.93
5.36
4.97
4.54
4
3.43
3.01
2.93
3.27
3.99
4.91
5.81
6.44
6.58
6.12
5.11
3.71
2.18
0.74
-0.51
-1.61
-2.68
-3.79
-4.91
-5.93
-6.71
-7.23
-7.55
-7.73
-7.7
-7.21
-5.9
-3.51
-0.07
4.02
8.06
11.34
13.37
14.02
13.45
11.97
9.87
7.3
4.36
1.21
-1.88
-4.55
-6.43
-7.39
-7.5
-7.06
-6.37
-5.64
-4.91
-4.11
-3.19
-2.18
-1.26
-0.64
-0.51
-1
-2.15
-3.86
-5.96
-8.24
-10.44
-12.42
-14.07
-15.38
-16.36
-16.99
-17.25
-17.17
-16.87
-16.54
-16.37
-16.43
-16.63
-16.74
-16.43
-15.4
-13.4
-10.3
-6.14
-1.23
3.92
8.71
12.57
15.23
16.69
17.16
16.91
16.06
14.66
12.72
10.37
7.82
5.37
3.24
1.51
0.13
-1.01
-2.07
-3.11
-4.16
-5.13
-5.92
-6.41
-6.55
-6.43
-6.27
-6.33
-6.83
-7.83
-9.28
-10.96
-12.6
-13.95
-14.82
-15.12
-14.85
-14.05
-12.88
-11.56
-10.38
-9.69
-9.77
-10.76
-12.52
-14.67
-16.65
-17.96
-18.33
-17.86
-16.95
-16.16
-16
-16.77
-18.51
-21.06
-24.07
-27.25
-30.43
-33.76
-37.71
-43
-50.27
-59.58
-70.15
-80.31
-87.89
-90.96
-88.61
-81.21
-70.13
-56.87
-42.39
-26.69
-9.05
11.36
34.86
60.83
87.9
114.52
139.43
161.87
181.55
198.62
213.35
226.01
236.59
244.53
248.55
246.41
235.02
211.53
175.07
128.22
77.06
29.55
-7.05
-28.66
-35.41
-31.63
-23.51
-16.32
-12.4
-11.2
-10.86
-9.94
-8.19
-6.18
-5.52
-7.5
-12.33
-18.61
-24.18
-27.63
-29.16
-30.03
-31.32
-34.44
-40.52
-50.61
-65.7
-87.33
-117.9
-159.84
-213.76
-268.48
-307.92
-318.46
-298.18
-256.64
-206.75
-158.12
-115.57
-80.21
-51.41
-29.45
-15.35
-9.68
-11.16
-16.44
-21.61
-23.64
-21.03
-13.87
-4.75
2.32
3.54
-2.36
-13.18
-23.08
-25.55
-15.79
7.16
38.95
71.75
96.97
108.7
105.22
88.52
62.38
30.83
-2.52
-34.82
-63.12
-84.47
-96.4
-97.75
-89.29
-73.44
-53.05
-30.13
-7.89
11.77
27.87
40.05
48.18
52.27
52.54
49.72
45.08
40.05
36.25
34.68
35.54
38.33
42.3
46.85
51.74
57
62.72
69.08
76.12
83.65
91.3
98.63
104.99
109.66
111.87
111.05
107.23
100.87
92.72
83.63
74.27
65.15
56.57
48.73
41.74
35.59
30.17
25.39
21.38
18.61
17.88
19.95
25.09
32.8
41.84
50.52
57.23
60.84
60.94
57.81
52.15
44.83
36.61
28.03
19.32
10.41
1.09
-8.76
-18.85
-28.38
-36.1
-40.69
-41.32
-37.99
-31.62
-23.74
-16.03
-9.75
-5.47
-3.07
-1.89
-1.07
0.14
2.27
5.49
9.71
14.67
20.14
25.89
31.64
36.86
40.61
41.71
39.26
33.18
24.62
15.67
8.65
5.2
5.69
9.2
14.16
19.05
22.97
25.76
27.68
29.02
29.85
30.06
29.47
28.15
26.33
24.38
22.58
21.07
19.85
19.03
18.99
20.53
24.76
32.67
44.61
60.02
77.35
94.6
109.91
122.14
131.06
137.17
141.18
143.65
144.84
144.77
143.55
141.58
139.6
138.51
139.09
141.68
146.08
151.71
157.79
163.69
168.95
173.32
176.51
178.12
177.51
173.84
166.44
155.03
140.01
122.36
103.44
84.47
66.19
48.55
30.82
11.99
-8.81
-31.79
-56.29
-80.95
-104.18
-124.8
-142.41
-157.62
-171.78
-186.54
-203.37
-223.2
-246.28
-271.96
-298.42
-322.67
-341.24
-351.42
-352.6
-346.73
-337.54
-328.79
-322.55
-318.53
-314.75
-308.89
-299.28
-285.13
-266.12
-242
-212.76
-178.82
-141.01
-99.95
-55.54
-7.1
45.11
98.1
145.61
179.46
192.68
182.45
151.27
105.22
50.83
-7.41
-67.33
-127.13
-182.98
-228.28
-255.6
-260.09
-242.53
-209.67
-171.67
-137.8
-112.78
-95.86
-82.74
-69.01
-53.01
-36.57
-23.53
-17.23
-18.57
-25.63
-34.73
-42.02
-44.67
-41.52
-32.87
-20.11
-5.33
9.17
21.5
30.84
37.78
44.06
51.61
61.4
72.73
83.48
91.28
94.65
93.64
89.24
82.24
72.46
58.68
39.92
16.56
-8.76
-31.95
-49.33
-59.66
-64.89
-69.03
-75.73
-86.22
-98.78
-109.94
-116.51
-116.91
-110.96
-98.72
-79.47
-51.99
-15.86
26.99
72.13
113.92
147.69
171.44
185.83
192.8
193.69
188.6
176.51
156.69
129.63
97.2
62.24
27.55
-4.64
-32.82
-55.93
-72.94
-82.76
-84.38
-77.37
-62.34
-41.26
-17.16
6.41
26.31
40.32
47.45
47.63
41.39
29.64
13.76
-4.26
-22.08
-37.59
-49.63
-58.4
-64.97
-70.47
-75.19
-78.57
-79.79
-78.72
-76.29
-74
-72.99
-73.16
-73.21
-71.19
-65.37
-54.66
-38.5
-16.73
10.35
41.58
74.72
106.66
134.38
155.66
169.49
175.77
174.69
166.5
151.77
131.95
109.54
87.77
69.68
57.21
50.64
48.58
48.6
48.04
44.98
39.01
31.38
24.58
21.03
21.93
26.45
32.18
36.25
36.68
33.09
26.38
17.84
8.39
-1.68
-12.37
-23.51
-34.53
-44.58
-52.8
-58.65
-62.02
-63.35
-63.6
-64.14
-66.36
-71.15
-78.57
-87.74
-97.24
-105.51
-111.27
-113.4
-110.86
-102.71
-88.53
-69.07
-46.46
-23.85
-4.32
10.14
19.2
23.89
25.77
26.22
26.11
26.07
26.81
29.27
34.27
41.97
51.41
60.63
67.47
70.43
69.33
65.37
60.43
56.13
53.1
50.82
48.1
43.84
37.6
29.63
20.46
10.31
-1.09
-14.15
-28.74
-43.84
-57.79
-69.01
-76.71
-81.09
-82.98
-83.08
-81.62
-78.42
-73.38
-67.02
-60.55
-55.57
-53.5
-55.09
-60.22
-68.07
-77.35
-86.71
-94.87
-100.73
-103.27
-101.42
-93.92
-79.55
-57.65
-28.82
4.7
39.21
70.51
95.06
110.97
118.17
117.85
111.79
101.65
88.91
74.99
61.41
49.74
41.22
36.4
34.92
35.65
37.2
38.45
39.11
39.74
41.48
45.44
52.07
60.83
70.26
78.33
83.09
83.26
78.61
69.88
58.48
45.96
33.59
22.2
12.25
4.01
-2.32
-6.62
-8.93
-9.66
-9.46
-9.14
-9.36
-10.51
-12.58
-15.22
-17.88
-20.03
-21.4
-22.08
-22.5
-23.27
-25.01
-28.08
-32.53
-37.84
-42.87
-45.86
-44.76
-37.85
-24.43
-5.35
17.06
39.69
59.64
75
85.07
90.1
90.75
87.83
82.15
74.53
65.74
56.4
46.91
37.49
28.42
20.1
13
7.54
3.83
1.73
0.95
1.3
2.61
4.65
6.94
8.74
9.25
7.96
4.86
0.36
-4.9
-10.29
-15.28
-19.48
-22.62
-24.62
-25.73
-26.52
-27.78
-30.12
-33.73
-38.26
-43.07
-47.59
-51.6
-55.18
-58.46
-61.35
-63.67
-65.42
-67.07
-69.3
-72.34
-75.18
-75.39
-69.93
-56.48
-34.78
-6.99
23.07
51.34
74.73
91.75
102.13
106.32
105.07
99.31
90.26
79.3
67.69
56.23
45.23
34.73
24.79
15.76
8.11
2.37
-1.1
-2.14
-0.87
2.27
6.44
10.5
13.26
13.82
11.8
7.37
1.07
-6.41
-14.4
-22.27
-29.43
-35.48
-40.22
-43.7
-46.21
-48.16
-49.99
-52.23
-55.39
-59.74
-65.05
-70.49
-74.93
-77.53
-78.27
-77.96
-77.72
-78.3
-79.69
-81.26
-82.24
-81.97
-79.71
-74.22
-63.71
-46.47
-22.01
8.07
40.16
69.82
93.44
109.32
117.78
120.29
118.42
113.35
105.87
96.85
87.43
78.88
72.09
67.22
63.73
60.73
57.45
53.6
49.47
45.75
43.17
42.1
42.29
42.83
42.41
39.7
33.9
24.93
13.49
0.86
-11.5
-22.27
-30.56
-36.08
-39.19
-40.7
-41.6
-42.74
-44.69
-47.67
-51.8
-57.09
-63.44
-70.46
-77.53
-83.9
-89.04
-92.82
-95.61
-98.14
-101.24
-105.43
-110.59
-115.64
-118.55
-116.7
-107.84
-91.06
-67.39
-39.6
-11.18
14.85
36.78
54.21
67.43
76.64
81.69
82.33
78.79
72.07
63.83
55.96
50.02
46.95
46.91
49.4
53.38
57.63
61.05
63.06
63.69
63.44
62.96
62.84
63.45
64.91
66.84
68.14
66.84
60.6
47.47
26.8
-0.29
-31.18
-62.47
-90.91
-114.05
-130.44
-139.61
-141.96
-138.57
-131.11
-121.65
-112.26
-104.64
-99.67
-97.23
-96.13
-94.31
-89.23
-78.49
-60.65
-35.85
-5.86
26.4
57.78
85.69
108.58
125.83
137.39
143.38
143.92
139.25
129.97
117.27
102.8
88.38
75.57
65.33
58.02
53.57
51.71
52.12
54.36
57.75
61.29
63.82
64.17
61.42
55.13
45.46
33.15
19.5
6.07
-5.6
-14.38
-19.69
-21.55
-20.5
-17.41
-13.45
-9.97
-8.29
-9.28
-12.83
-17.61
-21.19
-20.85
-14.53
-1.63
16.74
38.22
60.08
80.06
96.72
109.44
118.12
122.96
124.38
123.12
120.39
117.72
116.65
118.3
122.96
129.86
137.3
143.08
145.14
142.14
133.67
120.11
102.09
80.05
54
23.79
-10.29
-47.13
-84.71
-120.43
-151.76
-176.85
-194.99
-206.67
-213.37
-217.07
-219.67
-222.54
-226.33
-230.9
-235.66
-239.58
-241.15
-238.35
-228.78
-210.38
-182.26
-145.42
-102.75
-58.1
-15.01
24.57
60.47
93.6
124.79
153.71
178.64
197
206.36
205.41
194.47
175.18
149.9
120.96
90.16
58.81
27.95
-1.18
-26.98
-47.53
-61.14
-66.89
-65.11
-57.47
-46.62
-35.4
-26.06
-19.82
-16.85
-17
-20.59
-28.69
-42.73
-63.35
-89.25
-116.93
-141.57
-158.89
-166.9
-166.59
-160.93
-152.92
-143.58
-131.19
-112.19
-83.3
-43.6
4.41
55.39
102.95
141.58
168.02
181.6
183.7
176.91
164.25
148.66
132.58
117.73
104.83
93.7
83.6
73.88
64.46
55.96
49.31
45.16
43.35
43.03
43.04
42.57
41.32
39.43
36.95
33.66
29.11
23.06
15.85
8.62
2.86
-0.33
-1.06
-0.98
-2.79
-9.07
-21
-37.59
-56.11
-73.37
-87.29
-97.75
-106.27
-114.82
-124.41
-134.5
-143.49
-149.7
-152.16
-150.54
-144.47
-133.03
-114.97
-89.82
-59
-26.14
3.72
25.88
37.73
39.6
34.37
25.97
17.69
11.18
6.35
2.35
-1.23
-3.78
-3.93
-0.49
6.54
15.75
24.93
32.21
36.89
39.44
40.77
41.24
40.27
36.74
29.89
20.03
8.68
-1.97
-9.96
-14.04
-13.93
-10.05
-3.24
5.48
15
24.15
31.85
37.29
40.08
40.4
38.92
36.59
34.3
32.59
31.52
30.73
29.68
27.89
25
20.69
14.61
6.42
-3.74
-14.85
-24.84
-31.04
-31.05
-23.84
-10.23
7.45
26.27
43.64
57.95
68.54
75.29
78.26
77.61
73.72
67.38
59.79
52.32
46.22
42.36
41.08
42.24
45.3
49.61
54.47
59.34
63.76
67.24
69.14
68.63
64.81
56.95
44.77
28.69
9.86
-9.81
-28.08
-42.88
-52.95
-58.15
-59.55
-58.8
-57.45
-56.38
-55.7
-55.08
-54.15
-52.74
-50.89
-48.73
-46.37
-43.91
-41.37
-38.39
-34.12
-27.23
-16.37
-0.91
18.51
39.93
60.57
77.77
89.73
95.84
96.61
93.19
86.86
78.76
69.78
60.74
52.51
46.1
42.55
42.6
46.43
53.44
62.42
71.95
80.89
88.53
94.54
98.6
100.16
98.53
93.14
83.91
71.32
56.28
39.85
22.88
5.91
-10.87
-27.37
-43.46
-58.7
-72.48
-84.12
-93.21
-99.77
-104.3
-107.73
-111.11
-115.46
-121.4
-128.88
-136.89
-143.41
-145.73
-141.16
-127.89
-105.74
-76.46
-43.36
-10.6
17.85
39.16
52.24
57.81
57.78
54.33
48.89
41.81
32.7
21.34
8.29
-5.1
-17.39
-27.87
-36.86
-45.33
-54.1
-63.23
-72.03
-79.53
-85.08
-88.65
-90.86
-92.65
-95.06
-98.93
-104.75
-112.45
-121.26
-129.86
-136.73
-140.71
-141.38
-139.11
-134.82
-129.67
-124.66
-120.43
-117.12
-114.35
-111.34
-107.23
-101.31
-93.37
-83.72
-73.24
-63.34
-55.61
-51.48
-51.45
-54.35
-57.13
-55.52
-45.42
-24.59
6.32
43.84
82.78
117.85
144.97
161.94
168.31
164.94
153.45
135.85
114.42
91.49
69.21
49.41
33.36
21.67
14.33
10.81
10.19
11.44
13.69
16.4
19.46
22.98
26.93
30.86
33.73
34.22
31.38
25.13
16.56
7.47
-0.41
-6.18
-10.07
-13.06
-16.23
-20.15
-24.76
-29.7
-34.64
-39.47
-44.2
-48.73
-52.85
-56.35
-59.24
-61.79
-64.23
-66.56
-68.49
-69.58
-69.6
-68.65
-67.07
-65.28
-63.59
-62.13
-60.79
-59.2
-56.45
-51.21
-41.88
-27.13
-6.39
19.86
50.02
81.66
111.79
137.38
155.93
165.99
167.6
162.23
152.33
140.52
128.8
118.22
108.96
100.94
94.23
89.25
86.56
86.4
88.44
91.89
95.76
99.28
102.04
103.95
105.09
105.43
104.86
103.2
100.46
96.9
93.02
89.31
85.86
82.31
77.93
72.06
64.55
55.99
47.49
40.23
34.99
31.97
30.79
30.49
29.42
25.26
15.36
-2.22
-27.47
-57.86
-88.73
-115
-133.2
-142.54
-144.66
-142.05
-136.37
-127.47
-113.92
-94.31
-68.59
-38.57
-7.32
22
47.01
66.55
80.44
89.01
92.68
91.91
87.33
79.86
70.87
61.96
54.54
49.3
45.94
43.35
40.3
36.26
31.71
27.88
25.78
25.39
25.28
23.17
17.07
6.29
-8.18
-24.28
-39.94
-54.05
-66.67
-78.54
-90.26
-101.7
-112.06
-120.26
-125.41
-127.13
-125.68
-122.04
-117.65
-114.18
-113.04
-114.91
-119.41
-125.12
-130.08
-132.82
-133.07
-131.77
-130.44
-130.32
-131.87
-134.93
-139.08
-143.56
-147.45
-149.46
-147.43
-138.69
-121.08
-94.01
-59.41
-21.02
17.5
52.99
82.97
106.22
122.53
132.23
136.05
134.32
127.62
118.56
109.78
102.65
98
96.15
96.87
99.78
103.57
107.24
112.85
122.02
133.66
145.2
153.36
155.68
152.12
143.84
133.07
124.64
119.97
114.76
102.82
79.18
42.93
7.53
-10.12
-16.6
-16.91
-7.85
7.23
22.68
32.7
32.53
19.14
-9.77
-53.99
-106.3
-156.43
-194.28
-210.65
-200.4
-164.98
-112.84
-58.5
-17.29
1.87
-3.58
-31.19
-74.29
-125.49
-179.57
-234.24
-289.35
-343.73
-391.57
-424.77
-436.35
-422.93
-386.57
-334.1
-274.25
-214.41
-158.39
-105.52
-53.5
-1.1
51.09
100.91
145.87
184.32
215.89
241.21
261.58
277.83
289.74
296.06
295.36
287.16
272.78
255.73
240.51
230.64
226.57
224.7
218.22
199.48
163.1
108.37
40.21
-31.96
-96.57
-143.28
-166.03
-164.95
-146.25
-120
-96.43
-82.31
-79.23
-84.37
-93.27
-102.58
-111.2
-119.6
-127.75
-134.09
-136.22
-132.88
-125.74
-119.16
-118.23
-125.5
-139.01
-152.52
-158.15
-149.9
-126.37
-91.39
-52.55
-18.32
5.04
15.47
15.66
11.74
10.94
18.95
38.26
67.78
103.89
141.95
177.57
207.09
227.84
238.03
236.99
225.42
205.62
181.21
156.53
135.79
122.03
116.43
118.06
124.34
132.08
138.45
141.81
141.84
139.18
134.88
129.91
124.91
120.13
115.23
109.31
101.21
90.13
76.27
61.13
47
35.92
28.62
24.2
20.46
15.14
7.02
-3.71
-15.73
-27.56
-38.36
-48.28
-58.15
-68.87
-80.85
-94.01
-108.17
-123.53
-140.72
-160.14
-180.95
-200.43
-214.28
-218.07
-209.14
-187.89
-157.69
-123.55
-90.29
-61.12
-37.39
-19.2
-6.2
1.76
4.73
2.98
-2.76
-11.33
-21.37
-31.27
-39.13
-42.52
-38.78
-25.77
-2.83
28.51
64.7
101.06
133.15
157.84
173.8
181.28
181.46
175.83
165.77
152.51
137.18
120.82
104.31
88.22
72.76
57.84
43.17
28.43
13.65
-0.71
-13.72
-24.28
-31.65
-35.9
-38.03
-39.61
-42.12
-46.3
-51.94
-58.19
-64.13
-69.35
-74.17
-79.4
-85.9
-94.03
-103.34
-112.46
-119.29
-121.37
-116.36
-102.72
-80.32
-50.82
-17.45
15.78
45.08
67.9
83.23
91.42
93.57
90.99
85.02
77.11
68.74
61.1
54.7
49.23
43.82
37.85
31.49
25.84
22.34
21.84
24.09
27.84
31.51
34.07
35.28
35.51
35.24
34.68
33.78
32.49
30.91
29.16
27.17
24.58
20.92
15.95
9.91
3.44
-2.73
-8.15
-12.77
-16.73
-19.95
-21.93
-21.95
-19.52
-14.92
-9.16
-3.63
0.52
2.92
3.86
3.98
3.7
2.96
1.26
-1.98
-7.21
-14.54
-23.8
-34.57
-46.16
-57.76
-68.5
-77.79
-85.47
-91.94
-97.97
-104.32
-111.42
-119.04
-126.12
-130.73
-130.31
-122.35
-105.37
-79.73
-47.9
-13.8
18.42
45.48
65.64
78.47
84.36
84.19
79.2
71.01
61.51
52.48
45.03
39.56
35.91
33.84
33.23
34.15
36.51
39.95
44
48.3
52.78
57.49
62.28
66.7
70.09
71.97
72.21
70.99
68.54
64.86
59.77
53.22
45.5
37.29
29.48
22.76
17.39
13.23
9.98
7.35
5.26
3.78
2.97
2.73
2.71
2.35
1.11
-1.29
-4.67
-8.49
-12.13
-15.23
-17.85
-20.43
-23.38
-26.82
-30.46
-33.84
-36.61
-38.82
-40.84
-43.17
-46.19
-50
-54.55
-59.6
-64.73
-69.05
-71.12
-69.07
-61.18
-46.61
-25.92
-1.05
25.23
50.1
71.33
87.57
98.23
103.37
103.59
99.97
93.99
87.15
80.58
74.7
69.31
63.96
58.44
53.07
48.54
45.54
44.42
45.07
46.95
49.36
51.57
52.91
52.9
51.3
48.2
44.03
39.33
34.55
29.89
25.35
20.82
16.26
11.66
7.06
2.42
-2.33
-7.17
-11.86
-16.1
-19.63
-22.48
-25.05
-27.86
-31.35
-35.67
-40.73
-46.37
-52.4
-58.57
-64.55
-69.89
-74.23
-77.49
-79.91
-81.86
-83.69
-85.69
-88.03
-90.82
-93.86
-96.3
-96.54
-92.36
-81.76
-63.79
-39.18
-10.18
20.31
49.59
75.71
97.28
113.25
122.78
125.75
123.3
117.88
112.2
107.91
104.37
98.63
86.81
65.74
34.19
-7.29
-57.07
-112.79
-171.08
-226.62
-271.99
-298.97
-301.24
-276.81
-228.9
-164.75
-93.06
-21.71
43.37
97.91
138.76
163.92
173.16
168.57
154.47
136.23
118.71
105.1
96.55
92.6
91.76
92.2
92.38
91.32
88.89
85.73
82.89
81.25
81.05
81.96
83.31
84.63
85.72
86.63
87.23
86.96
85.05
80.96
74.92
67.93
61.31
55.64
49.97
41.7
27.55
5.01
-26.29
-64.4
-106.12
-148.88
-192.01
-236.37
-282.47
-328.18
-367.75
-393.05
-396.55
-374.52
-328.56
-264.63
-190.45
-112.94
-37.05
33.61
95.63
145.57
181.01
201.96
211.47
214.25
213.94
210.93
202.09
182.53
148.34
98.86
37.44
-29.12
-91.98
-141.76
-170.25
-172.3
-147.7
-102.14
-46.08
8.49
52.19
81.23
97.5
105.64
109.05
107.15
95.76
70.42
30.41
-19.01
-67.86
-105.36
-124.6
-125.32
-113.34
-96.93
-82.62
-72.34
-63.39
-50.98
-31.49
-4.55
26.76
57.49
82.85
99.44
105.29
99.09
79.66
46.37
0.31
-54.62
-111.68
-162.84
-201.34
-224.04
-232.2
-230.32
-223.81
-216.54
-209.96
-203.52
-196.4
-188.92
-182.81
-180.01
-180.96
-183.39
-182.78
-174.28
-154.86
-124.73
-87.01
-46.04
-5.55
32.14
65.72
93.85
114.68
126.48
128.97
124.34
117.17
112.74
114.87
124.29
138.44
152.72
162.27
163.57
155.43
139.12
117.71
95.19
75.05
59.35
48.22
40.34
33.89
27.57
21.22
15.6
11.87
11.02
13.6
19.76
29.5
42.51
58
74.46
89.68
101.33
107.66
108.1
103.41
95.31
85.81
76.54
68.16
60.25
51.59
40.85
27.19
10.8
-7.21
-25.1
-41.22
-54.5
-64.74
-72.59
-79.32
-86.49
-95.48
-106.97
-120.48
-134
-144.22
-147.35
-140.46
-122.77
-96.19
-64.65
-32.61
-3.5
21
40.57
55.26
64.68
68.01
64.72
55.45
42.28
28.13
15.75
6.52
0.3
-4.06
-7.57
-10.21
-10.8
-7.73
-0.08
11.52
24.83
36.86
45.12
48.62
48.07
45.31
42.26
40.11
38.98
38.1
36.31
32.51
25.97
16.6
5.28
-5.92
-14.03
-15.99
-9.92
3.88
22.64
42.01
57.59
66.31
67.34
61.76
51.67
39.03
24.94
9.72
-6.53
-23.3
-39.47
-53.79
-65.5
-74.89
-83.08
-91.44
-100.86
-111.33
-122.06
-131.88
-139.56
-143.74
-142.88
-135.26
-119.48
-95.29
-64.13
-29.06
6.2
38.34
65.37
86.62
102.18
112.13
116.24
114.31
106.81
95.22
81.88
69.21
58.87
51.34
46
41.65
37.2
32.15
26.77
21.92
18.57
17.38
18.26
20.36
22.31
22.73
20.63
15.8
8.84
1.1
-5.6
-9.25
-8.23
-1.86
9.2
22.98
36.7
47.73
54.43
56.49
54.64
49.92
43.23
35.06
25.82
16
6.25
-2.9
-11.24
-18.92
-26.23
-33.28
-39.91
-45.74
-50.41
-53.66
-55.35
-55.51
-54.32
-52.23
-49.98
-48.52
-48.8
-51.5
-56.79
-64.27
-72.88
-81.06
-86.87
-88.31
-83.81
-72.69
-55.52
-34.01
-10.66
11.92
31.58
46.96
57.52
63.32
64.83
62.75
57.96
51.44
44.22
37.27
31.45
27.37
25.3
25.14
26.37
28.33
30.48
32.71
35.22
38.33
42.11
46.21
49.93
52.51
53.48
52.8
50.79
47.95
44.74
41.54
38.58
35.93
33.47
30.97
28.22
25.24
22.21
19.37
16.7
13.85
10.37
6.02
1.07
-3.74
-7.62
-10.22
-11.88
-13.52
-15.99
-19.62
-23.99
-28.22
-31.46
-33.36
-34.05
-33.99
-33.63
-33.35
-33.69
-35.35
-39.12
-45.3
-53.03
-60.17
-63.7
-60.78
-49.84
-31.24
-7.26
18.8
43.55
64.36
79.92
89.99
95.14
96.22
94
89.14
82.29
74.32
66.41
59.81
55.38
53.15
52.32
51.66
50.19
47.67
44.59
41.68
39.32
37.2
34.5
30.39
24.52
17.24
9.37
1.7
-5.37
-11.94
-18.49
-25.49
-33.21
-41.53
-50.01
-58.1
-65.32
-71.44
-76.5
-80.8
-84.7
-88.52
-92.28
-95.72
-98.32
-99.45
-98.69
-96.04
-91.95
-87.23
-82.77
-79.25
-77.02
-76.13
-76.53
-78.22
-81.22
-85.26
-89.46
-92.18
-91.34
-85.13
-72.63
-54.24
-31.51
-6.59
18.31
41.37
61.33
77.45
89.36
96.92
100.14
99.15
94.37
86.6
77.06
67.26
58.7
52.44
48.95
48.09
49.36
52.19
56
60.15
63.92
66.47
67.13
65.6
61.96
56.52
49.56
41.28
31.76
21.24
10.11
-1.25
-12.53
-23.58
-34.21
-43.93
-51.99
-57.71
-60.88
-62.03
-62.2
-62.42
-63.18
-64.31
-65.28
-65.67
-65.56
-65.52
-66.19
-67.97
-70.81
-74.22
-77.63
-80.54
-82.73
-84.25
-85.37
-86.42
-87.71
-89.39
-91.48
-93.94
-96.68
-99.41
-101.33
-100.92
-96.12
-85.05
-66.84
-42.32
-13.86
15.58
43.53
68.83
91.48
111.82
129.73
144.24
153.98
157.94
156.11
149.49
139.69
128.34
116.74
105.82
96.25
88.46
82.47
77.76
73.4
68.55
62.87
56.68
50.58
45.01
39.92
34.9
29.72
24.68
20.53
18.06
17.55
18.51
20.02
21.33
22.17
22.9
24.07
25.99
28.51
31.19
33.58
35.41
36.61
37.08
36.59
34.93
32.1
28.47
24.72
21.51
18.98
16.56
13.08
7.45
-0.71
-10.46
-19.62
-25.31
-24.91
-16.9
-1.39
19.65
42.48
61.96
72.32
68.57
47.98
11.46
-36.27
-87.75
-134.97
-171.64
-194.6
-203.9
-201.84
-191.54
-175.92
-157.32
-137.6
-118.28
-100.54
-85.09
-72.03
-60.94
-51.16
-42.14
-33.77
-26.59
-21.6
-19.91
-22.14
-27.87
-35.58
-43.12
-48.64
-51.44
-52.26
-52.88
-55.16
-60.11
-67.48
-75.88
-83.47
-88.67
-90.4
-88.09
-81.29
-69.48
-52.05
-28.64
0.42
33.88
69.61
105.04
137.76
166.09
189.39
207.88
222.32
233.67
242.87
250.84
258.52
266.67
275.63
285.06
293.88
300.64
304.18
304.14
300.98
295.71
289.15
281.66
273.16
263.54
253.16
242.76
233.11
224.25
214.99
202.95
185.16
159.14
123.89
80.26
30.81
-21.04
-71.8
-118.59
-159.44
-193.42
-220.64
-242.53
-261.61
-280.86
-302.43
-325.98
-347.81
-361.5
-360.2
-339.61
-300.34
-248.05
-191.42
-138.86
-95.66
-63.07
-39.41
-22.16
-9.74
-2.08
0.19
-3.16
-11.21
-21.93
-32.84
-41.83
-47.67
-50.18
-50.09
-48.75
-47.75
-48.58
-52.24
-59.15
-69.11
-81.24
-94.25
-106.63
-116.97
-124.39
-128.83
-130.98
-132.12
-133.69
-136.97
-142.75
-151.26
-162
-173.58
-183.71
-189.41
-187.71
-176.46
-155.06
-124.73
-88.06
-48.31
-8.73
27.85
59.3
84.46
103.29
116.92
127.44
137.27
148.53
162.32
178.54
