1626685718.00
64.000000
-0.00
-0.00
-0.00
-0.00
-0.00
-0.00
-0.00
-0.00
-0.00
-0.00
0.00
0.01
0.01
-0.00
-0.03
-0.05
-0.05
0.00
0.13
0.36
0.66
1.01
1.37
1.72
2.06
2.40
2.79
3.24
3.80
4.42
5.06
5.66
6.20
6.68
7.15
7.68
8.31
9.14
10.09
11.04
11.88
12.56
13.14
13.76
14.65
15.96
17.91
20.32
22.90
25.38
27.58
29.57
31.68
34.32
37.81
42.54
48.15
54.10
59.83
64.97
69.58
74.14
79.34
85.71
93.76
103.00
112.62
121.73
129.77
136.75
143.30
150.75
157.77
166.64
177.95
191.79
206.97
220.57
228.25
225.36
208.53
176.87
132.76
80.05
23.07
-34.94
-92.44
-149.16
-205.23
-260.37
-313.74
-363.87
-409.83
-450.91
-486.50
-515.74
-537.23
-549.22
-549.96
-538.37
-514.21
-478.67
-433.88
-382.45
-327.02
-269.84
-212.63
-156.66
-102.95
-52.37
-5.90
35.58
71.43
101.35
125.50
144.38
158.69
169.15
176.37
180.75
182.57
182.07
179.51
175.23
169.65
163.18
156.15
148.81
141.30
133.69
126.02
118.33
110.69
103.16
95.80
88.68
81.83
75.25
68.95
62.95
57.25
51.86
46.78
42.03
37.59
33.45
29.61
26.07
22.81
19.83
17.11
14.67
12.48
10.54
8.83
7.35
6.07
4.97
4.05
3.27
2.62
2.09
1.65
1.30
1.01
0.79
0.61
0.47
0.37
0.29
0.23
0.19
0.17
0.16
0.16
0.17
0.19
0.21
0.24
0.28
0.32
0.36
0.40
0.45
0.50
0.55
0.60
0.65
0.71
0.77
0.83
0.91
0.99
1.07
1.17
1.28
1.40
1.53
1.68
1.85
2.03
2.24
2.47
2.73
3.01
3.32
3.66
4.03
4.44
4.88
5.37
5.88
6.44
7.04
7.68
8.37
9.10
9.88
10.70
11.57
12.49
13.45
14.47
15.56
16.71
17.91
19.18
20.48
21.78
23.00
24.08
24.90
25.35
25.30
24.64
23.29
21.20
18.40
14.94
10.91
6.50
1.92
-2.64
-6.95
-10.82
-14.10
-16.67
-18.48
-19.54
-19.90
-19.67
-18.99
-18.01
-16.85
-15.59
-14.26
-12.88
-11.44
-9.92
-8.36
-6.82
-5.30
-3.78
-2.25
-0.63
1.12
3.07
5.24
7.49
9.68
11.72
13.61
15.42
17.29
19.41
21.92
24.93
28.12
31.20
33.96
36.35
38.49
40.65
43.17
46.30
50.13
54.06
57.50
60.03
61.56
62.32
62.88
63.83
65.55
68.09
70.42
71.48
70.39
66.70
60.43
51.79
40.70
26.08
10.52
-5.99
-23.97
-44.07
-66.76
-92.21
-120.08
-149.21
-177.36
-201.35
-218.55
-226.98
-226.34
-218.17
-205.14
-189.76
-173.33
-155.61
-135.42
-112.32
-86.75
-60.21
-34.75
-12.02
7.26
23.39
37.17
49.34
59.99
68.67
74.87
78.00
77.79
74.34
68.25
60.53
52.45
44.88
38.04
31.41
23.97
14.96
4.46
-6.48
-16.37
-24.18
-29.92
-34.57
-39.23
-44.30
-48.96
-51.60
-50.84
-46.31
-39.06
-30.99
-24.11
-19.68
-17.98
-18.45
-20.03
-21.71
-22.64
-22.47
-21.21
-19.28
-17.24
-15.65
-14.93
-15.34
-17.07
-20.17
-24.59
-29.84
-34.85
-38.08
-37.93
-33.26
-23.91
-10.72
4.80
20.98
36.39
49.94
60.70
67.75
70.39
68.44
62.50
53.87
44.07
34.16
24.56
15.38
7.02
0.62
-2.38
-1.12
3.69
9.63
13.47
12.76
7.22
-1.19
-9.34
-14.65
-16.21
-14.82
-11.95
-8.50
-4.34
1.21
8.36
16.18
22.79
26.40
26.34
23.47
19.59
16.31
14.01
11.77
8.02
1.58
-7.46
-17.72
-27.06
-33.54
-36.22
-35.48
-32.75
-29.94
-28.80
-30.40
-35.00
-42.16
-51.01
-60.43
-69.23
-76.08
-79.54
-78.25
-71.15
-58.03
-39.73
-18.27
3.59
23.13
38.35
48.62
54.68
58.13
60.67
63.40
66.55
69.64
71.86
72.60
71.69
69.44
66.46
63.43
60.93
59.28
58.45
58.12
57.80
57.01
55.44
53.05
49.95
46.37
42.65
39.32
37.10
36.80
39.04
43.88
50.68
58.11
64.55
68.57
69.38
67.01
62.20
56.10
49.87
44.40
40.05
36.82
34.44
32.67
31.39
30.62
30.32
30.23
29.78
28.26
25.18
20.55
14.98
9.46
4.94
1.93
0.34
-0.33
-0.64
-0.85
-0.93
-0.79
-0.64
-1.09
-2.99
-6.82
-12.31
-18.28
-23.20
-25.91
-26.26
-25.28
-24.58
-25.45
-28.09
-31.44
-33.81
-33.82
-31.16
-26.84
-22.68
-20.44
-21.06
-24.17
-28.30
-31.35
-31.36
-27.19
-18.99
-8.11
3.36
13.34
20.43
24.31
25.62
25.61
25.66
26.94
30.25
35.68
42.33
48.24
50.65
47.00
36.21
19.47
0.04
-18.04
-31.77
-40.45
-45.58
-49.64
-54.53
-60.51
-66.45
-70.84
-72.82
-72.57
-70.83
-68.03
-63.90
-57.67
-48.84
-37.91
-26.48
-16.67
-10.27
-7.97
-9.25
-12.73
-16.74
-19.86
-21.09
-20.04
-16.96
-12.85
-9.35
-8.24
-10.76
-16.85
-24.92
-32.35
-36.70
-36.95
-34.09
-30.80
-30.21
-34.53
-44.01
-56.90
-70.15
-80.48
-85.34
-83.54
-75.23
-61.70
-44.94
-27.21
-10.65
3.11
13.23
19.81
23.77
26.44
29.05
32.27
35.97
39.32
41.14
40.55
37.44
32.65
27.77
24.52
23.92
25.77
28.71
30.64
29.71
25.07
17.30
8.10
-0.29
-5.93
-7.73
-5.67
-0.71
5.69
11.97
16.99
20.28
22.10
23.06
23.69
24.14
24.08
22.94
20.41
16.58
12.09
7.90
5.02
4.10
5.16
7.45
9.68
10.53
9.24
6.00
1.92
-1.66
-3.76
-4.26
-3.79
-3.18
-2.96
-3.20
-3.62
-3.91
-3.88
-3.35
-2.00
0.56
4.52
9.43
14.02
16.40
14.74
8.13
-2.75
-15.52
-26.73
-33.02
-32.38
-24.87
-12.52
1.62
14.83
25.81
34.76
42.85
51.10
59.59
67.43
73.32
76.41
76.76
75.20
72.88
70.62
68.70
66.90
64.89
62.42
59.34
55.43
50.27
43.28
33.98
22.42
9.33
-3.96
-15.86
-24.99
-30.51
-32.36
-31.10
-27.71
-23.18
-18.24
-13.10
-7.63
-1.55
5.12
11.97
18.25
23.13
26.08
27.07
26.53
25.15
23.57
22.17
21.00
19.91
18.66
17.03
14.88
12.15
8.94
5.46
1.95
-1.39
-4.60
-7.87
-11.39
-15.07
-18.40
-20.54
-20.66
-18.35
-13.98
-8.75
-4.20
-1.77
-2.23
-5.65
-11.50
-18.86
-26.68
-33.74
-38.76
-40.72
-39.29
-35.07
-29.67
-25.07
-22.87
-23.56
-26.34
-29.58
-31.69
-31.88
-30.47
-28.48
-27.07
-26.95
-28.25
-30.65
-33.61
-36.59
-39.21
-41.24
-42.65
-43.75
-45.10
-47.42
-51.21
-56.49
-62.52
-67.99
-71.37
-71.58
-68.42
-62.69
-55.82
-49.26
-43.87
-39.60
-35.71
-31.47
-26.74
-22.24
-19.07
-17.94
-18.38
-18.84
-17.41
-13.12
-6.75
-0.70
2.24
0.34
-6.07
-14.71
-22.51
-27.06
-27.52
-24.74
-20.55
-16.89
-15.25
-16.57
-21.25
-29.14
-39.31
-49.88
-58.24
-61.70
-58.41
-48.16
-32.52
-14.27
3.59
18.89
30.88
40.11
47.76
54.67
60.73
64.91
65.84
62.69
55.89
47.10
38.62
32.46
29.57
29.71
31.71
34.15
35.81
35.80
33.52
28.57
20.99
11.52
1.71
-6.40
-10.99
-11.17
-7.31
-0.69
7.12
14.86
21.82
27.49
31.23
32.19
29.73
24.00
16.29
8.83
3.96
3.25
6.87
13.55
21.05
26.98
29.45
27.70
22.26
14.81
7.59
2.54
0.58
1.17
2.66
3.22
1.94
-0.62
-2.69
-2.38
0.97
6.24
10.91
12.42
9.64
3.63
-2.67
-5.82
-3.38
5.12
18.24
33.36
47.75
59.28
66.71
69.65
68.46
64.15
58.24
52.53
48.51
46.98
47.71
49.64
51.37
51.71
50.23
47.26
43.64
40.10
36.80
33.15
28.02
20.42
10.08
-2.11
-14.37
-24.66
-31.43
-34.17
-33.30
-29.77
-24.54
-18.34
-11.78
-5.52
-0.34
3.11
4.67
4.73
3.98
3.02
2.04
0.91
-0.46
-1.81
-2.58
-2.44
-1.90
-2.37
-5.54
-12.30
-22.04
-32.67
-41.57
-46.95
-48.66
-48.14
-47.46
-48.24
-50.88
-54.74
-58.87
-62.62
-65.98
-69.09
-71.69
-72.74
-70.77
-64.61
-54.29
-41.25
-27.96
-16.85
-9.34
-5.37
-3.74
-3.01
-2.36
-1.90
-2.43
-4.59
-8.37
-12.94
-17.03
-19.65
-20.45
-19.95
-19.17
-19.17
-20.61
-23.56
-27.55
-31.70
-35.08
-36.86
-36.57
-34.13
-29.79
-24.09
-17.68
-11.31
-5.70
-1.48
0.93
1.60
0.98
-0.16
-1.14
-1.77
-2.49
-4.03
-6.84
-10.57
-14.03
-15.76
-14.99
-12.24
-9.39
-8.91
-12.72
-21.14
-32.58
-44.01
-51.98
-53.84
-48.58
-37.08
-21.61
-4.96
10.55
23.61
33.98
41.97
47.96
52.10
54.34
54.70
53.50
51.20
48.17
44.47
39.98
34.71
29.11
24.04
20.28
17.97
16.39
14.29
10.57
4.87
-2.15
-9.14
-14.61
-17.49
-17.38
-14.62
-10.09
-4.95
-0.34
3.03
5.19
6.77
8.66
11.21
13.91
15.46
14.59
10.94
5.44
-0.06
-3.79
-5.00
-4.20
-2.71
-1.82
-2.17
-3.65
-5.69
-7.56
-8.60
-8.09
-5.54
-0.98
4.64
9.50
11.59
9.66
4.12
-2.92
-8.43
-9.77
-5.71
3.33
15.66
29.27
42.46
54.19
63.90
71.31
76.31
78.97
79.60
78.69
76.66
73.74
69.86
64.83
58.67
51.83
45.30
40.26
37.58
37.36
38.58
39.46
38.16
33.62
26.19
17.49
9.67
4.39
2.13
2.21
3.43
4.96
6.68
8.99
12.10
15.52
18.11
18.75
17.05
13.80
10.54
8.71
8.82
10.07
10.84
9.55
5.56
-0.58
-7.41
-13.54
-18.40
-22.52
-27.09
-32.98
-40.04
-46.92
-51.84
-53.64
-52.57
-50.26
-48.84
-49.79
-53.30
-58.36
-63.55
-67.90
-71.11
-73.25
-74.06
-72.76
-68.35
-60.38
-49.49
-37.29
-25.58
-15.60
-7.58
-1.03
4.55
9.05
11.74
11.83
9.11
4.30
-1.21
-5.98
-9.15
-10.55
-10.49
-9.21
-6.78
-3.29
0.70
3.89
4.54
1.29
-5.96
-15.72
-25.30
-32.00
-34.22
-32.10
-27.21
-21.71
-17.24
-14.43
-12.93
-12.01
-11.15
-10.33
-9.88
-10.15
-11.17
-12.56
-13.74
-14.26
-14.03
-13.39
-12.86
-12.66
-12.51
-11.75
-9.81
-6.92
-4.44
-4.56
-9.17
-18.79
-31.76
-44.68
-53.66
-55.97
-51.02
-40.32
-26.56
-12.33
0.74
12.14
22.06
30.87
38.81
45.78
51.50
55.56
57.48
56.91
53.87
48.88
42.96
37.23
32.50
28.90
25.98
22.95
19.06
14.01
7.97
1.63
-4.07
-8.10
-9.63
-8.34
-4.46
1.28
7.97
14.73
20.89
25.98
29.54
31.19
30.84
28.87
26.21
23.98
22.91
23.02
23.58
23.72
23.04
21.91
21.17
21.44
22.47
23.12
22.01
18.53
13.44
8.57
5.88
6.29
9.03
11.99
12.78
9.94
3.60
-4.56
-12.16
-17.08
-18.20
-15.55
-9.85
-1.97
7.50
18.23
29.90
41.80
52.84
61.81
67.80
70.50
70.31
68.08
64.85
61.62
59.16
57.90
57.74
57.97
57.33
54.42
48.26
38.71
26.57
13.20
-0.03
-12.11
-22.48
-30.85
-36.98
-40.68
-41.96
-41.23
-39.22
-36.70
-34.06
-31.11
-27.17
-21.47
-13.70
-4.25
5.77
14.92
21.94
26.09
27.34
26.21
23.39
19.40
14.33
7.85
-0.36
-10.22
-21.00
-31.34
-39.78
-45.40
-48.20
-49.11
-49.47
-50.46
-52.64
-56.05
-60.38
-65.23
-70.15
-74.34
-76.69
-75.91
-71.06
-62.09
-50.03
-36.64
-23.79
-12.74
-3.84
3.23
9.00
13.76
17.39
19.59
20.19
19.25
17.09
13.96
9.96
5.14
-0.30
-5.83
-10.56
-13.66
-14.70
-14.01
-12.58
-11.73
-12.52
-15.25
-19.43
-23.98
-27.82
-30.31
-31.33
-31.17
-30.13
-28.31
-25.65
-22.33
-18.84
-16.02
-14.61
-14.78
-16.01
-17.42
-18.30
-18.54
-18.54
-18.74
-19.15
-19.26
-18.50
-16.92
-15.56
-16.24
-20.70
-29.52
-41.40
-53.31
-61.41
-62.46
-55.07
-40.17
-20.59
0.00
18.36
32.58
42.32
48.38
52.15
54.89
57.42
59.88
61.77
62.14
59.99
54.80
46.95
37.83
29.43
23.50
20.80
20.72
21.58
21.54
19.60
16.04
12.24
9.87
9.95
12.32
15.84
19.13
21.39
22.77
24.06
26.04
28.75
31.39
32.83
32.42
30.60
28.73
28.31
30.03
33.19
36.06
36.83
34.71
30.27
25.04
20.41
16.83
13.64
9.82
5.00
-0.03
-3.57
-4.20
-1.83
1.81
3.90
1.88
-5.14
-15.80
-26.95
-34.99
-37.24
-32.96
-23.27
-10.45
3.25
16.41
28.80
40.93
53.22
65.41
76.30
84.20
87.67
86.24
80.56
72.17
62.86
54.08
46.63
40.72
36.00
31.88
27.60
22.49
16.24
9.07
1.73
-4.78
-9.74
-12.97
-14.94
-16.32
-17.52
-18.34
-18.17
-16.40
-12.89
-8.24
-3.53
-0.01
1.35
0.07
-3.73
-9.47
-16.18
-22.83
-28.68
-33.59
-38.07
-42.98
-49.08
-56.40
-64.17
-71.06
-75.78
-77.71
-77.22
-75.53
-74.21
-74.49
-76.71
-80.15
-83.28
-84.40
-82.35
-76.93
-68.84
-59.20
-49.00
-38.73
-28.39
-17.87
-7.36
2.48
10.68
16.22
18.42
17.13
12.83
6.51
-0.49
-6.71
-10.90
-12.36
-11.26
-8.58
-5.84
-4.61
-5.88
-9.77
-15.53
-21.81
-27.25
-30.83
-32.17
-31.56
-29.76
-27.73
-26.32
-25.93
-26.34
-26.71
-25.87
-22.83
-17.30
-10.00
-2.39
3.91
7.90
9.73
10.46
11.36
13.03
14.85
15.33
13.02
7.49
-0.19
-8.01
-14.15
-18.06
-20.66
-23.70
-28.39
-34.48
-40.21
-43.24
-41.83
-35.74
-26.09
-14.61
-2.73
8.80
19.74
29.88
38.72
45.58
49.94
51.88
51.99
51.09
49.84
48.46
46.87
44.96
42.66
39.96
36.87
33.34
29.47
25.56
22.11
19.45
17.58
16.10
14.62
13.26
12.87
14.72
19.78
27.90
37.62
46.47
52.05
53.05
49.70
43.62
37.02
31.83
29.07
28.70
29.85
31.22
31.54
29.96
26.36
21.45
16.55
13.03
11.44
11.08
10.18
6.80
0.17
-8.48
-16.31
-20.24
-18.74
-12.89
-6.01
-2.06
-3.66
-11.01
-21.88
-32.81
-40.59
-43.16
-39.89
-31.16
-17.92
-1.46
16.71
34.93
51.59
65.40
75.65
82.17
85.26
85.41
83.14
79.07
73.90
68.44
63.40
59.07
55.17
50.92
45.37
37.88
28.29
16.99
4.64
-7.86
-19.51
-29.14
-35.58
-37.92
-36.02
-30.77
-23.89
-17.37
-12.73
-10.39
-9.83
-10.01
-10.09
-9.88
-9.74
-10.32
-11.95
-14.50
-17.47
-20.31
-22.76
-24.98
-27.33
-30.14
-33.61
-37.79
-42.71
-48.34
-54.48
-60.56
-65.72
-69.13
-70.54
-70.56
-70.58
-71.99
-75.43
-80.19
-84.36
-85.54
-81.93
-73.02
-59.78
-44.20
-28.41
-13.94
-1.41
9.31
18.56
26.36
32.20
35.39
35.50
32.83
28.39
23.44
18.85
14.79
10.89
6.85
2.97
0.11
-0.87
0.01
1.48
1.46
-1.90
-9.08
-18.69
-28.01
-34.18
-35.42
-31.66
-24.37
-15.89
-8.47
-3.63
-1.92
-3.07
-6.30
-10.61
-15.14
-19.10
-21.89
-22.96
-22.09
-19.46
-15.88
-12.53
-10.50
-10.23
-11.26
-12.70
-13.96
-15.43
-18.44
-24.49
-34.05
-45.77
-56.65
-63.05
-62.15
-53.04
-36.97
-16.71
4.58
24.21
40.71
53.68
63.60
71.32
77.56
82.53
85.83
86.62
84.01
77.72
68.42
57.71
47.57
39.61
34.34
31.06
28.31
24.83
20.27
15.39
11.59
10.02
10.84
13.16
15.55
16.91
17.01
16.63
16.86
18.46
21.31
24.54
27.05
28.18
27.97
26.94
25.52
23.61
20.58
15.74
9.07
1.72
-4.34
-7.08
-5.52
-0.35
6.24
11.51
13.35
11.21
6.09
-0.10
-5.52
-9.17
-11.17
-12.46
-14.28
-17.73
-23.51
-31.80
-42.17
-53.46
-63.69
-70.26
-70.67
-63.34
-48.43
-28.03
-5.63
15.14
31.83
43.93
52.79
60.60
69.03
78.20
86.49
91.38
90.76
84.07
72.70
59.51
47.67
39.42
35.30
34.27
34.43
33.94
31.70
27.44
21.42
13.96
5.35
-4.03
-13.45
-21.85
-28.18
-32.03
-33.94
-35.14
-36.80
-39.01
-40.49
-39.08
-33.09
-22.56
-9.72
1.77
8.50
8.89
3.79
-4.22
-12.35
-19.08
-24.58
-29.99
-36.00
-41.98
-46.03
-46.11
-41.41
-33.07
-23.78
-16.58
-13.49
-14.69
-18.76
-23.51
-27.01
-28.28
-27.38
-24.99
-21.97
-18.84
-15.70
-12.24
-8.00
-2.68
3.63
10.21
15.87
19.29
19.64
16.97
12.32
7.25
3.05
0.14
-2.09
-4.79
-8.80
-14.02
-19.41
-23.53
-25.50
-25.47
-24.61
-24.40
-25.79
-28.67
-31.88
-33.84
-33.23
-29.61
-23.62
-16.77
-10.91
-7.65
-7.83
-11.15
-16.33
-21.46
-24.70
-24.91
-22.14
-17.52
-12.83
-9.72
-9.07
-10.65
-13.28
-15.51
-16.29
-15.48
-13.78
-12.39
-12.39
-14.24
-17.77
-22.23
-26.65
-30.26
-32.57
-33.43
-32.92
-31.01
-27.45
-21.75
-13.33
-1.97
11.80
26.62
40.58
51.76
58.94
61.88
61.32
58.63
55.22
52.20
50.13
49.05
48.48
47.71
46.11
43.45
40.16
37.16
35.43
35.25
35.78
35.09
31.11
22.66
10.45
-2.89
-13.70
-18.86
-17.25
-10.35
-1.67
4.80
6.23
2.18
-5.45
-13.49
-18.98
-20.49
-18.58
-15.35
-13.34
-14.34
-18.66
-25.01
-31.22
-35.03
-35.13
-31.55
-25.71
-19.95
-16.66
-17.44
-22.53
-30.62
-39.25
-45.60
-47.38
-43.53
-34.50
-22.03
-8.49
3.96
14.08
21.94
28.65
35.69
43.94
53.14
61.76
67.77
69.71
67.56
62.82
57.83
54.44
53.01
52.22
49.88
44.29
35.44
25.18
16.50
12.05
12.88
17.95
24.65
30.10
32.46
31.68
29.33
27.63
28.36
31.97
37.34
42.35
44.74
43.08
37.38
29.18
21.02
15.54
14.38
17.40
22.50
26.36
25.85
19.63
9.08
-2.10
-9.45
-10.01
-3.73
6.44
16.17
21.91
22.57
19.63
15.89
13.67
13.50
14.17
13.65
10.41
4.10
-4.36
-13.45
-21.48
-26.95
-28.74
-26.38
-20.40
-12.54
-5.37
-1.33
-1.49
-5.03
-9.56
-12.54
-12.65
-10.62
-8.56
-8.61
-11.34
-15.22
-17.36
-14.99
-7.03
5.33
19.10
30.76
37.63
38.73
34.84
27.94
20.40
14.07
9.67
6.55
3.03
-2.91
-12.44
-25.14
-38.83
-50.26
-56.57
-56.60
-51.52
-44.33
-38.47
-36.31
-38.07
-41.97
-45.09
-44.84
-39.93
-30.78
-19.19
-7.52
2.22
8.95
12.70
14.45
15.51
16.99
19.22
21.61
22.76
21.01
15.14
4.89
-8.71
-23.60
-37.45
-48.46
-56.03
-60.75
-63.82
-66.04
-67.28
-66.56
-62.98
-56.80
-49.87
-45.20
-45.33
-50.86
-59.74
-67.90
-71.09
-66.86
-55.62
-40.35
-25.07
-13.00
-5.39
-1.48
0.59
2.61
5.52
9.32
13.50
17.45
20.58
22.31
22.00
19.33
14.62
9.15
4.74
2.95
4.10
6.90
8.94
7.90
2.82
-5.27
-13.78
-19.69
-20.88
-16.82
-8.67
1.44
11.20
18.88
23.67
25.70
25.84
25.26
25.03
25.64
26.84
27.78
27.51
25.61
22.46
19.17
16.90
16.21
16.59
16.73
15.07
10.60
3.27
-5.95
-15.46
-23.42
-28.28
-29.15
-26.16
-20.59
-14.56
-10.23
-8.81
-9.99
-12.08
-13.15
-12.43
-11.05
-11.62
-16.57
-26.38
-38.68
-49.00
-52.89
-47.99
-35.28
-18.44
-2.02
10.60
18.44
22.82
26.17
30.72
37.45
45.78
53.97
59.71
61.11
57.27
48.88
38.11
27.90
20.82
17.93
18.27
19.42
18.65
14.44
7.16
-0.96
-6.94
-8.30
-4.01
5.17
17.12
29.15
38.85
44.85
47.10
46.67
45.31
44.61
45.41
47.50
49.79
50.89
49.83
46.57
42.08
38.00
35.97
36.98
40.87
46.39
51.52
54.26
53.36
48.87
42.14
35.38
30.81
29.74
32.07
36.23
39.73
40.21
36.43
28.83
19.31
10.39
4.09
0.93
-0.16
-1.36
-4.89
-11.96
-22.18
-33.66
-43.66
-49.60
-49.86
-44.32
-34.43
-22.57
-11.23
-1.95
5.10
10.93
16.92
23.84
31.28
37.79
41.50
41.00
35.92
26.89
15.14
1.96
-11.69
-25.27
-38.55
-51.45
-63.76
-75.06
-84.73
-92.06
-96.54
-98.06
-97.01
-93.98
-89.58
-84.23
-78.15
-71.49
-64.51
-57.45
-50.63
-44.27
-38.52
-33.59
-29.59
-26.43
-23.60
-20.22
-15.51
-9.42
-3.03
1.72
2.83
-0.65
-8.06
-17.38
-26.24
-32.92
-36.96
-38.94
-39.77
-40.11
-40.13
-39.77
-39.11
-38.52
-38.45
-39.16
-40.63
-42.74
-45.46
-48.97
-53.33
-58.03
-61.80
-62.97
-60.08
-52.69
-41.49
-28.07
-14.10
-0.76
11.42
22.15
30.94
36.85
39.00
37.30
32.92
28.09
25.14
25.29
27.93
31.08
32.51
31.03
27.25
23.10
20.76
21.33
24.24
27.59
29.24
28.08
24.66
21.04
19.62
21.91
27.64
34.72
40.26
42.01
39.48
34.24
29.06
26.37
27.10
30.38
34.34
37.28
38.57
38.47
37.52
35.78
32.74
27.92
21.54
14.80
9.24
5.66
3.29
-0.24
-7.80
-21.21
-40.04
-61.52
-81.76
-97.51
-107.72
-113.81
-118.72
-125.15
-133.86
-143.13
-149.43
-149.04
-139.70
-121.41
-96.21
-67.14
-37.18
-8.57
17.21
39.07
56.11
67.51
72.90
72.54
67.57
59.87
51.65
44.89
40.79
39.43
39.83
40.37
39.59
36.80
32.37
27.48
23.44
21.00
20.02
19.63
18.99
17.87
16.92
17.24
19.67
24.00
28.91
32.57
33.54
31.56
27.60
23.22
19.66
17.19
15.21
12.82
9.51
5.39
0.97
-3.46
-8.09
-13.53
-20.14
-27.46
-34.20
-38.83
-40.58
-40.16
-39.61
-41.37
-46.85
-55.55
-65.00
-71.70
-72.71
-66.85
-55.01
-39.67
-23.63
-8.80
4.31
16.48
28.90
42.24
56.14
69.23
79.84
86.87
90.36
91.53
92.08
93.31
95.47
97.64
98.34
96.43
91.82
85.70
79.94
76.32
75.67
77.55
80.54
82.91
83.42
81.76
78.55
74.96
72.26
71.41
72.81
76.29
81.22
86.66
91.65
95.55
98.21
99.97
101.45
103.20
105.46
108.05
110.34
111.30
109.59
103.75
92.80
76.83
57.44
37.39
19.58
5.78
-4.07
-11.50
-18.38
-25.64
-32.86
-38.94
-43.27
-46.58
-50.80
-57.78
-68.11
-80.39
-91.77
-99.11
-100.30
-94.99
-84.57
-71.55
-58.82
-48.84
-43.24
-42.50
-46.15
-52.94
-61.21
-69.00
-74.17
-74.49
-67.98
-53.58
-31.88
-5.35
22.15
46.61
65.44
78.35
87.13
94.29
101.45
108.16
112.01
110.00
100.40
84.18
65.31
49.77
43.67
51.27
72.95
104.80
139.20
166.74
178.98
171.27
144.67
106.04
65.64
33.05
13.35
5.17
1.91
-4.54
-19.63
-43.95
-73.57
-103.25
-129.72
-153.38
-177.81
-207.60
-245.82
-292.59
-344.97
-397.64
-444.12
-477.92
-493.86
-489.33
-464.95
-424.05
-371.59
-312.65
-251.29
-190.21
-131.02
-74.88
-22.80
23.86
63.12
92.35
108.86
111.04
99.35
76.62
47.11
14.28
-20.65
-58.78
-101.92
-149.88
-198.92
-242.24
-272.56
-285.30
-280.48
-262.29
-236.81
-209.21
-182.08
-155.48
-128.26
-99.74
-70.48
-42.07
-16.00
7.46
29.55
52.61
79.34
111.96
151.38
196.38
243.18
285.71
316.93
330.95
325.02
300.33
261.24
213.27
161.20
108.49
58.01
13.06
-22.24
-44.25
-51.79
-47.54
-37.41
-27.90
-22.80
-20.99
-16.84
-3.03
25.48
68.23
118.51
165.49
198.05
208.89
196.85
166.70
126.76
85.65
49.76
22.42
4.59
-3.79
-2.74
7.75
27.18
53.84
84.63
115.45
141.97
160.11
166.32
157.91
133.52
93.93
42.66
-13.94
-67.85
-111.15
-137.97
-145.84
-135.74
-111.05
-76.06
-34.80
9.26
52.76
92.00
122.84
141.43
145.28
134.19
110.40
78.07
42.17
7.53
-21.89
-43.09
-53.92
-53.03
-40.21
-17.10
12.15
40.94
61.43
66.74
53.55
23.68
-16.14
-56.49
-88.41
-106.10
-107.92
-95.47
-71.94
-40.63
-4.70
32.43
66.57
93.24
109.01
112.94
107.21
96.21
84.65
75.57
69.16
63.13
54.22
40.00
20.16
-3.15
-26.02
-43.93
-53.16
-51.73
-39.94
-20.20
3.71
27.80
48.86
65.09
75.99
81.78
82.84
79.34
71.48
59.76
45.13
29.03
13.23
-0.21
-8.89
-10.32
-2.95
12.77
33.23
52.03
61.72
56.29
32.99
-7.25
-60.78
-122.35
-185.40
-241.96
-283.37
-302.87
-298.99
-277.57
-250.30
-229.50
-221.83
-224.71
-227.96
-219.83
-193.72
-151.63
-101.96
-53.99
-12.30
25.23
65.18
113.62
171.97
236.01
298.20
351.55
392.38
420.72
438.21
445.33
440.16
419.97
384.65
339.36
294.21
260.39
244.91
246.66
256.84
263.39
257.10
235.70
203.99
170.17
141.01
118.72
100.67
81.70
57.29
25.94
-10.68
-48.77
-84.32
-114.87
-140.42
-163.79
-189.63
-223.21
-268.50
-326.07
-391.65
-456.01
-506.74
-531.66
-522.87
-479.89
-411.07
-331.81
-260.34
-211.90
-193.66
-202.41
-226.05
-248.30
-254.64
-237.11
-196.44
-140.64
-81.29
-28.84
10.96
38.45
58.61
78.02
101.16
127.93
153.51
170.63
173.06
158.64
130.08
93.38
54.90
19.26
-11.16
-35.06
-50.84
-56.26
-49.48
-30.53
-2.18
30.50
61.61
86.03
100.54
104.25
98.39
85.97
71.15
58.30
50.84
50.08
54.56
60.39
62.67
57.40
43.13
21.36
-4.26
-29.62
-51.76
-69.39
-82.30
-90.13
-91.54
-84.30
-66.74
-39.43
-6.03
27.49
54.91
72.02
77.94
74.95
66.96
57.73
49.72
43.76
39.55
36.36
33.47
30.21
25.86
19.51
10.36
-1.91
-16.74
-32.51
-47.03
-58.18
-64.87
-67.34
-67.21
-66.64
-67.57
-71.00
-76.85
-84.29
-92.18
-99.47
-105.35
-109.49
-112.11
-114.14
-117.02
-122.02
-129.42
-137.90
-144.65
-146.30
-140.20
-125.45
-102.99
-74.99
-43.67
-10.57
23.68
58.82
94.18
128.16
158.18
181.35
195.47
200.10
196.95
189.70
182.94
180.63
184.61
193.77
204.26
210.78
208.55
194.98
170.63
138.73
104.00
71.08
43.28
22.14
7.37
-2.68
-10.58
-19.22
-31.23
-48.25
-70.15
-94.99
-119.38
-139.87
-154.14
-161.98
-165.05
-166.01
-167.21
-169.77
-173.35
-176.47
-176.99
-172.45
-160.29
-138.15
-104.59
-59.94
-7.11
48.47
100.14
141.91
170.36
185.59
190.67
190.14
188.10
186.93
186.80
186.10
182.26
172.73
156.09
132.72
105.25
77.92
55.39
41.07
35.91
38.11
44.08
49.87
52.32
49.33
39.41
21.26
-5.88
-41.12
-80.69
-117.83
-144.52
-154.33
-145.37
-121.45
-90.86
-63.22
-45.85
-41.37
-47.32
-57.61
-65.13
-63.99
-51.10
-26.55
6.83
44.49
81.29
112.76
136.05
150.41
157.22
159.38
160.34
162.96
168.46
175.73
181.44
180.98
170.21
147.25
113.67
74.21
35.04
1.58
-23.64
-41.53
-55.81
-71.43
-93.29
-125.29
-169.57
-225.72
-289.83
-354.02
-407.55
-439.43
-441.66
-412.09
-355.39
-281.94
-205.01
-137.43
-88.66
-62.93
-58.70
-69.23
-84.44
-93.64
-88.48
-65.31
-25.88
23.77
75.71
122.67
159.63
184.35
196.87
198.65
191.91
179.36
163.95
148.67
136.07
127.31
121.52
115.94
107.10
92.69
73.36
53.32
38.96
36.22
47.63
70.77
98.84
123.07
135.99
133.81
117.09
89.82
57.47
25.27
-2.95
-25.11
-40.94
-51.62
-59.34
-66.50
-74.71
-84.10
-93.14
-99.15
-99.24
-91.33
-74.73
-50.09
-18.87
17.31
57.19
99.84
144.36
189.02
230.67
264.63
285.42
288.41
271.64
237.16
190.83
140.65
94.12
55.63
25.30
-0.76
-28.44
-63.50
-109.33
-165.60
-227.83
-288.03
-336.14
-362.22
-359.63
-327.70
-273.26
-209.78
-153.42
-117.37
-106.90
-117.28
-136.10
-149.29
-147.52
-130.24
-104.45
-79.69
-62.10
-51.05
-39.48
-17.85
20.52
75.89
141.84
208.06
264.48
304.47
325.62
328.89
317.18
293.20
258.88
215.93
167.12
116.82
70.30
30.77
-0.42
-23.68
-40.77
-54.63
-69.32
-88.76
-114.94
-146.02
-178.14
-204.27
-216.79
-212.60
-196.99
-182.74
-182.83
-202.11
-233.18
-263.57
-278.65
-266.95
-224.62
-156.87
-75.66
5.19
74.34
124.15
144.50
128.74
77.79
-0.13
-93.73
-193.71
-294.59
-394.53
-456.58
-455.22
-392.47
-296.79
-199.79
-118.56
-56.57
-10.77
23.70
50.88
67.69
70.08
57.75
34.78
8.89
-11.20
-16.99
-2.63
32.05
75.35
107.70
117.84
101.18
61.87
10.58
-38.89
-73.76
-86.06
-77.10
-53.58
-22.87
8.57
36.68
58.60
72.54
77.95
75.61
65.90
50.29
32.36
14.06
-1.32
-11.82
-17.51
-20.28
-22.95
-28.35
-37.88
-50.53
-63.96
-74.98
-81.37
-82.58
-79.61
-74.46
-69.09
-64.82
-61.82
-59.66
-57.29
-53.98
-49.64
-44.76
-40.23
-36.87
-35.16
-35.03
-36.14
-37.79
-39.53
-41.20
-42.97
-45.24
-48.39
-52.71
-58.22
-64.76
-71.92
-79.25
-86.33
-92.80
-98.41
-102.97
-106.37
-108.54
-109.45
-109.06
-107.34
-104.32
-100.05
-94.61
-88.15
-80.82
-72.81
-64.27
-55.33
-46.06
-36.51
-26.77
-17.00
-7.46
1.52
9.60
16.49
22.03
26.22
29.17
31.07
32.06
32.26
31.70
30.44
28.65
26.74
25.31
25.07
26.66
30.39
36.11
43.31
51.33
59.67
68.31
77.70
88.63
101.72
117.00
133.74
150.52
165.80
178.53
188.65
197.12
205.53
215.28
226.94
239.87
252.57
263.43
271.59
277.41
282.37
288.48
297.61
311.13
329.76
353.35
380.40
407.43
428.88
438.18
429.85
402.06
357.94
304.83
251.58
205.24
168.75
141.00
118.83
99.40
81.54
65.01
48.84
30.08
4.41
-31.53
-77.38
-127.84
-173.77
-205.47
-216.44
-205.65
-177.36
-138.87
-97.23
-56.85
-18.51
19.89
61.81
110.17
165.74
226.04
285.24
335.29
368.25
378.86
366.53
335.47
292.86
246.10
200.28
157.29
116.50
76.44
35.98
-5.40
-48.10
-92.54
-138.55
-184.34
-225.91
-257.83
-275.16
-275.62
-260.74
-235.18
-204.80
-174.39
-146.54
-121.94
-100.70
-83.40
-71.12
-64.42
-62.22
-61.67
-59.35
-53.23
-44.17
-35.89
-33.29
-39.89
-55.91
-77.95
-100.33
-117.13
-123.97
-118.72
-101.38
-73.73
-39.13
-2.40
30.77
54.97
66.63
65.00
52.30
32.74
11.08
-8.55
-23.23
-31.26
-32.16
-26.75
-17.10
-6.13
3.28
9.34
11.97
12.44
12.47
13.04
13.88
13.63
10.69
3.86
-6.99
-20.94
-36.08
-49.91
-59.87
-63.98
-61.57
-53.46
-41.67
-28.41
-15.16
-2.25
10.67
23.67
35.55
43.82
45.57
39.01
24.59
5.18
-15.00
-31.89
-43.02
-47.85
-47.30
-42.79
-35.51
-26.28
-16.03
-6.19
1.19
4.12
1.58
-5.74
-15.45
-24.42
-30.14
-31.84
-30.64
-28.75
-28.09
-29.19
-31.04
-31.84
-30.32
-26.70
-22.65
-20.28
-20.82
-23.66
-26.63
-27.06
-23.16
-14.87
-3.74
7.87
17.92
25.34
30.13
32.91
34.34
34.71
33.92
31.71
27.98
23.11
17.95
13.66
11.23
10.92
12.05
13.05
12.13
8.12
1.06
-7.68
-15.95
-21.74
-23.97
-22.76
-19.18
-14.65
-10.46
-7.55
-6.53
-7.81
-11.57
-17.57
-24.97
-32.29
-37.68
-39.43
-36.63
-29.50
-19.33
-7.89
3.22
13.26
22.33
30.98
39.63
47.94
54.91
59.23
60.03
57.35
52.21
46.22
40.88
37.06
34.65
32.87
30.69
27.38
22.90
17.84
13.12
9.41
6.74
4.41
1.37
-3.20
-9.35
-16.19
-22.19
-25.92
-26.69
-24.92
-22.07
-20.15
-20.96
-25.42
-33.10
-42.27
-50.28
-54.42
-52.71
-44.58
-30.98
-14.13
3.20
18.51
30.17
37.70
41.62
43.00
43.03
42.62
42.31
42.23
42.25
42.06
41.27
39.50
36.44
31.90
25.97
18.96
11.34
3.69
-3.53
-9.94
-15.38
-19.92
-23.89
-27.76
-31.82
-35.95
-39.49
-41.55
-41.55
-39.68
-36.98
-34.86
-34.47
-36.13
-39.37
-43.19
-46.65
-49.00
-49.60
-47.67
-42.29
-32.89
-19.70
-4.09
11.86
26.10
37.44
45.74
51.56
55.45
57.46
57.25
54.63
50.01
44.63
40.07
37.60
37.50
39.04
40.83
41.49
40.22
37.03
32.65
28.16
24.47
21.92
20.12
18.07
14.73
9.61
3.11
-3.57
-9.08
-12.70
-14.83
-16.81
-20.24
-26.08
-34.10
-42.98
-50.98
-56.59
-58.99
-57.90
-53.38
-45.57
-34.84
-22.03
-8.63
3.52
12.75
18.25
20.22
19.65
17.61
14.71
11.01
6.30
0.65
-5.33
-10.67
-14.41
-16.21
-16.42
-15.92
-15.64
-16.20
-17.77
-20.13
-22.89
-25.63
-27.97
-29.61
-30.33
-30.03
-28.81
-26.99
-25.07
-23.65
-23.29
-24.31
-26.75
-30.38
-34.84
-39.82
-45.12
-50.55
-55.66
-59.48
-60.50
-57.03
-47.82
-32.80
-13.38
7.73
27.38
42.98
53.32
58.82
60.94
61.38
61.13
60.20
57.91
53.56
47.05
39.07
30.76
23.16
16.74
11.37
6.56
1.82
-3.04
-7.83
-12.14
-15.53
-17.69
-18.64
-18.71
-18.50
-18.70
-19.78
-21.77
-24.15
-26.13
-27.02
-26.74
-26.01
-26.04
-28.00
-32.36
-38.42
-44.46
-48.15
-47.47
-41.39
-30.35
-16.12
-1.25
11.94
22.03
28.94
33.69
37.62
41.63
45.73
49.06
50.39
48.74
43.83
36.16
26.83
17.18
8.45
1.52
-3.20
-5.80
-6.77
-6.83
-6.63
-6.61
-6.93
-7.47
-8.02
-8.33
-8.23
-7.77
-7.18
-6.90
-7.46
-9.27
-12.51
-17.13
-22.92
-29.64
-36.98
-44.42
-50.98
-55.19
-55.44
-50.49
-40.18
-25.65
-9.14
6.78
19.89
29.04
34.26
36.51
37.14
37.29
37.53
37.74
37.26
35.41
31.87
27.01
21.78
17.31
14.23
12.29
10.47
7.56
2.90
-3.17
-9.41
-14.28
-16.79
-16.89
-15.48
-13.87
-13.09
-13.44
-14.45
-15.25
-15.07
-13.80
-12.13
-11.34
-12.80
-17.28
-24.40
-32.60
-39.54
-42.89
-41.12
-33.91
-22.18
-7.62
7.80
22.38
34.92
44.78
51.82
56.37
59.02
60.35
60.73
60.11
58.19
54.67
49.59
43.46
37.00
30.79
24.84
18.67
11.65
3.56
-5.11
-13.25
-19.72
-23.92
-26.08
-27.03
-27.59
-28.07
-28.16
-27.27
-25.10
-21.92
-18.50
-15.81
-14.57
-15.20
-17.93
-22.90
-30.13
-39.15
-48.76
-57.08
-62.06
-62.29
-57.56
-48.93
-38.23
-27.25
-17.11
-8.14
-0.11
7.23
13.86
19.41
23.31
25.19
25.01
23.29
20.87
18.72
17.46
17.15
17.17
16.56
14.45
10.58
5.42
0.03
-4.50
-7.51
-9.06
-9.76
-10.41
-11.63
-13.61
-16.13
-18.79
-21.24
-23.32
-25.16
-27.04
-29.30
-32.23
-35.98
-40.46
-45.36
-50.05
-53.55
-54.62
-52.03
-44.98
-33.42
-18.34
-1.65
14.30
27.42
36.45
41.17
42.30
41.00
38.47
35.56
32.73
30.16
27.87
25.80
23.77
21.48
18.57
14.74
10.03
4.85
-0.11
-4.16
-7.02
-8.97
-10.69
-12.93
-16.09
-19.93
-23.67
-26.30
-27.10
-25.98
-23.60
-21.20
-20.21
-21.75
-26.24
-33.22
-41.45
-49.31
-55.32
-58.41
-58.18
-54.61
-47.87
-38.09
-25.42
-10.28
6.38
23.13
38.32
50.59
59.26
64.48
67.03
67.80
67.51
66.42
64.46
61.51
57.51
52.61
47.01
40.87
34.28
27.33
20.23
13.35
7.14
1.92
-2.16
-5.24
-7.53
-9.24
-10.46
-11.25
-11.75
-12.29
-13.33
-15.29
-18.41
-22.52
-27.17
-31.74
-35.79
-39.17
-42.06
-44.72
-47.17
-48.89
-48.80
-45.56
-38.01
-25.79
-9.61
8.75
26.94
42.69
54.45
61.77
65.20
65.94
65.21
63.76
61.66
58.46
53.59
46.79
38.40
29.35
20.80
13.73
8.59
5.24
3.08
1.45
-0.08
-1.60
-2.97
-4.10
-5.06
-6.06
-7.35
-8.98
-10.71
-12.15
-13.08
-13.61
-14.23
-15.68
-18.54
-22.93
-28.55
-34.78
-41.05
-47.08
-52.86
-58.43
-63.39
-66.77
-67.06
-62.77
-52.99
-38.02
-19.37
0.60
19.45
35.44
47.89
57.04
63.58
67.92
69.98
69.24
65.28
58.25
49.05
39.04
29.50
21.18
14.27
8.66
4.32
1.46
0.33
0.79
2.11
3.18
2.94
0.98
-2.35
-6.07
-9.25
-11.33
-12.40
-12.98
-13.66
-14.82
-16.55
-18.79
-21.41
-24.30
-27.38
-30.52
-33.66
-36.85
-40.38
-44.61
-49.76
-55.45
-60.58
-63.38
-61.98
-55.10
-42.56
-25.56
-6.33
12.49
28.60
40.62
48.29
52.27
53.67
53.56
52.54
50.69
47.75
43.50
38.03
31.80
25.55
19.91
15.22
11.42
8.22
5.35
2.78
0.66
-0.79
-1.54
-1.84
-2.17
-3.04
-4.70
-6.99
-9.49
-11.72
-13.40
-14.67
-15.92
-17.58
-19.86
-22.61
-25.41
-27.74
-29.25
-29.88
-29.87
-29.76
-30.05
-31.02
-32.41
-33.43
-32.91
-29.64
-22.91
-12.76
-0.06
13.77
27.18
38.86
48.00
54.30
57.96
59.54
59.78
59.43
58.94
58.31
57.10
54.70
50.76
45.48
39.64
34.23
29.92
26.63
23.52
19.34
13.11
4.58
-5.67
-16.51
-26.83
-35.99
-43.92
-50.86
-57.04
-62.43
-66.71
-69.51
-70.64
-70.22
-68.74
-66.83
-65.14
-64.18
-64.22
-65.28
-67.12
-69.26
-71.02
-71.47
-69.54
-64.13
-54.47
-40.43
-22.81
-3.28
16.04
33.22
47.15
57.70
65.55
71.56
76.20
79.37
80.47
78.86
74.32
67.20
58.36
48.92
39.91
32.13
26.00
21.59
18.62
16.62
15.02
13.34
11.35
9.13
7.02
5.41
4.54
4.34
4.41
4.21
3.38
1.82
-0.32
-2.82
-5.65
-8.94
-12.91
-17.63
-22.82
-27.88
-32.01
-34.40
-34.37
-31.42
-25.22
-15.68
-3.00
12.12
28.44
44.33
58.05
68.26
74.41
76.87
76.75
75.50
74.31
73.67
73.33
72.46
70.21
66.04
60.02
52.75
45.06
37.71
31.16
25.49
20.55
16.15
12.30
9.24
7.34
6.74
7.11
7.53
6.80
3.98
-1.08
-7.62
-14.16
-19.22
-21.96
-22.54
-21.95
-21.54
-22.36
-24.81
-28.66
-33.22
-37.69
-41.23
-43.04
-42.33
-38.37
-30.76
-19.70
-6.25
7.82
20.41
29.73
34.93
36.34
35.25
33.29
31.66
30.62
29.55
27.42
23.60
18.25
12.33
7.06
3.11
0.22
-2.73
-7.07
-13.58
-22.01
-31.23
-39.80
-46.66
-51.58
-55.03
-57.81
-60.45
-62.89
-64.52
-64.50
-62.27
-57.93
-52.29
-46.72
-42.72
-41.41
-43.30
-48.07
-54.78
-62.01
-68.27
-72.19
-72.82
-69.72
-62.96
-53.14
-41.23
-28.43
-15.92
-4.70
4.62
11.82
17.01
20.47
22.36
22.71
21.46
18.67
14.72
10.43
6.75
4.46
3.66
3.71
3.46
1.73
-2.14
-7.99
-14.85
-21.40
-26.55
-29.85
-31.62
-32.60
-33.46
-34.44
-35.35
-35.94
-36.29
-36.91
-38.46
-41.20
-44.72
-48.06
-50.36
-51.46
-52.06
-53.21
-55.44
-58.13
-59.63
-58.03
-52.32
-42.94
-31.54
-20.06
-9.66
-0.24
9.24
19.82
31.62
43.54
53.70
60.31
62.50
60.62
55.93
49.94
43.80
38.11
32.99
28.28
23.73
19.00
13.65
7.29
-0.15
-8.14
-15.52
-20.86
-23.20
-22.57
-20.17
-17.92
-17.56
-19.85
-24.10
-28.58
-31.37
-31.41
-29.08
-26.05
-24.49
-25.93
-30.51
-36.93
-43.01
-46.58
-46.27
-41.84
-33.96
-23.84
-12.75
-1.75
8.39
17.31
24.92
31.41
37.00
41.72
45.31
47.41
47.79
46.71
44.90
43.22
42.16
41.45
40.12
37.04
31.57
24.06
15.90
8.97
4.77
3.76
5.12
7.22
8.30
7.32
4.33
0.38
-3.07
-4.92
-4.95
-3.91
-3.14
-3.84
-6.58
-11.07
-16.41
-21.61
-25.98
-29.36
-32.00
-34.35
-36.79
-39.44
-42.02
-43.70
-43.16
-38.87
-29.67
-15.45
2.38
21.23
38.15
50.99
59.16
63.55
65.74
66.84
66.88
64.96
60.13
52.41
43.16
34.66
29.03
27.20
28.45
30.79
31.95
30.49
26.32
20.60
15.09
11.26
9.71
9.95
10.75
10.69
8.80
4.82
-0.68
-6.60
-11.81
-15.58
-17.93
-19.73
-22.40
-27.37
-35.42
-46.31
-58.66
-70.52
-79.95
-85.78
-87.81
-86.62
-83.07
-77.63
-70.23
-60.36
-47.64
-32.30
-15.35
1.62
16.93
29.47
38.91
45.68
50.59
54.29
57.05
58.63
58.55
56.42
52.12
45.98
38.76
31.54
25.53
21.80
20.95
22.84
26.50
30.39
32.97
33.29
31.34
27.99
24.58
22.16
21.06
20.74
20.21
18.61
15.77
12.22
8.86
6.39
4.82
3.49
1.49
-1.75
-6.04
-10.49
-14.01
-15.80
-15.72
-14.01
-10.91
-6.17
0.80
10.53
22.89
36.82
50.58
62.47
71.45
77.49
81.21
83.28
83.91
82.83
79.60
74.22
67.32
60.02
53.46
48.33
44.67
42.05
39.92
37.86
35.74
33.52
31.21
28.83
26.37
23.90
21.54
19.38
17.35
15.28
12.92
10.05
6.67
2.90
-0.94
-4.54
-7.69
-10.46
-13.19
-16.45
-20.87
-26.85
-34.38
-42.88
-51.19
-57.79
-61.10
-59.95
-53.95
-43.65
-30.51
-16.42
-3.11
8.34
17.62
25.02
30.76
34.73
36.30
34.70
29.59
21.43
11.58
1.94
-5.65
-9.95
-10.74
-8.79
-5.61
-2.93
-2.17
-4.01
-8.22
-13.83
-19.68
-24.83
-28.96
-32.26
-35.17
-37.98
-40.65
-42.90
-44.44
-45.28
-45.74
-46.40
-47.74
-49.96
-52.91
-56.19
-59.37
-62.03
-63.80
-64.21
-62.62
-58.31
-50.72
-39.82
-26.35
-11.79
2.05
13.50
21.57
26.10
27.57
26.80
24.54
21.31
17.43
13.12
8.59
4.02
-0.36
-4.27
-7.23
-8.73
-8.41
-6.52
-4.07
-2.69
-4.00
-8.86
-16.82
-26.23
-34.93
-41.14
-44.08
-44.21
-42.74
-41.03
-40.03
-40.06
-40.88
-42.11
-43.53
-45.35
-48.06
-52.15
-57.74
-64.31
-70.76
-75.73
-77.92
-76.46
-70.98
-61.58
-48.76
-33.42
-16.86
-0.52
14.40
27.43
38.84
49.40
59.56
68.83
75.78
78.65
76.42
69.61
60.26
50.98
43.69
38.71
34.79
30.03
23.22
14.59
5.72
-1.34
-5.25
-6.08
-5.22
-4.65
-5.81
-9.02
-13.41
-17.48
-20.04
-20.85
-20.82
-21.47
-24.11
-29.06
-35.40
-41.49
-45.80
-47.75
-47.96
-47.71
-47.97
-48.61
-48.24
-44.91
-37.17
-24.97
-9.81
5.97
20.13
31.50
40.07
46.70
52.35
57.56
62.32
66.25
68.87
69.85
69.04
66.43
62.23
56.89
51.23
46.14
42.38
40.19
39.20
38.67
37.75
35.83
32.75
28.70
24.04
19.15
14.33
9.82
5.89
2.81
0.90
0.36
1.10
2.69
4.33
5.01
3.73
-0.17
-6.78
-15.47
-24.98
-33.58
-39.28
-40.28
-35.37
-24.31
-8.04
11.36
31.09
48.32
60.93
67.92
69.61
67.26
62.58
57.18
52.16
48.03
44.84
42.45
40.66
39.45
38.78
38.58
38.50
37.93
36.13
32.52
26.92
19.71
11.72
3.91
-2.93
-8.50
-12.98
-16.81
-20.49
-24.20
-27.68
-30.29
-31.30
-30.27
-27.47
-24.07
-21.86
-22.76
-28.04
-37.72
-50.42
-63.70
-74.85
-81.74
-83.53
-80.64
-74.40
-66.22
-57.06
-47.10
-36.10
-23.87
-10.81
1.98
12.93
20.61
24.32
24.32
21.73
18.04
14.48
11.74
9.77
8.07
6.02
3.21
-0.40
-4.46
-8.46
-11.88
-14.40
-15.96
-16.79
-17.36
-18.26
-20.04
-22.97
-26.88
-31.27
-35.48
-39.04
-41.89
-44.45
-47.26
-50.75
-54.93
-59.55
-64.26
-68.84
-73.14
-76.85
-79.14
-78.74
-74.24
-64.83
-50.76
-33.47
-15.03
2.63
18.27
31.56
42.64
51.71
58.76
63.69
66.56
67.75
67.76
66.82
64.70
60.84
54.94
47.46
39.71
33.26
29.00
26.54
24.24
20.13
13.16
3.94
-5.36
-12.07
-14.40
-12.36
-7.85
-3.68
-2.40
-5.25
-11.84
-20.56
-29.44
-36.98
-42.65
-46.90
-50.81
-55.46
-61.35
-68.18
-74.80
-79.65
-81.27
-78.74
-71.92
-61.39
-48.11
-33.08
-17.13
-0.91
15.04
30.14
43.75
55.17
63.77
69.13
71.15
70.18
66.97
62.58
58.12
54.47
51.99
50.36
48.70
45.86
40.90
33.53
24.27
14.37
5.28
-1.90
-6.87
-10.16
-12.77
-15.57
-18.84
-22.11
-24.54
-25.51
-25.14
-24.43
-24.87
-27.85
-33.91
-42.45
-51.84
-59.90
-64.65
-64.88
-60.46
-52.20
-41.46
-29.55
-17.22
-4.60
8.63
22.64
37.03
50.63
61.86
69.33
72.56
72.31
70.27
68.34
67.71
68.40
69.27
68.83
66.06
61.03
54.88
49.24
45.41
43.73
43.48
43.33
41.95
38.59
33.42
27.40
21.89
18.15
16.89
17.94
20.24
22.09
21.77
18.30
11.84
3.82
-3.67
-8.80
-10.86
-10.66
-10.13
-11.39
-15.53
-21.90
-28.31
-31.85
-30.22
-22.70
-10.40
4.42
19.37
32.93
44.76
55.42
65.68
75.90
85.80
94.64
101.43
105.27
105.50
101.90
94.91
85.77
76.30
68.37
63.20
60.73
59.71
58.25
54.83
49.03
41.67
34.33
28.50
24.85
23.03
21.95
20.36
17.49
13.29
8.38
3.70
0.03
-2.32
-3.62
-4.58
-5.92
-8.05
-10.84
-13.73
-16.09
-17.62
-18.63
-19.95
-22.71
-27.80
-35.56
-45.62
-57.02
-68.41
-78.41
-85.76
-89.51
-89.19
-84.88
-77.20
-67.09
-55.60
-43.64
-31.95
-21.12
-11.66
-4.05
1.57
5.41
8.15
10.62
13.36
16.21
18.24
18.16
15.04
8.91
0.94
-7.03
-13.21
-16.70
-17.83
-17.95
-18.77
-21.60
-26.73
-33.37
-39.97
-44.91
-47.02
-46.07
-42.80
-38.68
-35.37
-34.17
-35.50
-38.75
-42.49
-45.00
-45.06
-42.38
-37.85
-33.29
-30.82
-32.13
-37.82
-47.07
-57.77
-67.13
-72.49
-72.21
-66.16
-55.74
-43.19
-30.72
-19.67
-10.15
-1.37
7.58
16.99
26.22
33.93
38.84
40.31
38.75
35.34
31.42
27.97
25.23
22.84
20.23
16.95
12.92
8.36
3.57
-1.18
-5.75
-10.10
-14.22
-18.22
-22.25
-26.53
-31.13
-35.93
-40.52
-44.45
-47.48
-49.77
-51.79
-54.18
-57.34
-61.37
-66.02
-70.98
-75.93
-80.62
-84.74
-87.85
-89.42
-88.96
-86.15
-80.81
-72.76
-61.75
-47.60
-30.58
-11.66
7.52
25.13
39.90
51.61
61.21
70.15
79.54
89.40
98.49
104.94
107.20
104.91
99.07
91.49
83.87
76.95
70.36
63.06
54.11
43.51
32.32
22.25
14.85
10.71
9.22
8.83
7.90
5.36
1.17
-3.91
-8.85
-12.89
-15.90
-18.25
-20.52
-23.05
-25.87
-28.77
-31.59
-34.49
-37.81
-41.84
-46.56
-51.53
-56.18
-60.09
-63.33
-66.32
-69.55
-73.13
-76.62
-79.04
-79.22
-76.14
-69.19
-58.28
-43.78
-26.54
-7.83
10.81
27.74
41.71
52.16
59.34
64.20
67.85
71.09
74.06
76.18
76.56
74.48
69.96
63.80
57.37
51.93
48.13
45.73
43.87
41.57
38.37
34.38
30.12
26.10
22.45
19.01
15.64
12.46
9.86
8.24
7.68
7.86
8.21
8.32
8.18
8.12
8.47
9.13
9.49
8.68
5.99
1.37
-4.45
-10.28
-15.03
-18.35
-20.88
-24.09
-29.56
-38.07
-49.04
-60.39
-69.24
-72.87
-69.77
-60.05
-45.36
-28.16
-10.88
4.79
18.15
29.37
39.03
47.63
55.15
60.96
64.03
63.39
58.78
50.89
41.30
31.89
24.19
18.85
15.57
13.53
11.90
10.28
8.73
7.50
6.71
6.06
4.96
2.88
-0.40
-4.54
-8.74
-12.01
-13.57
-13.10
-10.90
-7.77
-4.70
-2.60
-1.94
-2.68
-4.36
-6.28
-7.86
-8.82
-9.22
-9.35
-9.45
-9.61
-9.79
-9.98
-10.45
-11.66
-14.18
-18.26
-23.59
-29.16
-33.34
-34.34
-30.65
-21.54
-7.36
10.43
29.56
47.53
62.40
73.29
80.54
85.33
88.99
92.33
95.27
97.11
97.00
94.50
89.86
83.90
77.72
72.27
68.17
65.62
64.49
64.40
64.68
64.54
63.18
60.13
55.46
49.88
44.46
40.21
37.59
36.31
35.41
33.74
30.46
25.43
19.28
13.05
7.64
3.42
-0.02
-3.71
-8.89
-16.56
-27.12
-40.39
-55.60
-71.59
-87.03
-100.53
-110.76
-116.68
-117.67
-113.71
-105.43
-93.83
-80.16
-65.60
-51.17
-37.72
-25.97
-16.38
-9.10
-3.92
-0.35
2.19
4.06
5.32
5.75
5.09
3.28
0.57
-2.51
-5.37
-7.49
-8.63
-8.82
-8.42
-8.03
-8.35
-9.93
-12.86
-16.75
-20.80
-24.23
-26.61
-28.09
-29.15
-30.36
-32.06
-34.25
-36.75
-39.38
-42.11
-45.02
-48.22
-51.83
-55.88
-60.34
-65.00
-69.28
-72.14
-72.26
-68.44
-60.11
-47.62
-32.26
-15.85
-0.28
12.99
23.16
30.12
34.27
36.28
36.83
36.41
35.26
33.35
30.54
26.72
21.97
16.63
11.25
6.49
2.93
0.89
0.23
0.43
0.69
0.15
-1.76
-5.24
-10.06
-15.70
-21.46
-26.67
-30.92
-34.13
-36.58
-38.81
-41.36
-44.60
-48.55
-52.88
-57.08
-60.71
-63.64
-66.19
-68.93
-72.39
-76.53
-80.41
-82.23
-79.81
-71.56
-57.28
-38.51
-18.01
1.25
17.32
29.82
39.71
48.36
56.48
63.70
68.77
70.49
68.53
63.72
57.72
52.26
48.36
46.16
45.08
44.34
43.28
41.62
39.34
36.54
33.37
29.88
26.06
21.79
16.96
11.49
5.47
-0.90
-7.25
-13.27
-18.77
-23.65
-27.85
-31.35
-34.12
-36.33
-38.42
-41.06
-44.90
-50.32
-57.16
-64.78
-72.12
-77.93
-80.93
-79.87
-73.82
-62.51
-46.60
-27.84
-8.76
8.13
21.17
30.14
36.26
41.51
47.50
54.66
62.02
67.71
70.00
68.19
63.03
56.33
50.18
46.00
44.05
43.51
43.00
41.29
37.85
32.92
27.30
21.93
17.45
14.07
11.57
9.53
7.52
5.32
2.91
0.50
-1.61
-3.19
-4.19
-4.86
-5.75
-7.51
-10.64
-15.12
-20.27
-24.99
-28.24
-29.62
-29.70
-29.83
-31.47
-35.35
-40.86
-46.11
-48.52
-45.96
-37.62
-24.39
-8.53
7.30
21.09
32.12
40.98
48.89
56.90
65.11
72.59
77.81
79.46
77.10
71.40
63.81
55.98
49.16
43.94
40.17
37.24
34.25
30.21
24.30
16.14
6.05
-4.91
-15.24
-23.48
-28.87
-31.61
-32.69
-33.36
-34.48
-36.17
-37.83
-38.59
-37.83
-35.52
-32.26
-29.05
-26.94
-26.65
-28.33
-31.61
-35.80
-40.25
-44.68
-49.19
-54.05
-59.27
-64.22
-67.56
-67.63
-62.98
-52.98
-38.00
-19.46
0.61
20.06
37.12
50.85
61.28
69.27
75.97
82.23
88.04
92.59
94.71
93.65
89.55
83.57
77.25
71.86
67.83
64.77
61.88
58.50
54.54
50.46
46.94
44.45
42.94
41.84
40.38
37.91
34.27
29.79
25.12
20.83
17.14
13.84
10.42
6.43
1.66
-3.78
-9.51
-15.09
-20.16
-24.49
-28.17
-31.60
-35.48
-40.52
-47.12
-54.87
-62.46
-67.92
-69.20
-64.97
-55.21
-41.15
-24.85
-8.37
6.87
20.36
32.29
43.05
52.65
60.65
66.22
68.65
67.76
64.09
58.78
53.15
48.32
44.85
42.74
41.55
40.66
39.46
37.56
34.79
31.10
26.56
21.22
15.16
8.56
1.78
-4.63
-10.06
-14.12
-16.76
-18.41
-19.74
-21.41
-23.81
-26.91
-30.39
-33.84
-37.07
-40.19
-43.63
-47.92
-53.43
-60.14
-67.60
-74.95
-81.06
-84.80
-85.30
-82.09
-75.16
-64.80
-51.48
-35.66
-17.94
0.84
19.39
36.02
48.94
56.78
59.15
56.76
51.18
44.27
37.47
31.52
26.45
22.03
18.05
14.57
11.68
9.31
7.03
4.16
0.10
-5.35
-11.73
-18.16
-23.72
-27.87
-30.68
-32.65
-34.46
-36.58
-39.09
-41.75
-44.23
-46.34
-48.11
-49.76
-51.48
-53.35
-55.35
-57.44
-59.77
-62.59
-66.11
-70.26
-74.42
-77.50
-78.10
-74.97
-67.42
-55.68
-40.90
-24.81
-9.19
4.68
16.26
25.76
33.71
40.52
46.30
50.82
53.81
55.19
55.16
54.07
52.18
49.65
46.59
43.25
40.14
37.79
36.38
35.47
34.04
30.95
25.53
17.98
9.38
1.22
-5.17
-9.11
-10.74
-10.76
-10.11
-9.64
-9.89
-11.09
-13.22
-16.07
-19.38
-22.94
-26.67
-30.57
-34.76
-39.30
-44.15
-49.13
-53.92
-58.17
-61.47
-63.42
-63.51
-61.20
-55.93
-47.26
-35.07
-19.82
-2.60
14.93
30.92
43.88
53.13
58.97
62.44
64.74
66.60
68.07
68.50
67.05
63.20
57.17
49.96
42.94
37.43
34.15
33.08
33.46
34.22
34.37
33.38
31.35
28.83
26.57
25.15
24.80
25.32
26.22
26.91
26.88
25.85
23.82
21.11
18.25
15.81
14.15
13.24
12.66
11.71
9.70
6.33
1.77
-3.38
-8.35
-12.54
-15.67
-17.84
-19.39
-20.77
-22.39
-24.56
-27.39
-30.83
-34.58
-38.15
-40.89
-42.13
-41.28
-37.98
-32.08
-23.78
-13.54
-2.05
9.85
21.34
31.65
40.26
46.90
51.56
54.45
55.88
56.08
55.12
52.88
49.20
44.23
38.56
33.27
29.48
27.86
28.18
29.47
30.48
30.35
29.05
27.31
26.09
25.96
26.74
27.64
27.72
26.38
23.58
19.70
15.26
10.70
6.25
2.07
-1.78
-5.28
-8.52
-11.80
-15.50
-19.88
-24.92
-30.23
-35.21
-39.45
-42.94
-46.23
-50.31
-56.23
-64.73
-75.92
-89.18
-103.18
-116.13
-126.12
-131.49
-131.17
-124.73
-112.41
-94.89
-73.15
-48.27
-21.39
6.38
33.96
60.24
84.07
104.13
119.02
127.36
128.22
121.41
107.68
88.63
66.47
43.64
22.46
4.95
-7.46
-14.13
-15.45
-12.74
-7.94
-3.03
0.33
1.07
-1.41
-7.18
-15.86
-26.33
-36.75
-44.92
-48.96
-48.04
-42.73
-34.72
-26.14
-18.71
-13.43
-10.67
-10.43
-12.70
-17.31
-23.76
-31.15
-38.40
-44.69
-49.77
-53.91
-57.53
-60.73
-63.11
-63.94
-62.58
-58.79
-52.89
-45.56
-37.58
-29.60
-22.02
-14.97
-8.30
-1.58
5.72
13.95
23.01
32.15
40.13
45.69
48.16
47.74
45.53
42.92
41.03
40.21
39.99
39.55
38.14
35.54
32.06
28.20
24.32
20.47
16.50
12.42
8.69
6.05
5.16
6.05
7.92
9.43
9.30
7.05
3.23
-0.91
-4.11
-5.76
-6.22
-6.42
-7.33
-9.29
-12.00
-14.69
-16.74
-18.03
-18.97
-20.34
-22.75
-26.41
-30.94
-35.59
-39.48
-41.93
-42.52
-41.13
-37.65
-31.95
-23.86
-13.39
-0.96
12.56
25.94
38.04
48.16
56.19
62.45
67.33
70.98
73.20
73.67
72.22
69.04
64.63
59.57
54.32
49.14
44.12
39.39
35.12
31.55
28.74
26.47
24.34
21.84
18.69
14.93
10.92
7.18
4.11
1.77
-0.08
-1.98
-4.41
-7.65
-11.63
-15.99
-20.23
-24.01
-27.25
-30.21
-33.27
-36.79
-40.85
-45.17
-49.24
-52.52
-54.63
-55.61
-55.80
-55.75
-56.03
-57.03
-58.80
-61.03
-63.10
-64.17
-63.45
-60.41
-54.93
-47.35
-38.30
-28.51
-18.63
-9.12
-0.30
7.67
14.68
20.73
25.91
30.39
34.27
37.49
39.78
40.85
40.54
39.01
36.70
34.14
31.70
29.55
27.67
26.02
24.71
23.83
23.40
23.20
22.80
21.83
20.14
17.98
15.90
14.38
13.62
13.37
13.14
12.46
11.19
9.56
8.01
6.88
6.24
5.72
4.83
3.18
0.74
-2.12
-4.86
-7.04
-8.63
-10.05
-11.97
-15.00
-19.35
-24.72
-30.28
-34.92
-37.57
-37.45
-34.19
-27.95
-19.32
-9.22
1.26
11.09
19.54
26.38
31.88
36.66
41.31
45.99
50.24
53.11
53.64
51.40
46.90
41.43
36.63
33.66
32.73
33.07
33.40
32.61
30.29
26.85
23.11
19.80
17.15
14.88
12.49
9.74
6.74
3.86
1.41
-0.58
-2.34
-4.04
-5.50
-6.14
-5.24
-2.53
1.51
5.64
8.33
8.48
5.87
1.22
-4.27
-9.51
-14.00
-17.96
-22.04
-26.80
-32.35
-38.19
-43.36
-46.77
-47.58
-45.48
-40.70
-33.98
-26.24
-18.32
-10.80
-3.90
2.40
8.24
13.72
18.87
23.63
27.87
31.36
33.78
34.80
34.14
31.83
28.21
23.97
19.89
16.57
14.26
12.76
11.62
10.29
8.27
5.35
1.52
-2.87
-7.28
-11.03
-13.48
-14.31
-13.65
-12.06
-10.39
-9.42
-9.63
-11.10
-13.61
-16.85
-20.62
-24.85
-29.52
-34.50
-39.53
-44.29
-48.56
-52.32
-55.76
-59.08
-62.24
-64.84
-66.09
-65.16
-61.50
-55.13
-46.63
-36.98
-27.19
-18.02
-9.81
-2.63
3.57
8.76
12.75
15.34
16.43
16.20
15.10
13.74
12.65
12.21
12.54
13.58
15.23
17.28
19.51
21.54
22.94
23.30
22.43
20.41
17.59
14.35
10.94
7.42
3.69
-0.30
-4.58
-9.03
-13.57
-18.16
-22.72
-27.04
-30.73
-33.33
-34.54
-34.47
-33.73
-33.26
-34.03
-36.68
-41.37
-47.69
-54.87
-61.88
-67.68
-71.26
-71.78
-68.65
-61.65
-51.04
-37.61
-22.54
-7.19
7.25
19.97
30.66
39.35
46.20
51.24
54.36
55.38
54.31
51.53
47.74
43.72
40.11
37.26
35.16
33.63
32.46
31.51
30.62
29.64
28.42
26.89
25.13
23.43
22.18
21.70
22.08
23.15
24.45
25.38
25.40
24.16
21.61
18.09
14.16
10.47
7.48
5.27
3.47
1.47
-1.34
-5.20
-9.81
-14.40
-18.09
-20.29
-21.01
-20.89
-20.99
-22.23
-25.07
-29.28
-34.06
-38.51
-41.97
-44.37
-46.18
-48.10
-50.68
-53.94
-57.21
-59.22
-58.55
-54.02
-45.22
-32.72
-18.01
-3.07
10.27
20.89
28.76
34.72
40.02
45.68
51.93
58.10
63.00
65.43
64.80
61.45
56.50
51.43
47.43
45.04
43.96
43.40
42.50
40.78
38.28
35.50
32.92
30.75
28.74
26.40
23.38
19.72
15.99
13.02
11.54
11.79
13.29
15.07
15.96
15.10
12.23
7.85
3.07
-0.83
-2.80
-2.47
-0.29
2.67
5.25
6.67
6.94
6.78
7.11
8.52
10.85
13.17
14.28
13.31
10.11
5.44
0.55
-3.32
-5.37
-5.53
-4.40
-3.03
-2.54
-3.81
-7.07
-11.84
-17.00
-21.24
-23.72
-24.45
-24.51
-25.44
-28.48
-33.70
-39.80
-44.60
-46.01
-43.03
-36.18
-27.16
-17.92
-9.81
-3.12
2.71
8.45
14.58
21.02
27.34
32.99
37.49
40.44
41.51
40.54
37.71
33.72
29.62
26.43
24.63
23.91
23.38
22.11
19.76
16.73
13.97
12.23
11.63
11.43
10.42
7.54
2.48
-4.15
-11.09
-16.99
-21.00
-23.08
-23.96
-24.74
-26.36
-29.15
-32.69
-35.93
-37.72
-37.26
-34.47
-30.04
-25.20
-21.24
-19.05
-18.80
-19.99
-21.77
-23.35
-24.33
-24.89
-25.65
-27.27
-30.14
-34.21
-38.93
-43.51
-47.15
-49.33
-49.86
-48.93
-46.90
-44.11
-40.71
-36.53
-31.24
-24.53
-16.42
-7.41
1.57
9.48
15.56
19.68
22.32
24.41
26.83
30.08
34.14
38.56
42.65
45.71
47.33
47.38
46.10
44.02
41.81
40.01
38.88
38.16
37.21
35.28
31.90
27.16
21.83
17.03
13.83
12.83
13.92
16.32
18.95
20.82
21.37
20.56
18.84
16.87
15.18
14.01
13.20
12.37
11.11
9.21
6.74
3.93
1.00
-2.04
-5.47
-9.78
-15.39
-22.39
-30.36
-38.37
-45.24
-49.82
-51.35
-49.62
-45.02
-38.38
-30.78
-23.22
-16.36
-10.30
-4.66
1.26
8.00
15.67
23.75
31.27
37.23
41.12
43.14
44.19
45.43
47.71
51.19
55.20
58.56
60.16
59.47
56.84
53.34
50.23
48.35
47.69
47.37
46.13
42.95
37.56
30.51
23.01
16.28
11.18
7.93
6.18
5.18
4.17
2.62
0.41
-2.11
-4.23
-5.24
-4.74
-3.02
-1.09
-0.36
-2.18
-7.33
-15.75
-26.68
-38.90
-51.18
-62.48
-71.93
-78.85
-82.66
-83.01
-79.95
-74.03
-66.17
-57.36
-48.35
-39.43
-30.52
-21.52
-12.57
-4.24
2.61
7.30
9.63
10.14
9.77
9.41
9.44
9.65
9.50
8.48
6.55
4.02
1.30
-1.42
-4.27
-7.52
-11.13
-14.59
-16.99
-17.48
-15.81
-12.63
-9.30
-7.29
-7.58
-10.17
-14.18
-18.34
-21.62
-23.83
-25.64
-28.27
-32.79
-39.62
-48.21
-57.22
-64.97
-69.96
-71.33
-68.98
-63.50
-55.79
-46.76
-37.03
-26.90
-16.48
-5.94
4.32
13.67
21.40
27.01
30.40
31.92
32.23
31.96
31.48
30.81
29.65
27.69
24.75
20.96
16.62
12.06
7.45
2.78
-1.99
-6.71
-11.00
-14.26
-16.05
-16.37
-15.77
-15.25
-15.81
-18.04
-21.83
-26.54
-31.28
-35.37
-38.64
-41.45
-44.58
-48.83
-54.76
-62.38
-71.00
-79.20
-85.13
-86.98
-83.48
-74.45
-60.83
-44.48
-27.46
-11.49
2.57
14.73
25.56
35.70
45.34
54.11
61.21
65.84
67.58
66.69
64.03
60.76
57.88
55.95
54.90
54.24
53.26
51.33
48.02
43.23
37.13
30.12
22.79
15.78
9.63
4.66
0.88
-1.94
-4.16
-6.14
-8.20
-10.58
-13.45
-16.87
-20.70
-24.63
-28.33
-31.60
-34.64
-38.02
-42.47
-48.41
-55.60
-63.01
-69.04
-72.09
-70.98
-65.33
-55.45
-42.26
-26.98
-10.99
4.36
17.98
29.30
38.44
46.12
53.31
60.66
68.06
74.68
79.33
81.14
80.01
76.75
72.66
69.02
66.61
65.58
65.56
65.92
65.99
65.13
62.82
58.81
53.15
46.34
39.21
32.57
26.97
22.48
18.85
15.70
12.86
10.42
8.67
7.84
7.92
8.63
9.59
10.41
10.95
11.19
11.23
11.02
10.36
8.91
6.40
2.79
-1.64
-6.29
-10.52
-13.87
-16.34
-18.31
-20.32
-22.78
-25.75
-28.95
-31.97
-34.56
-36.76
-38.87
-41.20
-43.89
-46.82
-49.71
-52.30
-54.50
-56.39
-58.17
-60.10
-62.44
-65.46
-69.31
-73.89
-78.71
-82.80
-84.90
-83.84
-78.85
-69.87
-57.52
-42.94
-27.35
-11.75
3.20
17.27
30.38
42.46
53.33
62.71
70.25
75.69
78.86
79.70
78.30
74.96
70.25
64.95
59.97
56.03
53.49
52.16
51.47
50.67
49.16
46.70
43.35
39.47
35.50
31.85
28.76
26.28
24.33
22.68
21.22
19.87
18.71
17.81
17.10
16.30
14.97
12.76
9.61
5.81
2.01
-1.08
-2.99
-3.68
-3.63
-3.66
-4.66
-7.17
-11.14
-16.02
-20.82
-24.67
-27.04
-27.99
-28.07
-28.02
-28.47
-29.66
-31.46
-33.44
-35.08
-35.94
-35.89
-35.16
-34.45
-34.64
-36.43
-39.97
-44.63
-49.12
-51.96
-51.99
-48.71
-42.31
-33.46
-22.88
-11.27
0.80
12.76
24.07
34.30
43.18
50.66
56.72
61.31
64.30
65.66
65.60
64.61
63.20
61.70
60.07
58.01
55.30
52.05
48.80
46.23
44.67
43.80
42.67
40.18
35.68
29.40
22.46
16.41
12.51
11.19
11.92
13.47
14.46
13.90
11.52
7.62
2.89
-2.03
-6.75
-11.19
-15.47
-19.77
-24.16
-28.53
-32.64
-36.18
-38.87
-40.67
-41.85
-42.91
-44.41
-46.63
-49.29
-51.46
-51.82
-49.14
-42.81
-33.22
-21.60
-9.59
1.39
10.46
17.45
22.60
26.27
28.67
29.85
29.74
28.38
25.95
22.79
19.35
16.16
13.70
12.40
12.51
13.94
16.24
18.58
20.01
19.75
17.45
13.37
8.33
3.42
-0.47
-3.00
-4.49
-5.87
-8.16
-11.99
-17.25
-23.01
-27.93
-30.82
-31.07
-28.93
-25.38
-21.72
-19.23
-18.76
-20.60
-24.45
-29.58
-35.01
-39.79
-43.23
-45.03
-45.40
-44.78
-43.69
-42.42
-41.11
-39.83
-38.88
-38.81
-40.28
-43.64
-48.60
-54.07
-58.39
-59.86
-57.36
-50.75
-40.95
-29.51
-18.09
-7.82
0.86
8.18
14.68
20.84
26.81
32.36
37.05
40.51
42.61
43.50
43.46
42.69
41.24
39.05
36.16
32.87
29.66
27.01
25.10
23.66
22.08
19.67
16.10
11.48
6.39
1.55
-2.47
-5.45
-7.49
-8.85
-9.84
-10.71
-11.69
-12.99
-14.80
-17.17
-19.99
-22.99
-25.82
-28.33
-30.60
-32.94
-35.68
-38.95
-42.48
-45.51
-47.01
-45.95
-41.64
-34.05
-23.85
-12.29
-0.81
9.36
17.59
23.88
28.73
32.79
36.48
39.88
42.72
44.61
45.26
44.62
42.91
40.51
37.86
35.34
33.19
31.47
30.10
28.87
27.49
25.65
23.12
19.77
15.68
11.21
6.85
3.20
0.65
-0.76
-1.31
-1.51
-1.82
-2.46
-3.43
-4.60
-5.96
-7.66
-9.99
-13.08
-16.77
-20.54
-23.75
-25.92
-27.06
-27.62
-28.34
-29.92
-32.61
-36.05
-39.40
-41.54
-41.51
-38.72
-33.17
-25.41
-16.34
-6.96
1.84
9.52
15.91
21.11
25.38
28.92
31.81
34.04
35.50
36.12
35.83
34.68
32.79
30.42
27.97
25.96
24.82
24.73
25.40
26.18
26.29
25.15
22.74
19.62
16.70
14.84
14.48
15.48
17.15
18.55
18.90
17.76
15.29
12.06
8.95
6.74
5.90
6.45
7.94
9.66
10.90
11.13
10.13
8.02
5.10
1.81
-1.43
-4.33
-6.80
-8.99
-11.19
-13.75
-16.83
-20.29
-23.68
-26.36
-27.65
-27.05
-24.33
-19.60
-13.25
-5.95
1.57
8.64
14.93
20.50
25.67
30.74
35.53
39.36
41.26
40.47
37.10
32.18
27.34
24.08
23.14
24.15
26.02
27.52
27.89
27.02
25.27
23.04
20.45
17.34
13.48
8.90
4.00
-0.58
-4.15
-6.33
-7.12
-6.86
-6.06
-5.22
-4.77
-5.00
-6.02
-7.79
-10.09
-12.63
-15.22
-17.84
-20.59
-23.66
-27.04
-30.61
-34.10
-37.35
-40.24
-42.64
-44.32
-44.84
-43.80
-41.01
-36.66
-31.29
-25.43
-19.42
-13.29
-7.01
-0.77
4.86
9.10
11.36
11.58
10.23
8.13
6.01
4.24
2.83
1.56
0.28
-0.98
-2.01
-2.60
-2.71
-2.46
-2.13
-2.02
-2.30
-3.03
-4.14
-5.52
-7.03
-8.55
-9.98
-11.23
-12.30
-13.27
-14.33
-15.73
-17.69
-20.26
-23.29
-26.40
-29.21
-31.42
-32.99
-34.23
-35.64
-37.71
-40.69
-44.43
-48.34
-51.59
-53.26
-52.64
-49.43
-43.77
-36.24
-27.70
-19.12
-11.31
-4.75
0.54
4.91
8.88
12.84
16.81
20.45
23.24
24.86
25.42
25.44
25.61
26.37
27.65
28.94
29.52
28.85
26.80
23.62
19.74
15.53
11.27
7.11
3.26
0.03
-2.24
-3.39
-3.55
-3.19
-2.99
-3.51
-5.01
-7.36
-10.12
-12.82
-15.14
-17.08
-18.80
-20.53
-22.37
-24.29
-26.26
-28.43
-31.05
-34.39
-38.36
-42.48
-45.84
-47.39
-46.40
-42.60
-36.26
-28.01
-18.61
-8.79
0.74
9.37
16.69
22.54
27.07
30.60
33.42
35.60
36.96
37.37
36.84
35.71
34.47
33.51
32.89
32.28
31.27
29.54
27.07
24.19
21.36
19.01
17.36
16.41
15.98
15.85
15.88
16.08
16.54
17.25
18.01
18.37
17.81
15.96
12.82
8.83
4.64
0.93
-1.97
-4.06
-5.66
-7.13
-8.81
-10.94
-13.60
-16.78
-20.33
-23.96
-27.36
-30.30
-32.77
-35.06
-37.59
-40.70
-44.40
-48.26
-51.54
-53.43
-53.40
-51.26
-47.24
-41.76
-35.27
-28.10
-20.46
-12.47
-4.23
4.14
12.53
20.78
28.69
35.88
41.77
45.77
47.48
46.90
44.58
41.44
38.42
36.16
34.72
33.66
32.38
30.48
27.96
25.23
22.84
21.13
20.13
19.50
18.77
17.63
16.10
14.53
13.37
12.95
13.26
13.94
14.49
14.52
13.99
13.15
12.39
11.99
11.93
11.92
11.62
10.82
9.59
8.22
6.96
5.96
5.07
4.00
2.48
0.44
-2.07
-4.89
-7.91
-11.08
-14.39
-17.78
-21.09
-24.09
-26.62
-28.77
-30.88
-33.44
-36.84
-41.12
-45.83
-50.09
-52.84
-53.09
-50.25
-44.23
-35.47
-24.82
-13.43
-2.40
7.40
15.61
22.40
28.32
33.89
39.26
44.04
47.44
48.69
47.54
44.42
40.22
35.93
32.12
28.91
26.08
23.48
21.20
19.54
18.69
18.55
18.64
18.37
17.34
15.53
13.28
11.05
9.11
7.43
5.76
3.73
1.14
-2.03
-5.64
-9.44
-13.20
-16.78
-20.21
-23.62
-27.20
-31.05
-35.04
-38.80
-41.76
-43.43
-43.57
-42.41
-40.54
-38.77
-37.71
-37.66
-38.55
-40.20
-42.47
-45.38
-48.95
-52.92
-56.58
-58.86
-58.63
-55.17
-48.39
-38.94
-27.93
-16.63
-6.03
3.28
11.19
17.93
23.98
29.76
35.50
41.10
46.13
50.06
52.41
53.06
52.27
50.57
48.64
47.04
46.14
46.00
46.43
47.04
47.35
46.89
45.39
42.84
39.56
36.00
32.64
29.80
27.56
25.87
24.60
23.61
22.79
22.02
21.18
20.14
18.83
17.28
15.55
13.65
11.43
8.65
5.05
0.55
-4.61
-10.03
-15.22
-19.89
-23.98
-27.51
-30.47
-32.56
-33.26
-32.03
-28.54
-22.91
-15.66
-7.50
0.82
8.78
16.09
22.62
28.35
33.29
37.34
40.38
42.24
42.78
42.03
40.20
37.69
34.98
32.45
30.32
28.56
27.09
25.76
24.47
23.10
21.48
19.37
16.51
12.77
8.25
3.27
-1.74
-6.33
-10.18
-13.18
-15.40
-17.11
-18.70
-20.57
-22.98
-25.90
-29.01
-31.79
-33.76
-34.83
-35.44
-36.54
-39.14
-43.90
-50.57
-57.98
-64.29
-67.66
-66.84
-61.60
-52.79
-41.89
-30.55
-20.02
-10.89
-3.18
3.50
9.50
14.93
19.50
22.79
24.39
24.23
22.58
19.98
17.02
14.15
11.62
9.54
7.93
6.79
5.94
5.06
3.72
1.54
-1.60
-5.44
-9.47
-13.12
-16.09
-18.35
-20.12
-21.60
-22.90
-23.99
-24.90
-25.81
-27.13
-29.27
-32.43
-36.41
-40.75
-44.95
-48.85
-52.72
-57.02
-61.99
-67.22
-71.53
-73.38
-71.44
-65.18
-55.11
-42.48
-28.72
-14.94
-1.62
11.28
23.93
36.30
47.86
57.77
65.10
69.30
70.38
68.92
65.77
61.70
57.20
52.39
47.35
42.33
37.85
34.54
32.70
32.05
31.73
30.62
27.87
23.30
17.47
11.38
6.01
1.93
-0.87
-2.81
-4.42
-6.14
-8.15
-10.49
-13.21
-16.42
-20.24
-24.68
-29.50
-34.30
-38.71
-42.65
-46.45
-50.61
-55.49
-60.88
-65.85
-68.97
-68.84
-64.57
-56.18
-44.54
-31.05
-17.17
-3.98
8.00
18.79
28.71
38.09
47.01
55.19
62.04
66.91
69.40
69.54
67.86
65.12
61.98
58.83
55.65
52.33
48.85
45.49
42.66
40.67
39.40
38.35
36.84
34.47
31.34
28.08
25.47
24.03
23.77
24.22
24.74
24.75
24.03
22.61
20.66
18.36
15.86
13.31
10.91
8.87
7.28
5.98
4.59
2.64
-0.26
-4.19
-8.93
-14.03
-19.03
-23.71
-28.14
-32.66
-37.65
-43.17
-48.83
-53.70
-56.61
-56.50
-52.76
-45.45
-35.17
-22.85
-9.53
3.92
16.79
28.59
38.96
47.70
54.73
60.09
63.87
66.19
67.15
66.84
65.39
63.01
59.91
56.29
52.34
48.22
44.14
40.37
37.15
34.60
32.57
30.73
28.68
26.17
23.29
20.43
18.11
16.70
16.16
16.09
15.87
15.01
13.36
11.14
8.75
6.57
4.76
3.21
1.69
-0.10
-2.33
-5.12
-8.46
-12.29
-16.46
-20.77
-24.96
-28.82
-32.26
-35.40
-38.56
-42.13
-46.41
-51.40
-56.65
-61.22
-63.89
-63.51
-59.33
-51.33
-40.29
-27.50
-14.42
-2.20
8.50
17.56
25.17
31.54
36.72
40.62
43.06
44.02
43.63
42.16
39.88
36.95
33.52
29.74
25.87
22.22
19.07
16.48
14.28
12.09
9.49
6.23
2.31
-1.96
-6.16
-9.81
-12.58
-14.36
-15.31
-15.84
-16.51
-17.89
-20.32
-23.81
-28.02
-32.39
-36.40
-39.72
-42.36
-44.55
-46.61
-48.81
-51.31
-54.14
-57.29
-60.62
-63.78
-66.16
-66.90
-65.19
-60.56
-53.16
-43.82
-33.78
-24.26
-16.08
-9.40
-3.87
1.02
5.56
9.63
12.76
14.37
14.15
12.24
9.17
5.62
2.21
-0.70
-2.96
-4.54
-5.44
-5.72
-5.52
-5.21
-5.20
-5.78
-6.85
-7.87
-8.04
-6.69
-3.67
0.55
4.96
8.52
10.53
10.83
9.74
7.83
5.61
3.30
0.91
-1.70
-4.71
-8.21
-12.25
-16.81
-21.87
-27.43
-33.47
-39.87
-46.34
-52.30
-56.96
-59.46
-59.16
-55.83
-49.78
-41.76
-32.61
-23.08
-13.65
-4.49
4.36
12.83
20.79
28.01
34.19
39.04
42.32
43.93
43.91
42.51
40.22
37.62
35.31
33.72
32.99
32.99
33.32
33.44
32.81
31.12
28.31
24.67
20.70
16.97
13.92
11.76
10.41
9.60
9.01
8.41
7.69
6.93
6.24
5.65
5.09
4.37
3.27
1.68
-0.39
-2.73
-5.13
-7.45
-9.77
-12.30
-15.28
-18.79
-22.69
-26.61
-30.18
-33.17
-35.62
-37.83
-40.24
-43.10
-46.37
-49.54
-51.80
-52.32
-50.46
-46.02
-39.20
-30.50
-20.55
-10.05
0.25
9.65
17.54
23.68
28.26
31.80
34.88
37.80
40.42
42.27
42.83
41.94
39.89
37.27
34.69
32.50
30.77
29.40
28.28
27.45
26.97
26.85
26.89
26.81
26.36
25.45
24.33
23.37
22.95
23.19
23.91
24.61
24.77
23.96
22.09
19.36
16.22
13.22
10.76
9.12
8.25
7.90
7.69
7.25
6.36
5.02
3.39
1.69
0.11
-1.27
-2.47
-3.57
-4.61
-5.59
-6.51
-7.37
-8.19
-9.06
-10.01
-11.14
-12.54
-14.31
-16.45
-18.84
-21.14
-22.89
-23.66
-23.20
-21.58
-19.10
-16.16
-13.04
-9.87
-6.62
-3.18
0.49
4.40
8.51
12.72
16.83
20.54
23.46
25.28
25.94
25.67
24.92
24.10
23.45
22.91
22.26
21.36
20.30
19.29
18.53
17.94
17.11
15.53
12.80
8.93
4.35
-0.24
-4.11
-6.77
-8.03
-8.03
-7.10
-5.67
-4.27
-3.38
-3.44
-4.66
-6.95
-9.91
-13.04
-15.82
-18.00
-19.59
-20.77
-21.75
-22.65
-23.54
-24.53
-25.86
-27.79
-30.55
-34.06
-37.89
-41.31
-43.50
-43.82
-41.96
-38.10
-32.78
-26.72
-20.67
-15.12
-10.23
-5.87
-1.76
2.26
5.99
8.94
10.52
10.37
8.60
5.80
2.86
0.57
-0.62
-0.74
-0.21
0.38
0.51
-0.14
-1.66
-3.92
-6.69
-9.65
-12.54
-15.13
-17.27
-18.95
-20.23
-21.24
-22.10
-22.94
-23.86
-24.95
-26.21
-27.60
-29.03
-30.35
-31.46
-32.25
-32.76
-33.11
-33.61
-34.58
-36.30
-38.81
-41.84
-44.90
-47.41
-48.93
-49.22
-48.23
-45.96
-42.41
-37.56
-31.55
-24.72
-17.57
-10.62
-4.16
1.80
7.53
13.26
19.05
24.66
29.61
33.40
35.67
36.32
35.49
33.55
30.99
28.32
26.01
24.33
23.34
22.80
22.33
21.48
19.96
17.70
14.88
11.77
8.64
5.71
3.15
1.14
-0.09
-0.42
0.06
0.97
1.69
1.62
0.35
-2.01
-5.05
-8.20
-11.02
-13.36
-15.39
-17.43
-19.75
-22.54
-25.87
-29.72
-33.97
-38.32
-42.27
-45.10
-46.07
-44.65
-40.67
-34.44
-26.61
-17.97
-9.23
-0.79
7.22
14.87
22.32
29.64
36.69
43.15
48.52
52.31
54.23
54.34
53.10
51.27
49.66
48.84
48.91
49.49
49.88
49.44
47.83
45.13
41.83
38.48
35.55
33.25
31.54
30.25
29.22
28.32
27.47
26.51
25.31
23.73
21.78
19.59
17.34
15.16
13.03
10.75
8.05
4.74
0.82
-3.48
-7.80
-11.81
-15.34
-18.45
-21.38
-24.45
-27.97
-32.10
-36.66
-41.17
-44.80
-46.60
-45.76
-41.88
-35.15
-26.32
-16.57
-7.14
1.01
7.41
12.13
15.63
18.51
21.24
24.02
26.79
29.33
31.41
32.89
33.74
33.94
33.48
32.42
30.92
29.27
27.84
26.91
26.52
26.35
25.84
24.37
21.59
17.58
12.96
8.68
5.81
5.06
6.53
9.50
12.64
14.42
13.71
10.25
4.74
-1.39
-6.67
-10.19
-12.00
-13.02
-14.51
-17.40
-21.97
-27.69
-33.71
-39.25
-43.86
-47.41
-49.75
-50.59
-49.42
-45.82
-39.86
-32.19
-23.93
-16.15
-9.51
-4.07
0.54
4.73
8.61
11.96
14.45
15.91
16.57
17.02
17.92
19.66
22.20
25.03
27.42
28.75
28.71
27.38
25.09
22.15
18.68
14.54
9.52
3.69
-2.41
-7.81
-11.43
-12.65
-11.64
-9.38
-7.29
-6.56
-7.75
-10.62
-14.37
-18.16
-21.39
-23.89
-25.82
-27.51
-29.34
-31.75
-35.12
-39.64
-45.07
-50.66
-55.28
-57.71
-57.07
-53.09
-46.16
-37.10
-26.92
-16.49
-6.40
3.05
11.86
20.14
28.06
35.65
42.69
48.71
53.09
55.25
54.93
52.30
47.94
42.78
37.76
33.64
30.83
29.33
28.78
28.62
28.22
27.07
24.82
21.46
17.31
12.95
9.14
6.49
5.31
5.44
6.26
7.03
7.11
6.23
4.48
2.18
-0.34
-2.90
-5.48
-8.09
-10.61
-12.79
-14.39
-15.31
-15.79
-16.25
-17.17
-18.87
-21.40
-24.59
-28.10
-31.63
-34.94
-37.82
-40.07
-41.50
-41.94
-41.30
-39.59
-36.93
-33.44
-29.22
-24.37
-19.08
-13.62
-8.36
-3.56
0.74
4.78
8.97
13.63
18.75
23.93
28.52
31.92
33.89
34.55
34.34
33.70
32.95
32.19
31.45
30.71
30.01
29.37
28.66
27.64
25.99
23.47
20.10
16.18
12.22
8.83
6.50
5.50
5.78
7.03
8.75
10.43
11.65
12.15
11.83
10.79
9.25
7.52
5.90
4.58
3.65
3.02
2.56
2.17
1.81
1.40
0.75
-0.47
-2.65
-5.97
-10.28
-14.99
-19.29
-22.51
-24.34
-24.91
-24.62
-23.86
-22.87
-21.74
-20.52
-19.36
-18.50
-18.21
-18.53
-19.33
-20.30
-21.22
-22.10
-23.18
-24.72
-26.77
-28.99
-30.69
-31.09
-29.68
-26.40
-21.72
-16.37
-11.10
-6.42
-2.47
0.88
3.93
6.98
10.20
13.58
16.89
19.76
21.81
22.77
22.65
21.76
20.59
19.63
19.19
19.30
19.77
20.25
20.45
20.13
19.18
17.63
15.59
13.33
11.23
9.70
9.03
9.29
10.23
11.40
12.32
12.71
12.53
11.99
11.34
10.71
10.11
9.37
8.43
7.32
6.25
5.44
5.04
4.99
5.08
4.97
4.37
3.17
1.43
-0.62
-2.67
-4.48
-6.02
-7.40
-8.88
-10.74
-13.11
-15.94
-18.92
-21.60
-23.48
-24.08
-23.06
-20.25
-15.79
-10.09
-3.87
2.02
6.80
10.03
11.74
12.45
12.95
14.04
16.09
18.94
21.93
24.16
24.92
23.96
21.64
18.71
16.03
14.23
13.56
13.86
14.80
16.00
17.18
18.12
18.69
18.74
18.17
17.02
15.37
13.41
11.28
9.10
6.96
4.96
3.22
1.83
0.87
0.23
-0.29
-0.88
-1.63
-2.49
-3.35
-4.13
-4.94
-6.02
-7.64
-9.92
-12.70
-15.67
-18.53
-21.19
-23.76
-26.38
-29.03
-31.41
-32.99
-33.23
-31.84
-28.88
-24.74
-19.96
-15.04
-10.32
-5.94
-1.91
1.80
5.13
7.97
10.10
11.39
11.83
11.56
10.85
9.99
9.20
8.54
7.93
7.16
5.97
4.09
1.43
-1.93
-5.67
-9.33
-12.43
-14.64
-15.91
-16.48
-16.70
-16.94
-17.40
-18.11
-18.97
-19.87
-20.68
-21.39
-22.02
-22.61
-23.15
-23.62
-24.03
-24.53
-25.44
-27.13
-29.93
-33.88
-38.67
-43.63
-47.94
-50.83
-51.80
-50.78
-47.99
-43.87
-38.87
-33.32
-27.48
-21.57
-15.82
-10.51
-5.85
-2.00
0.95
2.93
3.92
3.96
3.24
2.21
1.47
1.49
2.48
4.19
6.05
7.54
8.32
8.44
8.16
7.68
7.06
6.19
4.94
3.36
1.72
0.33
-0.62
-1.20
-1.73
-2.50
-3.70
-5.29
-7.09
-8.97
-10.90
-12.98
-15.36
-18.08
-21.13
-24.42
-27.95
-31.72
-35.70
-39.61
-42.95
-45.09
-45.54
-44.09
-40.97
-36.61
-31.51
-26.01
-20.30
-14.43
-8.51
-2.70
2.80
7.85
12.39
16.39
19.79
22.49
24.33
25.28
25.50
25.33
25.24
25.56
26.43
27.72
29.05
30.04
30.31
29.67
28.04
25.53
22.42
19.08
15.99
13.60
12.22
11.85
12.15
12.59
12.58
11.72
9.97
7.64
5.19
2.98
1.12
-0.58
-2.53
-5.07
-8.36
-12.27
-16.54
-20.96
-25.47
-30.15
-35.21
-40.75
-46.70
-52.75
-58.35
-62.83
-65.52
-65.88
-63.58
-58.63
-51.38
-42.46
-32.69
-22.85
-13.55
-5.12
2.42
9.30
15.79
22.13
28.36
34.32
39.74
44.33
47.95
50.59
52.37
53.47
54.05
54.23
54.07
53.65
53.04
52.33
51.61
50.88
50.06
49.04
47.72
46.16
44.48
42.90
41.55
40.42
39.37
38.13
36.56
34.62
32.48
30.38
28.53
27.06
25.95
25.02
24.03
22.66
20.60
17.68
13.89
9.46
4.74
0.12
-4.15
-7.99
-11.58
-15.28
-19.55
-24.76
-30.94
-37.68
-44.01
-48.67
-50.42
-48.50
-42.89
-34.34
-24.18
-13.87
-4.65
2.77
8.34
12.51
15.96
19.27
22.69
26.07
29.04
31.23
32.50
33.04
33.20
33.26
33.37
33.46
33.43
33.26
33.02
32.85
32.78
32.69
32.27
31.15
29.09
26.12
22.56
18.91
15.65
13.09
11.27
9.98
8.88
7.63
5.92
3.59
0.58
-3.03
-7.05
-11.17
-15.09
-18.60
-21.64
-24.42
-27.36
-30.93
-35.49
-41.00
-46.93
-52.24
-55.63
-55.87
-52.28
-44.96
-34.79
-23.15
-11.48
-0.84
8.25
15.73
21.75
26.46
29.90
32.08
33.07
33.09
32.43
31.32
29.84
27.99
25.73
23.19
20.60
18.22
16.22
14.54
12.95
11.17
9.01
6.41
3.42
0.16
-3.24
-6.67
-10.00
-13.12
-15.95
-18.54
-21.03
-23.59
-26.32
-29.20
-32.14
-35.06
-37.99
-41.13
-44.75
-49.13
-54.32
-60.00
-65.44
-69.63
-71.48
-70.19
-65.47
-57.64
-47.55
-36.29
-24.91
-14.20
-4.55
3.94
11.41
18.04
24.04
29.51
34.40
38.53
41.67
43.65
44.46
44.27
43.39
42.14
40.77
39.40
38.10
36.87
35.74
34.67
33.60
32.34
30.68
28.45
25.61
22.23
18.51
14.67
10.88
7.25
3.79
0.40
-3.05
-6.69
-10.57
-14.66
-18.77
-22.67
-26.16
-29.21
-31.96
-34.73
-37.93
-41.89
-46.79
-52.52
-58.67
-64.51
-69.04
-71.23
-70.28
-65.88
-58.33
-48.44
-37.27
-25.79
-14.67
-4.18
5.61
14.74
23.16
30.77
37.44
43.08
47.64
51.10
53.47
54.75
54.97
54.31
53.00
51.40
49.85
48.65
47.88
47.49
47.25
46.85
46.03
44.65
42.67
40.09
36.99
33.45
29.58
25.51
21.42
17.44
13.71
10.30
7.23
4.46
1.88
-0.67
-3.38
-6.32
-9.44
-12.57
-15.50
-18.16
-20.73
-23.55
-27.09
-31.73
-37.60
-44.49
-51.77
-58.50
-63.53
-65.82
-64.66
-59.93
-52.16
-42.41
-31.99
-22.00
-13.12
-5.53
1.07
7.09
12.88
18.52
23.81
28.41
31.99
34.41
35.74
36.23
36.19
35.90
35.57
35.32
35.20
35.23
35.35
35.42
35.25
34.67
33.58
32.01
30.07
27.92
25.65
23.26
20.69
17.90
14.88
11.75
8.65
5.73
3.07
0.64
-1.68
-4.03
-6.51
-9.17
-12.00
-14.96
-18.04
-21.23
-24.53
-27.97
-31.62
-35.56
-39.85
-44.33
-48.54
-51.75
-53.07
-51.80
-47.67
-40.98
-32.48
-23.13
-13.83
-5.19
2.48
9.13
14.86
19.84
24.26
28.24
31.79
34.84
37.21
38.75
39.46
39.44
38.92
38.13
37.27
36.40
35.60
34.88
34.25
33.64
32.94
31.97
30.59
28.77
26.61
24.33
22.20
20.43
19.07
18.08
17.31
16.58
15.74
14.72
13.53
12.26
11.03
9.95
9.01
8.14
7.20
6.06
4.60
2.77
0.63
-1.74
-4.19
-6.55
-8.74
-10.78
-12.87
-15.28
-18.26
-21.86
-25.83
-29.57
-32.31
-33.40
-32.49
-29.68
-25.38
-20.16
-14.50
-8.71
-2.90
2.84
8.39
13.60
18.23
22.10
25.09
27.23
28.63
29.43
29.77
29.71
29.25
28.37
27.16
25.78
24.52
23.70
23.53
24.07
25.17
26.57
27.98
29.07
29.58
29.24
27.84
25.27
21.65
17.26
12.57
8.04
4.02
0.67
-2.01
-4.13
-5.78
-7.02
-7.94
-8.63
-9.26
-9.97
-10.88
-12.07
-13.57
-15.45
-17.80
-20.72
-24.23
-28.16
-32.08
-35.39
-37.44
-37.77
-36.29
-33.32
-29.44
-25.31
-21.36
-17.66
-13.95
-9.89
-5.33
-0.52
3.93
7.34
9.17
9.36
8.24
6.45
4.57
3.04
1.91
1.04
0.22
-0.71
-1.75
-2.82
-3.87
-4.92
-6.10
-7.52
-9.22
-11.11
-12.98
-14.66
-16.10
-17.34
-18.51
-19.68
-20.88
-22.04
-23.15
-24.30
-25.61
-27.21
-29.10
-31.02
-32.67
-33.76
-34.21
-34.25
-34.29
-34.76
-35.88
-37.45
-38.99
-39.81
-39.35
-37.36
-33.90
-29.36
-24.20
-18.90
-13.76
-8.99
-4.66
-0.75
2.75
5.89
8.63
10.93
12.72
13.95
14.65
14.90
14.84
14.62
14.33
14.02
13.71
13.41
13.21
13.13
13.19
13.27
13.19
12.76
11.82
10.36
8.50
6.49
4.54
2.83
1.35
0.00
-1.39
-2.97
-4.77
-6.78
-8.87
-10.90
-12.72
-14.20
-15.28
-15.99
-16.49
-16.99
-17.72
-18.87
-20.51
-22.65
-25.23
-28.11
-31.04
-33.63
-35.39
-35.86
-34.75
-32.15
-28.44
-24.20
-19.98
-16.09
-12.59
-9.37
-6.28
-3.26
-0.36
2.34
4.79
7.02
9.08
11.02
12.79
14.22
15.15
15.44
15.14
14.47
13.74
13.30
13.32
13.76
14.38
14.87
15.00
14.72
14.15
13.47
12.84
12.26
11.64
10.86
9.91
8.84
7.80
6.90
6.15
5.48
4.71
3.77
2.64
1.47
0.43
-0.35
-0.89
-1.37
-2.01
-2.96
-4.18
-5.48
-6.63
-7.55
-8.32
-9.18
-10.36
-11.95
-13.85
-15.80
-17.62
-19.24
-20.75
-22.28
-23.95
-25.78
-27.74
-29.81
-32.01
-34.37
-36.78
-38.93
-40.33
-40.41
-38.76
-35.30
-30.37
-24.59
-18.70
-13.26
-8.54
-4.47
-0.78
2.91
6.85
11.11
15.56
19.94
23.97
27.43
30.20
32.28
33.75
34.74
35.38
35.84
36.22
36.66
37.21
37.86
38.50
38.95
39.00
38.51
37.43
35.83
33.90
31.88
29.99
28.38
27.09
26.09
25.29
24.54
23.63
22.39
20.74
18.76
16.66
14.72
13.19
12.12
11.36
10.59
9.42
7.49
4.58
0.67
-4.05
-9.18
-14.26
-18.91
-22.96
-26.57
-30.12
-34.00
-38.32
-42.75
-46.55
-48.84
-48.92
-46.57
-42.08
-36.14
-29.52
-22.83
-16.39
-10.28
-4.47
1.06
6.19
10.63
14.01
15.98
16.37
15.36
13.48
11.49
10.16
9.97
10.92
12.58
14.35
15.72
16.42
16.48
16.05
15.27
14.22
12.92
11.45
9.96
8.60
7.40
6.27
5.00
3.39
1.33
-1.13
-3.80
-6.51
-9.08
-11.40
-13.44
-15.20
-16.77
-18.39
-20.42
-23.24
-27.20
-32.39
-38.56
-45.12
-51.19
-55.84
-58.22
-57.88
-54.84
-49.62
-43.03
-35.96
-29.07
-22.69
-16.85
-11.40
-6.22
-1.29
3.30
7.37
10.76
13.41
15.38
16.79
17.84
18.72
19.53
20.31
21.04
21.68
22.23
22.71
23.17
23.59
23.88
23.86
23.30
22.04
20.02
17.38
14.38
11.32
8.52
6.10
4.07
2.28
0.46
-1.62
-4.18
-7.24
-10.67
-14.21
-17.56
-20.55
-23.20
-25.75
-28.55
-31.96
-36.14
-41.00
-46.07
-50.70
-54.09
-55.53
-54.57
-51.09
-45.35
-37.90
-29.39
-20.42
-11.42
-2.64
5.78
13.70
20.91
27.13
32.07
35.58
37.73
38.79
39.14
39.19
39.20
39.27
39.39
39.49
39.53
39.54
39.57
39.62
39.62
39.44
38.95
38.09
36.91
35.50
33.99
32.48
30.97
29.42
27.77
25.99
24.12
22.23
20.42
18.71
17.02
15.24
13.21
10.88
8.26
5.46
2.60
-0.25
-3.02
-5.71
-8.31
-10.79
-13.15
-15.41
-17.64
-19.95
-22.39
-24.96
-27.68
-30.59
-33.83
-37.54
-41.80
-46.37
-50.69
-53.96
-55.32
-54.15
-50.34
-44.22
-36.57
-28.26
-20.07
-12.45
-5.51
0.87
6.96
12.94
18.87
24.63
29.98
34.64
38.33
40.93
42.44
43.02
42.93
42.44
41.81
41.19
40.68
40.31
40.00
39.67
39.19
38.41
37.28
35.79
34.02
32.11
30.15
28.22
26.35
24.60
23.05
21.74
20.69
19.76
18.78
17.58
16.14
14.50
12.86
11.37
10.10
9.03
8.08
7.19
6.31
5.44
4.57
3.67
2.68
1.61
0.50
-0.58
-1.64
-2.74
-4.03
-5.65
-7.66
-10.00
-12.48
-14.90
-17.10
-19.07
-20.92
-22.93
-25.41
-28.65
-32.73
-37.49
-42.42
-46.82
-49.91
-51.10
-50.13
-47.17
-42.74
-37.51
-32.11
-26.95
-22.18
-17.70
-13.31
-8.77
-3.98
1.01
5.97
10.57
14.48
17.47
19.52
20.75
21.44
21.94
22.49
23.25
24.19
25.15
25.89
26.18
25.93
25.14
23.98
22.67
21.42
20.37
19.56
19.00
18.66
18.50
18.42
18.29
17.92
17.13
15.85
14.18
12.33
10.59
9.15
8.08
7.25
6.47
5.53
4.33
2.93
1.45
-0.01
-1.38
-2.69
-4.01
-5.40
-6.83
-8.19
-9.35
-10.25
-10.93
-11.52
-12.21
-13.20
-14.62
-16.52
-18.88
-21.68
-24.87
-28.33
-31.80
-34.86
-36.97
-37.59
-36.44
-33.62
-29.60
-25.02
-20.45
-16.18
-12.21
-8.39
-4.59
-0.82
2.75
5.97
8.77
11.14
13.16
14.89
16.34
17.51
18.44
19.25
20.03
20.90
21.87
22.93
24.02
25.07
25.96
26.54
26.69
26.38
25.72
24.93
24.25
23.86
23.77
23.87
23.93
23.71
23.02
21.77
20.06
18.05
15.96
13.97
12.17
10.53
8.94
7.31
5.55
3.65
1.62
-0.55
-2.89
-5.41
-8.13
-11.00
-13.92
-16.82
-19.61
-22.25
-24.73
-27.05
-29.26
-31.42
-33.63
-35.99
-38.58
-41.44
-44.51
-47.56
-50.20
-51.94
-52.29
-50.98
-48.02
-43.71
-38.55
-33.05
-27.59
-22.38
-17.51
-13.02
-8.92
-5.23
-1.95
0.97
3.59
5.97
8.10
9.96
11.47
12.55
13.16
13.33
13.17
12.86
12.67
12.76
13.22
13.97
14.80
15.46
15.79
15.77
15.52
15.24
15.10
15.13
15.26
15.36
15.31
15.03
14.58
14.08
13.63
13.25
12.90
12.44
11.75
10.80
9.62
8.37
7.18
6.16
5.31
4.56
3.80
2.93
1.87
0.52
-1.27
-3.64
-6.64
-10.04
-13.32
-15.78
-16.77
-15.96
-13.48
-9.87
-5.85
-2.02
1.31
4.15
6.71
9.22
11.75
14.17
16.27
17.85
18.84
19.34
19.58
19.77
20.08
20.50
20.98
21.44
21.88
22.29
22.70
23.07
23.27
23.13
22.48
21.33
19.81
18.18
16.69
15.50
14.60
13.79
12.79
11.36
9.38
6.92
4.13
1.21
-1.67
-4.34
-6.65
-8.46
-9.65
-10.23
-10.41
-10.58
-11.26
-12.85
-15.56
-19.22
-23.34
-27.13
-29.71
-30.34
-28.62
-24.68
-19.11
-12.82
-6.71
-1.50
2.53
5.41
7.41
8.79
9.70
10.15
10.12
9.63
8.80
7.86
7.05
6.49
6.21
6.05
5.78
5.24
4.38
3.31
2.21
1.24
0.38
-0.46
-1.51
-2.88
-4.58
-6.51
-8.45
-10.23
-11.78
-13.15
-14.45
-15.85
-17.46
-19.39
-21.70
-24.42
-27.53
-30.92
-34.38
-37.69
-40.70
-43.39
-45.90
-48.44
-51.06
-53.58
-55.56
-56.40
-55.62
-53.06
-48.97
-43.93
-38.61
-33.52
-28.88
-24.60
-20.44
-16.21
-11.89
-7.61
-3.65
-0.18
2.74
5.15
7.19
8.95
10.46
11.69
12.57
13.07
13.23
13.12
12.85
12.56
12.34
12.20
12.10
11.94
11.57
10.89
9.87
8.53
7.00
5.41
3.86
2.34
0.72
-1.12
-3.30
-5.77
-8.32
-10.73
-12.86
-14.71
-16.45
-18.26
-20.28
-22.55
-25.10
-27.93
-31.10
-34.56
-38.06
-41.11
-43.05
-43.26
-41.44
-37.72
-32.67
-27.04
-21.51
-16.44
-11.92
-7.75
-3.74
0.23
4.15
7.91
11.42
14.63
17.50
19.98
21.99
23.40
24.17
24.37
24.23
24.05
24.13
24.62
25.47
26.47
27.30
27.68
27.43
26.53
25.15
23.51
21.85
20.34
19.02
17.87
16.75
15.54
14.09
12.34
10.34
8.21
6.16
4.36
2.88
1.65
0.50
-0.79
-2.41
-4.43
-6.82
-9.44
-12.16
-14.83
-17.37
-19.75
-22.03
-24.34
-26.87
-29.80
-33.24
-37.13
-41.12
-44.63
-46.90
-47.23
-45.15
-40.66
-34.20
-26.54
-18.57
-10.99
-4.20
1.77
7.16
12.29
17.45
22.74
28.05
33.15
37.72
41.55
44.50
46.61
48.00
48.85
49.34
49.62
49.82
50.03
50.29
50.53
50.63
50.46
49.91
48.99
47.79
46.44
45.01
43.44
41.55
39.13
36.03
32.20
27.76
22.99
18.23
13.80
9.96
6.82
4.31
2.16
0.04
-2.33
-5.09
-8.20
-11.48
-14.72
-17.78
-20.62
-23.37
-26.19
-29.29
-32.77
-36.60
-40.52
-44.10
-46.73
-47.78
-46.71
-43.29
-37.62
-30.16
-21.63
-12.80
-4.39
3.12
9.45
14.54
18.45
21.26
22.97
23.55
22.97
21.34
18.94
16.22
13.67
11.65
10.25
9.26
8.35
7.17
5.59
3.65
1.54
-0.60
-2.64
-4.53
-6.23
-7.60
-8.50
-8.86
-8.76
-8.43
-8.17
-8.21
-8.67
-9.54
-10.77
-12.29
-14.10
-16.20
-18.54
-21.02
-23.49
-25.83
-28.01
-30.19
-32.71
-36.00
-40.36
-45.72
-51.48
-56.53
-59.56
-59.45
-55.75
-48.77
-39.47
-29.08
-18.70
-9.00
-0.23
7.63
14.69
20.95
26.30
30.67
34.01
36.41
38.06
39.10
39.62
39.60
38.99
37.82
36.24
34.54
33.08
32.17
31.94
32.30
32.96
33.53
33.65
33.04
31.63
29.54
27.03
24.40
21.96
19.87
18.14
16.63
15.16
13.54
11.74
9.86
8.06
6.49
5.12
3.81
2.37
0.70
-1.16
-3.07
-4.89
-6.57
-8.19
-9.86
-11.63
-13.46
-15.26
-16.94
-18.56
-20.26
-22.23
-24.61
-27.59
-31.26
-35.69
-40.71
-45.81
-50.14
-52.68
-52.52
-49.29
-43.25
-35.24
-26.37
-17.66
-9.78
-2.92
3.00
8.26
13.09
17.64
21.92
25.85
29.25
31.93
33.72
34.57
34.58
34.01
33.26
32.75
32.74
33.32
34.30
35.34
36.02
36.05
35.34
34.01
32.37
30.70
29.21
27.99
26.97
26.13
25.43
24.86
24.35
23.80
23.02
21.90
20.44
18.81
17.30
16.10
15.26
14.62
13.91
12.91
11.52
9.83
8.02
6.28
4.66
3.10
1.44
-0.50
-2.85
-5.63
-8.75
-12.02
-15.21
-18.18
-20.91
-23.51
-26.24
-29.40
-33.20
-37.63
-42.34
-46.66
-49.68
-50.58
-48.86
-44.56
-38.18
-30.55
-22.55
-14.87
-7.93
-1.87
3.33
7.84
11.83
15.48
18.92
22.12
24.98
27.32
28.95
29.75
29.71
28.91
27.56
25.94
24.40
23.29
22.84
23.08
23.79
24.54
24.89
24.53
23.44
21.87
20.30
19.18
18.70
18.77
18.97
18.78
17.79
15.88
13.29
10.51
8.06
6.36
5.55
5.53
5.98
6.54
6.87
6.79
6.30
5.46
4.33
2.91
1.13
-1.05
-3.57
-6.25
-8.87
-11.28
-13.59
-16.10
-19.21
-23.22
-28.16
-33.68
-39.25
-44.16
-47.80
-49.65
-49.38
-46.90
-42.42
-36.50
-29.93
-23.57
-18.03
-13.50
-9.74
-6.25
-2.60
1.32
5.30
8.90
11.78
13.78
14.95
15.45
15.41
14.91
14.01
12.88
11.74
10.77
9.94
9.04
7.67
5.47
2.28
-1.77
-6.32
-10.84
-14.86
-18.03
-20.23
-21.54
-22.23
-22.63
-23.00
-23.44
-23.87
-24.19
-24.34
-24.46
-24.85
-25.90
-27.96
-31.23
-35.63
-40.71
-45.62
-49.26
-50.49
-48.57
-43.46
-35.86
-27.09
-18.55
-11.23
-5.46
-0.88
3.19
7.41
12.05
17.03
21.94
26.34
29.91
32.55
34.35
35.51
36.23
36.61
36.64
36.24
35.33
33.88
32.00
29.92
27.91
26.21
24.83
23.59
22.14
20.17
17.54
14.38
11.02
7.78
4.87
2.33
0.04
-2.15
-4.34
-6.52
-8.66
-10.78
-12.95
-15.29
-17.92
-20.97
-24.48
-28.47
-32.83
-37.28
-41.36
-44.52
-46.16
-45.91
-43.66
-39.64
-34.30
-28.17
-21.70
-15.17
-8.72
-2.44
3.57
9.14
14.10
18.29
21.63
24.06
25.65
26.46
26.63
26.34
25.75
25.04
24.31
23.60
22.92
22.26
21.54
20.69
19.65
18.40
16.95
15.40
13.84
12.31
10.81
9.28
7.67
5.92
4.03
2.02
-0.12
-2.36
-4.68
-7.04
-9.36
-11.58
-13.66
-15.60
-17.46
-19.34
-21.36
-23.60
-25.98
-28.24
-29.92
-30.53
-29.68
-27.29
-23.63
-19.20
-14.59
-10.24
-6.38
-2.99
0.03
2.82
5.48
8.08
10.69
13.37
16.11
18.83
21.31
23.31
24.61
25.07
24.70
23.62
21.98
20.00
17.88
15.85
14.12
12.84
12.07
11.73
11.69
11.77
11.80
11.60
11.04
9.97
8.34
6.28
4.04
1.99
0.45
-0.44
-0.72
-0.60
-0.29
-0.01
0.11
-0.05
-0.63
-1.69
-3.26
-5.20
-7.27
-9.22
-10.83
-12.10
-13.16
-14.27
-15.68
-17.65
-20.26
-23.43
-26.79
-29.77
-31.67
-31.90
-30.20
-26.75
-22.09
-16.88
-11.71
-6.87
-2.46
1.58
5.26
8.55
11.39
13.76
15.67
17.19
18.30
18.96
19.08
18.57
17.48
15.95
14.21
12.56
11.25
10.48
10.25
10.44
10.79
11.05
11.05
10.82
10.45
10.07
9.64
9.05
8.10
6.68
4.86
2.87
1.06
-0.27
-0.96
-1.04
-0.73
-0.33
-0.13
-0.29
-0.82
-1.66
-2.74
-4.05
-5.67
-7.65
-10.00
-12.62
-15.34
-17.96
-20.25
-21.93
-22.64
-21.94
-19.51
-15.33
-9.80
-3.59
2.49
7.88
12.42
16.26
19.70
22.87
25.64
27.63
28.46
28.03
26.60
24.76
23.19
22.41
22.54
23.32
24.22
24.69
24.42
23.37
21.79
20.04
18.41
17.04
15.98
15.20
14.73
14.69
15.12
16.00
17.07
17.90
17.98
16.93
14.62
11.25
7.22
3.02
-0.91
-4.39
-7.40
-10.08
-12.57
-14.98
-17.32
-19.58
-21.79
-24.00
-26.29
-28.60
-30.66
-31.95
-31.92
-30.16
-26.72
-22.10
-17.12
-12.61
-9.15
-6.89
-5.62
-4.91
-4.38
-3.76
-3.03
-2.31
-1.78
-1.65
-2.00
-2.84
-4.07
-5.55
-7.12
-8.58
-9.72
-10.31
-10.19
-9.37
-8.05
-6.62
-5.51
-4.96
-4.98
-5.38
-5.90
-6.38
-6.75
-7.04
-7.27
-7.41
-7.49
-7.64
-8.11
-9.13
-10.82
-12.99
-15.24
-17.15
-18.43
-19.10
-19.47
-19.95
-20.90
-22.45
-24.48
-26.63
-28.42
-29.38
-29.09
-27.40
-24.39
-20.40
-15.90
-11.31
-6.89
-2.77
1.04
4.44
7.22
9.13
9.96
9.80
8.99
8.01
7.35
7.26
7.74
8.54
9.31
9.74
9.61
8.91
7.76
6.42
5.18
4.26
3.76
3.63
3.74
3.94
4.11
4.17
4.07
3.73
3.07
2.03
0.62
-1.09
-2.93
-4.75
-6.41
-7.89
-9.25
-10.66
-12.30
-14.32
-16.76
-19.58
-22.67
-25.94
-29.28
-32.55
-35.52
-37.89
-39.24
-39.25
-37.73
-34.75
-30.59
-25.70
-20.54
-15.50
-10.83
-6.61
-2.82
0.64
3.85
6.85
9.58
11.97
13.94
15.47
16.62
17.49
18.18
18.78
19.37
19.95
20.52
21.06
21.46
21.61
21.41
20.83
19.99
19.07
18.29
17.75
17.47
17.38
17.39
17.43
17.43
17.29
16.85
15.93
14.50
12.69
10.76
9.06
7.82
7.05
6.61
6.23
5.62
4.64
3.24
1.55
-0.22
-1.88
-3.27
-4.35
-5.23
-6.10
-7.21
-8.69
-10.59
-12.78
-15.05
-17.21
-19.14
-20.86
-22.52
-24.32
-26.39
-28.72
-31.10
-33.16
-34.49
-34.70
-33.53
-30.87
-26.74
-21.32
-14.90
-7.87
-0.65
6.30
12.58
17.92
22.17
25.35
27.67
29.43
30.91
32.33
33.69
34.90
35.79
36.25
36.35
36.28
36.31
36.61
37.19
37.83
38.22
38.12
37.53
36.68
36.01
35.93
36.57
37.71
38.80
39.25
38.68
37.12
34.96
32.71
30.72
29.01
27.35
25.49
23.31
20.93
18.55
16.31
14.14
11.87
9.30
6.42
3.38
0.49
-1.97
-3.87
-5.21
-6.18
-7.10
-8.34
-10.33
-13.43
-17.81
-23.30
-29.37
-35.12
-39.52
-41.70
-41.10
-37.74
-32.18
-25.32
-18.18
-11.59
-6.06
-1.66
1.77
4.55
6.95
9.12
11.10
12.84
14.21
15.08
15.30
14.76
13.49
11.64
9.58
7.75
6.60
6.36
6.99
8.15
9.32
9.91
9.49
7.84
5.06
1.49
-2.41
-6.15
-9.35
-11.73
-13.27
-14.11
-14.55
-14.97
-15.75
-17.15
-19.25
-21.92
-24.88
-27.83
-30.46
-32.68
-34.57
-36.41
-38.48
-40.95
-43.70
-46.29
-48.09
-48.46
-47.00
-43.69
-38.88
-33.15
-27.09
-21.10
-15.38
-9.95
-4.78
0.05
4.40
8.01
10.72
12.51
13.55
14.18
14.77
15.53
16.44
17.33
17.87
17.84
17.19
16.08
14.85
13.80
13.13
12.80
12.63
12.39
11.96
11.36
10.70
10.05
9.32
8.34
6.94
5.07
2.83
0.42
-2.01
-4.37
-6.65
-8.77
-10.65
-12.21
-13.50
-14.75
-16.30
-18.41
-21.19
-24.54
-28.23
-32.00
-35.60
-38.70
-40.90
-41.70
-40.63
-37.50
-32.49
-26.13
-19.18
-12.34
-6.07
-0.54
4.33
8.71
12.74
16.46
19.82
22.72
25.05
26.77
27.87
28.44
28.59
28.46
28.19
27.93
27.79
27.83
28.03
28.26
28.30
27.90
26.91
25.29
23.21
20.97
18.88
17.12
15.71
14.49
13.24
11.82
10.23
8.54
6.82
5.11
3.37
1.55
-0.35
-2.29
-4.24
-6.15
-8.07
-10.01
-11.94
-13.78
-15.39
-16.79
-18.13
-19.69
-21.75
-24.37
-27.36
-30.23
-32.36
-33.18
-32.33
-29.68
-25.43
-19.98
-13.92
-7.82
-2.16
2.84
7.23
11.23
15.13
19.03
22.87
26.42
29.45
31.80
33.54
34.84
35.88
36.75
37.44
37.82
37.82
37.48
36.89
36.14
35.23
34.06
32.50
30.53
28.34
26.25
24.54
23.30
22.35
21.30
19.80
17.66
14.93
11.88
8.82
6.01
3.61
1.66
0.17
-0.90
-1.63
-2.17
-2.71
-3.44
-4.54
-6.13
-8.27
-10.94
-14.02
-17.26
-20.29
-22.66
-23.89
-23.64
-21.80
-18.49
-14.08
-9.07
-3.95
0.90
5.22
8.85
11.65
13.51
14.36
14.23
13.34
12.05
10.70
9.54
8.61
7.80
7.01
6.20
5.56
5.29
5.57
6.39
7.52
8.61
9.28
9.27
8.48
6.98
4.98
2.78
0.67
-1.06
-2.24
-2.80
-2.87
-2.71
-2.62
-2.90
-3.69
-4.97
-6.63
-8.50
-10.50
-12.67
-15.19
-18.28
-22.05
-26.39
-30.87
-34.85
-37.56
-38.43
-37.24
-34.25
-30.11
-25.59
-21.34
-17.77
-14.92
-12.70
-10.92
-9.44
-8.17
-7.04
-6.01
-5.01
-4.04
-3.09
-2.18
-1.26
-0.26
0.86
2.11
3.43
4.68
5.80
6.73
7.48
8.00
8.18
7.84
6.85
5.24
3.25
1.26
-0.38
-1.52
-2.30
-3.03
-4.04
-5.48
-7.24
-9.09
-10.78
-12.24
-13.53
-14.83
-16.28
-17.89
-19.59
-21.32
-23.07
-24.98
-27.18
-29.69
-32.31
-34.60
-35.97
-35.92
-34.21
-30.98
-26.68
-21.95
-17.39
-13.31
-9.74
-6.45
-3.11
0.47
4.30
8.17
11.81
14.96
17.53
19.53
21.02
22.03
22.50
22.45
21.94
21.16
20.35
19.71
19.33
19.12
18.93
18.54
17.85
16.86
15.70
14.59
13.71
13.11
12.71
12.33
11.83
11.16
10.41
9.70
9.11
8.63
8.17
7.68
7.19
6.82
6.68
6.72
6.76
6.54
5.86
4.68
3.20
1.69
0.44
-0.42
-0.92
-1.21
-1.49
-1.96
-2.66
-3.58
-4.63
-5.74
-6.88
-8.08
-9.39
-10.83
-12.35
-13.82
-15.15
-16.28
-17.31
-18.38
-19.69
-21.36
-23.34
-25.53
-27.72
-29.80
-31.73
-33.48
-34.96
-35.95
-36.04
-34.84
-32.10
-27.94
-22.79
-17.26
-11.95
-7.25
-3.17
0.46
3.94
7.47
11.14
14.82
18.34
21.52
24.26
26.51
28.28
29.54
30.28
30.55
30.51
30.42
30.57
31.17
32.21
33.50
34.65
35.30
35.22
34.36
32.84
30.89
28.73
26.52
24.38
22.37
20.57
18.98
17.62
16.43
15.32
14.20
13.01
11.74
10.44
9.13
7.82
6.48
5.03
3.47
1.84
0.23
-1.23
-2.48
-3.50
-4.30
-4.93
-5.51
-6.17
-7.10
-8.56
-10.79
-13.90
-17.79
-22.02
-25.89
-28.61
-29.52
-28.34
-25.26
-20.90
-16.01
-11.27
-7.05
-3.41
-0.22
2.70
5.36
7.65
9.37
10.35
10.54
10.08
9.27
8.54
8.25
8.66
9.80
11.41
13.08
14.33
14.79
14.34
13.05
11.17
8.96
6.66
4.42
2.38
0.64
-0.73
-1.72
-2.49
-3.28
-4.34
-5.83
-7.76
-10.00
-12.41
-14.83
-17.18
-19.40
-21.47
-23.34
-25.07
-26.78
-28.67
-30.92
-33.65
-36.78
-39.99
-42.78
-44.59
-44.94
-43.51
-40.30
-35.62
-30.02
-24.18
-18.72
-14.12
-10.51
-7.78
-5.60
-3.58
-1.43
0.89
3.26
5.39
7.03
8.05
8.48
8.48
8.26
8.07
8.12
8.55
9.44
10.70
12.12
13.40
14.22
14.41
13.97
13.05
11.86
10.56
9.18
7.65
5.96
4.16
2.47
1.14
0.33
-0.04
-0.20
-0.53
-1.35
-2.81
-4.85
-7.29
-9.88
-12.42
-14.79
-16.92
-18.82
-20.66
-22.67
-25.18
-28.41
-32.30
-36.40
-39.91
-41.96
-41.88
-39.48
-35.07
-29.34
-23.02
-16.74
-10.83
-5.44
-0.63
3.62
7.34
10.66
13.77
16.79
19.75
22.46
24.70
26.28
27.29
27.96
28.62
29.48
30.47
31.35
31.82
31.65
30.83
29.47
27.71
25.70
23.48
21.14
18.81
16.67
14.87
13.50
12.49
11.69
10.92
10.07
9.10
8.06
6.98
5.93
4.93
3.95
2.92
1.70
0.02
-2.32
-5.39
-9.06
-12.97
-16.75
-20.20
-23.41
-26.68
-30.34
-34.49
-38.94
-43.29
-46.99
-49.58
-50.66
-50.00
-47.46
-43.04
-36.95
-29.60
-21.60
-13.59
-6.11
0.59
6.51
11.80
16.67
21.18
25.20
28.47
30.74
31.93
32.14
31.67
30.83
29.87
28.91
28.03
27.24
26.52
25.82
25.02
23.98
22.60
20.97
19.28
17.82
16.78
16.12
15.58
14.81
13.49
11.47
8.84
5.77
2.43
-1.11
-4.85
-8.70
-12.43
-15.69
-18.13
-19.57
-20.15
-20.26
-20.40
-21.02
-22.33
-24.31
-26.76
-29.34
-31.66
-33.30
-33.82
-32.83
-30.11
-25.72
-19.97
-13.41
-6.62
-0.08
5.98
11.60
16.93
22.09
27.02
31.42
34.92
37.27
38.44
38.68
38.38
37.83
37.13
36.17
34.84
33.17
31.41
29.98
29.28
29.51
30.60
32.25
33.99
35.34
35.90
35.50
34.23
32.47
30.73
29.40
28.59
28.00
27.04
25.08
21.67
16.73
10.56
3.65
-3.34
-9.70
-14.81
-18.17
-19.63
-19.40
-18.06
-16.34
-14.90
-14.09
-13.92
-14.11
-14.30
-14.24
-13.85
-13.34
-13.02
-13.29
-14.37
-16.20
-18.34
-20.01
-20.32
-18.60
-14.69
-9.01
-2.50
3.83
9.17
13.23
16.19
18.52
20.65
22.79
24.95
26.95
28.61
29.79
30.36
30.19
29.22
27.56
25.59
23.87
22.99
23.26
24.55
26.28
27.68
28.13
27.37
25.61
23.36
21.20
19.50
18.37
17.65
17.16
16.74
16.38
16.14
16.00
15.83
15.32
14.17
12.21
9.54
6.44
3.26
0.23
-2.57
-5.16
-7.52
-9.61
-11.32
-12.62
-13.68
-14.78
-16.23
-18.14
-20.32
-22.28
-23.48
-23.45
-22.04
-19.38
-15.91
-12.15
-8.59
-5.59
-3.27
-1.65
-0.72
-0.49
-0.95
-2.00
-3.33
-4.45
-4.92
-4.50
-3.35
-1.88
-0.56
0.34
0.86
1.21
1.50
1.57
1.04
-0.39
-2.75
-5.61
-8.35
-10.39
-11.53
-11.95
-12.05
-12.14
-12.32
-12.58
-12.96
-13.67
-15.05
-17.34
-20.46
-23.98
-27.33
-30.04
-31.94
-33.19
-34.19
-35.23
-36.50
-37.96
-39.43
-40.69
-41.48
-41.60
-40.85
-39.11
-36.36
-32.72
-28.43
-23.75
-18.97
-14.34
-10.00
-5.97
-2.19
1.40
4.80
7.90
10.56
12.66
14.13
15.03
15.45
15.50
15.30
14.97
14.61
14.31
14.08
13.85
13.45
12.77
11.76
10.49
9.14
7.83
6.70
5.76
5.03
4.47
4.02
3.59
3.09
2.44
1.59
0.55
-0.63
-1.89
-3.11
-4.16
-4.93
-5.36
-5.54
-5.72
-6.29
-7.58
-9.73
-12.57
-15.71
-18.70
-21.26
-23.26
-24.79
-25.92
-26.66
-26.82
-26.13
-24.37
-21.53
-17.84
-13.76
-9.80
-6.38
-3.70
-1.72
-0.21
1.13
2.59
4.31
6.31
8.46
10.53
12.27
13.46
13.99
13.89
13.34
12.64
12.07
11.80
11.80
11.91
11.87
11.45
10.61
9.47
8.24
7.06
6.01
5.01
3.98
2.98
2.12
1.60
1.48
1.67
1.88
1.80
1.31
0.53
-0.26
-0.75
-0.84
-0.66
-0.47
-0.52
-0.84
-1.31
-1.69
-1.82
-1.71
-1.51
-1.44
-1.59
-1.98
-2.51
-3.08
-3.70
-4.48
-5.64
-7.32
-9.52
-11.97
-14.24
-15.91
-16.81
-17.12
-17.23
-17.57
-18.22
-18.85
-18.81
-17.49
-14.62
-10.46
-5.63
-0.90
3.18
6.39
8.84
10.81
12.69
14.81
17.40
20.49
23.82
26.96
29.34
30.55
30.43
29.15
27.15
24.93
22.89
21.25
19.98
18.92
17.86
16.69
15.43
14.16
12.98
11.87
10.72
9.48
8.29
7.48
7.48
8.52
10.45
12.75
14.78
15.98
16.20
15.57
14.32
12.63
10.51
7.96
5.10
2.27
-0.15
-1.86
-2.86
-3.38
-3.83
-4.59
-5.88
-7.79
-10.23
-12.99
-15.76
-18.15
-19.74
-20.19
-19.34
-17.24
-14.19
-10.58
-6.89
-3.52
-0.84
0.88
1.52
1.15
0.07
-1.32
-2.64
-3.66
-4.41
-5.04
-5.74
-6.62
-7.62
-8.61
-9.42
-9.95
-10.14
-9.99
-9.54
-8.93
-8.38
-8.15
-8.49
-9.44
-10.83
-12.27
-13.38
-13.94
-13.99
-13.75
-13.50
-13.38
-13.36
-13.25
-12.86
-12.20
-11.46
-10.97
-11.01
-11.71
-12.91
-14.39
-15.89
-17.31
-18.72
-20.34
-22.33
-24.76
-27.46
-30.10
-32.26
-33.55
-33.69
-32.56
-30.17
-26.68
-22.37
-17.66
-12.97
-8.71
-5.13
-2.23
0.17
2.30
4.29
6.03
7.27
7.80
7.52
6.58
5.27
3.97
3.02
2.67
3.10
4.32
6.17
8.35
10.52
12.44
14.01
15.20
15.98
16.20
15.71
14.45
12.63
10.64
8.85
7.38
6.02
4.37
2.19
-0.47
-3.21
-5.52
-7.06
-7.82
-8.13
-8.45
-9.10
-10.17
-11.47
-12.69
-13.58
-14.05
-14.27
-14.59
-15.34
-16.80
-19.04
-21.97
-25.48
-29.49
-33.86
-38.42
-42.75
-46.20
-48.01
-47.56
-44.62
-39.44
-32.74
-25.42
-18.34
-12.08
-6.76
-2.22
1.89
5.87
9.82
13.65
17.17
20.22
22.75
24.79
26.37
27.47
28.03
28.09
27.84
27.58
27.58
27.96
28.61
29.28
29.75
30.04
30.35
30.93
31.91
33.15
34.26
34.91
34.92
34.43
33.73
33.09
32.64
32.26
31.74
30.89
29.66
28.09
26.29
24.31
22.19
19.98
17.81
15.85
14.25
12.95
11.68
10.07
7.86
5.04
1.91
-1.03
-3.40
-5.08
-6.30
-7.52
-9.22
-11.72
-15.07
-19.13
-23.60
-28.08
-32.09
-35.12
-36.66
-36.40
-34.31
-30.63
-25.85
-20.50
-15.05
-9.83
-5.06
-0.89
2.69
5.73
8.41
10.91
13.34
15.62
17.57
19.01
19.97
20.68
21.52
22.83
24.66
26.78
28.71
29.88
29.87
28.48
25.78
22.08
17.87
13.69
10.08
7.44
5.93
5.45
5.69
6.17
6.43
6.14
5.13
3.40
1.16
-1.35
-3.85
-6.20
-8.39
-10.59
-13.02
-15.88
-19.23
-23.09
-27.42
-32.25
-37.52
-43.02
-48.18
-52.19
-54.13
-53.37
-49.85
-44.07
-36.96
-29.49
-22.37
-15.94
-10.20
-5.00
-0.17
4.35
8.53
12.27
15.45
17.93
19.60
20.37
20.23
19.34
17.97
16.48
15.25
14.55
14.49
14.98
15.82
16.70
17.30
17.40
16.92
15.95
14.78
13.73
13.05
12.75
12.62
12.31
11.52
10.13
8.29
6.28
4.33
2.52
0.78
-1.05
-3.03
-5.13
-7.23
-9.25
-11.26
-13.45
-16.04
-19.16
-22.85
-27.02
-31.57
-36.42
-41.41
-46.24
-50.37
-53.06
-53.65
-51.74
-47.36
-40.98
-33.35
-25.22
-17.18
-9.57
-2.54
3.93
9.90
15.49
20.76
25.76
30.40
34.51
37.91
40.40
41.92
42.55
42.48
41.96
41.22
40.41
39.55
38.58
37.45
36.12
34.65
33.15
31.73
30.38
28.98
27.29
25.18
22.66
19.99
17.51
15.55
14.26
13.49
12.98
12.40
11.56
10.44
9.15
7.83
6.54
5.29
3.99
2.58
1.05
-0.57
-2.19
-3.77
-5.24
-6.59
-7.86
-9.10
-10.39
-11.83
-13.49
-15.38
-17.47
-19.67
-21.90
-24.10
-26.34
-28.81
-31.75
-35.28
-39.25
-43.17
-46.26
-47.73
-47.01
-43.96
-38.91
-32.43
-25.17
-17.59
-9.97
-2.47
4.78
11.61
17.86
23.42
28.21
32.24
35.45
37.79
39.23
39.82
39.73
39.29
38.82
38.58
38.65
38.97
39.32
39.53
39.46
39.08
38.40
37.43
36.16
34.60
32.83
30.98
29.21
27.63
26.24
24.85
23.29
21.39
19.15
16.65
14.07
11.55
9.21
7.08
5.21
3.59
2.21
1.01
-0.16
-1.47
-3.11
-5.15
-7.58
-10.22
-12.75
-14.90
-16.45
-17.42
-18.06
-18.82
-20.18
-22.47
-25.66
-29.27
-32.51
-34.49
-34.52
-32.37
-28.39
-23.29
-17.95
-13.06
-8.97
-5.68
-2.98
-0.61
1.56
3.51
5.12
6.28
6.89
6.96
6.54
5.81
4.95
4.22
3.82
3.84
4.20
4.69
4.96
4.71
3.81
2.33
0.57
-1.14
-2.49
-3.35
-3.78
-3.97
-4.16
-4.55
-5.23
-6.21
-7.41
-8.71
-10.00
-11.14
-12.04
-12.61
-12.82
-12.74
-12.60
-12.71
-13.35
-14.69
-16.62
-18.88
-21.14
-23.26
-25.34
-27.65
-30.38
-33.48
-36.46
-38.61
-39.19
-37.78
-34.40
-29.47
-23.62
-17.40
-11.19
-5.13
0.73
6.31
11.46
15.90
19.37
21.73
23.00
23.39
23.22
22.78
22.28
21.78
21.27
20.76
20.32
20.13
20.33
20.92
21.72
22.32
22.34
21.55
20.01
18.08
16.21
14.75
13.81
13.16
12.41
11.16
9.12
6.25
2.75
-1.06
-4.82
-8.25
-11.22
-13.74
-15.91
-17.84
-19.54
-20.96
-22.00
-22.55
-22.60
-22.27
-21.75
-21.29
-21.10
-21.31
-21.90
-22.74
-23.66
-24.47
-25.08
-25.48
-25.64
-25.45
-24.70
-23.13
-20.54
-16.90
-12.41
-7.39
-2.21
2.86
7.64
12.06
16.05
19.47
22.16
23.95
24.77
24.73
24.12
23.34
22.82
22.85
23.46
24.40
25.25
25.50
24.85
23.26
20.95
18.31
15.71
13.39
11.47
9.90
8.59
7.39
6.18
4.80
3.19
1.35
-0.57
-2.39
-3.91
-5.01
-5.68
-6.00
-6.13
-6.27
-6.64
-7.53
-9.11
-11.47
-14.45
-17.79
-21.11
-24.00
-26.13
-27.21
-27.05
-25.58
-22.85
-19.08
-14.58
-9.73
-4.91
-0.46
3.36
6.35
8.53
10.12
11.52
13.15
15.24
17.63
19.86
21.39
21.88
21.33
20.12
18.74
17.59
16.81
16.37
16.12
15.94
15.72
15.37
14.76
13.78
12.47
11.04
9.87
9.31
9.57
10.52
11.81
12.94
13.50
13.31
12.39
11.00
9.39
7.82
6.50
5.55
5.04
4.93
5.06
5.22
5.15
4.71
3.90
2.88
1.87
1.05
0.49
0.14
-0.14
-0.46
-0.94
-1.69
-2.84
-4.51
-6.73
-9.37
-12.02
-14.11
-14.96
-14.08
-11.36
-7.14
-2.20
2.58
6.50
9.22
10.86
11.78
12.37
12.86
13.30
13.61
13.69
13.51
13.08
12.46
11.73
10.97
10.34
9.98
10.00
10.37
10.94
11.46
11.71
11.59
11.11
10.39
9.52
8.53
7.38
6.04
4.48
2.76
1.01
-0.71
-2.38
-4.08
-5.88
-7.83
-9.88
-11.92
-13.76
-15.28
-16.40
-17.14
-17.58
-17.85
-18.16
-18.66
-19.53
-20.82
-22.50
-24.34
-26.05
-27.22
-27.48
-26.62
-24.62
-21.75
-18.45
-15.23
-12.50
-10.44
-8.96
-7.85
-6.88
-5.96
-5.11
-4.42
-3.93
-3.58
-3.27
-2.96
-2.70
-2.56
-2.60
-2.74
-2.77
-2.48
-1.82
-0.98
-0.34
-0.25
-0.91
-2.20
-3.82
-5.38
-6.68
-7.67
-8.47
-9.19
-9.87
-10.44
-10.87
-11.19
-11.58
-12.22
-13.22
-14.53
-15.95
-17.26
-18.30
-19.05
-19.62
-20.15
-20.73
-21.40
-22.10
-22.68
-22.95
-22.72
-21.84
-20.25
-17.98
-15.14
-11.85
-8.23
-4.38
-0.43
3.46
7.05
10.10
12.36
13.71
14.08
13.59
12.49
11.09
9.71
8.55
7.66
6.92
6.21
5.46
4.74
4.20
4.01
4.14
4.47
4.78
4.94
4.96
4.98
5.22
5.73
6.43
7.09
7.45
7.38
6.86
5.96
4.68
2.96
0.64
-2.39
-6.04
-9.99
-13.76
-16.87
-19.05
-20.33
-20.92
-21.10
-21.06
-20.89
-20.62
-20.32
-20.21
-20.42
-20.95
-21.56
-21.81
-21.29
-19.75
-17.19
-13.84
-10.03
-6.04
-2.12
1.52
4.73
7.43
9.72
11.82
14.03
16.45
18.95
21.15
22.67
23.31
23.17
22.57
21.86
21.25
20.73
20.22
19.68
19.17
18.86
18.84
19.09
19.50
19.93
20.35
20.86
21.61
22.64
23.82
24.90
25.61
25.85
25.67
25.29
24.95
24.78
24.79
24.92
25.03
25.07
24.96
24.63
23.97
22.90
21.38
19.49
17.35
15.06
12.64
10.06
7.28
4.37
1.44
-1.39
-4.12
-6.98
-10.28
-14.26
-18.86
-23.63
-27.83
-30.67
-31.60
-30.52
-27.73
-23.83
-19.49
-15.23
-11.37
-8.04
-5.20
-2.71
-0.43
1.82
4.08
6.25
8.11
9.38
9.87
9.63
8.91
8.11
7.57
7.43
7.59
7.79
7.78
7.42
6.74
5.84
4.86
3.89
2.96
2.06
1.19
0.41
-0.20
-0.54
-0.57
-0.40
-0.25
-0.44
-1.20
-2.52
-4.07
-5.34
-5.87
-5.57
-4.77
-4.14
-4.33
-5.68
-8.11
-11.30
-14.90
-18.74
-22.78
-26.88
-30.60
-33.22
-33.97
-32.44
-28.85
-24.00
-18.97
-14.71
-11.68
-9.74
-8.35
-6.91
-5.07
-2.93
-0.91
0.50
1.01
0.70
-0.09
-0.92
-1.51
-1.81
-1.98
-2.12
-2.20
-2.04
-1.44
-0.35
0.98
2.16
2.75
2.50
1.39
-0.36
-2.48
-4.71
-6.90
-8.95
-10.82
-12.43
-13.77
-14.90
-16.01
-17.29
-18.93
-20.97
-23.28
-25.65
-27.87
-29.85
-31.62
-33.36
-35.25
-37.43
-39.95
-42.63
-45.13
-46.96
-47.60
-46.64
-43.90
-39.48
-33.67
-26.89
-19.60
-12.24
-5.19
1.24
6.92
11.84
16.14
19.96
23.33
26.15
28.20
29.38
29.73
29.54
29.21
29.09
29.36
29.97
30.71
31.27
31.39
30.93
29.89
28.41
26.72
25.07
23.64
22.51
21.68
20.99
20.28
19.38
18.18
16.61
14.66
12.38
9.88
7.33
4.90
2.68
0.71
-1.07
-2.77
-4.47
-6.28
-8.29
-10.55
-13.11
-15.95
-18.92
-21.83
-24.53
-27.03
-29.58
-32.52
-36.12
-40.26
-44.43
-47.75
-49.29
-48.36
-44.78
-38.92
-31.52
-23.43
-15.36
-7.71
-0.66
5.82
11.71
16.97
21.49
25.22
28.21
30.55
32.35
33.63
34.33
34.42
33.96
33.18
32.48
32.15
32.28
32.74
33.18
33.28
32.85
31.91
30.60
29.15
27.75
26.58
25.80
25.43
25.39
25.42
25.23
24.54
23.28
21.59
19.73
17.95
16.34
14.85
13.33
11.72
10.07
8.46
6.92
5.32
3.51
1.34
-1.13
-3.64
-5.88
-7.62
-8.85
-9.80
-10.84
-12.21
-13.95
-15.86
-17.60
-18.97
-20.03
-21.09
-22.67
-25.12
-28.43
-32.13
-35.41
-37.36
-37.35
-35.15
-30.96
-25.28
-18.65
-11.49
-4.11
3.26
10.39
17.03
22.92
27.94
32.10
35.53
38.42
40.95
43.14
44.92
46.07
46.34
45.52
43.62
40.90
37.84
35.01
32.86
31.55
30.93
30.63
30.22
29.41
28.12
26.43
24.48
22.44
20.38
18.31
16.21
14.04
11.79
9.47
7.15
4.89
2.81
0.98
-0.60
-1.95
-3.15
-4.29
-5.47
-6.68
-7.90
-9.02
-10.01
-10.91
-11.96
-13.56
-16.06
-19.59
-23.86
-28.17
-31.57
-33.17
-32.43
-29.34
-24.34
-18.11
-11.31
-4.44
2.16
8.32
13.87
18.64
22.45
25.13
26.58
26.75
25.70
23.65
20.98
18.18
15.72
13.93
12.86
12.32
11.99
11.53
10.78
9.72
8.50
7.27
6.14
5.10
4.03
2.70
0.87
-1.61
-4.77
-8.46
-12.35
-16.12
-19.57
-22.61
-25.38
-28.01
-30.54
-32.82
-34.61
-35.70
-36.11
-36.26
-36.79
-38.33
-41.16
-44.90
-48.62
-51.08
-51.26
-48.71
-43.75
-37.23
-30.22
-23.59
-17.82
-12.94
-8.75
-4.98
-1.48
1.76
4.70
7.23
9.33
10.96
12.13
12.88
13.23
13.24
13.02
12.70
12.44
12.35
12.52
12.93
13.49
14.02
14.29
14.10
13.28
11.82
9.85
7.65
5.55
3.82
2.53
1.58
0.77
-0.12
-1.16
-2.39
-3.82
-5.54
-7.69
-10.33
-13.35
-16.50
-19.45
-22.04
-24.39
-26.83
-29.66
-32.88
-36.07
-38.54
-39.58
-38.79
-36.21
-32.20
-27.29
-21.95
-16.50
-11.08
-5.73
-0.40
5.03
10.66
16.48
22.25
27.56
31.93
34.99
36.65
37.03
36.44
35.16
33.41
31.32
28.99
26.52
24.00
21.55
19.26
17.21
15.54
14.28
13.49
13.11
13.06
13.31
13.86
14.67
15.61
16.41
16.72
16.32
15.16
13.41
11.36
9.20
6.95
4.52
1.84
-1.02
-3.86
-6.49
-8.88
-11.21
-13.66
-16.29
-18.92
-21.16
-22.74
-23.59
-23.94
-24.15
-24.56
-25.34
-26.52
-28.02
-29.66
-31.21
-32.28
-32.43
-31.30
-28.74
-24.91
-20.21
-15.07
-9.81
-4.59
0.52
5.45
10.01
14.04
17.43
20.26
22.66
24.77
26.59
27.99
28.79
28.90
28.39
27.55
26.72
26.25
26.30
26.77
27.43
27.96
28.15
27.93
27.39
26.68
25.95
25.24
24.56
23.85
23.06
22.13
21.00
19.59
17.86
15.87
13.72
11.63
9.77
8.28
7.13
6.20
5.29
4.22
2.87
1.29
-0.36
-1.91
-3.20
-4.20
-5.04
-5.94
-7.04
-8.43
-10.06
-11.86
-13.78
-15.81
-17.93
-20.02
-21.77
-22.81
-22.83
-21.78
-19.81
-17.33
-14.75
-12.37
-10.26
-8.29
-6.32
-4.30
-2.37
-0.71
0.50
1.28
1.79
2.25
2.73
3.15
3.23
2.77
1.76
0.45
-0.73
-1.47
-1.74
-1.78
-1.99
-2.62
-3.66
-4.84
-5.84
-6.44
-6.67
-6.69
-6.70
-6.82
-7.02
-7.23
-7.39
-7.49
-7.58
-7.71
-7.91
-8.22
-8.62
-9.06
-9.51
-9.92
-10.33
-10.87
-11.71
-12.96
-14.58
-16.40
-18.17
-19.71
-21.05
-22.39
-23.99
-26.01
-28.37
-30.77
-32.76
-33.87
-33.79
-32.39
-29.72
-25.95
-21.36
-16.25
-10.94
-5.78
-1.08
2.94
6.19
8.79
11.01
13.13
15.30
17.44
19.31
20.61
21.16
20.98
20.25
19.24
18.21
17.28
16.51
15.89
15.39
14.93
14.40
13.63
12.49
10.92
8.99
6.92
4.98
3.43
2.45
2.06
2.20
2.76
3.59
4.58
5.61
6.58
7.35
7.84
8.00
7.83
7.34
6.55
5.53
4.36
3.21
2.26
1.69
1.55
1.76
2.09
2.26
2.06
1.42
0.43
-0.73
-1.91
-3.04
-4.13
-5.31
-6.63
-8.08
-9.55
-10.85
-11.86
-12.54
-12.97
-13.31
-13.79
-14.56
-15.72
-17.30
-19.18
-21.10
-22.68
-23.44
-22.99
-21.13
-18.02
-14.08
-9.95
-6.17
-3.04
-0.54
1.65
3.96
6.74
10.09
13.81
17.48
20.62
22.84
23.97
24.12
23.59
22.76
21.98
21.43
21.15
21.07
21.13
21.26
21.42
21.55
21.55
21.26
20.50
19.16
17.27
15.02
12.71
10.63
9.01
7.85
7.11
6.66
6.44
6.45
6.70
7.17
7.74
8.23
8.46
8.37
7.98
7.40
6.71
5.94
5.03
3.90
2.47
0.68
-1.41
-3.67
-5.89
-7.84
-9.39
-10.65
-11.91
-13.59
-15.99
-19.12
-22.60
-25.73
-27.79
-28.28
-27.08
-24.41
-20.77
-16.66
-12.51
-8.63
-5.19
-2.31
-0.03
1.69
2.87
3.55
3.73
3.36
2.49
1.25
-0.07
-1.14
-1.70
-1.67
-1.20
-0.56
-0.00
0.31
0.31
-0.02
-0.73
-1.84
-3.35
-5.08
-6.81
-8.29
-9.44
-10.34
-11.21
-12.26
-13.59
-15.10
-16.57
-17.78
-18.63
-19.16
-19.51
-19.85
-20.28
-20.79
-21.33
-21.84
-22.29
-22.69
-23.05
-23.37
-23.65
-23.96
-24.47
-25.38
-26.83
-28.81
-31.05
-33.09
-34.43
-34.67
-33.64
-31.39
-28.12
-24.08
-19.52
-14.65
-9.71
-4.92
-0.47
3.54
7.09
10.26
13.10
15.62
17.73
19.36
20.41
20.94
21.05
20.88
20.48
19.83
18.85
17.53
15.96
14.33
12.86
11.70
10.88
10.27
9.71
9.06
8.28
7.43
6.64
6.01
5.60
5.44
5.48
5.62
5.75
5.74
5.52
5.09
4.55
3.99
3.42
2.71
1.54
-0.41
-3.25
-6.78
-10.45
-13.64
-15.88
-17.04
-17.35
-17.29
-17.35
-17.93
-19.33
-21.71
-25.07
-29.22
-33.65
-37.55
-39.97
-40.11
-37.70
-33.11
-27.25
-21.25
-15.97
-11.81
-8.61
-5.91
-3.21
-0.23
3.10
6.66
10.27
13.72
16.78
19.20
20.69
21.11
20.55
19.32
17.83
16.48
15.51
14.95
14.81
15.00
15.49
16.22
17.04
17.70
17.94
17.60
16.71
15.52
14.41
13.71
13.49
13.58
13.57
13.00
11.66
9.64
7.32
5.15
3.43
2.18
1.10
-0.15
-1.78
-3.76
-5.88
-7.92
-9.82
-11.69
-13.77
-16.22
-19.09
-22.36
-25.91
-29.64
-33.43
-37.07
-40.24
-42.46
-43.24
-42.20
-39.23
-34.54
-28.62
-22.14
-15.73
-9.81
-4.57
0.09
4.33
8.32
12.10
15.60
18.73
21.40
23.51
24.93
25.51
25.14
23.90
22.13
20.32
19.01
18.55
18.94
19.87
20.83
21.36
21.22
20.47
19.34
18.15
17.12
16.33
15.72
15.13
14.44
13.55
12.48
11.25
9.92
8.51
7.03
5.41
3.65
1.75
-0.23
-2.18
-4.02
-5.77
-7.50
-9.40
-11.69
-14.52
-18.02
-22.16
-26.82
-31.63
-36.02
-39.22
-40.44
-39.09
-35.07
-28.82
-21.27
-13.49
-6.36
-0.33
4.65
8.95
13.06
17.30
21.76
26.28
30.56
34.31
37.27
39.29
40.31
40.31
39.38
37.71
35.60
33.47
31.67
30.40
29.60
28.98
28.14
26.83
25.03
22.99
21.06
19.51
18.32
17.23
15.90
14.05
11.73
9.23
7.00
5.48
4.85
4.99
5.48
5.75
5.31
3.89
1.53
-1.52
-4.87
-8.22
-11.41
-14.51
-17.64
-20.92
-24.34
-27.68
-30.50
-32.27
-32.47
-30.69
-26.81
-21.01
-13.78
-5.78
2.33
10.08
17.24
23.85
29.98
35.68
40.78
44.94
47.76
49.00
48.72
47.29
45.27
43.12
41.12
39.29
37.55
35.84
34.23
32.80
31.53
30.22
28.60
26.49
23.91
21.14
18.52
16.26
14.39
12.79
11.40
10.27
9.54
9.28
9.34
9.29
8.58
6.84
4.02
0.43
-3.37
-6.85
-9.68
-11.84
-13.63
-15.44
-17.63
-20.29
-23.23
-25.98
-27.98
-28.73
-27.91
-25.52
-21.80
-17.20
-12.21
-7.34
-3.00
0.47
2.89
4.21
4.54
4.08
3.14
2.03
1.01
0.30
0.00
0.13
0.59
1.20
1.72
1.92
1.66
0.92
-0.17
-1.47
-2.85
-4.33
-6.03
-8.05
-10.42
-13.02
-15.63
-17.99
-19.92
-21.32
-22.23
-22.80
-23.22
-23.71
-24.51
-25.73
-27.45
-29.70
-32.44
-35.67
-39.31
-43.18
-46.88
-49.88
-51.54
-51.36
-49.11
-44.93
-39.25
-32.63
-25.67
-18.82
-12.36
-6.43
-1.02
4.03
8.90
13.73
18.51
23.01
26.88
29.80
31.60
32.37
32.33
31.76
30.84
29.68
28.43
27.30
26.56
26.30
26.32
26.04
24.80
22.19
18.33
13.88
9.76
6.72
5.01
4.32
4.01
3.45
2.29
0.44
-2.00
-4.89
-8.13
-11.64
-15.23
-18.64
-21.67
-24.28
-26.68
-29.27
-32.38
-36.12
-40.19
-43.91
-46.46
-47.10
-45.40
-41.34
-35.25
-27.78
-19.64
-11.54
-3.96
2.85
8.91
14.38
19.40
23.94
27.83
30.83
32.79
33.81
34.16
34.17
34.05
33.81
33.38
32.72
31.91
31.18
30.69
30.47
30.36
30.09
29.48
28.49
27.21
25.78
24.32
22.92
21.62
20.44
19.37
18.34
17.20
15.79
14.10
12.21
10.38
8.85
7.73
6.91
6.15
5.16
3.76
1.90
-0.36
-2.92
-5.75
-8.77
-11.85
-14.72
-17.08
-18.74
-19.74
-20.42
-21.26
-22.63
-24.58
-26.80
-28.80
-30.23
-31.06
-31.70
-32.81
-34.91
-38.17
-42.29
-46.53
-50.05
-52.09
-52.15
-50.05
-45.85
-39.80
-32.28
-23.78
-14.87
-6.15
1.93
9.09
15.29
20.68
25.40
29.52
32.97
35.62
37.40
38.34
38.62
38.48
38.14
37.80
37.61
37.71
38.20
39.03
39.95
40.56
40.39
39.15
36.90
34.09
31.39
29.37
28.28
27.92
27.75
27.15
25.71
23.36
20.35
17.10
13.94
11.00
8.23
5.47
2.62
-0.29
-3.12
-5.70
-7.92
-9.75
-11.28
-12.62
-13.93
-15.36
-17.10
-19.39
-22.42
-26.21
-30.59
-35.04
-38.82
-41.12
-41.27
-39.00
-34.53
-28.53
-21.88
-15.32
-9.30
-3.93
0.91
5.24
8.97
11.83
13.56
14.10
13.62
12.43
10.90
9.29
7.81
6.64
5.95
5.86
6.38
7.26
8.11
8.46
7.97
6.54
4.33
1.68
-1.07
-3.69
-6.04
-8.06
-9.72
-11.00
-11.91
-12.59
-13.24
-14.10
-15.35
-17.02
-19.00
-21.14
-23.26
-25.29
-27.21
-28.99
-30.57
-31.89
-32.98
-34.01
-35.28
-37.17
-39.96
-43.63
-47.79
-51.67
-54.31
-54.75
-52.35
-46.98
-39.11
-29.65
-19.73
-10.37
-2.24
4.49
9.97
14.57
18.62
22.27
25.48
28.17
30.25
31.72
32.67
33.19
33.39
33.32
33.01
32.50
31.82
30.95
29.85
28.42
26.60
24.38
21.84
19.12
16.40
13.87
11.66
9.90
8.64
7.85
7.42
7.20
7.05
6.89
6.73
6.53
6.18
5.38
3.72
0.83
-3.43
-8.85
-14.83
-20.67
-25.72
-29.62
-32.29
-33.92
-34.80
-35.31
-35.84
-36.87
-38.80
-41.89
-46.05
-50.71
-54.91
-57.53
-57.62
-54.70
-48.89
-40.83
-31.39
-21.45
-11.69
-2.52
5.86
13.35
19.87
25.34
29.60
32.49
33.77
33.30
31.06
27.33
22.73
18.17
14.60
12.74
12.88
14.81
18.00
21.81
25.69
29.35
32.68
35.61
38.03
39.74
40.45
39.98
38.30
35.65
32.46
29.19
26.20
23.70
21.71
20.17
19.06
18.38
18.09
18.15
18.40
18.70
18.94
19.01
18.78
18.05
16.56
14.14
10.82
6.88
2.75
-1.19
-4.71
-7.85
-10.82
-13.84
-17.05
-20.52
-24.24
-28.17
-32.19
-36.00
-39.01
-40.48
-39.71
-36.27
-30.32
-22.60
-14.26
-6.48
-0.13
4.50
7.69
10.04
12.21
14.57
17.13
19.65
21.79
23.30
24.12
24.32
24.11
23.65
23.13
22.68
22.43
22.47
22.80
23.32
23.81
24.01
23.68
22.64
20.89
18.58
16.00
13.50
11.44
10.02
9.25
8.93
8.75
8.31
7.32
5.63
3.26
0.38
-2.69
-5.66
-8.18
-10.04
-11.18
-11.83
-12.47
-13.73
-16.19
-20.11
-25.30
-31.05
-36.31
-40.03
-41.44
-40.30
-36.89
-31.91
-26.16
-20.35
-14.97
-10.21
-6.09
-2.50
0.64
3.42
5.86
7.92
9.43
10.21
10.06
8.98
7.24
5.35
3.95
3.54
4.27
5.87
7.81
9.48
10.48
10.67
10.19
9.32
8.40
7.68
7.29
7.22
7.27
7.18
6.65
5.45
3.58
1.21
-1.39
-3.94
-6.31
-8.59
-10.98
-13.74
-17.03
-20.79
-24.79
-28.69
-32.21
-35.22
-37.84
-40.23
-42.46
-44.35
-45.48
-45.34
-43.64
-40.45
-36.21
-31.51
-26.86
-22.47
-18.24
-13.91
-9.23
-4.13
1.28
6.71
11.88
16.51
20.46
23.68
26.25
28.30
29.94
31.20
32.02
32.35
32.12
31.37
30.21
28.78
27.17
25.45
23.62
21.70
19.75
17.84
16.07
14.53
13.27
12.23
11.35
10.50
9.58
8.56
7.45
6.29
5.10
3.89
2.66
1.42
0.24
-0.80
-1.68
-2.48
-3.41
-4.68
-6.46
-8.78
-11.49
-14.37
-17.18
-19.75
-22.00
-23.99
-25.88
-27.88
-30.18
-32.76
-35.36
-37.47
-38.45
-37.76
-35.13
-30.71
-24.96
-18.58
-12.20
-6.35
-1.28
3.02
6.75
10.17
13.51
16.83
20.02
22.89
25.19
26.75
27.53
27.57
27.05
26.19
25.29
24.61
24.35
24.51
24.92
25.33
25.53
25.39
24.92
24.19
23.25
22.12
20.86
19.57
18.45
17.72
17.47
17.61
17.92
18.15
18.18
18.08
18.03
18.16
18.49
18.81
18.90
18.54
17.68
16.40
14.82
13.11
11.41
9.85
8.55
7.50
6.61
5.64
4.34
2.56
0.36
-2.04
-4.35
-6.37
-7.99
-9.23
-10.15
-10.83
-11.43
-12.20
-13.44
-15.38
-17.97
-20.77
-23.06
-24.11
-23.44
-21.10
-17.50
-13.28
-9.00
-4.98
-1.31
2.00
4.93
7.40
9.34
10.73
11.69
12.37
12.83
13.04
12.88
12.27
11.24
10.02
8.87
8.04
7.60
7.44
7.33
7.02
6.33
5.20
3.71
2.00
0.22
-1.46
-2.84
-3.74
-4.04
-3.74
-3.05
-2.30
-1.88
-2.03
-2.76
-3.92
-5.27
-6.64
-8.06
-9.65
-11.52
-13.68
-15.93
-18.01
-19.72
-21.00
-22.00
-22.94
-24.12
-25.72
-27.82
-30.32
-32.87
-34.94
-35.95
-35.43
-33.25
-29.73
-25.50
-21.34
-17.83
-15.16
-13.13
-11.28
-9.22
-6.78
-4.15
-1.71
0.11
1.13
1.43
1.34
1.27
1.46
1.97
2.61
3.15
3.42
3.42
3.30
3.20
3.25
3.41
3.54
3.49
3.18
2.63
1.98
1.37
0.95
0.76
0.78
0.95
1.15
1.29
1.24
0.85
0.01
-1.32
-3.05
-4.93
-6.70
-8.15
-9.25
-10.15
-11.09
-12.23
-13.63
-15.19
-16.71
-18.07
-19.21
-20.13
-20.90
-21.59
-22.31
-23.28
-24.73
-26.79
-29.36
-32.06
-34.27
-35.42
-35.17
-33.56
-30.90
-27.66
-24.18
-20.66
-17.10
-13.46
-9.72
-5.90
-2.03
1.86
5.78
9.69
13.41
16.65
19.13
20.68
21.37
21.54
21.59
21.88
22.54
23.48
24.50
25.37
25.96
26.18
25.96
25.15
23.65
21.41
18.61
15.61
12.85
10.74
9.43
8.86
8.73
8.72
8.54
8.06
7.37
6.67
6.19
6.06
6.22
6.44
6.45
6.05
5.23
4.13
2.88
1.56
0.19
-1.28
-2.85
-4.43
-5.88
-7.07
-7.91
-8.38
-8.53
-8.47
-8.39
-8.52
-9.10
-10.21
-11.82
-13.73
-15.73
-17.71
-19.70
-21.79
-23.96
-25.99
-27.48
-27.98
-27.18
-25.00
-21.65
-17.55
-13.15
-8.83
-4.85
-1.30
1.89
4.85
7.76
10.69
13.66
16.48
18.95
20.80
21.93
22.43
22.51
22.51
22.62
22.97
23.49
24.04
24.50
24.82
25.02
25.16
25.23
25.16
24.82
24.06
22.87
21.35
19.74
18.32
17.30
16.78
16.65
16.73
16.82
16.76
16.53
16.07
15.38
14.39
13.12
11.67
10.25
9.08
8.19
7.38
6.28
4.58
2.19
-0.60
-3.30
-5.48
-7.01
-8.14
-9.41
-11.35
-14.18
-17.75
-21.51
-24.81
-27.02
-27.80
-27.04
-24.82
-21.39
-16.99
-11.88
-6.38
-0.90
4.11
8.21
11.10
12.73
13.29
13.10
12.40
11.37
9.99
8.18
5.95
3.47
1.04
-0.97
-2.29
-2.86
-2.88
-2.70
-2.74
-3.27
-4.39
-5.94
-7.62
-9.12
-10.22
-10.84
-11.03
-10.93
-10.68
-10.48
-10.45
-10.70
-11.24
-12.01
-12.93
-13.94
-15.12
-16.57
-18.40
-20.55
-22.78
-24.75
-26.14
-26.86
-27.07
-27.14
-27.48
-28.38
-29.85
-31.59
-33.11
-33.76
-33.08
-30.84
-27.22
-22.69
-17.85
-13.23
-9.12
-5.65
-2.81
-0.60
0.90
1.69
1.85
1.65
1.47
1.59
2.08
2.74
3.24
3.37
3.18
2.96
3.08
3.77
4.93
6.20
7.13
7.48
7.29
6.93
6.78
7.13
7.99
9.14
10.26
11.07
11.37
11.08
10.19
8.75
6.85
4.68
2.45
0.40
-1.33
-2.79
-4.13
-5.63
-7.51
-9.93
-12.90
-16.30
-19.97
-23.67
-27.13
-30.03
-32.10
-33.06
-32.76
-31.11
-28.14
-24.05
-19.23
-14.19
-9.41
-5.22
-1.58
1.81
5.39
9.38
13.66
17.79
21.19
23.51
24.74
25.18
25.19
25.00
24.66
24.15
23.51
22.85
22.33
21.94
21.52
20.75
19.38
17.32
14.74
11.93
9.23
6.87
4.98
3.69
3.06
3.13
3.81
4.87
5.98
6.79
7.11
6.85
6.11
5.03
3.74
2.35
0.88
-0.80
-2.95
-5.88
-9.87
-14.86
-20.38
-25.53
-29.29
-30.80
-29.66
-26.03
-20.54
-14.06
-7.39
-1.15
4.34
9.03
13.09
16.73
20.12
23.26
25.98
28.06
29.40
30.08
30.36
30.45
30.48
30.32
29.81
28.87
27.61
26.26
24.96
23.71
22.32
20.65
18.75
16.89
15.46
14.69
14.54
14.68
14.69
14.25
13.29
11.98
10.65
9.55
8.88
8.61
8.56
8.45
7.97
6.90
5.22
3.11
0.94
-0.93
-2.24
-2.93
-3.12
-3.03
-2.94
-3.02
-3.36
-3.99
-4.88
-6.03
-7.50
-9.40
-11.82
-14.74
-18.02
-21.34
-24.28
-26.43
-27.46
-27.20
-25.60
-22.70
-18.59
-13.41
-7.41
-1.01
5.28
10.96
15.73
19.54
22.64
25.45
28.39
31.67
35.27
38.95
42.26
44.62
45.34
43.77
39.49
32.61
23.89
14.66
6.39
0.15
-3.74
-5.77
-6.85
-7.78
-8.81
-9.59
-9.44
-7.87
-4.87
-0.97
2.96
6.11
7.98
8.53
8.10
7.15
6.06
4.96
3.72
2.08
-0.11
-2.77
-5.59
-8.19
-10.37
-12.29
-14.34
-16.91
-20.11
-23.51
-26.39
-28.00
-27.89
-26.12
-23.18
-19.73
-16.27
-13.06
-10.05
-7.08
-4.03
-0.93
2.02
4.58
6.49
7.59
7.88
7.50
6.67
5.67
4.72
3.95
3.40
3.00
2.66
2.25
1.68
0.91
-0.02
-0.99
-1.89
-2.64
-3.27
-3.85
-4.42
-4.95
-5.35
-5.48
-5.31
-4.93
-4.62
-4.66
-5.23
-6.30
-7.70
-9.22
-10.71
-12.13
-13.55
-15.06
-16.69
-18.44
-20.27
-22.17
-24.14
-26.17
-28.18
-29.92
-31.03
-31.14
-30.02
-27.62
-24.12
-19.86
-15.23
-10.55
-6.07
-1.92
1.92
5.50
8.92
12.23
15.36
18.11
20.24
21.51
21.91
21.59
20.81
19.87
18.92
18.03
17.18
16.37
15.66
15.09
14.67
14.29
13.84
13.22
12.49
11.80
11.32
11.13
11.15
11.15
10.91
10.25
9.12
7.58
5.72
3.67
1.57
-0.40
-2.06
-3.24
-3.90
-4.14
-4.18
-4.25
-4.52
-5.04
-5.79
-6.67
-7.63
-8.61
-9.52
-10.25
-10.70
-10.87
-10.85
-10.91
-11.29
-12.16
-13.52
-15.19
-16.99
-18.74
-20.35
-21.84
-23.22
-24.53
-25.77
-26.89
-27.76
-28.17
-27.88
-26.68
-24.52
-21.51
-17.93
-14.08
-10.15
-6.13
-1.91
2.65
7.49
12.39
16.96
20.82
23.78
25.80
26.99
27.50
27.38
26.71
25.57
24.18
22.80
21.71
21.01
20.57
20.11
19.30
17.94
16.03
13.79
11.50
9.48
8.02
7.32
7.51
8.58
10.37
12.53
14.70
16.53
17.90
18.85
19.62
20.50
21.66
23.17
24.89
26.61
28.07
29.03
29.32
28.90
27.77
25.99
23.67
20.87
17.66
14.13
10.47
6.89
3.67
1.05
-0.81
-1.92
-2.37
-2.31
-1.87
-1.13
-0.13
1.04
2.24
3.17
3.42
2.48
-0.12
-4.61
-10.80
-17.97
-25.00
-30.57
-33.59
-33.57
-30.77
-26.08
-20.73
-15.75
-11.72
-8.67
-6.21
-3.89
-1.41
1.23
3.79
5.92
7.33
7.89
7.65
6.82
5.69
4.62
3.89
3.66
3.94
4.55
5.22
5.66
5.75
5.53
5.16
4.85
4.69
4.60
4.38
3.86
2.99
1.88
0.70
-0.40
-1.42
-2.46
-3.64
-4.94
-6.21
-7.20
-7.72
-7.71
-7.31
-6.80
-6.55
-6.85
-7.90
-9.65
-11.90
-14.31
-16.59
-18.59
-20.34
-22.02
-23.81
-25.84
-28.12
-30.66
-33.36
-36.12
-38.69
-40.59
-41.24
-40.11
-36.99
-32.16
-26.38
-20.61
-15.67
-11.99
-9.55
-7.97
-6.80
-5.68
-4.52
-3.40
-2.46
-1.75
-1.23
-0.69
0.07
1.15
2.50
3.93
5.19
6.14
6.82
7.44
8.22
9.24
10.37
11.33
11.92
12.15
12.28
12.60
13.20
13.85
14.08
13.51
12.06
10.09
8.17
6.76
5.99
5.58
5.10
4.23
2.92
1.36
-0.22
-1.72
-3.20
-4.75
-6.42
-8.10
-9.63
-10.87
-11.82
-12.62
-13.49
-14.60
-16.04
-17.74
-19.56
-21.32
-22.90
-24.32
-25.80
-27.67
-30.18
-33.30
-36.61
-39.38
-40.80
-40.31
-37.78
-33.52
-28.16
-22.36
-16.72
-11.60
-7.14
-3.26
0.27
3.69
7.17
10.68
13.97
16.73
18.74
19.92
20.49
20.78
21.08
21.54
22.21
23.00
23.88
24.85
25.92
27.04
28.05
28.67
28.59
27.69
26.01
23.85
21.67
19.83
18.56
17.81
17.31
16.79
16.01
14.96
13.77
12.73
12.09
12.03
12.59
13.63
14.91
16.09
16.85
16.99
16.46
15.41
14.06
12.67
11.40
10.30
9.32
8.33
7.08
5.34
2.85
-0.40
-4.20
-8.05
-11.41
-13.93
-15.66
-17.07
-18.76
-21.16
-24.19
-27.27
-29.60
-30.49
-29.67
-27.27
-23.73
-19.48
-14.84
-10.04
-5.30
-0.88
2.89
5.81
7.85
9.26
10.42
11.64
13.03
14.46
15.65
16.38
16.68
16.80
17.15
18.05
19.53
21.26
22.66
23.12
22.32
20.32
17.52
14.52
11.83
9.78
8.42
7.63
7.22
7.02
6.96
7.06
7.38
7.94
8.59
9.04
8.86
7.73
5.57
2.67
-0.41
-3.12
-5.17
-6.64
-7.92
-9.48
-11.63
-14.49
-17.98
-21.96
-26.22
-30.46
-34.21
-36.87
-37.84
-36.83
-33.93
-29.63
-24.67
-19.68
-15.05
-10.81
-6.84
-3.03
0.60
3.83
6.45
8.32
9.48
10.09
10.32
10.25
9.86
9.12
8.09
6.91
5.81
4.97
4.44
4.17
4.07
4.02
3.94
3.74
3.30
2.48
1.24
-0.34
-2.08
-3.71
-5.09
-6.18
-7.12
-8.13
-9.38
-10.91
-12.63
-14.35
-15.92
-17.30
-18.56
-19.88
-21.41
-23.25
-25.45
-27.95
-30.67
-33.42
-35.93
-37.80
-38.62
-38.06
-35.99
-32.59
-28.21
-23.26
-18.10
-12.84
-7.49
-2.04
3.48
8.87
13.87
18.25
21.85
24.60
26.50
27.59
27.98
27.85
27.44
27.03
26.82
26.83
26.93
26.84
26.34
25.35
23.98
22.44
20.93
19.55
18.29
17.09
16.03
15.27
14.97
15.15
15.57
15.74
15.17
13.60
11.16
8.34
5.75
3.81
2.51
1.43
-0.04
-2.32
-5.51
-9.24
-12.92
-16.04
-18.37
-20.01
-21.29
-22.56
-24.03
-25.79
-27.83
-30.21
-32.99
-36.15
-39.42
-42.27
-43.96
-43.82
-41.50
-37.15
-31.32
-24.80
-18.32
-12.36
-7.09
-2.42
1.87
5.99
10.13
14.31
18.45
22.37
25.82
28.61
30.64
31.90
32.47
32.48
32.03
31.28
30.41
29.57
28.88
28.40
28.06
27.77
27.40
26.85
26.05
24.93
23.54
21.98
20.44
19.15
18.28
17.87
17.80
17.90
18.03
18.09
18.07
17.90
17.48
16.70
15.51
14.04
12.57
11.38
10.66
10.38
10.35
10.31
10.10
9.69
9.17
8.66
8.17
7.63
6.95
6.08
5.13
4.26
3.58
3.04
2.37
1.27
-0.48
-2.81
-5.36
-7.66
-9.34
-10.34
-10.98
-11.84
-13.53
-16.46
-20.59
-25.40
-29.99
-33.37
-34.75
-33.80
-30.73
-26.17
-20.88
-15.51
-10.41
-5.64
-1.12
3.32
7.71
12.02
16.11
19.77
22.71
24.63
25.31
24.72
23.05
20.71
18.23
16.06
14.55
13.78
13.68
13.97
14.32
14.35
13.82
12.68
11.13
9.54
8.34
7.79
7.89
8.40
8.93
9.13
8.80
7.93
6.58
4.83
2.78
0.50
-1.92
-4.34
-6.67
-8.82
-10.77
-12.48
-13.96
-15.23
-16.41
-17.72
-19.45
-21.84
-25.01
-28.78
-32.72
-36.23
-38.70
-39.72
-39.09
-36.82
-33.09
-28.13
-22.31
-16.03
-9.80
-4.11
0.68
4.45
7.27
9.32
10.73
11.44
11.33
10.31
8.59
6.62
4.99
4.14
4.15
4.81
5.71
6.55
7.19
7.73
8.32
9.06
9.84
10.49
10.85
10.81
10.47
9.98
9.51
9.18
9.03
8.99
8.96
8.77
8.31
7.48
6.29
4.83
3.23
1.59
-0.08
-1.88
-3.93
-6.30
-8.88
-11.47
-13.82
-15.77
-17.31
-18.56
-19.57
-20.33
-20.81
-21.04
-21.26
-21.87
-23.30
-25.75
-29.03
-32.55
-35.56
-37.40
-37.68
-36.41
-33.93
-30.68
-27.09
-23.43
-19.83
-16.25
-12.62
-8.87
-4.95
-0.86
3.38
7.70
11.94
15.87
19.19
21.64
23.13
23.78
23.94
24.00
24.23
24.68
25.19
25.50
25.37
24.75
23.70
22.42
21.11
19.91
18.92
18.12
17.48
16.93
16.42
15.89
15.34
14.73
14.08
13.37
12.64
11.89
11.17
10.50
9.88
9.32
8.77
8.17
7.48
6.72
5.93
5.21
4.64
4.20
3.75
3.11
2.12
0.78
-0.75
-2.26
-3.59
-4.76
-5.85
-6.95
-7.98
-8.74
-9.05
-8.97
-8.78
-8.86
-9.50
-10.68
-12.13
-13.51
-14.64
-15.62
-16.68
-18.02
-19.71
-21.74
-24.08
-26.82
-29.98
-33.40
-36.62
-38.92
-39.56
-38.11
-34.63
-29.59
-23.65
-17.44
-11.37
-5.62
-0.29
4.61
9.06
13.13
16.92
20.53
23.95
26.99
29.43
31.02
31.69
31.51
30.75
29.76
28.90
28.46
28.61
29.33
30.41
31.48
32.15
32.13
31.36
30.00
28.38
26.76
25.36
24.19
23.19
22.29
21.44
20.73
20.21
19.99
20.02
20.21
20.32
20.14
19.50
18.37
16.87
15.20
13.54
11.97
10.48
8.91
7.10
4.97
2.58
0.10
-2.26
-4.35
-6.12
-7.58
-8.83
-9.89
-10.82
-11.68
-12.62
-13.84
-15.53
-17.84
-20.77
-24.17
-27.77
-31.14
-33.81
-35.32
-35.31
-33.74
-30.86
-27.23
-23.42
-19.94
-17.01
-14.62
-12.61
-10.77
-8.94
-7.01
-5.02
-3.13
-1.65
-0.96
-1.31
-2.68
-4.68
-6.65
-7.86
-7.80
-6.41
-4.04
-1.41
0.70
1.69
1.28
-0.39
-2.81
-5.32
-7.32
-8.42
-8.52
-7.73
-6.26
-4.31
-1.96
0.73
3.68
6.65
9.32
11.33
12.39
12.37
11.23
9.05
5.91
1.87
-2.95
-8.32
-13.86
-19.10
-23.52
-26.73
-28.54
-29.01
-28.45
-27.32
-26.15
-25.42
-25.50
-26.54
-28.44
-30.90
-33.38
-35.29
-36.08
-35.35
-32.95
-28.97
-23.73
-17.68
-11.36
-5.28
0.14
4.67
8.30
11.25
13.81
16.23
18.58
20.72
22.38
23.34
23.54
23.17
22.52
21.86
21.32
20.83
20.29
19.65
19.02
18.60
18.55
18.82
19.19
19.33
19.03
18.28
17.28
16.27
15.31
14.25
12.81
10.77
8.16
5.22
2.30
-0.29
-2.46
-4.23
-5.77
-7.21
-8.59
-9.95
-11.32
-12.79
-14.39
-16.08
-17.75
-19.24
-20.54
-21.84
-23.52
-25.98
-29.37
-33.42
-37.44
-40.59
-42.13
-41.75
-39.57
-36.04
-31.69
-26.92
-21.85
-16.44
-10.57
-4.26
2.25
8.55
14.15
18.68
21.95
24.03
25.12
25.51
25.47
25.22
24.96
24.81
24.80
24.79
24.55
23.81
22.36
20.17
17.41
14.41
11.57
9.25
7.66
6.84
6.58
6.56
6.42
5.96
5.19
4.34
3.70
3.40
3.39
3.40
3.13
2.37
1.16
-0.31
-1.80
-3.21
-4.61
-6.22
-8.31
-10.99
-14.16
-17.47
-20.42
-22.53
-23.46
-23.08
-21.43
-18.66
-14.98
-10.62
-5.85
-1.03
3.46
7.31
10.38
12.73
14.60
16.24
17.77
19.12
20.10
20.52
20.32
19.62
18.65
17.65
16.75
15.95
15.14
14.24
13.25
12.27
11.43
10.85
10.50
10.27
10.03
9.67
9.24
8.89
8.84
9.17
9.83
10.60
11.23
11.55
11.58
11.48
11.48
11.67
11.97
12.12
11.85
11.01
9.67
8.02
6.29
4.61
3.06
1.62
0.36
-0.66
-1.48
-2.29
-3.43
-5.25
-7.86
-10.94
-13.82
-15.70
-15.99
-14.55
-11.73
-8.21
-4.63
-1.45
1.22
3.48
5.47
7.34
9.09
10.71
12.18
13.51
14.68
15.63
16.25
16.40
16.03
15.19
14.08
12.97
12.04
11.32
10.64
9.73
8.37
6.52
4.37
2.29
0.65
-0.35
-0.76
-0.80
-0.81
-1.01
-1.52
-2.28
-3.21
-4.23
-5.31
-6.46
-7.63
-8.73
-9.72
-10.62
-11.62
-12.94
-14.71
-16.87
-19.22
-21.52
-23.69
-25.81
-27.98
-30.10
-31.71
-32.12
-30.68
-27.19
-22.11
-16.34
-10.90
-6.53
-3.45
-1.39
0.10
1.39
2.59
3.59
4.23
4.44
4.35
4.13
3.95
3.85
3.78
3.70
3.62
3.63
3.83
4.20
4.59
4.74
4.42
3.59
2.45
1.33
0.55
0.31
0.57
1.17
1.85
2.32
2.35
1.72
0.35
-1.64
-3.96
-6.15
-7.78
-8.59
-8.64
-8.30
-8.08
-8.38
-9.35
-10.85
-12.55
-14.14
-15.48
-16.61
-17.72
-18.99
-20.50
-22.13
-23.65
-24.77
-25.17
-24.53
-22.53
-18.89
-13.57
-6.89
0.40
7.27
12.72
16.09
17.27
16.54
14.46
11.59
8.40
5.29
2.61
0.69
-0.29
-0.40
0.02
0.55
0.87
0.92
0.92
1.11
1.65
2.47
3.38
4.15
4.72
5.14
5.53
5.97
6.41
6.70
6.74
6.49
6.05
5.57
5.17
4.87
4.66
4.51
4.45
4.50
4.64
4.76
4.67
4.26
3.54
2.71
2.04
1.72
1.74
1.89
1.88
1.47
0.60
-0.63
-2.03
-3.46
-4.86
-6.24
-7.62
-8.97
-10.17
-11.07
-11.51
-11.48
-11.16
-10.98
-11.46
-12.97
-15.52
-18.68
-21.73
-23.93
-24.79
-24.32
-22.80
-20.70
-18.33
-15.83
-13.10
-10.03
-6.59
-2.87
0.90
4.50
7.71
10.45
12.71
14.59
16.19
17.54
18.61
19.29
19.61
19.73
19.91
20.42
21.39
22.77
24.35
25.91
27.33
28.55
29.60
30.43
30.89
30.80
30.04
28.59
26.63
24.39
22.16
20.18
18.63
17.58
17.02
16.77
16.60
16.20
15.36
13.99
12.20
10.19
8.20
6.35
4.67
3.13
1.68
0.31
-0.97
-2.17
-3.44
-4.97
-7.05
-9.87
-13.45
-17.50
-21.50
-24.77
-26.65
-26.76
-25.08
-21.97
-18.06
-14.02
-10.38
-7.36
-4.91
-2.78
-0.68
1.63
4.20
6.93
9.54
11.65
12.88
13.00
12.06
10.36
8.43
6.83
5.89
5.69
5.99
6.47
6.87
7.08
7.10
6.96
6.60
5.91
4.77
3.20
1.40
-0.35
-1.85
-3.07
-4.14
-5.28
-6.66
-8.31
-10.20
-12.27
-14.52
-16.95
-19.53
-22.11
-24.43
-26.14
-26.96
-26.77
-25.79
-24.50
-23.61
-23.81
-25.56
-28.96
-33.69
-39.08
-44.30
-48.44
-50.75
-50.69
-48.06
-43.09
-36.44
-29.13
-22.18
-16.42
-12.13
-9.08
-6.70
-4.32
-1.49
1.90
5.64
9.31
12.44
14.68
15.90
16.19
15.84
15.20
14.57
14.07
13.78
13.67
13.75
14.05
14.55
15.14
15.63
15.80
15.58
15.11
14.64
14.47
14.71
15.29
15.98
16.51
16.71
16.44
15.63
14.22
12.14
9.40
6.12
2.53
-1.08
-4.42
-7.27
-9.54
-11.26
-12.61
-13.86
-15.25
-16.93
-18.91
-21.06
-23.21
-25.33
-27.54
-30.13
-33.29
-36.99
-40.80
-43.99
-45.73
-45.45
-42.94
-38.48
-32.70
-26.33
-19.97
-13.94
-8.29
-2.93
2.26
7.26
11.97
16.24
19.94
23.03
25.56
27.61
29.23
30.43
31.17
31.46
31.37
31.08
30.84
30.80
31.00
31.26
31.29
30.87
29.93
28.57
27.10
25.78
24.77
24.02
23.34
22.56
21.57
20.45
19.38
18.56
18.09
17.94
17.96
17.96
17.78
17.39
16.82
16.16
15.47
14.74
13.93
13.01
11.99
10.95
9.94
8.94
7.90
6.76
5.51
4.22
3.00
1.88
0.80
-0.40
-1.87
-3.67
-5.71
-7.82
-9.88
-11.87
-13.93
-16.26
-18.98
-21.99
-24.95
-27.33
-28.56
-28.23
-26.21
-22.71
-18.22
-13.32
-8.49
-4.00
0.13
4.01
7.72
11.16
14.13
16.37
17.75
18.35
18.44
18.34
18.34
18.54
18.96
19.55
20.28
21.07
21.85
22.45
22.64
22.26
21.23
19.69
17.90
16.23
14.98
14.31
14.18
14.36
14.48
14.19
13.26
11.70
9.67
7.49
5.43
3.64
2.17
1.01
0.11
-0.61
-1.29
-2.21
-3.67
-5.84
-8.71
-11.94
-15.09
-17.85
-20.20
-22.45
-25.05
-28.29
-32.06
-35.85
-38.91
-40.51
-40.24
-38.07
-34.25
-29.20
-23.38
-17.18
-10.99
-5.13
0.08
4.46
7.92
10.46
12.12
12.91
12.88
12.13
10.87
9.47
8.31
7.69
7.67
8.11
8.65
9.01
9.01
8.73
8.40
8.23
8.35
8.67
9.02
9.20
9.16
8.94
8.65
8.31
7.78
6.82
5.20
2.87
0.04
-2.86
-5.38
-7.26
-8.49
-9.31
-10.06
-11.07
-12.48
-14.30
-16.38
-18.54
-20.65
-22.61
-24.45
-26.29
-28.38
-30.92
-33.97
-37.34
-40.52
-42.89
-43.79
-42.87
-40.06
-35.65
-30.15
-24.14
-18.14
-12.56
-7.65
-3.44
0.20
3.56
6.93
10.48
14.19
17.82
20.99
23.36
24.78
25.32
25.30
25.09
24.96
25.02
25.13
25.09
24.76
24.15
23.42
22.76
22.21
21.68
21.03
20.15
19.12
18.11
17.28
16.63
15.97
15.08
13.81
12.23
10.55
9.02
7.77
6.76
5.82
4.80
3.61
2.25
0.78
-0.72
-2.18
-3.54
-4.73
-5.71
-6.53
-7.32
-8.27
-9.53
-11.15
-13.03
-15.01
-16.90
-18.60
-20.17
-21.79
-23.68
-26.04
-28.88
-32.01
-34.98
-37.18
-37.97
-36.96
-34.12
-29.81
-24.63
-19.20
-13.96
-9.08
-4.53
-0.18
3.98
7.97
11.72
15.14
18.18
20.77
22.88
24.48
25.57
26.23
26.58
26.76
26.94
27.19
27.51
27.81
27.92
27.70
27.10
26.24
25.37
24.75
24.55
24.73
25.08
25.32
25.24
24.79
24.09
23.31
22.59
21.99
21.46
20.93
20.27
19.44
18.37
17.06
15.54
13.86
12.17
10.59
9.26
8.23
7.48
6.89
6.33
5.69
4.90
3.98
2.99
1.97
0.92
-0.26
-1.77
-3.82
-6.52
-9.79
-13.25
-16.37
-18.54
-19.27
-18.30
-15.65
-11.62
-6.72
-1.56
3.24
7.16
9.84
11.09
10.94
9.57
7.31
4.59
1.85
-0.58
-2.54
-4.05
-5.24
-6.25
-7.08
-7.67
-7.88
-7.71
-7.26
-6.70
-6.16
-5.64
-5.06
-4.29
-3.32
-2.21
-1.17
-0.42
-0.12
-0.33
-0.97
-1.89
-2.90
-3.88
-4.79
-5.71
-6.72
-7.83
-8.99
-10.06
-10.92
-11.58
-12.19
-12.96
-14.12
-15.76
-17.77
-19.89
-21.80
-23.25
-24.14
-24.56
-24.77
-25.10
-25.87
-27.21
-28.99
-30.79
-32.02
-32.11
-30.68
-27.69
-23.49
-18.66
-13.88
-9.69
-6.39
-4.00
-2.33
-1.11
-0.07
1.06
2.40
4.02
5.79
7.53
9.00
10.00
10.42
10.34
9.95
9.49
9.23
9.36
9.92
10.81
11.81
12.68
13.25
13.45
13.40
13.27
13.21
13.32
13.55
13.76
13.79
13.48
12.70
11.37
9.53
7.27
4.76
2.20
-0.21
-2.35
-4.13
-5.55
-6.64
-7.45
-8.03
-8.39
-8.51
-8.36
-7.98
-7.43
-6.87
-6.36
-5.95
-5.59
-5.26
-5.04
-5.09
-5.66
-6.83
-8.51
-10.31
-11.82
-12.82
-13.40
-14.07
-15.40
-17.82
-21.26
-25.18
-28.68
-30.85
-31.11
-29.30
-25.76
-21.07
-15.91
-10.80
-6.06
-1.85
1.79
4.87
7.39
9.40
10.96
12.21
13.29
14.33
15.32
16.19
16.75
16.87
16.52
15.79
14.90
14.06
13.42
12.99
12.70
12.37
11.88
11.19
10.40
9.71
9.35
9.45
9.99
10.82
11.72
12.54
13.17
13.62
13.89
13.93
13.70
13.20
12.58
12.06
11.88
12.07
12.43
12.61
12.28
11.36
10.07
8.88
8.25
8.41
9.22
10.26
11.02
11.14
10.50
9.27
7.73
6.12
4.52
2.86
0.98
-1.19
-3.51
-5.58
-6.90
-7.08
-6.05
-4.09
-1.72
0.57
2.52
4.12
5.47
6.57
7.29
7.42
6.88
5.93
4.99
4.52
4.71
5.31
5.88
5.97
5.41
4.44
3.53
3.16
3.57
4.67
6.07
7.25
7.78
7.43
6.25
4.50
2.54
0.65
-1.02
-2.43
-3.60
-4.53
-5.19
-5.55
-5.68
-5.68
-5.78
-6.13
-6.77
-7.60
-8.38
-8.87
-8.90
-8.51
-7.90
-7.40
-7.28
-7.69
-8.59
-9.85
-11.31
-12.87
-14.48
-16.05
-17.49
-18.70
-19.61
-20.29
-20.93
-21.77
-23.05
-24.88
-27.19
-29.70
-31.99
-33.52
-33.87
-32.76
-30.28
-26.74
-22.71
-18.74
-15.23
-12.32
-9.89
-7.70
-5.48
-3.13
-0.73
1.51
3.37
4.66
5.36
5.57
5.45
5.11
4.62
3.99
3.32
2.75
2.47
2.61
3.15
3.95
4.75
5.29
5.40
5.06
4.35
3.45
2.55
1.83
1.37
1.20
1.27
1.46
1.58
1.49
1.06
0.28
-0.76
-1.93
-3.12
-4.26
-5.40
-6.63
-8.07
-9.74
-11.58
-13.47
-15.29
-17.00
-18.61
-20.19
-21.71
-23.10
-24.34
-25.48
-26.68
-28.10
-29.72
-31.28
-32.29
-32.23
-30.81
-28.13
-24.62
-20.84
-17.26
-14.07
-11.24
-8.62
-6.05
-3.44
-0.72
2.16
5.21
8.39
11.44
14.06
15.88
16.76
16.79
16.37
15.97
15.98
16.50
17.34
18.18
18.72
18.82
18.55
18.07
17.54
17.09
16.73
16.43
16.12
15.72
15.09
14.11
12.77
11.15
9.38
7.62
5.92
4.26
2.62
1.07
-0.20
-0.93
-0.98
-0.45
0.35
0.96
1.02
0.35
-1.02
-2.91
-5.14
-7.54
-10.00
-12.44
-14.73
-16.76
-18.40
-19.64
-20.56
-21.38
-22.37
-23.72
-25.40
-27.16
-28.50
-28.84
-27.71
-24.95
-20.79
-15.75
-10.52
-5.64
-1.50
1.89
4.71
7.27
9.82
12.50
15.28
18.02
20.54
22.66
24.26
25.27
25.73
25.76
25.52
25.25
25.13
25.29
25.75
26.37
26.96
27.25
27.05
26.26
24.95
23.30
21.57
19.98
18.67
17.65
16.83
16.07
15.22
14.21
13.12
12.11
11.40
11.06
10.98
10.89
10.40
9.29
7.56
5.50
3.50
1.87
0.62
-0.42
-1.54
-2.99
-4.81
-6.97
-9.39
-12.00
-14.72
-17.32
-19.39
-20.38
-19.81
-17.52
-13.75
-9.14
-4.51
-0.52
2.47
4.51
5.89
6.92
7.83
8.59
9.05
9.01
8.41
7.32
5.97
4.61
3.40
2.38
1.52
0.81
0.29
0.08
0.24
0.73
1.41
2.06
2.47
2.56
2.34
1.94
1.49
1.11
0.83
0.57
0.17
-0.52
-1.57
-2.90
-4.29
-5.52
-6.44
-7.13
-7.80
-8.67
-9.86
-11.31
-12.88
-14.42
-15.90
-17.33
-18.75
-20.15
-21.55
-23.01
-24.66
-26.63
-28.90
-31.15
-32.85
-33.33
-32.11
-29.05
-24.44
-18.89
-13.12
-7.76
-3.18
0.46
3.26
5.38
7.02
8.38
9.58
10.74
11.94
13.26
14.64
15.99
17.12
17.89
18.23
18.21
17.99
17.76
17.64
17.64
17.73
17.82
17.81
17.63
17.25
16.61
15.69
14.54
13.24
11.94
10.76
9.78
8.98
8.32
7.67
6.94
5.98
4.71
3.12
1.30
-0.57
-2.33
-3.85
-5.17
-6.42
-7.76
-9.26
-10.90
-12.56
-14.08
-15.41
-16.59
-17.77
-19.18
-21.05
-23.49
-26.41
-29.47
-32.12
-33.65
-33.52
-31.44
-27.58
-22.46
-16.79
-11.28
-6.39
-2.32
1.01
3.76
6.14
8.37
10.63
13.11
15.90
18.91
21.78
23.98
25.01
24.67
23.24
21.39
19.89
19.30
19.76
21.00
22.57
24.11
25.45
26.60
27.56
28.25
28.53
28.28
27.50
26.33
25.02
23.76
22.69
21.84
21.20
20.74
20.32
19.75
18.79
17.26
15.11
12.55
9.88
7.45
5.44
3.89
2.65
1.51
0.26
-1.32
-3.40
-6.10
-9.34
-12.82
-15.97
-18.13
-18.78
-17.69
-15.00
-11.09
-6.46
-1.54
3.32
7.81
11.65
14.54
16.32
17.03
16.92
16.34
15.63
14.99
14.41
13.84
13.20
12.48
11.72
10.92
10.05
9.01
7.72
6.19
4.50
2.76
1.09
-0.53
-2.15
-3.86
-5.69
-7.56
-9.37
-11.00
-12.43
-13.77
-15.15
-16.71
-18.42
-20.11
-21.54
-22.56
-23.13
-23.42
-23.71
-24.27
-25.27
-26.79
-28.83
-31.28
-33.90
-36.29
-37.90
-38.25
-36.95
-33.98
-29.60
-24.33
-18.74
-13.28
-8.22
-3.65
0.44
4.07
7.22
9.85
11.89
13.33
14.14
14.37
14.03
13.15
11.81
10.17
8.50
7.11
6.26
6.03
6.26
6.63
6.79
6.57
6.00
5.28
4.64
4.18
3.80
3.29
2.43
1.24
-0.09
-1.28
-2.09
-2.52
-2.82
-3.40
-4.64
-6.68
-9.37
-12.26
-14.87
-16.81
-17.98
-18.57
-19.01
-19.77
-21.21
-23.45
-26.30
-29.31
-31.83
-33.22
-32.97
-30.81
-26.86
-21.52
-15.41
-9.16
-3.28
1.93
6.43
10.29
13.65
16.59
19.14
21.26
22.93
24.11
24.74
24.80
24.24
23.11
21.50
19.60
17.61
15.74
14.14
12.86
11.86
11.08
10.38
9.65
8.80
7.84
6.82
5.85
5.02
4.37
3.85
3.34
2.73
1.96
1.01
-0.12
-1.37
-2.74
-4.19
-5.68
-7.18
-8.72
-10.43
-12.45
-14.96
-17.93
-21.14
-24.13
-26.31
-27.13
-26.25
-23.68
-19.77
-15.15
-10.49
-6.33
-2.95
-0.30
1.88
3.89
5.87
7.78
9.37
10.47
11.01
11.21
11.41
11.89
12.71
13.65
14.37
14.57
14.24
13.62
13.10
13.01
13.33
13.81
13.99
13.43
11.88
9.37
6.18
2.74
-0.37
-2.65
-3.81
-3.92
-3.46
-3.20
-3.91
-5.97
-9.23
-13.03
-16.55
-19.11
-20.46
-20.68
-20.06
-18.94
-17.61
-16.36
-15.44
-14.96
-14.92
-15.21
-15.74
-16.56
-17.89
-19.89
-22.46
-25.06
-26.76
-26.56
-23.68
-17.88
-9.61
0.02
9.49
17.31
22.50
25.01
25.74
26.21
27.81
31.15
35.84
40.76
44.80
47.48
49.11
50.48
52.21
54.26
55.84
55.92
53.77
49.45
43.79
38.01
33.12
29.51
26.88
24.59
22.14
19.54
17.33
16.23
16.69
18.44
20.55
21.75
20.98
17.98
13.39
8.50
4.79
3.24
4.17
7.27
11.91
17.59
24.13
31.56
