29.03
26.15
23.22
19.93
15.86
10.63
4.11
-3.43
-11.44
-19.23
-26.25
-32.28
-37.48
-42.33
-47.46
-53.54
-61.05
-70.18
-80.6
-91.28
-100.46
-105.98
-105.82
-98.76
-84.89
-65.72
-43.71
-21.54
-1.39
15.55
29.07
39.6
47.7
53.82
58.13
60.71
61.67
61.4
60.38
59.16
58.13
57.39
56.81
56.15
55.18
53.79
51.95
49.73
47.12
44.11
40.63
36.63
32.03
26.77
20.82
14.2
7.05
-0.34
-7.64
-14.55
-20.96
-26.95
-32.82
-38.96
-45.77
-53.6
-62.61
-72.57
-82.62
-91.19
-96.25
-95.83
-88.74
-75.11
-56.43
-35.17
-13.93
5.25
21.29
34.04
43.82
51.08
56.08
58.92
59.73
58.81
56.71
54.14
51.78
50.08
49.15
48.77
48.49
47.82
46.45
44.24
41.27
37.72
33.79
29.62
25.27
20.73
15.96
10.93
5.64
0.13
-5.48
-11
-16.27
-21.16
-25.68
-29.99
-34.39
-39.28
-45.09
-52.13
-60.34
-69.11
-77.11
-82.49
-83.32
-78.22
-66.94
-50.57
-31.22
-11.41
6.71
21.86
33.65
42.31
48.21
51.64
52.73
51.67
48.92
45.24
41.57
38.69
36.99
36.36
36.28
36.09
35.3
33.73
31.56
29.14
26.73
24.34
21.7
18.3
13.72
7.8
0.81
-6.67
-13.95
-20.53
-26.27
-31.45
-36.57
-42.2
-48.78
-56.57
-65.52
-75.11
-84.31
-91.52
-94.88
-92.69
-84.1
-69.46
-50.39
-29.26
-8.53
9.95
25.24
37.2
46.14
52.4
56.22
57.71
57.11
54.89
51.79
48.64
46.16
44.72
44.28
44.42
44.61
44.33
43.25
41.27
38.51
35.2
31.57
27.72
23.59
18.98
13.65
7.46
0.51
-6.86
-14.15
-20.9
-26.85
-32.07
-36.93
-41.94
-47.67
-54.64
-63.12
-72.99
-83.45
-92.97
-99.43
-100.65
-95.11
-82.56
-64.23
-42.47
-20.06
0.61
18.08
31.95
42.54
50.46
56.21
60.07
62.16
62.66
61.92
60.44
58.77
57.33
56.27
55.52
54.82
53.92
52.6
50.77
48.42
45.59
42.33
38.69
34.72
30.44
25.86
20.9
15.47
9.5
2.97
-4.03
-11.26
-18.4
-25.12
-31.24
-36.79
-42.03
-47.48
-53.7
-61.19
-70.02
-79.66
-88.81
-95.58
-97.85
-93.96
-83.3
-66.62
-45.89
-23.75
-2.71
15.44
29.94
40.85
48.71
54.11
57.44
58.94
58.84
57.49
55.39
53.07
50.96
49.26
47.98
46.98
46.09
45.19
44.17
42.91
41.24
38.99
36.01
32.28
27.94
23.21
18.29
13.31
8.22
2.86
-2.95
-9.25
-15.89
-22.56
-28.88
-34.54
-39.5
-44.03
-48.67
-54.06
-60.71
-68.62
-77.13
-84.74
-89.5
-89.42
-83.23
-70.83
-53.46
-33.36
-13.06
5.33
20.55
32.19
40.42
45.56
47.93
47.8
45.59
41.98
37.9
34.35
32.05
31.25
31.63
32.45
32.93
32.52
31.12
29.04
26.79
24.75
22.93
20.93
18.11
13.91
8.18
1.29
-6.07
-13.12
-19.34
-24.67
-29.44
-34.26
-39.74
-46.38
-54.37
-63.48
-72.88
-81.18
-86.54
-87.12
-81.7
-70.13
-53.52
-33.95
-13.83
4.73
20.46
32.86
42.01
48.15
51.48
52.12
50.34
46.72
42.19
37.78
34.36
32.37
31.68
31.72
31.75
31.14
29.63
27.31
24.54
21.63
18.74
15.65
11.94
7.11
0.89
-6.58
-14.74
-22.84
-30.18
-36.4
-41.63
-46.41
-51.44
-57.42
-64.85
-73.87
-84.07
-94.34
-102.93
-107.69
-106.66
-98.74
-84.2
-64.62
-42.48
-20.31
-0.07
17.2
31.25
42.28
50.55
56.24
59.54
60.71
60.26
58.84
57.09
55.53
54.38
53.57
52.81
51.79
50.28
48.25
45.84
43.25
40.57
37.68
34.3
30.03
24.59
17.93
10.3
2.16
-5.92
-13.49
-20.32
-26.47
-32.28
-38.33
-45.21
-53.45
-63.17
-73.91
-84.49
-93.1
-97.66
-96.39
-88.41
-74.08
-55.02
-33.63
-12.36
6.9
23.15
36.22
46.39
53.97
59.13
61.89
62.35
60.89
58.24
55.32
52.92
51.45
50.79
50.43
49.75
48.35
46.18
43.48
40.65
37.92
35.24
32.26
28.48
23.51
17.23
9.92
2.11
-5.55
-12.54
-18.65
-24.01
-29.02
-34.21
-40.08
-47
-55.09
-64.05
-73.06
-80.72
-85.23
-84.87
-78.59
-66.43
-49.6
-30.19
-10.46
7.68
23.03
35.1
43.83
49.37
51.93
51.85
49.67
46.2
42.39
39.13
36.97
36
35.83
35.86
35.55
34.64
33.26
31.64
29.96
28.07
25.53
21.81
16.58
9.91
2.28
-5.56
-12.93
-19.41
-24.98
-30.05
-35.33
-41.56
-49.35
-58.78
-69.21
-79.21
-86.76
-89.81
-86.8
-77.28
-62.07
-43.01
-22.47
-2.66
14.84
29.25
40.44
48.61
54
56.77
57.09
55.34
52.19
48.56
45.38
43.29
42.41
42.35
42.36
41.73
40.08
37.52
34.44
31.28
28.23
25.11
21.45
16.74
10.69
3.37
-4.72
-12.91
-20.54
-27.22
-32.92
-38.02
-43.16
-49.08
-56.46
-65.64
-76.42
-87.92
-98.48
-105.88
-107.88
-102.85
-90.42
-71.73
-49.12
-25.5
-3.39
15.6
30.99
43.07
52.44
59.55
64.56
67.46
68.32
67.48
65.55
63.26
61.23
59.73
58.69
57.73
56.45
54.57
52.04
49.05
45.83
42.56
39.22
35.6
31.37
26.24
20.05
12.92
5.15
-2.79
-10.45
-17.5
-23.83
-29.6
-35.16
-40.99
-47.58
-55.34
-64.44
-74.58
-84.74
-93.28
-98.1
-97.32
-89.85
-75.85
-56.83
-35.15
-13.4
6.31
22.74
35.59
45.22
52.23
57.19
60.45
62.18
62.51
61.67
60.07
58.21
56.54
55.29
54.46
53.8
53
51.81
50.11
47.91
45.26
42.16
38.61
34.57
29.98
24.79
18.99
12.59
5.72
-1.4
-8.42
-15
-20.91
-26.09
-30.71
-35.11
-39.73
-45.04
-51.47
-59.26
-68.11
-77.09
-84.5
-88.24
-86.42
-78.07
-63.58
-44.71
-24.01
-4.08
13.18
26.9
37.06
44.13
48.61
50.86
51.1
49.58
46.75
43.28
39.95
37.45
36.09
35.78
36
36.1
35.57
34.21
32.17
29.78
27.32
24.78
21.88
18.17
13.3
7.21
0.17
-7.27
-14.49
-21.01
-26.64
-31.45
-35.77
-40.04
-44.76
-50.36
-57.2
-65.3
-74.14
-82.55
-88.69
-90.58
-86.61
-76.25
-60.31
-40.78
-20.19
-0.9
15.54
28.53
38.22
45.11
49.69
52.27
53.05
52.21
50.14
47.4
44.61
42.25
40.61
39.63
39.07
38.6
37.91
36.8
35.1
32.73
29.65
25.9
21.63
17.03
12.23
7.19
1.81
-4.08
-10.52
-17.31
-24.11
-30.55
-36.42
-41.72
-46.69
-51.69
-57.17
-63.58
-71.29
-80.36
-90.25
-99.64
-106.49
-108.57
-104.15
-92.76
-75.4
-54.27
-32.09
-11.2
6.97
21.99
34.13
43.88
51.64
57.53
61.59
63.9
64.75
64.54
63.74
62.7
61.56
60.34
59.03
57.66
56.35
55.23
54.29
53.33
51.88
49.46
45.73
40.72
34.83
28.66
22.79
17.47
12.58
7.71
2.36
-3.71
-10.43
-17.4
-24.06
-30
-35.08
-39.57
-44.03
-49.2
-55.77
-64.11
-73.96
-84.24
-93.12
-98.33
-97.85
-90.6
-76.9
-58.41
-37.63
-17.09
1.36
16.81
29.19
38.88
46.3
51.74
55.35
57.3
57.86
57.39
56.28
54.83
53.23
51.54
49.83
48.18
46.71
45.52
44.59
43.66
42.33
40.13
36.73
32.08
26.52
20.57
14.82
9.63
5.02
0.75
-3.62
-8.47
-13.96
-19.98
-26.21
-32.26
-37.79
-42.71
-47.19
-51.72
-56.92
-63.27
-70.8
-78.77
-85.65
-89.44
-88.27
-81.1
-68.13
-50.79
-31.28
-11.88
5.6
20.19
31.6
40.03
45.8
49.23
50.56
50.11
48.3
45.7
42.91
40.47
38.76
37.88
37.67
37.83
37.92
37.55
36.47
34.56
31.86
28.51
24.67
20.47
15.93
11.02
5.65
-0.19
-6.42
-12.86
-19.27
-25.45
-31.33
-36.9
-42.26
-47.54
-52.97
-58.9
-65.77
-73.87
-83.07
-92.47
-100.37
-104.61
-103.25
-95.23
-80.87
-61.83
-40.5
-19.33
-0.13
16.17
29.42
39.87
47.79
53.36
56.64
57.78
57.12
55.29
52.99
50.88
49.34
48.41
47.88
47.43
46.79
45.79
44.4
42.58
40.22
37.13
33.14
28.24
22.64
16.72
10.87
5.27
-0.16
-5.72
-11.74
-18.35
-25.38
-32.42
-39.03
-44.94
-50.25
-55.45
-61.29
-68.47
-77.36
-87.58
-97.88
-106.27
-110.42
-108.44
-99.46
-84.01
-63.84
-41.38
-19.1
1.12
18.21
31.9
42.4
50.11
55.46
58.81
60.51
60.91
60.42
59.4
58.16
56.91
55.73
54.64
53.61
52.63
51.66
50.6
49.29
47.48
44.89
41.4
37.07
32.12
26.83
21.39
15.81
9.94
3.58
-3.34
-10.65
-18.01
-25.01
-31.41
-37.2
-42.68
-48.36
-54.8
-62.49
-71.62
-81.79
-91.89
-100.05
-104.07
-102.03
-93.01
-77.52
-57.42
-35.32
-13.82
5.25
21.06
33.59
43.22
50.3
54.95
57.21
57.24
55.5
52.75
49.85
47.5
46.06
45.46
45.27
44.97
44.12
42.56
40.43
38.02
35.63
33.31
30.83
27.7
23.44
17.82
10.99
3.52
-3.84
-10.47
-16.06
-20.77
-25.08
-29.57
-34.78
-41.05
-48.48
-56.84
-65.42
-73.02
-78.03
-78.74
-73.89
-63.1
-47.13
-27.76
-7.31
11.98
28.47
41.34
50.48
56.25
59.11
59.5
57.85
54.66
50.59
46.4
42.82
40.29
38.86
38.14
37.52
36.45
34.62
32.09
29.16
26.19
23.32
20.35
16.85
12.31
6.46
-0.58
-8.27
-15.91
-22.88
-28.92
-34.17
-39.08
-44.17
-49.93
-56.72
-64.7
-73.76
-83.29
-92.02
-98.12
-99.58
-94.84
-83.44
-66.24
-45.25
-23.03
-1.9
16.55
31.63
43.38
52.13
58.2
61.81
63.15
62.52
60.44
57.64
54.84
52.58
51.07
50.16
49.49
48.64
47.33
45.47
43.16
40.51
37.62
34.42
30.71
26.23
20.75
14.24
6.85
-1.01
-8.85
-16.22
-22.86
-28.75
-34.13
-39.39
-45
-51.48
-59.19
-68.2
-77.95
-87.16
-93.9
-96.05
-92.01
-81.26
-64.64
-44.17
-22.4
-1.68
16.43
31.25
42.88
51.75
58.3
62.76
65.25
65.91
64.99
62.96
60.37
57.78
55.56
53.88
52.65
51.62
50.49
49
46.95
44.24
40.88
36.96
32.64
28.05
23.25
18.18
12.72
6.81
0.47
-6.05
-12.46
-18.47
-24
-29.16
-34.24
-39.6
-45.56
-52.37
-60.13
-68.67
-77.36
-84.97
-89.76
-89.88
-83.99
-71.86
-54.55
-34.22
-13.45
5.5
21.21
33.22
41.81
47.57
51.01
52.47
52.18
50.42
47.65
44.51
41.7
39.71
38.71
38.5
38.61
38.48
37.79
36.42
34.52
32.29
29.86
27.15
23.94
19.99
15.17
9.57
3.51
-2.59
-8.34
-13.55
-18.24
-22.62
-26.97
-31.58
-36.68
-42.52
-49.23
-56.77
-64.62
-71.65
-76.17
-76.37
-70.92
-59.59
-43.52
-24.83
-5.99
10.92
24.81
35.43
43.13
48.27
51.04
51.46
49.66
46.14
41.78
37.62
34.52
32.82
32.31
32.41
32.42
31.84
30.49
28.49
26.05
23.35
20.38
16.98
12.94
8.06
2.31
-4.2
-11.18
-18.19
-24.86
-30.88
-36.17
-40.88
-45.4
-50.25
-55.99
-63.05
-71.53
-80.96
-90.18
-97.43
-100.74
-98.43
-89.75
-75.18
-56.37
-35.6
-15.2
3.06
18.21
30.1
39.02
45.45
49.81
52.36
53.3
52.85
51.35
49.31
47.26
45.68
44.71
44.2
43.73
42.8
41.12
38.68
35.77
32.76
29.87
27.04
23.87
19.84
14.52
7.91
0.44
-7.12
-13.98
-19.67
-24.21
-28.09
-32.05
-36.82
-42.92
-50.54
-59.47
-69.06
-78.1
-84.95
-87.77
-85.02
-76.1
-61.56
-43.08
-22.99
-3.56
13.55
27.55
38.46
46.73
52.86
57.21
59.89
60.91
60.38
58.59
56.06
53.38
51.08
49.39
48.25
47.35
46.28
44.73
42.57
39.85
36.7
33.23
29.46
25.35
20.79
15.73
10.2
4.31
-1.75
-7.77
-13.62
-19.2
-24.5
-29.58
-34.52
-39.48
-44.7
-50.52
-57.26
-64.98
-73.2
-80.71
-85.69
-86.21
-80.91
-69.58
-53.36
-34.36
-14.99
2.76
17.74
29.71
38.88
45.6
50.04
52.27
52.39
50.76
48.06
45.07
42.56
40.92
40.16
39.92
39.68
39.01
37.69
35.79
33.53
31.1
28.54
25.66
22.12
17.61
12.02
5.53
-1.34
-8
-13.97
-19.08
-23.51
-27.72
-32.25
-37.56
-43.95
-51.52
-60.03
-68.83
-76.74
-82.16
-83.38
-79.15
-69.16
-54.28
-36.36
-17.66
-0.22
14.65
26.51
35.54
42.16
46.76
49.48
50.42
49.71
47.71
44.98
42.13
39.72
38
36.96
36.37
35.87
35.14
33.92
32.07
29.5
26.24
22.35
17.92
13.05
7.75
2.02
-4.18
-10.74
-17.45
-23.96
-29.92
-35.15
-39.73
-44
-48.48
-53.69
-60.07
-67.84
-76.79
-86.15
-94.5
-99.93
-100.51
-94.89
-82.88
-65.59
-45.15
-24.06
-4.47
12.31
25.91
36.7
45.39
52.65
58.89
64.26
68.65
71.87
73.79
74.42
73.9
72.44
70.25
67.5
64.37
61.06
57.78
54.63
51.58
48.35
44.56
39.93
34.41
28.27
21.98
16.02
10.6
5.61
0.7
-4.57
-10.42
-16.82
-23.4
-29.73
-35.43
-40.42
-44.94
-49.52
-54.86
-61.57
-69.83
-79.16
-88.32
-95.41
-98.35
-95.51
-86.24
-71.2
-52.14
-31.4
-11.22
6.8
21.91
34.09
43.68
51.1
56.6
60.37
62.52
63.28
62.99
62
60.63
59.03
57.22
55.18
52.96
50.67
48.48
46.47
44.56
42.49
39.92
36.6
32.45
27.65
22.54
17.49
12.71
8.2
3.76
-0.92
-6.04
-11.61
-17.38
-22.94
-27.96
-32.25
-35.94
-39.4
-43.21
-47.97
-54.15
-61.82
-70.4
-78.61
-84.59
-86.38
-82.53
-72.7
-57.85
-39.94
-21.34
-4.1
10.51
22.1
30.89
37.37
41.9
44.7
45.83
45.4
43.72
41.3
38.75
36.62
35.2
34.47
34.15
33.82
33.11
31.85
30.06
27.88
25.45
22.81
19.85
16.36
12.08
6.91
0.91
-5.61
-12.24
-18.58
-24.39
-29.6
-34.35
-38.87
-43.43
-48.36
-54.01
-60.67
-68.31
-76.36
-83.48
-87.86
-87.68
-81.75
-70.05
-53.82
-35.15
-16.34
0.78
15.22
26.78
35.74
42.49
47.29
50.23
51.4
51.01
49.42
47.12
44.61
42.33
40.55
39.35
38.61
38.07
37.37
36.16
34.22
31.54
28.23
24.47
20.38
15.99
11.18
5.83
-0.09
-6.47
-13.06
-19.6
-25.82
-31.6
-36.93
-41.94
-46.89
-52.12
-58.1
-65.22
-73.57
-82.7
-91.41
-97.83
-99.93
-96.13
-85.9
-70.1
-50.72
-30.22
-10.76
6.27
20.47
32.06
41.51
49.14
54.96
58.83
60.67
60.65
59.25
57.12
54.89
52.95
51.4
50.07
48.7
47.06
45.11
42.9
40.53
38.01
35.22
31.94
27.95
23.15
17.55
11.29
4.59
-2.33
-9.26
-16
-22.42
-28.47
-34.19
-39.73
-45.35
-51.39
-58.22
-66.02
-74.49
-82.69
-89.01
-91.57
-88.76
-79.92
-65.62
-47.62
-28.22
-9.61
6.82
20.52
31.6
40.42
47.14
51.76
54.21
54.63
53.45
51.39
49.18
47.37
46.18
45.46
44.85
43.96
42.57
40.63
38.28
35.71
33.03
30.17
26.9
22.91
17.93
11.91
5.13
-1.95
-8.76
-14.89
-20.21
-24.92
-29.5
-34.49
-40.4
-47.51
-55.72
-64.47
-72.7
-78.95
-81.63
-79.46
-71.93
-59.49
-43.46
-25.7
-8.03
8.1
21.81
32.71
40.69
45.74
47.99
47.78
45.72
42.68
39.56
37.08
35.55
34.81
34.39
33.75
32.51
30.64
28.41
26.15
24.08
22.06
19.63
16.24
11.46
5.29
-1.83
-9.16
-15.96
-21.8
-26.73
-31.29
-36.17
-42.07
-49.36
-57.95
-67.17
-75.83
-82.28
-84.79
-81.97
-73.27
-59.21
-41.35
-21.85
-2.83
14.11
28.2
39.28
47.54
53.24
56.5
57.45
56.38
53.84
50.61
47.45
44.92
43.16
41.91
40.72
39.13
36.94
34.25
31.35
28.53
25.9
23.25
20.2
16.31
11.27
5.05
-2.09
-9.71
-17.3
-24.41
-30.77
-36.41
-41.59
-46.89
-52.95
-60.34
-69.17
-78.87
-88.02
-94.65
-96.67
-92.58
-81.97
-65.7
-45.65
-24.14
-3.26
15.58
31.7
44.98
55.59
63.68
69.39
72.87
74.36
74.24
72.95
70.99
68.73
66.48
64.42
62.67
61.24
60.07
59.01
57.84
56.35
54.4
51.94
49.01
45.68
41.98
37.87
33.33
28.38
23.16
17.88
12.69
7.56
2.25
-3.65
-10.52
-18.61
-28.03
-38.7
-50.44
-62.78
-74.73
-84.77
-90.93
-91.37
-85.05
-72.23
-54.52
-34.49
-14.78
2.64
16.81
27.73
35.86
41.66
45.36
46.98
46.6
44.53
41.39
37.98
34.98
32.77
31.32
30.31
29.33
28.12
26.62
24.99
23.39
21.86
20.22
18.1
15.09
10.88
5.43
-0.99
-7.87
-14.64
-20.81
-26.18
-30.86
-35.21
-39.76
-45.03
-51.4
-58.96
-67.45
-76.03
-83.37
-87.78
-87.62
-81.87
-70.51
-54.68
-36.34
-17.73
-0.76
13.29
23.86
30.88
34.56
35.26
33.5
29.94
25.45
20.84
16.83
13.74
11.59
10.11
8.98
7.95
6.88
5.66
4.19
2.22
-0.51
-4.23
-8.99
-14.59
-20.65
-26.69
-32.39
-37.66
-42.73
-48.07
-54.25
-61.68
-70.32
-79.44
-87.58
-92.76
-93.09
-87.29
-75.25
-58.16
-38.13
-17.66
1.13
16.86
29.06
37.87
43.74
47.11
48.37
47.84
45.92
43.08
39.86
36.73
33.99
31.76
30
28.59
27.36
26.08
24.53
22.39
19.4
15.38
10.34
4.51
-1.73
-7.98
-13.97
-19.68
-25.39
-31.59
-38.83
-47.42
-57.09
-66.83
-74.89
-79.18
-77.85
-69.98
-55.9
-37.26
-16.46
4.02
22.32
37.48
49.34
58.23
64.57
68.61
70.48
70.27
68.22
64.7
60.21
55.25
50.24
45.45
40.98
36.8
32.75
28.63
24.22
19.38
14.06
8.37
2.44
-3.54
-9.51
-15.52
-21.79
-28.66
-36.52
-45.58
-55.63
-65.77
-74.44
-79.67
-79.69
-73.49
-61.3
-44.58
-25.54
-6.52
10.71
25.18
36.71
45.52
51.91
56.01
57.85
57.49
55.23
51.65
47.52
43.6
40.41
38.11
36.52
35.21
33.74
31.74
29.07
25.79
22.01
17.82
13.21
8.08
2.26
-4.35
-11.81
-20.17
-29.38
-39.23
-49.14
-57.98
-64.19
-66.12
-62.56
-53.24
-39.02
-21.69
-3.37
14.04
29.28
41.78
51.36
58.04
61.8
62.69
60.95
57.15
52.12
46.78
41.87
37.78
34.49
31.67
28.86
25.72
22.09
18.09
13.97
9.97
6.18
2.45
-1.56
-6.3
-12.13
-19.24
-27.55
-36.7
-45.93
-54.11
-59.78
-61.45
-58.03
-49.22
-35.76
-19.27
-1.8
14.72
28.94
40.17
48.25
53.22
55.18
54.28
50.81
45.39
38.93
32.49
26.96
22.84
20.08
18.22
16.57
14.55
11.85
8.52
4.82
1.08
-2.58
-6.26
-10.31
-15.1
-20.95
-27.99
-36.12
-44.9
-53.52
-60.7
-64.89
-64.65
-59.11
-48.4
-33.71
-16.96
-0.22
14.83
27.17
36.43
42.6
45.74
45.98
43.59
39.1
33.4
27.51
22.36
18.51
16.03
14.53
13.41
12.04
9.99
7.13
3.56
-0.46
-4.68
-8.96
-13.3
-17.87
-22.92
-28.76
-35.64
-43.58
-52.21
-60.61
-67.35
-70.75
-69.35
-62.4
-50.16
-33.91
-15.61
2.6
18.96
32.35
42.37
49.16
53.12
54.7
54.32
52.33
49.1
45.08
40.71
36.46
32.63
29.37
26.64
24.24
21.95
19.51
16.69
13.32
9.3
4.64
-0.48
-5.81
-11.11
-16.23
-21.27
-26.49
-32.3
-39.08
-46.94
-55.47
-63.65
-69.9
-72.46
-69.93
-61.77
-48.51
-31.69
-13.4
4.35
20.03
32.8
42.43
49.04
52.9
54.35
53.77
51.69
48.64
45.18
41.71
38.43
35.39
32.55
29.87
27.38
25.14
23.11
21.16
19
16.26
12.66
8.12
2.81
-2.88
-8.5
-13.7
-18.37
-22.71
-27.16
-32.3
-38.54
-45.92
-53.9
-61.33
-66.58
-68.01
-64.46
-55.66
-42.39
-26.3
-9.4
6.44
19.95
30.55
38.19
43.14
45.71
46.19
44.96
42.5
39.43
36.38
33.77
31.79
30.27
28.97
27.61
26.12
24.58
23.11
21.75
20.32
18.44
15.72
11.89
6.97
1.26
-4.74
-10.53
-15.79
-20.43
-24.65
-28.85
-33.5
-39
-45.44
-52.46
-59.12
-64.05
-65.75
-63.09
-55.69
-44.08
-29.63
-14.08
0.88
13.95
24.38
31.88
36.45
38.29
37.75
35.33
31.73
27.68
23.9
20.83
18.57
16.97
15.66
14.33
12.88
11.4
10.07
8.97
7.92
6.52
4.31
0.98
-3.42
-8.54
-13.85
-18.9
-23.49
-27.75
-32.04
-36.78
-42.31
-48.71
-55.59
-62.09
-66.91
-68.61
-66.02
-58.67
-47.04
-32.5
-16.92
-2.12
10.55
20.47
27.58
32.17
34.55
34.94
33.5
30.45
26.23
21.48
16.92
13.14
10.48
8.95
8.24
7.87
7.31
6.13
4.13
1.29
-2.21
-6.1
-10.16
-14.24
-18.32
-22.46
-26.77
-31.44
-36.69
-42.74
-49.65
-57.14
-64.34
-69.87
-72.14
-69.78
-62.27
-50.09
-34.75
-18.25
-2.57
10.86
21.35
28.84
33.65
36.11
36.47
34.94
31.79
27.53
22.85
18.49
15.01
12.62
11.15
10.21
9.35
8.2
6.52
4.18
1.09
-2.78
-7.37
-12.47
-17.82
-23.15
-28.34
-33.51
-38.98
-45.2
-52.49
-60.77
-69.38
-77.05
-82.05
-82.72
-77.96
-67.64
-52.73
-35.04
-16.64
0.63
15.57
27.63
36.7
42.88
46.37
47.41
46.43
44.04
40.94
37.74
34.81
32.23
29.89
27.64
25.45
23.44
21.73
20.3
18.87
16.94
14
9.73
4.17
-2.28
-9
-15.46
-21.37
-26.83
-32.24
-38.19
-45.24
-53.63
-63.01
-72.35
-79.95
-83.82
-82.24
-74.33
-60.42
-42.03
-21.39
-0.83
17.8
33.43
45.69
54.66
60.58
63.73
64.42
63.14
60.57
57.49
54.6
52.27
50.51
48.97
47.21
44.95
42.23
39.34
36.71
34.56
32.71
30.62
27.55
22.93
16.64
9.11
1.13
-6.43
-13.06
-18.75
-23.93
-29.31
-35.54
-43.05
-51.83
-61.28
-70.25
-77.04
-79.8
-76.96
-67.79
-52.75
-33.46
-12.26
8.47
26.82
41.77
53.05
60.86
65.57
67.53
67.1
64.72
61.05
56.88
52.99
49.97
47.99
46.84
45.98
44.9
43.21
40.85
38.06
35.18
32.49
29.96
27.29
23.95
19.48
13.7
6.88
-0.37
-7.32
-13.45
-18.64
-23.21
-27.76
-32.91
-39.11
-46.48
-54.78
-63.29
-70.83
-75.84
-76.7
-72.21
-62
-46.88
-28.59
-9.42
8.5
23.61
35.17
43.07
47.57
49.1
48.17
45.41
41.57
37.43
33.65
30.63
28.49
27.09
26.2
25.61
25.21
24.92
24.56
23.88
22.46
19.94
16.11
11.06
5.11
-1.22
-7.43
-13.2
-18.44
-23.36
-28.35
-33.94
-40.55
-48.25
-56.49
-63.98
-68.9
-69.38
-64.14
-53.08
-37.31
-18.88
-0.12
16.96
31.05
41.51
48.22
51.33
51.17
48.28
43.46
37.74
32.11
27.38
23.92
21.67
20.3
19.33
18.4
17.3
15.95
14.29
12.19
9.38
5.6
0.71
-5.22
-11.84
-18.65
-25.17
-31.17
-36.72
-42.24
-48.35
-55.6
-64.22
-73.82
-83.2
-90.48
-93.51
-90.49
-80.67
-64.64
-44.24
-22.08
-0.74
17.77
32.4
42.96
49.82
53.6
54.92
54.33
52.38
49.61
46.57
43.68
41.16
39
37.03
35.06
33.04
31.04
29.2
27.49
25.61
23.04
19.23
13.91
7.22
-0.26
-7.79
-14.73
-20.83
-26.33
-31.83
-38.13
-45.87
-55.26
-65.78
-76.07
-84.12
-87.71
-85.07
-75.53
-59.81
-39.91
-18.45
2.07
19.93
34.37
45.44
53.5
58.91
61.87
62.55
61.28
58.66
55.48
52.45
50
48.08
46.34
44.36
41.96
39.23
36.48
34.02
31.88
29.77
27.12
23.4
18.26
11.76
4.35
-3.29
-10.47
-16.74
-22.05
-26.79
-31.63
-37.38
-44.65
-53.57
-63.58
-73.32
-80.89
-84.23
-81.8
-73.06
-58.72
-40.57
-20.91
-1.88
14.98
28.97
39.95
48.08
53.47
56.2
56.42
54.54
51.29
47.61
44.37
42.16
41.06
40.75
40.63
40.16
39.01
37.18
34.92
32.52
30.08
27.47
24.28
20.12
14.76
8.38
1.46
-5.34
-11.53
-16.89
-21.56
-25.95
-30.54
-35.78
-42.02
-49.32
-57.41
-65.4
-71.85
-74.97
-73.13
-65.5
-52.45
-35.51
-16.89
1.2
17.14
30.13
40
46.84
50.74
51.77
50.17
46.56
41.94
37.52
34.22
32.44
31.94
32.04
32.01
31.37
30.06
28.36
26.57
24.82
22.88
20.29
16.52
11.25
4.58
-2.94
-10.5
-17.29
-22.83
-27.11
-30.7
-34.48
-39.41
-46.1
-54.53
-63.84
-72.45
-78.36
-79.68
-75.2
-64.78
-49.44
-31.07
-11.91
6.04
21.44
33.7
42.84
49.15
52.94
54.43
53.87
51.6
48.21
44.47
41.13
38.71
37.33
36.74
36.39
35.74
34.41
32.35
29.73
26.84
23.86
20.74
17.19
12.8
7.25
0.5
-7.12
-15
-22.45
-28.93
-34.29
-38.77
-42.95
-47.53
-53.14
-60.14
-68.47
-77.5
-85.95
-92.07
-93.95
-90.06
-79.77
-63.71
-43.65
-22.02
-1.18
17.12
32.08
43.7
52.38
58.59
62.66
64.81
65.22
64.21
62.25
59.83
57.39
55.19
53.31
51.72
50.32
49.02
47.69
46.17
44.22
41.58
38.05
33.58
28.38
22.8
17.18
11.71
6.32
0.76
-5.21
-11.67
-18.42
-25.09
-31.35
-37.03
-42.23
-47.28
-52.63
-58.72
-65.87
-74.05
-82.67
-90.47
-95.63
-96.17
-90.65
-78.73
-61.4
-40.77
-19.37
0.58
17.74
31.7
42.71
51.22
57.55
61.83
64.08
64.5
63.52
61.76
59.83
58.15
56.8
55.66
54.48
53.16
51.71
50.3
49.02
47.72
46.01
43.36
39.33
33.85
27.26
20.24
13.57
7.78
2.94
-1.32
-5.63
-10.58
-16.39
-22.86
-29.41
-35.42
-40.46
-44.51
-47.92
-51.33
-55.44
-60.88
-67.95
-76.47
-85.54
-93.56
-98.44
-98.18
-91.56
-78.59
-60.63
-39.98
-19.17
-0.29
15.48
27.79
36.92
43.33
47.47
49.61
49.96
48.81
46.58
43.88
41.3
39.38
38.29
37.89
37.8
37.58
36.96
35.91
34.56
32.96
31.06
28.62
25.43
21.46
16.86
11.9
6.76
1.47
-4.12
-10.13
-16.45
-22.8
-28.75
-34.02
-38.62
-42.88
-47.39
-52.78
-59.47
-67.48
-76.17
-84.16
-89.56
-90.42
-85.36
-74.13
-57.81
-38.49
-18.62
-0.28
15.28
27.7
37.2
44.2
49.04
51.94
53.08
52.77
51.46
49.65
47.76
46.05
44.66
43.58
42.74
42.04
41.33
40.44
39.17
37.32
34.7
31.22
26.91
21.9
16.47
10.89
5.39
-0
-5.43
-11.2
-17.54
-24.45
-31.67
-38.71
-45.08
-50.54
-55.21
-59.63
-64.59
-70.86
-78.93
-88.61
-98.87
-107.88
-113.3
-113.03
-105.8
-91.78
-72.47
-50.3
-27.88
-7.28
10.36
24.71
36.06
44.86
51.5
56.28
59.48
61.42
62.46
62.95
63.12
62.99
62.48
61.45
59.91
58.02
56.11
54.5
53.3
52.31
51.01
48.77
45.09
39.86
33.45
26.53
19.86
13.91
8.72
3.94
-0.97
-6.49
-12.78
-19.67
-26.72
-33.48
-39.6
-45
-49.88
-54.73
-60.25
-67.15
-75.87
-86.24
-97.12
-106.57
-112.13
-111.64
-103.95
-89.38
-69.65
-47.28
-24.8
-4.09
13.92
29.05
41.53
51.61
59.44
65.05
68.56
70.24
70.52
69.9
68.78
67.46
66.07
64.65
63.17
61.62
60.05
58.54
57.1
55.65
53.88
51.37
47.72
42.73
36.6
29.84
23.14
17.1
11.93
7.4
2.95
-2.03
-7.9
-14.57
-21.61
-28.41
-34.52
-39.73
-44.23
-48.41
-52.8
-57.96
-64.36
-72.28
-81.49
-91.08
-99.29
-103.88
-102.72
-94.56
-79.65
-59.7
-37.38
-15.48
3.91
19.73
31.88
40.81
47.07
51.06
53.05
53.31
52.23
50.33
48.2
46.32
44.98
44.23
43.94
43.9
43.88
43.74
43.31
42.47
40.99
38.66
35.32
30.98
25.86
20.34
14.78
9.38
4.08
-1.39
-7.28
-13.68
-20.38
-26.92
-32.85
-37.96
-42.39
-46.64
-51.43
-57.45
-65.08
-74.12
-83.58
-91.75
-96.47
-95.73
-88.33
-74.37
-55.29
-33.47
-11.49
8.53
25.33
38.57
48.42
55.25
59.39
61.15
60.9
59.21
56.81
54.42
52.52
51.25
50.42
49.75
49.04
48.3
47.66
47.17
46.63
45.61
43.57
40.14
35.32
29.5
23.32
17.36
11.94
6.97
2.11
-3.13
-9.04
-15.63
-22.64
-29.65
-36.29
-42.37
-47.98
-53.42
-59.21
-65.91
-74.01
-83.63
-94.26
-104.54
-112.36
-115.35
-111.58
-100.31
-82.32
-59.74
-35.38
-11.9
8.85
26.03
39.67
50.22
58.17
63.88
67.59
69.5
69.94
69.32
68.13
66.71
65.23
63.67
61.94
59.95
57.79
55.66
53.81
52.34
51.06
49.5
47.1
43.36
38.16
31.81
24.96
18.37
12.56
7.65
3.3
-1.09
-6.14
-12.19
-19.16
-26.6
-33.88
-40.44
-46.03
-50.83
-55.38
-60.5
-66.97
-75.31
-85.42
-96.37
-106.4
-113.15
-114.32
-108.29
-94.83
-75.2
-51.81
-27.53
-4.86
14.58
30.21
42.19
51.04
57.27
61.27
63.36
63.88
63.28
62.02
60.51
58.96
57.39
55.75
54.01
52.26
50.69
49.46
48.54
47.63
46.2
43.71
39.86
34.76
28.92
23.05
17.71
13.09
8.93
4.68
-0.21
-6.02
-12.67
-19.72
-26.6
-32.83
-38.18
-42.77
-47.03
-51.66
-57.42
-64.82
-73.75
-83.17
-91.13
-95.26
-93.45
-84.66
-69.37
-49.45
-27.56
-6.34
12.29
27.32
38.61
46.45
51.29
53.58
53.79
52.45
50.22
47.73
45.47
43.66
42.28
41.15
40.13
39.19
38.42
37.9
37.53
36.94
35.59
32.95
28.76
23.16
16.71
10.12
3.91
-1.75
-7.11
-12.62
-18.66
-25.29
-32.21
-38.95
-45.1
-50.51
-55.32
-59.92
-64.8
-70.48
-77.39
-85.71
-95.03
-104.14
-111.04
-113.36
-109.1
-97.43
-79.11
-56.28
-31.82
-8.41
12.04
28.73
41.65
51.28
58.14
62.69
65.27
66.21
65.85
64.64
62.99
61.27
59.71
58.35
57.14
55.99
54.87
53.81
52.8
51.67
50.08
47.57
43.82
38.75
32.68
26.13
19.65
13.55
7.8
2.09
-3.98
-10.63
-17.79
-25.11
-32.07
-38.22
-43.42
-47.95
-52.46
-57.82
-64.85
-73.86
-84.4
-95.07
-103.67
-107.76
-105.32
-95.48
-78.83
-57.29
-33.56
-10.31
10.45
27.67
41.2
51.4
58.81
63.91
67.02
68.42
68.4
67.36
65.73
63.89
62.11
60.45
58.89
57.4
56
54.78
53.8
52.95
51.9
50.12
47.15
42.75
37.12
30.79
24.47
18.64
13.45
8.6
3.59
-2.02
-8.32
-15.06
-21.76
-27.92
-33.33
-38.11
-42.68
-47.64
-53.62
-61.11
-70.22
-80.47
-90.6
-98.64
-102.3
-99.66
-89.85
-73.47
-52.47
-29.57
-7.45
11.94
27.65
39.62
48.25
54.1
57.61
59.13
59.03
57.74
55.78
53.66
51.77
50.31
49.25
48.49
47.84
47.21
46.51
45.68
44.54
42.83
40.31
36.81
32.4
27.34
21.98
16.55
11.11
5.53
-0.37
-6.65
-13.18
-19.63
-25.66
-31.01
-35.71
-40.01
-44.39
-49.42
-55.6
-63.13
-71.58
-79.78
-85.8
-87.5
-83.16
-72.19
-55.5
-35.21
-14.08
5.46
21.81
34.4
43.42
49.34
52.61
53.5
52.33
49.59
46
42.41
39.5
37.61
36.65
36.25
35.99
35.55
34.85
33.94
32.86
31.47
29.51
26.72
22.98
18.42
13.32
7.95
2.41
-3.39
-9.6
-16.19
-22.93
-29.44
-35.33
-40.5
-45.14
-49.74
-54.9
-61.18
-68.9
-77.98
-87.7
-96.66
-102.89
-104.25
-99.15
-87.16
-69.23
-47.54
-24.81
-3.5
14.74
29.3
40.34
48.45
54.2
58
60.08
60.62
59.85
58.17
56.05
53.97
52.25
51.02
50.22
49.65
49.09
48.31
47.11
45.26
42.58
38.95
34.42
29.19
23.56
17.78
11.99
6.16
0.17
-6.1
-12.66
-19.34
-25.95
-32.26
-38.15
-43.71
-49.19
-55.08
-61.91
-70.12
-79.66
-89.72
-98.68
-104.34
-104.56
-97.96
-84.52
-65.59
-43.55
-20.99
-0.08
17.87
32.41
43.7
52.15
58.21
62.26
64.61
65.54
65.36
64.37
62.89
61.2
59.57
58.15
57
56.06
55.15
54.06
52.55
50.41
47.45
43.61
38.94
33.56
27.72
21.62
15.42
9.15
2.76
-3.84
-10.64
-17.48
-24.14
-30.4
-36.13
-41.46
-46.74
-52.48
-59.28
-67.53
-77.18
-87.46
-96.75
-102.86
-103.6
-97.49
-84.44
-65.88
-44.35
-22.69
-3.22
12.84
25.37
34.89
42.09
47.4
50.94
52.7
52.8
51.58
49.65
47.66
46.1
45.19
44.8
44.59
44.15
43.15
41.48
39.23
36.59
33.71
30.57
27
22.71
17.47
11.28
4.36
-2.84
-9.83
-16.22
-21.83
-26.77
-31.32
-35.88
-40.91
-46.8
-53.87
-62.09
-70.92
-79.14
-84.93
-86.35
-81.92
-71.3
-55.47
-36.5
-16.84
1.4
16.98
29.53
39.24
46.37
51.06
53.28
53.11
50.94
47.56
43.96
41.01
39.23
38.62
38.76
39.02
38.79
37.77
35.98
33.69
31.21
28.69
25.99
22.72
18.42
12.81
6
-1.53
-9.07
-15.96
-21.85
-26.8
-31.26
-35.83
-41.11
-47.58
-55.47
-64.65
-74.48
-83.64
-90.26
-92.3
-88.2
-77.44
-60.91
-40.72
-19.54
0.24
17.08
30.47
40.72
48.46
54.19
58.18
60.5
61.19
60.44
58.64
56.28
53.81
51.53
49.57
47.93
46.46
44.99
43.35
41.38
38.95
35.99
32.45
28.35
23.75
18.72
13.33
7.6
1.53
-4.84
-11.41
-17.98
-24.29
-30.16
-35.56
-40.72
-46.07
-52.13
-59.39
-68.02
-77.72
-87.49
-95.68
-100.27
-99.39
-91.94
-78.11
-59.37
-38.04
-16.59
3.08
19.96
33.9
45.22
54.35
61.51
66.79
70.22
71.93
72.18
71.31
69.65
67.46
64.9
62.12
59.3
56.64
54.33
52.43
50.79
49.05
46.68
43.24
38.52
32.66
26.13
19.51
13.31
7.73
2.63
-2.37
-7.7
-13.62
-20.11
-26.82
-33.26
-39.02
-43.9
-48.15
-52.37
-57.38
-63.93
-72.29
-81.96
-91.48
-98.7
-101.3
-97.56
-86.96
-70.47
-50.22
-28.88
-8.81
8.44
22.3
32.99
41.05
46.97
51.06
53.4
54.1
53.4
51.68
49.48
47.29
45.45
44.1
43.15
42.36
41.49
40.29
38.64
36.48
33.81
30.66
27.02
22.85
18.04
12.51
6.27
-0.49
-7.42
-14.1
-20.15
-25.37
-29.85
-33.88
-37.89
-42.4
-47.85
-54.57
-62.61
-71.51
-80.2
-86.99
-89.94
-87.36
-78.53
-63.95
-45.33
-25.06
-5.49
11.64
25.54
36.16
43.87
49.1
52.15
53.25
52.65
50.79
48.22
45.53
43.16
41.3
39.91
38.85
37.94
37.04
36.07
34.89
33.28
30.97
27.73
23.54
18.59
13.19
7.68
2.21
-3.29
-9.03
-15.22
-21.88
-28.77
-35.49
-41.61
-46.88
-51.39
-55.58
-60.15
-65.9
-73.42
-82.8
-93.32
-103.42
-110.89
-113.45
-109.44
-98.42
-81.34
-60.28
-37.77
-16.09
3.27
19.7
33.27
44.34
53.24
60.12
65.07
68.17
69.63
69.81
69.09
67.78
66.06
64.02
61.73
59.32
57.05
55.16
53.79
52.85
51.96
50.56
48.1
44.28
39.1
32.97
26.49
20.24
14.56
9.4
4.39
-0.95
-6.98
-13.76
-21
-28.21
-34.9
-40.81
-46
-50.88
-56.09
-62.36
-70.21
-79.72
-90.28
-100.45
-108.19
-111.32
-108.14
-98.08
-81.86
-61.39
-39.12
-17.41
2.12
18.73
32.39
43.44
52.18
58.77
63.22
65.61
66.25
65.63
64.34
62.85
61.36
59.86
58.19
56.31
54.33
52.5
51.02
49.85
48.69
47.02
44.39
40.56
35.69
30.2
24.59
19.26
14.31
9.54
4.62
-0.79
-6.82
-13.36
-20.03
-26.37
-31.97
-36.69
-40.67
-44.43
-48.63
-54.02
-61.11
-69.86
-79.48
-88.4
-94.51
-95.71
-90.61
-79.03
-62.12
-42.02
-21.21
-1.81
14.86
28.29
38.57
45.99
50.81
53.25
53.55
52.13
49.57
46.56
43.69
41.38
39.71
38.58
37.78
37.06
36.26
35.27
33.98
32.25
29.92
26.88
23.11
18.69
13.75
8.43
2.81
-3.12
-9.37
-15.9
-22.57
-29.16
-35.4
-41.14
-46.37
-51.31
-56.42
-62.26
-69.37
-77.96
-87.59
-97.05
-104.41
-107.49
-104.5
-94.68
-78.67
-58.36
-36.33
-15.08
3.63
19.01
31.15
40.54
47.65
52.78
56.01
57.46
57.39
56.27
54.59
52.78
51.08
49.52
48.1
46.81
45.7
44.77
43.91
42.82
41.09
38.38
34.5
29.58
23.91
17.89
11.8
5.77
-0.28
-6.52
-13.07
-19.94
-26.94
-33.78
-40.18
-45.99
-51.3
-56.52
-62.25
-69.19
-77.76
-87.79
-98.24
-107.17
-112.2
-111.16
-102.85
-87.57
-66.98
-43.69
-20.35
0.98
19.18
34.04
45.87
55.1
62.03
66.78
69.44
70.21
69.5
67.85
65.83
63.83
62.05
60.5
59.12
57.91
56.89
56.04
55.18
53.93
51.75
48.23
43.22
37.03
30.25
23.53
17.3
11.56
6.01
0.19
-6.2
-13.15
-20.33
-27.34
-33.82
-39.66
-45.04
-50.31
-55.98
-62.59
-70.48
-79.64
-89.37
-98.15
-103.93
-104.53
-98.49
-85.54
-66.9
-44.84
-22.05
-0.8
17.47
32.31
43.86
52.55
58.64
62.28
63.56
62.76
60.42
57.29
54.15
51.6
49.89
48.93
48.43
48.03
47.41
46.36
44.8
42.66
39.95
36.64
32.74
28.24
23.15
17.46
11.21
4.5
-2.49
-9.5
-16.25
-22.52
-28.22
-33.47
-38.56
-43.98
-50.26
-57.85
-66.75
-76.34
-85.17
-91.23
-92.37
-87.06
-74.95
-57.1
-35.72
-13.54
6.99
24.2
37.41
46.71
52.6
55.66
56.37
55.18
52.57
49.15
45.59
42.56
40.5
39.51
39.34
39.53
39.56
39.05
37.83
35.89
33.28
30.01
26.06
21.44
16.25
10.68
4.92
-0.97
-7.07
-13.53
-20.46
-27.73
-35.04
-41.95
-48.17
-53.68
-58.84
-64.31
-70.86
-79.07
-88.95
-99.7
-109.62
-116.34
-117.49
-111.4
-97.78
-77.81
-53.89
-28.84
-5.16
15.5
32.42
45.63
55.52
62.57
67.25
69.96
71.12
71.1
70.24
68.78
66.94
64.88
62.8
60.87
59.23
57.9
56.76
55.53
53.87
51.39
47.87
43.28
37.84
31.9
25.82
19.82
13.9
7.9
1.57
-5.21
-12.38
-19.65
-26.67
-33.11
-38.86
-44.11
-49.34
-55.27
-62.58
-71.6
-81.98
-92.44
-100.87
-104.8
-102.18
-92.1
-75.14
-53.26
-29.19
-5.64
15.36
32.74
46.32
56.44
63.63
68.37
71.04
72
71.6
70.26
68.39
66.32
64.25
62.26
60.34
58.49
56.8
55.36
54.21
53.19
51.89
49.77
46.35
41.48
35.39
28.66
21.98
15.84
10.36
5.29
0.15
-5.49
-11.79
-18.59
-25.44
-31.86
-37.53
-42.48
-47.09
-52.01
-57.99
-65.55
-74.71
-84.7
-93.9
-100.1
-101.07
-95.25
-82.41
-63.76
-41.66
-18.94
1.95
19.44
33.01
42.89
49.63
53.7
55.43
55.06
52.92
49.63
46
42.84
40.71
39.79
39.82
40.27
40.55
40.27
39.25
37.57
35.38
32.81
29.84
26.32
22.04
16.77
10.5
3.4
-4.09
-11.48
-18.33
-24.44
-29.88
-34.98
-40.16
-45.9
-52.58
-60.37
-69.13
-78.2
-86.34
-91.8
-92.74
-87.76
-76.45
-59.69
-39.37
-17.96
2.25
19.64
33.44
43.64
50.58
54.75
56.58
56.45
54.82
52.23
49.25
46.42
44.1
42.41
41.31
40.61
40.09
39.48
38.58
37.21
35.22
32.48
28.92
24.54
19.39
13.64
7.49
1.11
-5.42
-12.11
-18.98
-25.98
-32.92
-39.49
-45.39
-50.54
-55.21
-59.96
-65.55
-72.62
-81.35
-91.19
-100.76
-107.97
-110.54
-106.65
-95.58
-78.05
-56.09
-32.38
-9.53
10.65
27.36
40.71
51.18
59.28
65.3
69.31
71.38
71.75
70.87
69.27
67.45
65.69
64.05
62.46
60.86
59.33
57.99
56.94
56.06
54.96
53.06
49.86
45.16
39.2
32.59
26.03
20.03
14.63
9.48
3.98
-2.31
-9.49
-17.21
-24.88
-31.9
-37.96
-43.16
-47.97
-53.14
-59.44
-67.43
-77.16
-87.97
-98.33
-106.1
-108.92
-105.06
-93.95
-76.52
-54.95
-31.95
-9.97
9.37
25.44
38.3
48.29
55.74
60.82
63.71
64.7
64.26
62.96
61.3
59.62
58.01
56.47
54.92
53.39
51.97
50.75
49.73
48.77
47.49
45.46
42.34
37.97
32.53
26.43
20.24
14.43
9.23
4.56
0.04
-4.82
-10.4
-16.77
-23.61
-30.31
-36.22
-40.99
-44.69
-47.9
-51.47
-56.29
-62.89
-71.3
-80.78
-89.85
-96.5
-98.61
-94.6
-83.93
-67.45
-47.14
-25.52
-4.98
12.84
27.18
38.03
45.74
50.7
53.26
53.73
52.52
50.15
47.2
44.26
41.78
40.03
39.08
38.78
38.83
38.85
38.46
37.4
35.53
32.87
29.55
25.72
21.52
17
12.14
6.89
1.26
-4.7
-10.84
-16.98
-22.96
-28.66
-34.06
-39.27
-44.55
-50.3
-56.98
-64.86
-73.75
-82.77
-90.29
-94.25
-92.78
-84.86
-70.74
-51.97
-30.94
-10.11
8.6
24.13
36.25
45.24
51.51
55.46
57.4
57.63
56.56
54.65
52.37
50.08
48.02
46.29
44.91
43.87
43.12
42.55
41.96
41.09
39.64
37.33
34.04
29.77
24.7
19.11
13.28
7.41
1.53
-4.41
-10.56
-16.99
-23.69
-30.43
-36.95
-42.98
-48.45
-53.57
-58.85
-64.97
-72.5
-81.53
-91.36
-100.37
-106.34
-107.02
-100.9
-87.79
-68.98
-46.86
-24.12
-3.05
15.03
29.72
41.29
50.19
56.77
61.18
63.59
64.25
63.63
62.33
60.85
59.48
58.23
56.96
55.51
53.9
52.32
50.99
49.97
49.05
47.71
45.41
41.79
36.86
31.01
24.84
18.84
13.28
8.05
2.81
-2.8
-8.99
-15.69
-22.51
-29.01
-34.79
-39.76
-44.16
-48.52
-53.55
-59.94
-68.03
-77.6
-87.57
-96.13
-101.04
-100.29
-92.75
-78.64
-59.48
-37.68
-15.81
4.08
20.81
34.03
43.95
51.05
55.81
58.65
59.93
59.99
59.17
57.79
56.15
54.48
52.92
51.55
50.35
49.31
48.41
47.58
46.72
45.55
43.73
40.89
36.82
31.61
25.66
19.58
13.92
8.95
4.57
0.33
-4.26
-9.57
-15.55
-21.84
-27.83
-33.02
-37.19
-40.57
-43.78
-47.67
-53
-60.14
-68.77
-77.7
-85.04
-88.55
-86.35
-77.54
-62.6
-43.35
-22.33
-2.09
15.51
29.57
40.03
47.27
51.73
53.75
53.62
51.78
48.84
45.59
42.76
40.86
39.95
39.73
39.69
39.29
38.24
36.48
34.21
31.67
29.03
26.23
23.03
19.05
13.99
7.78
0.65
-6.92
-14.37
-21.2
-27.18
-32.37
-37.11
-41.92
-47.3
-53.68
-61.2
-69.59
-78.03
-85.17
-89.33
-88.96
-83.08
-71.67
-55.75
-37.12
-17.89
0.05
15.4
27.6
36.65
42.86
46.61
48.18
47.81
45.86
42.89
39.64
36.89
35.17
34.53
34.61
34.77
34.42
33.25
31.35
29
26.49
23.93
21.1
17.66
13.24
7.66
1
-6.39
-14.06
-21.54
-28.51
-34.86
-40.69
-46.21
-51.78
-57.83
-64.8
-72.95
-82.09
-91.29
-98.85
-102.67
-100.86
-92.49
-77.94
-58.93
-37.89
-17.24
1.29
16.91
29.64
39.84
47.9
53.95
57.98
59.97
60.13
58.92
57
55
53.36
52.14
51.11
49.88
48.14
45.82
43.12
40.34
37.71
35.23
32.61
29.41
25.14
19.59
12.85
5.34
-2.35
-9.67
-16.33
-22.3
-27.81
-33.28
-39.17
-45.98
-54.02
-63.3
-73.24
-82.5
-89.19
-91.25
-87.19
-76.65
-60.62
-41.21
-20.89
-1.84
14.6
28.02
38.63
46.84
52.99
57.15
59.29
59.5
58.1
55.7
53.01
50.58
48.67
47.14
45.58
43.64
41.13
38.2
35.18
32.34
29.71
26.99
23.65
19.2
13.45
6.68
-0.52
-7.4
-13.41
-18.39
-22.59
-26.55
-30.88
-36.15
-42.73
-50.7
-59.68
-68.77
-76.51
-81.11
-80.97
-75.17
-63.86
-48.32
-30.48
-12.45
4.09
18.09
29.16
37.3
42.68
45.53
46.15
44.95
42.5
39.47
36.43
33.8
31.7
30.01
28.52
26.99
25.37
23.71
22.06
20.37
18.36
15.61
11.7
6.46
0.03
-7.07
-14.18
-20.72
-26.44
-31.5
-36.43
-41.97
-48.72
-56.9
-66.01
-74.82
-81.51
-84.17
-81.38
-72.7
-58.87
-41.57
-22.92
-4.83
11.37
25.12
36.36
45.25
51.9
56.25
58.28
58.15
56.37
53.73
51.04
48.84
47.27
46.03
44.66
42.78
40.32
37.46
34.54
31.77
29.1
26.18
22.53
17.71
11.51
4.08
-4.08
-12.26
-19.77
-26.17
-31.45
-36.04
-40.66
-46.17
-53.2
-61.93
-71.92
-81.98
-90.35
-95.02
-94.33
-87.4
-74.51
-57.01
-36.89
-16.27
3.21
20.52
35.28
47.44
57.13
64.43
69.44
72.32
73.35
72.95
71.63
69.83
67.84
65.81
63.7
61.51
59.23
56.95
54.73
52.5
50.04
46.99
43.07
38.16
32.41
26.17
19.86
13.79
8.07
2.58
-2.92
-8.68
-14.81
-21.19
-27.54
-33.51
-38.85
-43.65
-48.35
-53.69
-60.41
-68.83
-78.5
-88.06
-95.53
-98.7
-95.96
-86.74
-71.75
-52.71
-31.83
-11.18
7.73
24.13
37.82
48.92
57.61
63.98
68.12
70.17
70.44
69.42
67.7
65.8
64.04
62.47
60.92
59.19
57.18
54.95
52.73
50.68
48.79
46.79
44.23
40.66
35.87
30
23.52
17.07
11.21
6.21
1.96
-1.94
-6
-10.58
-15.78
-21.34
-26.83
-31.8
-36.03
-39.59
-42.87
-46.41
-50.8
-56.44
-63.41
-71.31
-79.21
-85.67
-89.05
-87.84
-81.2
-69.26
-53.11
-34.58
-15.61
2.08
17.43
29.98
39.69
46.7
51.2
53.41
53.62
52.27
49.9
47.07
44.24
41.73
39.63
37.95
36.58
35.4
34.31
33.17
31.81
30.01
27.55
24.27
20.2
15.56
10.64
5.73
0.92
-3.9
-8.91
-14.25
-19.85
-25.44
-30.68
-35.3
-39.29
-42.91
-46.59
-50.88
-56.22
-62.77
-70.27
-77.85
-84.08
-87.27
-85.9
-79.18
-67.28
-51.39
-33.29
-14.88
2.31
17.39
30
40.2
48.11
53.83
57.42
58.98
58.83
57.46
55.5
53.5
51.77
50.34
48.99
47.46
45.64
43.6
41.5
39.51
37.6
35.57
33.1
29.9
25.82
20.94
15.53
10.04
4.88
0.35
-3.53
-7.01
-10.51
-14.46
-19.09
-24.35
-29.91
-35.34
-40.28
-44.6
-48.46
-52.29
-56.62
-62
-68.74
-76.76
-85.44
-93.57
-99.53
-101.61
-98.49
-89.71
-75.83
-58.33
-39.17
-20.26
-2.98
11.98
24.51
34.82
43.15
49.66
54.44
57.56
59.19
59.62
59.15
58.08
56.7
55.24
53.89
52.76
51.87
51.11
50.32
49.33
47.97
46.12
43.69
40.65
37.06
33.02
28.71
24.31
19.92
15.59
11.29
7
2.71
-1.56
-5.75
-9.89
-14.06
-18.37
-22.92
-27.71
-32.7
-37.72
-42.67
-47.44
-52.08
-56.74
-61.67
-67.22
-73.65
-80.99
-88.8
-96.02
-101.1
-102.36
-98.49
-89.04
-74.69
-57.06
-38.22
-20.05
-3.81
10.03
21.55
31.03
38.66
44.43
48.29
50.26
50.6
49.84
48.58
47.38
46.54
46.16
46.06
46.02
45.86
45.49
44.9
44.13
43.13
41.77
39.86
37.2
33.71
29.44
24.6
19.55
14.65
10.2
6.32
2.93
-0.23
-3.54
-7.36
-11.81
-16.79
-21.91
-26.72
-30.9
-34.39
-37.53
-40.88
-45.08
-50.61
-57.64
-65.88
-74.51
-82.24
-87.48
-88.64
-84.64
-75.2
-61.09
-43.89
-25.59
-8.04
7.47
20.35
30.55
38.32
43.92
47.5
49.19
49.2
47.92
45.94
43.91
42.36
41.53
41.35
41.46
41.48
41.16
40.46
39.53
38.53
37.5
36.17
34.16
31.11
26.87
21.68
16.02
10.44
5.32
0.75
-3.46
-7.59
-11.93
-16.63
-21.69
-27.01
-32.45
-37.86
-43.08
-48.02
-52.68
-57.23
-62.05
-67.67
-74.59
-83.02
-92.6
-102.2
-110.04
-114.04
-112.43
-104.37
-90.23
-71.53
-50.49
-29.29
-9.59
7.72
22.44
34.77
44.98
53.23
59.57
64.03
66.76
68.03
68.23
67.75
66.95
66.05
65.2
64.47
63.86
63.35
62.87
62.26
61.29
59.69
57.24
53.84
49.53
44.51
39.02
33.27
27.4
21.49
15.63
9.93
4.5
-0.62
-5.57
-10.63
-16.18
-22.41
-29.24
-36.28
-43
-49
-54.2
-58.98
-63.99
-69.97
-77.48
-86.64
-96.92
-107.15
-115.55
-120.06
-118.88
-110.91
-96.29
-76.33
-53.22
-29.41
-7.01
12.65
29.01
42.14
52.36
60.06
65.49
68.9
70.54
70.74
69.92
68.51
66.93
65.49
64.35
63.54
62.99
62.55
62.04
61.31
60.19
58.56
56.27
53.23
49.4
44.86
39.74
34.27
28.67
23.09
17.69
12.55
7.73
3.25
-0.95
-5.07
-9.37
-14.09
-19.33
-25.02
-30.91
-36.67
-42.03
-46.91
-51.45
-56
-61.09
-67.27
-74.92
-83.96
-93.66
-102.49
-108.4
-109.27
-103.6
-91.04
-72.6
-50.4
-27.05
-4.96
14.18
29.64
41.43
50
55.86
59.41
60.94
60.78
59.36
57.28
55.16
53.45
52.33
51.65
51.11
50.44
49.6
48.73
48.03
47.54
46.99
45.84
43.49
39.6
34.25
28
21.65
15.86
10.92
6.62
2.41
-2.3
-7.84
-14.14
-20.76
-27.08
-32.59
-37.12
-40.89
-44.49
-48.72
-54.35
-61.78
-70.8
-80.41
-88.85
-94.01
-93.93
-87.48
-74.68
-56.81
-35.95
-14.51
5.44
22.49
35.98
45.85
52.37
56
57.25
56.7
54.95
52.59
50.11
47.85
45.96
44.42
43.2
42.19
41.38
40.71
40.07
39.29
38.06
36.1
33.17
29.2
24.29
18.71
12.78
6.8
0.93
-4.87
-10.73
-16.86
-23.33
-30.07
-36.79
-43.16
-48.94
-54.17
-59.21
-64.72
-71.42
-79.74
-89.46
-99.49
-107.91
-112.44
-111.05
-102.66
-87.57
-67.39
-44.52
-21.49
-0.28
17.96
32.86
44.57
53.46
59.89
64.16
66.55
67.36
66.94
65.67
63.95
62.08
60.28
58.67
57.25
55.96
54.7
53.34
51.7
49.54
46.61
42.75
37.99
32.52
26.64
20.64
14.68
8.71
2.57
-3.93
-10.82
-17.95
-25.01
-31.62
-37.55
-42.88
-48.04
-53.81
-60.96
-69.92
-80.34
-90.88
-99.43
-103.58
-101.43
-92.2
-76.51
-56.22
-33.85
-11.88
7.83
24.22
37.07
46.67
53.54
58.2
61.04
62.3
62.2
60.96
58.96
56.67
54.61
53.17
52.51
52.47
52.62
52.46
51.54
49.66
46.87
43.37
39.39
35.05
30.33
25.05
19.04
12.26
4.91
-2.59
-9.73
-16.08
-21.49
-26.12
-30.44
-35.02
-40.48
-47.19
-55.27
-64.31
-73.32
-80.75
-84.72
-83.57
-76.4
-63.46
-46.15
-26.65
-7.22
10.3
24.87
36.19
44.39
49.78
52.63
53.19
51.85
49.19
45.95
42.89
40.59
39.2
38.48
37.91
37
35.49
33.48
31.33
29.32
27.51
25.52
22.73
18.52
12.64
5.3
-2.85
-10.93
-18.21
-24.36
-29.52
-34.24
-39.3
-45.43
-53.12
-62.34
-72.35
-81.69
-88.36
-90.36
-86.27
-75.83
-60.07
-41.01
-21.01
-2.12
14.39
28.07
39
47.48
53.7
57.76
59.72
59.75
58.23
55.74
52.92
50.39
48.53
47.44
46.92
46.55
45.89
44.62
42.63
39.99
36.87
33.35
29.35
24.75
19.42
13.32
6.56
-0.64
-7.98
-15.19
-22.01
-28.31
-34.02
-39.24
-44.23
-49.4
-55.3
-62.46
-71.11
-80.91
-90.76
-98.79
-102.83
-100.99
-92.35
-77.4
-57.85
-36.13
-14.67
4.81
21.46
35.22
46.4
55.4
62.41
67.51
70.73
72.22
72.3
71.41
69.98
68.35
66.67
64.95
63.14
61.19
59.15
57.12
55.14
53.15
50.94
48.16
44.47
39.67
33.8
27.19
20.38
13.94
8.23
3.29
-1.21
-5.79
-10.93
-16.82
-23.28
-29.82
-35.93
-41.25
-45.77
-49.81
-53.92
-58.76
-64.91
-72.68
-81.86
-91.5
-99.95
-105.08
-104.85
-98.06
-84.78
-66.48
-45.53
-24.47
-5.23
11.23
24.84
35.97
45.01
52.09
57.17
60.27
61.64
61.79
61.3
60.6
59.87
59
57.81
56.21
54.27
52.25
50.44
49.01
47.85
46.63
44.82
41.94
37.72
32.26
26.06
19.8
14.14
9.38
5.43
1.8
-2.09
-6.68
-12.02
-17.83
-23.58
-28.78
-33.18
-36.86
-40.22
-43.84
-48.36
-54.23
-61.6
-70.02
-78.4
-85.07
-88.11
-85.94
-77.88
-64.41
-47.11
-28.19
-9.79
6.55
20.14
30.95
39.28
45.41
49.42
51.35
51.38
49.97
47.86
45.84
44.42
43.71
43.45
43.24
42.74
41.88
40.81
39.74
38.75
37.71
36.29
34.09
30.85
26.5
21.26
15.51
9.76
4.44
-0.22
-4.24
-7.93
-11.76
-16.15
-21.32
-27.18
-33.33
-39.24
-44.47
-48.84
-52.55
-56.13
-60.28
-65.66
-72.71
-81.4
-91.06
-100.32
-107.3
-109.97
-106.72
-96.92
-81.24
-61.45
-39.99
-19.21
-0.8
14.5
26.76
36.55
44.52
51.08
56.39
60.37
62.93
64.09
64.05
63.15
61.8
60.35
59.03
57.91
56.97
56.16
55.4
54.58
53.53
52
49.72
46.5
42.34
37.49
32.38
27.44
22.91
18.79
14.8
10.67
6.21
1.5
-3.25
-7.81
-12.12
-16.37
-20.85
-25.83
-31.33
-37.1
-42.73
-47.88
-52.43
-56.64
-61.08
-66.43
-73.26
-81.67
-91.1
-100.18
-106.96
-109.38
-105.87
-95.91
-80.25
-60.76
-39.77
-19.48
-1.41
13.8
26.18
36.14
44.07
50.28
54.91
58.09
60
60.92
61.14
60.91
60.39
59.63
58.66
57.54
56.38
55.27
54.21
53.07
51.58
49.53
46.81
43.51
39.84
35.99
32.03
27.9
23.47
18.67
13.59
8.49
3.65
-0.69
-4.49
-7.83
-10.99
-14.24
-17.83
-21.9
-26.42
-31.26
-36.17
-40.89
-45.24
-49.24
-53.12
-57.36
-62.53
-69.08
-76.95
-85.36
-92.75
-97.12
-96.61
-90.16
-77.93
-61.27
-42.33
-23.32
-5.95
8.87
20.93
30.47
37.76
43
46.28
47.76
47.75
46.76
45.36
44.05
43.09
42.53
42.23
42.01
41.74
41.4
41.04
40.63
40.07
39.05
37.22
34.26
30.05
24.79
18.96
13.17
7.91
3.36
-0.71
-4.78
-9.36
-14.73
-20.72
-26.83
-32.46
-37.16
-40.91
-44.13
-47.58
-52.08
-58.25
-66.24
-75.57
-85.04
-92.91
-97.21
-96.25
-89.14
-76.1
-58.49
-38.47
-18.33
-0.01
15.41
27.61
36.87
43.7
48.5
51.53
52.97
53.07
52.22
50.95
49.74
48.9
48.45
48.2
47.93
47.47
46.81
45.99
45.06
43.96
42.54
40.57
37.85
34.26
29.76
24.46
18.53
12.29
6.1
0.32
-4.84
-9.45
-13.85
-18.58
-24.14
-30.76
-38.26
-46.07
-53.49
-59.96
-65.34
-70.05
-74.95
-81.14
-89.51
-100.29
-112.71
-124.98
-134.58
-138.9
-136.03
-125.41
-108.06
-86.52
-64.24
-44.81
-31.02
-24.11
-23.35
-26.22
-29.21
-28.91
-23.15
-11.6
4.4
22.5
40.37
56.33
69.58
80.02
87.8
93.11
96.11
97.09
96.46
94.81
92.68
90.45
88.28
86.08
83.73
81.17
78.45
75.66
72.93
70.27
67.62
64.8
61.64
57.97
53.68
48.73
43.16
37.1
30.75
24.42
18.37
12.85
7.93
3.52
-0.66
-4.95
-9.67
-14.97
-20.76
-26.81
-32.81
-38.5
-43.82
-48.87
-53.89
-59.25
-65.4
-72.74
-81.44
-91.13
-100.66
-108.12
-111.29
-108.3
-98.33
-82.03
-61.3
-38.73
-16.76
2.9
19.5
33.06
43.95
52.53
59
63.44
65.97
66.9
66.7
65.93
65.06
64.33
63.74
63.15
62.4
61.42
60.24
58.98
57.71
56.39
54.87
52.89
50.2
46.63
42.11
36.75
30.81
24.64
18.63
13.08
8.09
3.54
-0.9
-5.61
-10.89
-16.75
-22.93
-29.01
-34.6
-39.53
-43.94
-48.23
-52.94
-58.57
-65.48
-73.72
-82.87
-91.89
-99.17
-102.75
-100.89
-92.65
-78.32
-59.44
-38.37
-17.6
0.9
16.07
27.73
36.24
42.16
45.92
47.77
47.93
46.67
44.45
41.86
39.52
37.87
37.04
36.87
36.99
37.01
36.63
35.77
34.45
32.73
30.59
27.91
24.52
20.33
15.41
10.01
4.46
-0.92
-5.99
-10.76
-15.37
-19.97
-24.62
-29.31
-34.1
-39.18
-44.91
-51.7
-59.59
-67.97
-75.43
-80.04
-79.9
-73.86
-61.98
-45.55
-26.7
-7.74
9.51
23.99
35.4
43.88
49.68
52.98
53.98
52.97
50.48
47.24
43.97
41.25
39.35
38.24
37.67
37.32
36.85
36
34.59
32.52
29.8
26.51
22.79
18.71
14.21
9.15
3.4
-3.06
-10.05
-17.22
-24.19
-30.67
-36.57
-42.07
-47.51
-53.31
-59.91
-67.65
-76.56
-86.21
-95.45
-102.54
-105.43
-102.41
-92.75
-77.05
-57.14
-35.52
-14.61
3.93
19.39
31.82
41.66
49.32
55
58.77
60.74
61.15
60.45
59.13
57.6
56.12
54.75
53.45
52.08
50.49
48.54
46.18
43.4
40.25
36.81
33.06
28.91
24.14
18.51
11.96
4.64
-3.05
-10.58
-17.54
-23.73
-29.24
-34.38
-39.61
-45.42
-52.25
-60.41
-69.82
-79.77
-88.83
-94.98
-96.14
-90.9
-79.06
-61.84
-41.49
-20.55
-1.13
15.54
29.13
39.9
48.27
54.59
59.05
61.77
62.95
62.88
61.9
60.39
58.65
56.9
55.29
53.86
52.58
51.32
49.82
47.83
45.14
41.7
37.62
33.11
28.35
23.38
18.12
12.41
6.17
-0.47
-7.22
-13.68
-19.55
-24.75
-29.39
-33.8
-38.38
-43.6
-49.89
-57.48
-66.17
-75.04
-82.5
-86.53
-85.34
-78
-64.89
-47.66
-28.66
-10.22
6.01
19.34
29.82
37.89
43.91
48.06
50.34
50.82
49.82
47.9
45.76
43.99
42.88
42.33
41.95
41.28
40
38.09
35.78
33.39
31.12
28.86
26.24
22.75
18
11.97
4.99
-2.33
-9.34
-15.6
-21
-25.79
-30.42
-35.38
-41.16
-48.08
-56.19
-65.12
-73.95
-81.19
-85.05
-83.94
-76.98
-64.44
-47.69
-28.9
-10.28
6.43
20.37
31.49
40.2
46.97
51.99
55.3
56.87
56.9
55.88
54.45
53.14
52.16
51.41
50.58
49.43
47.95
46.28
44.59
42.84
40.73
37.79
33.69
28.4
22.27
15.82
9.56
3.76
-1.7
-7.13
-12.9
-19.2
-25.91
-32.67
-39.01
-44.67
-49.66
-54.37
-59.44
-65.59
-73.27
-82.42
-92.24
-101.2
-107.26
-108.48
-103.51
-92.19
-75.57
-55.68
-34.84
-15.04
2.54
17.55
30.26
41.1
50.38
58.18
64.37
68.81
71.5
72.64
72.56
71.7
70.43
69.03
67.65
66.32
65.03
63.69
62.21
60.43
58.19
55.35
51.87
47.81
43.3
38.54
33.62
28.62
23.54
18.41
13.29
8.31
3.58
-0.89
-5.24
-9.68
-14.46
-19.72
-25.4
-31.31
-37.17
-42.77
-48.04
-53.09
-58.21
-63.8
-70.3
-78.04
-86.96
-96.39
-104.91
-110.6
-111.46
-106.12
-94.33
-77.17
-56.7
-35.33
-15.1
2.73
17.78
30.22
40.49
48.94
55.78
61.04
64.74
66.97
67.9
67.81
67.05
65.93
64.68
63.4
62.12
60.8
59.42
57.95
56.32
54.39
51.96
48.84
44.98
40.52
35.71
30.84
26.1
21.6
17.28
13.11
9.04
5.08
1.2
-2.67
-6.68
-10.98
-15.65
-20.66
-25.8
-30.8
-35.38
-39.37
-42.81
-45.98
-49.42
-53.73
-59.45
-66.76
-75.24
-83.76
-90.57
-93.73
-91.64
-83.64
-70.22
-52.99
-34.1
-15.66
0.8
14.56
25.58
34.18
40.69
45.34
48.2
49.42
49.28
48.26
46.89
45.58
44.56
43.76
43.01
42.17
41.25
40.43
39.86
39.53
39.12
38.1
35.93
32.29
27.32
21.51
15.55
10.04
5.28
1.17
-2.69
-6.8
-11.51
-16.93
-22.83
-28.76
-34.26
-39.01
-43.01
-46.56
-50.27
-54.83
-60.83
-68.44
-77.22
-85.99
-92.94
-96.11
-93.91
-85.72
-72.11
-54.72
-35.73
-17.21
-0.58
13.53
25.16
34.64
42.3
48.26
52.56
55.22
56.42
56.43
55.67
54.5
53.21
51.93
50.68
49.42
48.09
46.71
45.33
44
42.68
41.18
39.25
36.6
33.07
28.65
23.52
18
12.43
7.12
2.24
-2.18
-6.31
-10.48
-15.01
-20.14
-25.84
-31.86
-37.77
-43.21
-48.02
-52.34
-56.55
-61.18
-66.77
-73.73
-82.13
-91.52
-100.77
-108.12
-111.58
-109.48
-101.05
-86.81
-68.45
-48.25
-28.42
-10.51
4.85
17.75
28.59
37.75
45.36
51.39
55.73
58.43
59.77
60.12
59.88
59.31
58.47
57.36
55.95
54.36
52.78
51.4
50.28
49.26
48.02
46.2
43.5
39.82
35.25
30.03
24.5
19.03
13.94
9.42
5.47
1.88
-1.7
-5.68
-10.35
-15.72
-21.57
-27.47
-33
-37.9
-42.18
-46.14
-50.26
-55.1
-61.13
-68.54
-77.03
-85.74
-93.23
-97.73
-97.6
-91.83
-80.47
-64.6
-46.06
-26.91
-8.87
6.96
20.14
30.66
38.72
44.52
48.29
50.28
50.89
50.57
49.8
48.9
48.05
47.28
46.51
45.71
44.9
44.16
43.54
42.97
42.2
40.84
38.52
34.99
30.33
24.88
19.1
13.4
7.94
2.59
-2.95
-8.92
-15.36
-21.98
-28.36
-34.11
-39.09
-43.48
-47.74
-52.52
-58.45
-65.87
-74.66
-83.99
-92.35
-97.83
-98.59
-93.48
-82.41
-66.48
-47.61
-27.94
-9.28
7.27
21.34
32.98
42.42
49.81
55.19
58.59
60.19
60.36
59.63
58.55
57.49
56.53
55.58
54.43
53
51.38
49.78
48.4
47.25
46.08
44.42
41.81
37.93
32.82
26.79
20.44
14.33
8.83
4.01
-0.42
-4.92
-9.98
-15.82
-22.38
-29.31
-36.07
-42.22
-47.54
-52.16
-56.55
-61.41
-67.51
-75.44
-85.25
-96.25
-106.9
-114.99
-118.2
-114.82
-104.31
-87.53
-66.48
-43.66
-21.37
-1.22
16.06
30.38
42.03
51.34
58.59
63.98
67.69
69.98
71.13
71.46
71.25
70.7
69.93
68.95
67.74
66.33
64.79
63.23
61.74
60.28
58.68
56.59
53.62
49.46
44.02
37.53
30.47
23.5
17.17
11.76
7.13
2.8
-1.83
-7.26
-13.62
-20.63
-27.8
-34.58
-40.65
-45.97
-50.82
-55.59
-60.81
-66.98
-74.56
-83.65
-93.81
-103.74
-111.42
-114.53
-111.18
-100.69
-83.83
-62.69
-39.9
-17.89
1.73
18.33
31.97
43.02
51.82
58.54
63.23
65.96
66.92
66.49
65.15
63.41
61.69
60.24
59.11
58.17
57.28
56.32
55.26
54.11
52.81
51.18
48.91
45.66
41.25
35.79
29.72
23.69
18.26
13.7
9.8
6.02
1.72
-3.51
-9.66
-16.27
-22.67
-28.29
-32.91
-36.76
-40.42
-44.66
-50.14
-57.22
-65.75
-74.91
-83.21
-88.71
-89.51
-84.27
-72.74
-55.95
-35.92
-15.12
4.27
20.77
33.79
43.33
49.74
53.4
54.69
54.01
51.95
49.21
46.5
44.35
42.95
42.18
41.73
41.34
40.87
40.34
39.8
39.16
38.21
36.63
34.11
30.57
26.1
20.95
15.45
9.82
4.19
-1.46
-7.24
-13.25
-19.52
-25.96
-32.34
-38.37
-43.83
-48.73
-53.3
-58.14
-63.94
-71.26
-80.14
-89.8
-98.58
-104.25
-104.67
-98.43
-85.47
-67.11
-45.64
-23.7
-3.44
13.82
27.72
38.53
46.79
52.96
57.32
60.03
61.27
61.32
60.55
59.35
58
56.62
55.23
53.8
52.36
50.98
49.72
48.55
47.26
45.47
42.76
38.84
33.7
27.67
21.29
15.13
9.46
4.18
-1.14
-6.99
-13.59
-20.82
-28.19
-35.1
-41.17
-46.36
-51.04
-55.87
-61.55
-68.68
-77.48
-87.48
-97.48
-105.53
-109.41
-107.22
-98.09
-82.56
-62.43
-40.22
-18.43
1.09
17.42
30.47
40.63
48.42
54.26
58.42
61.05
62.28
62.31
61.39
59.81
57.88
55.84
53.83
51.95
50.23
48.69
47.27
45.82
44.05
41.6
38.22
33.84
28.76
23.47
18.58
14.46
11.09
8.05
4.66
0.32
-5.24
-11.83
-18.84
-25.5
-31.23
-35.82
-39.6
-43.26
-47.69
-53.71
-61.73
-71.55
-82.14
-91.66
-97.83
-98.51
-92.39
-79.51
-61.32
-40.31
-19.17
-0.12
15.69
28.08
37.52
44.66
49.87
53.3
54.95
54.95
53.72
51.89
50.13
48.91
48.3
48.07
47.79
47.08
45.71
43.73
41.32
38.66
35.83
32.73
29.14
24.82
19.62
13.57
6.9
-0.03
-6.83
-13.15
-18.79
-23.71
-28.08
-32.22
-36.54
-41.53
-47.58
-54.85
-63.08
-71.41
-78.34
-82.07
-80.89
-73.88
-61.23
-44.34
-25.42
-6.77
9.84
23.49
34.12
42.07
47.74
51.3
52.8
52.35
50.37
47.54
44.65
42.33
40.87
40.15
39.83
39.53
38.95
37.94
36.38
34.15
31.17
27.39
22.89
17.86
12.49
6.92
1.14
-4.91
-11.27
-17.81
-24.29
-30.41
-35.96
-40.92
-45.5
-50.1
-55.27
-61.57
-69.37
-78.61
-88.58
-97.78
-104.16
-105.67
-100.81
-89.28
-72.09
-51.32
-29.42
-8.64
9.57
24.6
36.58
45.95
53.22
58.72
62.64
65.07
66.16
66.11
65.23
63.84
62.18
60.47
58.83
57.35
56.08
54.95
53.74
52.14
49.77
46.38
41.9
36.47
30.4
24.03
17.6
11.21
4.81
-1.71
-8.43
-15.3
-22.09
-28.55
-34.47
-39.82
-44.84
-49.96
-55.74
-62.66
-70.92
-80.18
-89.35
-96.68
-100.1
-97.83
-88.97
-73.95
-54.49
-33.03
-12.08
6.58
22.14
34.71
44.84
53.11
59.82
64.96
68.4
70.1
70.28
69.38
67.88
66.21
64.55
62.91
61.24
59.49
57.76
56.14
54.66
53.14
51.2
48.36
44.26
38.85
32.52
25.94
19.81
14.52
9.99
5.68
0.94
-4.69
-11.17
-18
-24.47
-29.98
-34.35
-37.86
-41.17
-45.09
-50.31
-57.22
-65.69
-74.89
-83.33
-89.08
-90.2
-85.39
-74.44
-58.29
-38.83
-18.28
1.37
18.8
33.41
45.17
54.34
61.19
65.94
68.73
69.81
69.61
68.71
67.77
67.33
67.64
68.64
70.05
71.52
72.76
73.65
74.17
74.31
74.06
73.31
71.91
69.62
66.08
60.8
53.28
43.18
30.5
15.72
-0.33
-16.67
-32.48
-47.3
-61.11
-74.23
-87.12
-100.2
-113.64
-127.11
-139.72
-149.97
-156.06
-156.32
-149.81
-136.69
-118.31
-96.82
-74.6
-53.59
-34.94
-18.98
-5.52
5.81
15.23
22.8
28.52
32.47
34.99
36.53
37.61
38.6
39.63
40.63
41.42
41.87
41.98
41.86
41.64
41.33
40.75
39.55
37.38
34.02
29.55
24.38
19.07
14.13
9.78
5.87
2.01
-2.24
-7.16
-12.7
-18.58
-24.35
-29.7
-34.48
-38.84
-43.17
-48.02
-54.01
-61.62
-70.94
-81.45
-91.84
-100.18
-104.3
-102.43
-93.82
-79.04
-59.83
-38.6
-17.64
1.41
17.77
31.43
42.71
52.01
59.51
65.29
69.35
71.79
72.75
72.52
71.4
69.71
67.73
65.71
63.86
62.28
60.95
59.73
58.43
56.83
54.77
52.15
48.94
45.13
40.74
35.83
30.55
25.11
19.75
14.66
9.88
5.32
0.84
-3.68
-8.29
-13.01
-17.84
-22.83
-28.03
-33.39
-38.8
-44.07
-49.07
-53.86
-58.68
-63.98
-70.22
-77.7
-86.23
-94.99
-102.46
-106.7
-105.91
-99.04
-86.19
-68.7
-48.71
-28.56
-10.11
5.58
18.26
28.18
35.76
41.42
45.44
48.09
49.63
50.35
50.57
50.51
50.32
50.03
49.62
49.03
48.24
47.28
46.26
45.27
44.34
43.38
42.13
40.27
37.5
33.7
28.99
23.74
18.47
13.61
9.39
5.71
2.24
-1.46
-5.76
-10.77
-16.31
-21.97
-27.26
-31.89
-35.84
-39.42
-43.25
-47.98
-54.15
-61.94
-70.9
-79.92
-87.31
-91.17
-89.92
-82.79
-70.13
-53.39
-34.63
-15.95
1.04
15.43
26.95
35.73
41.97
45.87
47.61
47.51
46.06
43.9
41.68
39.89
38.77
38.23
38
37.78
37.39
36.84
36.26
35.73
35.17
34.24
32.44
29.38
24.96
19.49
13.58
7.9
2.89
-1.42
-5.36
-9.45
-14.15
-19.62
-25.75
-32.2
-38.54
-44.39
-49.57
-54.12
-58.34
-62.76
-68.04
-74.82
-83.35
-93.27
-103.35
-111.62
-115.87
-114.24
-105.9
-91.35
-72.21
-50.75
-29.12
-8.94
8.94
24.24
37.02
47.38
55.43
61.3
65.2
67.45
68.42
68.48
67.93
66.98
65.77
64.38
62.94
61.55
60.28
59.17
58.14
57
55.5
53.38
50.43
46.55
41.77
36.27
30.33
24.29
18.47
13.07
8.12
3.42
-1.33
-6.47
-12.19
-18.48
-25.13
-31.81
-38.22
-44.18
-49.74
-55.16
-60.82
-67.2
-74.76
-83.75
-93.98
-104.57
-113.89
-119.81
-120.21
-113.71
-100.17
-80.86
-58.02
-34.21
-11.6
8.44
25.4
39.31
50.43
59.02
65.29
69.43
71.73
72.54
72.3
71.39
70.15
68.82
67.53
66.35
65.29
64.33
63.38
62.33
61.01
59.25
56.93
54
50.51
46.55
42.17
37.37
32.13
26.52
20.74
15.09
9.84
5.12
0.76
-3.62
-8.4
-13.81
-19.79
-25.99
-31.92
-37.2
-41.73
-45.72
-49.66
-54.19
-59.92
-67.25
-76.19
-86.18
-95.95
-103.65
-107.22
-104.93
-95.95
-80.71
-60.82
-38.61
-16.48
3.66
20.7
34.25
44.41
51.47
55.73
57.57
57.44
55.95
53.74
51.42
49.43
47.98
47.07
46.57
46.35
46.28
46.29
46.27
46
45.17
43.41
40.44
36.22
30.95
25.03
18.93
13.04
7.48
2.2
-3.09
-8.66
-14.67
-21.1
-27.67
-33.99
-39.67
-44.57
-48.91
-53.29
-58.52
-65.31
-73.78
-83.24
-92.08
-98.13
-99.23
-93.96
-82.08
-64.68
-43.85
-22.03
-1.36
16.73
31.63
43.28
51.93
57.83
61.19
62.29
61.59
59.74
57.48
55.39
53.72
52.42
51.22
49.9
48.45
47.02
45.87
45.11
44.58
43.83
42.3
39.49
35.22
29.62
23.14
16.42
10.05
4.4
-0.55
-5.12
-9.87
-15.31
-21.71
-28.89
-36.34
-43.38
-49.49
-54.59
-59.06
-63.67
-69.38
-76.92
-86.49
-97.44
-108.22
-116.54
-119.92
-116.45
-105.43
-87.68
-65.32
-41.09
-17.55
3.52
21.36
35.93
47.54
56.56
63.21
67.71
70.34
71.5
71.64
71.13
70.24
69.08
67.71
66.15
64.49
62.82
61.24
59.83
58.54
57.19
55.47
53
49.45
44.64
38.74
32.19
25.65
19.69
14.61
10.25
6.09
1.44
-4.22
-11.02
-18.63
-26.42
-33.69
-39.97
-45.18
-49.65
-54.02
-59.08
-65.54
-73.84
-83.79
-94.41
-103.9
-109.95
-110.32
-103.59
-89.69
-70.02
-47.01
-23.41
-1.53
17.22
32.38
44.16
53
59.29
63.31
65.25
65.4
64.22
62.33
60.33
58.64
57.35
56.31
55.27
54.03
52.68
51.43
50.47
49.74
48.8
47
43.77
38.89
32.68
25.86
19.28
13.47
8.47
3.84
-1.01
-6.56
-12.84
-19.45
-25.83
-31.45
-36.15
-40.12
-43.86
-48.04
-53.29
-60.06
-68.33
-77.43
-85.94
-91.81
-92.93
-87.79
-76.07
-58.83
-38.22
-16.81
3.15
20.21
33.75
43.8
50.67
54.71
56.26
55.71
53.63
50.66
47.5
44.65
42.38
40.71
39.51
38.64
38.04
37.64
37.34
36.9
35.94
34.06
30.98
26.68
21.4
15.54
9.52
3.57
-2.3
-8.24
-14.45
-21.01
-27.79
-34.5
-40.79
-46.42
-51.42
-56.1
-61.05
-66.97
-74.45
-83.6
-93.74
-103.36
-110.3
-112.28
-107.7
-96.15
-78.65
-57.33
-34.73
-13.11
6.04
22.02
34.74
44.41
51.28
55.62
57.75
58.12
57.23
55.61
53.71
51.83
50.11
48.58
47.27
46.22
45.51
45.16
45.06
44.89
44.12
42.24
38.94
34.27
28.67
22.79
17.21
12.18
7.56
2.89
-2.34
-8.4
-15.24
-22.43
-29.41
-35.73
-41.21
-46.03
-50.69
-55.87
-62.2
-70.07
-79.36
-89.23
-98.07
-103.72
-104.05
-97.61
-84.21
-65.07
-42.45
-19
3.03
22.2
37.99
50.5
60.16
67.4
72.51
75.71
77.22
77.36
76.53
75.17
73.64
72.12
70.64
69.05
67.27
65.33
63.45
61.87
60.65
59.55
58.03
55.43
51.33
45.7
39.01
32
25.42
19.72
14.91
10.61
6.26
1.37
-4.25
-10.47
-16.9
-23.11
-28.79
-33.95
-38.86
-44.03
-50.09
-57.58
-66.79
-77.43
-88.49
-98.18
-104.22
-104.48
-97.67
-83.86
-64.53
-42.19
-19.55
1.13
18.58
32.42
42.87
50.36
55.28
57.91
58.6
57.83
56.16
54.16
52.25
50.63
49.28
48.1
47.01
46.01
45.16
44.49
43.87
43
41.48
38.91
35.13
30.27
24.74
19.06
13.62
8.55
3.66
-1.38
-6.91
-13
-19.46
-25.82
-31.6
-36.45
-40.35
-43.66
-47.07
-51.36
-57.18
-64.7
-73.38
-81.87
-88.19
-90.21
-86.3
-75.86
-59.66
-39.6
-18.22
2.04
19.44
33.1
42.93
49.32
52.76
53.74
52.71
50.18
46.75
43.07
39.73
37.16
35.5
34.68
34.49
34.64
34.88
34.97
34.7
33.82
32.05
29.15
25.02
19.8
13.86
7.73
1.91
-3.35
-8.17
-12.96
-18.22
-24.25
-30.95
-37.93
-44.6
-50.56
-55.75
-60.54
-65.59
-71.64
-79.2
-88.23
-97.98
-106.87
-112.74
-113.44
-107.4
-94.31
-75.28
-52.53
-28.73
-6.25
13.38
29.52
42.22
51.81
58.61
62.91
64.96
65.17
64.1
62.35
60.45
58.74
57.3
56.07
54.96
53.91
52.96
52.1
51.2
49.97
47.97
44.8
40.27
34.49
27.92
21.18
14.8
9.01
3.65
-1.71
-7.55
-14.14
-21.35
-28.75
-35.78
-42.06
-47.57
-52.62
-57.85
-63.92
-71.41
-80.52
-90.86
-101.29
-109.96
-114.62
-113.24
-104.73
-89.38
-68.87
-45.73
-22.66
-1.75
15.83
29.81
40.5
48.4
53.98
57.59
59.54
60.17
59.91
59.18
58.34
57.59
56.93
56.22
55.33
54.22
52.99
51.85
50.9
50.02
48.82
46.78
43.47
38.79
33.08
26.95
21.07
15.83
11.2
6.78
2.04
-3.43
-9.68
-16.44
-23.19
-29.42
-34.82
-39.44
-43.67
-48.19
-53.77
-60.94
-69.75
-79.45
-88.49
-94.79
-96.23
-91.3
-79.63
-62.19
-41.02
-18.67
2.47
20.72
35.34
46.33
54.19
59.45
62.53
63.63
62.96
60.83
57.77
54.44
51.48
49.28
47.88
47.06
46.42
45.61
44.43
42.82
40.78
38.29
35.28
31.69
27.48
22.67
17.26
11.3
4.84
-1.98
-8.96
-15.82
-22.29
-28.26
-33.79
-39.18
-44.91
-51.48
-59.26
-68.26
-77.87
-86.82
-93.25
-95.17
-91.05
-80.35
-63.83
-43.38
-21.47
-0.48
17.84
32.61
43.7
51.4
56.15
58.37
58.44
56.78
53.92
50.51
47.16
44.37
42.34
41.03
40.17
39.42
38.49
37.17
35.34
32.97
30.03
26.52
22.43
17.75
12.51
6.75
0.5
-6.16
-13.14
-20.28
-27.38
-34.22
-40.64
-46.58
-52.18
-57.75
-63.76
-70.76
-79.17
-88.97
-99.47
-109.12
-115.77
-117.12
-111.52
-98.55
-79.27
-55.92
-31.28
-7.9
12.54
29.32
42.52
52.63
60.16
65.53
68.99
70.79
71.24
70.71
69.6
68.2
66.65
64.97
63.09
61
58.85
56.84
55.1
53.55
51.79
49.24
45.41
40.17
33.8
26.95
20.28
14.22
8.73
3.42
-2.24
-8.61
-15.65
-23.02
-30.16
-36.67
-42.41
-47.58
-52.71
-58.46
-65.46
-74.07
-84.11
-94.61
-103.83
-109.53
-109.52
-102.41
-88.14
-68.1
-44.78
-21.01
0.86
19.38
34.14
45.43
53.84
59.88
63.87
66.03
66.59
65.93
64.57
62.99
61.5
60.16
58.8
57.24
55.45
53.61
52.02
50.79
49.72
48.24
45.7
41.72
36.38
30.29
24.22
18.77
14.05
9.63
4.88
-0.73
-7.29
-14.4
-21.4
-27.69
-32.96
-37.34
-41.31
-45.56
-50.74
-57.27
-65.18
-73.89
-82.16
-88.17
-89.92
-85.82
-75.29
-59.07
-39.04
-17.73
2.44
19.76
33.44
43.43
50.14
54.07
55.72
55.54
54.01
51.67
49.04
46.56
44.51
43.01
41.99
41.31
40.78
40.26
39.61
38.7
37.37
35.42
32.66
29
24.51
19.45
14.11
8.73
3.36
-2.1
-7.85
-14.02
-20.58
-27.31
-33.94
-40.19
-45.98
-51.44
-57.01
-63.3
-70.89
-80.01
-90.16
-99.98
-107.32
-109.88
-105.89
-94.78
-77.49
-56.14
-33.47
-11.96
6.73
21.95
33.88
43.09
50.18
55.55
59.35
61.67
62.65
62.57
61.77
60.6
59.29
57.89
56.37
54.71
52.96
51.19
49.47
47.66
45.46
42.46
38.38
33.19
27.14
20.69
14.25
8.07
2.11
-3.84
-10.01
-16.49
-23.17
-29.79
-36.01
-41.63
-46.7
-51.53
-56.72
-62.96
-70.77
-80.13
-90.24
-99.41
-105.4
-106.02
-99.86
-86.82
-68.23
-46.4
-23.92
-2.94
15.23
30.15
41.98
51.09
57.84
62.56
65.5
66.93
67.12
66.35
64.89
62.99
60.92
58.89
57.05
55.43
53.94
52.39
50.56
48.17
45.01
40.94
36
30.38
24.44
18.52
12.85
7.43
2.02
-3.7
-9.94
-16.66
-23.51
-30.04
-35.85
-40.85
-45.32
-49.84
-55.16
-61.88
-70.19
-79.67
-89.13
-96.74
-100.42
-98.43
-89.92
-75.38
-56.47
-35.64
-15.32
2.71
17.61
29.38
38.39
45.02
49.37
51.45
51.33
49.43
46.49
43.4
40.85
39.12
38.06
37.24
36.23
34.84
33.11
31.27
29.5
27.77
25.79
23.12
19.33
14.21
7.87
0.74
-6.55
-13.35
-19.28
-24.26
-28.55
-32.64
-37.13
-42.52
-49.04
-56.51
-64.15
-70.65
-74.33
-73.63
-67.66
-56.5
-41.31
-23.94
-6.4
9.7
23.38
34.29
42.41
47.84
50.66
50.99
49.14
45.71
41.5
37.39
34.06
31.82
30.57
29.88
29.2
28.12
26.44
24.24
21.72
19.03
16.15
12.82
8.66
3.3
-3.33
-10.96
-19
-26.73
-33.63
-39.55
-44.78
-49.99
-55.92
-63.21
-72.13
-82.34
-92.84
-101.92
-107.49
-107.61
-101.03
-87.75
-69.09
-47.32
-24.97
-4.13
14.05
29.29
41.87
52.2
60.48
66.69
70.72
72.58
72.59
71.25
69.15
66.81
64.55
62.5
60.61
58.8
56.91
54.81
52.34
49.39
45.92
41.91
37.37
32.26
26.53
20.11
12.99
5.3
-2.69
-10.62
-18.15
-25.12
-31.52
-37.54
-43.46
-49.67
-56.61
-64.7
-74.12
-84.49
-94.64
-102.62
-106.13
-103.28
-93.28
-76.81
-55.86
-33.06
-10.9
8.91
25.63
39.25
50.17
58.8
65.39
70.06
72.93
74.18
74.14
73.15
71.56
69.59
67.35
64.91
62.4
60.01
57.94
56.22
54.68
52.87
50.25
46.46
41.45
35.55
29.3
23.25
17.67
12.53
7.48
2.07
-3.98
-10.72
-17.9
-25.07
-31.75
-37.61
-42.61
-47.01
-51.35
-56.35
-62.68
-70.66
-79.92
-89.24
-96.62
-99.78
-96.85
-87.07
-71.15
-51.11
-29.61
-9.09
8.83
23.56
35.32
44.57
51.67
56.7
59.59
60.37
59.41
57.35
54.89
52.65
50.88
49.55
48.44
47.28
45.92
44.25
42.28
39.96
37.2
33.91
29.99
25.39
20.16
14.4
8.25
1.84
-4.67
-11.17
-17.54
-23.68
-29.52
-35.03
-40.29
-45.5
-51.02
-57.34
-64.85
-73.63
-83.09
-91.83
-97.86
-99.09
-94.1
-82.62
-65.73
-45.49
-24.28
-4.15
13.59
28.41
40.28
49.39
55.95
60.21
62.44
63.05
62.52
61.34
59.88
58.32
56.71
54.97
53.04
50.92
48.75
46.65
44.74
42.94
41.01
38.51
35.05
30.45
24.83
18.62
12.46
6.82
1.88
-2.59
-7.14
-12.33
-18.44
-25.33
-32.47
-39.21
-45.05
-49.91
-54.11
-58.3
-63.27
-69.68
-77.85
-87.5
-97.53
-106.1
-110.97
-110.06
-102.23
-87.71
-68.08
-45.83
-23.54
-3.18
14.27
28.73
40.65
50.53
58.62
64.88
69.14
71.37
71.82
71
69.55
67.99
66.56
65.21
63.74
61.98
59.93
57.77
55.72
53.83
51.98
49.79
46.87
42.95
37.97
32.16
25.89
19.61
13.68
8.27
3.33
-1.38
-6.23
-11.53
-17.4
-23.73
-30.17
-36.32
-41.88
-46.79
-51.24
-55.64
-60.52
-66.35
-73.5
-81.96
-91.15
-99.85
-106.22
-108.27
-104.42
-94.1
-78.04
-58.07
-36.64
-16
2.26
17.44
29.56
38.97
46.02
50.91
53.78
54.89
54.68
53.76
52.65
51.68
50.8
49.81
48.48
46.81
45.02
43.44
42.25
41.33
40.23
38.38
35.32
30.95
25.56
19.74
14.11
9.06
4.63
0.51
-3.76
-8.55
-13.98
-19.8
-25.57
-30.84
-35.34
-39.15
-42.7
-46.62
-51.64
-58.18
-66.12
-74.56
-81.87
-86.05
-85.24
-78.45
-65.87
-48.9
-29.66
-10.39
7.12
21.8
33.28
41.63
47.12
50.08
50.86
49.89
47.73
44.98
42.18
39.76
37.92
36.67
35.89
35.39
34.96
34.38
33.47
32.04
29.93
27.08
23.52
19.35
14.71
9.69
4.35
-1.31
-7.33
-13.67
-20.22
-26.82
-33.27
-39.43
-45.23
-50.73
-56.12
-61.75
-68.09
-75.59
-84.4
-94.01
-103.13
-109.76
-111.71
-107.31
-96.04
-78.83
-57.77
-35.44
-14.14
4.66
20.38
33.14
43.33
51.3
57.27
61.34
63.7
64.58
64.32
63.23
61.56
59.53
57.34
55.19
53.31
51.82
50.71
49.75
48.59
46.8
44.04
40.17
35.28
29.68
23.76
17.85
12.12
6.49
0.74
-5.4
-12.07
-19.17
-26.39
-33.3
-39.56
-45.07
-50.09
-55.25
-61.34
-69.02
-78.4
-88.74
-98.35
-104.92
-106.17
-100.57
-87.96
-69.58
-47.7
-24.86
-3.22
15.9
31.97
45.02
55.32
63.13
68.66
72.14
73.88
74.28
73.77
72.7
71.3
69.61
67.59
65.21
62.51
59.66
56.83
54.11
51.34
48.2
44.33
39.52
33.87
27.76
21.66
15.93
10.62
5.48
0.13
-5.71
-12.04
-18.59
-24.89
-30.63
-35.73
-40.52
-45.58
-51.63
-59.15
-68.17
-78.07
-87.46
-94.44
-97.03
-93.71
-83.99
-68.58
-49.26
-28.4
-8.27
9.47
23.94
34.98
42.8
47.7
49.91
49.69
47.42
43.77
39.64
35.92
33.24
31.75
31.07
30.54
29.53
27.71
25.15
22.22
19.28
16.47
13.54
9.98
5.31
-0.71
-7.83
-15.47
-22.9
-29.53
-35.16
-39.97
-44.5
-49.43
-55.37
-62.74
-71.53
-81.16
-90.38
-97.35
-100.04
-96.83
-87.02
-71.24
-51.22
-29.35
-7.9
11.46
27.85
41.1
51.32
58.68
63.28
65.23
64.83
62.62
59.33
55.78
52.62
50.24
48.74
47.94
47.44
46.81
45.63
43.61
40.68
36.96
32.67
27.98
22.95
17.46
11.31
4.37
-3.28
-11.36
-19.4
-26.96
-33.78
-39.91
-45.68
-51.6
-58.25
-66.13
-75.45
-85.99
-96.8
-106.28
-112.35
-112.97
-106.78
-93.64
-74.69
-52.08
-28.32
-5.63
14.54
31.56
45.42
56.39
64.77
70.79
74.6
76.41
76.53
75.37
73.43
71.16
68.91
66.89
65.14
63.56
62.02
60.35
58.35
55.8
52.49
48.31
43.3
37.63
31.5
25.06
18.31
11.18
3.64
-4.21
-12.11
-19.71
-26.73
-33.11
-39.07
-45.02
-51.51
-59.02
-67.87
-77.99
-88.7
-98.65
-105.89
-108.3
-104.21
-92.98
-75.33
-53.2
-29.23
-5.98
14.62
31.67
45.11
55.43
63.2
68.8
72.39
73.98
73.7
71.85
69.02
65.86
62.99
60.76
59.19
58.05
57
55.75
54.09
51.96
49.29
45.99
42.02
37.36
32.15
26.59
20.84
14.93
8.66
1.85
-5.51
-12.96
-19.67
-24.68
-27.45
-28.18
-27.89
-28.18
-30.64
-36.39
-45.69
-57.81
-71.11
-83.28
-91.77
-94.38
-89.8
-78.11
-60.78
-40.26
-19.26
0.02
16.28
29.09
38.6
45.07
48.74
49.85
48.8
46.25
43.04
40.03
37.82
36.65
36.39
36.67
37.03
37.05
36.49
35.26
33.41
31.05
28.26
25.02
21.18
16.55
11
4.58
-2.44
-9.6
-16.46
-22.71
-28.28
-33.33
-38.2
-43.27
-48.92
-55.48
-63.15
-71.75
-80.52
-88.03
-92.34
-91.51
-84.26
-70.54
-51.68
-30.01
-8.19
11.54
27.85
40.32
49.26
55.19
58.66
60.06
59.75
58.12
55.71
53.05
50.59
48.59
47.04
45.81
44.69
43.55
42.31
40.91
39.23
37.04
34.05
30.11
25.2
19.56
13.53
7.41
1.32
-4.8
-11.1
-17.65
-24.38
-31.08
-37.51
-43.52
-49.15
-54.65
-60.47
-67.15
-75.14
-84.52
-94.64
-104.05
-110.59
-111.99
-106.57
-93.92
-75.11
-52.38
-28.49
-5.83
14.04
30.53
43.72
53.95
61.53
66.65
69.5
70.44
70
68.82
67.45
66.15
64.88
63.43
61.63
59.49
57.25
55.22
53.6
52.27
50.87
48.83
45.69
41.27
35.73
29.55
23.33
17.53
12.33
7.52
2.63
-2.87
-9.31
-16.65
-24.47
-32.1
-38.95
-44.65
-49.32
-53.49
-57.98
-63.72
-71.34
-80.91
-91.65
-101.89
-109.3
-111.49
-106.75
-94.65
-76.28
-53.92
-30.32
-7.91
11.72
27.98
40.97
51.1
58.7
63.91
66.82
67.69
67
65.46
63.71
62.19
60.95
59.77
58.38
56.65
54.7
52.83
51.32
50.17
49.05
47.41
44.68
40.58
35.24
29.16
23.03
17.45
12.65
8.46
4.39
-0.14
-5.5
-11.72
-18.47
-25.17
-31.29
-36.51
-40.88
-44.79
-48.87
-53.84
-60.3
-68.41
-77.66
-86.74
-93.65
-96.22
-92.74
-82.62
-66.64
-46.79
-25.6
-5.4
12.2
26.51
37.47
45.33
50.33
52.69
52.68
50.8
47.77
44.43
41.53
39.55
38.59
38.41
38.58
38.64
38.23
37.16
35.44
33.19
30.57
27.66
24.44
20.77
16.43
11.28
5.29
-1.39
-8.45
-15.55
-22.36
-28.68
-34.41
-39.64
-44.6
-49.72
-55.55
-62.58
-70.92
-79.99
-88.36
-93.98
-94.75
-89.2
-77.15
-59.75
-39.17
-17.95
1.76
18.57
31.97
42.04
49.13
53.59
55.73
55.86
54.41
51.92
48.99
46.14
43.74
41.92
40.63
39.72
38.96
38.13
37.04
35.51
33.42
30.66
27.18
22.99
18.12
12.63
6.56
-0.04
-7.11
-14.56
-22.18
-29.69
-36.79
-43.26
-49.08
-54.49
-59.94
-66.08
-73.44
-82.3
-92.31
-102.4
-110.76
-115.22
-113.81
-105.42
-90.23
-69.75
-46.46
-23.04
-1.72
16.2
30.39
41.18
49.22
55.05
59.03
61.31
62.07
61.59
60.27
58.61
56.95
55.44
54.02
52.52
50.88
49.14
47.44
45.82
44.12
41.99
39.11
35.44
31.29
27.35
24.29
22.6
22.24
22.72
23.26
23.09
21.72
19.02
15.24
10.84
6.28
1.82
-2.55
-7.08
-12.05
-17.6
-23.6
-29.69
-35.45
-40.63
-45.23
-49.56
-54.1
-59.35
-65.76
-73.54
-82.49
-91.83
-100.08
-105.27
-105.36
-98.96
-85.88
-67.29
-45.45
-22.97
-2.09
15.85
30.44
41.92
50.74
57.25
61.63
63.97
64.49
63.56
61.72
59.48
57.28
55.4
53.9
52.71
51.66
50.51
49.04
47.07
44.49
41.29
37.52
33.25
28.55
23.47
18.01
12.2
6.04
-0.41
-7.07
-13.77
-20.29
-26.43
-32.01
-37.01
-41.61
-46.21
-51.36
-57.57
-65.05
-73.39
-81.41
-87.26
-88.89
-84.7
-74.17
-58.14
-38.59
-18
1.38
18.1
31.61
41.97
49.45
54.15
56.06
55.31
52.37
48.18
43.89
40.52
38.56
37.89
37.92
37.99
37.61
36.64
35.2
33.49
31.65
29.61
27.11
23.81
19.38
13.68
6.83
-0.76
-8.46
-15.67
-22
-27.43
-32.34
-37.36
-43.18
-50.31
-58.87
-68.43
-77.86
-85.49
-89.31
-87.55
-79.21
-64.57
-45.15
-23.3
-1.55
18.11
34.61
47.77
57.96
65.69
71.3
74.93
76.69
76.86
75.93
74.6
73.51
73.06
73.25
73.79
74.26
74.3
73.79
72.8
71.45
69.67
67.09
63.01
56.59
47.1
34.12
17.77
-1.31
-22.04
-43.09
-63.18
-81.31
-96.93
-109.95
-120.7
-129.74
-137.77
-145.42
-153.06
-160.52
-166.82
-170.25
-168.7
-160.39
-144.57
-121.93
-94.51
-65.14
-36.56
-10.8
11.16
29.16
43.59
54.91
63.5
69.65
73.63
75.8
76.58
76.42
75.74
74.78
73.68
72.49
71.22
69.92
68.64
67.36
65.92
63.99
61.15
57.11
51.78
45.45
38.63
31.89
25.58
19.71
13.95
7.85
1.05
-6.45
-14.34
-22.03
-28.99
-34.92
-39.98
-44.74
-50.03
-56.65
-64.97
-74.59
-84.17
-91.61
-94.54
-91.02
-80.27
-62.91
-40.84
-16.63
7.23
28.98
47.73
63.39
76.22
86.53
94.51
100.28
104.06
106.28
107.54
108.5
109.7
111.41
113.64
116.2
118.86
121.41
123.72
125.62
126.82
126.78
124.72
119.82
111.49
99.6
84.61
67.44
49.16
30.63
12.21
-6.28
-25.34
-45.41
-66.56
-88.3
-109.65
-129.42
-146.58
-160.47
-171.01
-178.63
-184.08
-188.29
-192.02
-195.54
-198.42
-199.44
-196.81
-188.71
-173.96
-152.61
-126.03
-96.6
-66.99
-39.43
-15.31
4.89
21.31
34.29
44.2
51.26
55.79
58.21
59.17
59.4
59.61
60.24
61.41
62.92
64.35
65.27
65.36
64.49
62.7
60.13
56.95
53.26
49.12
44.47
39.25
33.35
26.7
19.37
11.53
3.49
-4.43
-11.93
-18.85
-25.26
-31.41
-37.8
-44.98
-53.45
-63.27
-73.8
-83.62
-90.66
-92.8
-88.53
-77.51
-60.8
-40.52
-19.17
1.04
18.69
33.22
44.66
53.29
59.34
62.96
64.36
63.92
62.26
60.05
57.92
56.16
54.78
53.56
52.31
50.91
49.42
47.93
46.41
44.6
42.12
38.63
33.98
28.34
22.13
15.82
9.76
3.97
-1.74
-7.73
-14.28
-21.45
-29.05
-36.67
-43.88
-50.34
-56.04
-61.32
-66.82
-73.34
-81.46
-91.15
-101.51
-110.72
-116.39
-116.31
-109.11
-94.79
-74.79
-51.55
-27.7
-5.45
13.85
29.78
42.51
52.46
59.98
65.32
68.66
70.26
70.55
70
69.09
68.08
67.03
65.8
64.25
62.32
60.16
58.03
56.14
54.5
52.83
50.61
47.31
42.63
36.65
29.84
22.87
16.33
10.5
5.25
0.14
-5.33
-11.51
-18.37
-25.58
-32.63
-39.1
-44.81
-49.99
-55.17
-61.1
-68.43
-77.48
-87.96
-98.86
-108.42
-114.5
-115.05
-108.78
-95.55
-76.55
-53.97
-30.34
-7.93
11.79
28.24
41.46
51.78
59.49
64.79
67.9
69.11
68.95
68.02
66.83
65.67
64.55
63.35
61.96
60.41
58.94
57.75
56.91
56.17
55.01
52.88
49.34
44.29
38.03
31.15
24.34
18.13
12.71
7.91
3.27
-1.78
-7.59
-14.2
-21.28
-28.31
-34.77
-40.39
-45.23
-49.68
-54.41
-60.12
-67.43
-76.46
-86.67
-96.6
-104.06
-106.71
-102.74
-91.64
-74.45
-53.43
-31.33
-10.55
7.39
22
33.38
41.9
47.83
51.32
52.59
52.04
50.29
48.06
45.98
44.42
43.47
43
42.73
42.37
41.67
40.48
38.73
36.47
33.79
30.77
27.42
23.63
19.22
14.02
8.01
1.39
-5.46
-12.1
-18.17
-23.55
-28.35
-32.85
-37.48
-42.66
-48.82
-56.17
-64.52
-73.1
-80.45
-84.67
-83.99
-77.37
-64.94
-48.03
-28.77
-9.39
8.31
23.3
35.25
44.2
50.27
53.6
54.33
52.83
49.76
46.01
42.49
39.87
38.44
38.01
38.09
38.07
37.49
36.14
34.07
31.52
28.66
25.58
22.16
18.17
13.39
7.69
1.14
-6.04
-13.53
-20.93
-27.96
-34.42
-40.33
-45.89
-51.56
-57.9
-65.48
-74.59
-84.93
-95.46
-104.35
-109.43
-108.73
-101.12
-86.76
-67.08
-44.39
-21.21
0.36
19.01
34.27
46.27
55.43
62.2
66.88
69.73
70.96
70.83
69.63
67.69
65.33
62.85
60.48
58.38
56.62
55.16
53.76
52.08
49.73
46.42
42.04
36.77
30.89
24.74
18.47
12.05
5.38
-1.65
-8.93
-16.2
-23.1
-29.35
-34.88
-39.95
-45.05
-50.8
-57.82
-66.47
-76.64
-87.5
-97.49
-104.51
-106.46
-101.89
-90.48
-73.2
-52.08
-29.55
-7.78
11.68
28.12
41.49
52.08
60.3
66.49
70.88
73.59
74.76
74.61
73.41
71.53
69.25
66.79
64.27
61.79
59.49
57.54
56.01
54.76
53.36
51.22
47.75
42.73
36.43
29.51
22.79
16.82
11.68
6.97
2.06
-3.57
-10.04
-17.09
-24.16
-30.75
-36.57
-41.69
-46.49
-51.51
-57.42
-64.77
-73.73
-83.82
-93.7
-101.28
-104.25
-100.82
-90.41
-73.94
-53.53
-31.79
-11.04
7.24
22.45
34.57
43.83
50.46
54.6
56.51
56.59
55.43
53.63
51.72
50.01
48.63
47.54
46.62
45.73
44.69
43.37
41.64
39.44
36.77
33.64
30.1
26.11
21.59
16.47
10.72
4.48
-2.01
-8.4
-14.41
-19.84
-24.72
-29.2
-33.58
-38.28
-43.73
-50.34
-58.27
-67.12
-75.81
-82.63
-85.57
-83.03
-74.33
-60.03
-41.84
-22.03
-2.82
14.19
28.21
39.1
47.12
52.57
55.66
56.58
55.62
53.23
50.07
46.78
43.86
41.54
39.79
38.42
37.28
36.23
35.17
33.91
32.16
29.63
26.15
21.77
16.78
11.5
6.19
0.88
-4.61
-10.47
-16.81
-23.48
-30.14
-36.39
-42
-47.02
-51.82
-57
-63.24
-71.03
-80.43
-90.85
-100.94
-108.78
-112.27
-109.71
-100.39
-84.85
-64.79
-42.6
-20.64
-0.7
16.33
30.36
41.76
50.96
58.22
63.61
67.13
68.9
69.19
68.41
66.95
65.15
63.16
61.09
59.01
57.02
55.21
53.52
51.77
49.63
46.71
42.79
37.86
32.15
26.06
19.97
14.08
8.35
2.48
-3.8
-10.66
-17.98
-25.41
-32.52
-38.96
-44.65
-49.82
-54.95
-60.69
-67.7
-76.35
-86.36
-96.66
-105.3
-109.91
-108.38
-99.63
-84.05
-63.42
-40.39
-17.58
3.09
20.65
35
46.52
55.62
62.54
67.34
70.08
70.98
70.49
69.21
67.69
66.28
64.99
63.6
61.87
59.74
57.41
55.27
53.62
52.51
51.56
50.12
47.55
43.48
37.99
31.57
24.95
18.74
13.28
8.51
4.04
-0.62
-5.85
-11.78
-18.23
-24.82
-31.1
-36.73
-41.62
-45.96
-50.16
-54.8
-60.45
-67.57
-76.26
-86.04
-95.68
-103.29
-106.7
-104.09
-94.66
-78.95
-58.83
-36.82
-15.45
3.47
19.1
31.44
40.9
47.93
52.79
55.6
56.53
55.91
54.3
52.31
50.44
48.91
47.72
46.73
45.83
44.96
44.13
43.28
42.25
40.78
38.55
35.37
31.22
26.26
20.79
15.1
9.4
3.71
-2.05
-7.99
-14.12
-20.32
-26.32
-31.86
-36.83
-41.43
-46.1
-51.5
-58.19
-66.34
-75.46
-84.27
-90.9
-93.36
-90.08
-80.48
-65.2
-45.95
-25.03
-4.66
13.5
28.53
40.21
48.71
54.37
57.55
58.59
57.92
56.05
53.53
50.85
48.38
46.26
44.55
43.16
42
40.95
39.84
38.44
36.51
33.82
30.29
26
21.13
15.9
10.47
4.9
-0.88
-6.99
-13.5
-20.36
-27.36
-34.17
-40.5
-46.19
-51.32
-56.25
-61.56
-67.91
-75.77
-85.23
-95.65
-105.65
-113.18
-116.07
-112.57
-102.03
-85.19
-63.95
-40.88
-18.38
1.83
18.95
32.94
44.13
52.9
59.55
64.28
67.25
68.74
69.02
68.39
67.08
65.26
63.09
60.72
58.33
56.08
54.08
52.32
50.65
48.76
46.32
43.01
38.72
33.57
27.86
21.91
15.96
9.97
3.72
-3
-10.25
-17.83
-25.34
-32.37
-38.71
-44.46
-50
-55.94
-62.93
-71.42
-81.39
-92.08
-101.95
-108.85
-110.58
-105.65
-93.81
-76.22
-55.12
-33.08
-12.28
5.93
21.1
33.35
43
50.31
55.44
58.51
59.76
59.56
58.35
56.59
54.65
52.76
51.08
49.64
48.4
47.26
46.06
44.59
42.67
40.17
37.02
33.28
29.03
24.33
19.18
13.55
7.45
0.97
-5.66
-12.15
-18.22
-23.68
-28.55
-33.04
-37.51
-42.45
-48.34
-55.52
-63.96
-73.01
-81.37
-87.18
-88.53
-84.01
-73.28
-57.27
-37.89
-17.48
1.83
18.62
32.21
42.54
49.75
54.06
55.66
54.87
52.25
48.58
44.78
41.61
39.49
38.36
37.86
37.41
36.56
35.1
33.07
30.71
28.21
25.62
22.74
19.2
14.63
8.82
1.87
-5.8
-13.59
-20.93
-27.48
-33.24
-38.49
-43.74
-49.59
-56.55
-64.97
-74.73
-85.11
-94.66
-101.38
-103.18
-98.53
-87.1
-69.89
-49.02
-27.07
-6.37
11.57
26.11
37.38
45.78
51.72
55.52
57.35
57.49
56.33
54.44
52.38
50.59
49.28
48.36
47.57
46.57
45.1
43.05
40.46
37.48
34.21
30.69
26.82
22.38
17.19
11.15
4.36
-2.91
-10.27
-17.39
-24.06
-30.26
-36.15
-42.03
-48.2
-55.01
-62.79
-71.74
-81.72
-92.01
-101.19
-107.29
-108.22
-102.53
-89.87
-71.33
-49.07
-25.71
-3.6
15.74
31.74
44.54
54.59
62.28
67.8
71.24
72.71
72.58
71.37
69.69
67.94
66.24
64.49
62.54
60.39
58.17
56.12
54.27
52.41
50.09
46.86
42.48
37.09
31.1
24.96
18.95
13.08
7.14
0.91
-5.68
-12.51
-19.32
-25.85
-32
-37.85
-43.71
-49.97
-57.06
-65.27
-74.55
-84.25
-93.07
-99.15
-100.56
-95.83
-84.64
-67.94
-47.76
-26.58
-6.62
10.73
24.95
36.21
44.92
51.44
55.92
58.44
59.14
58.3
56.42
54.04
51.64
49.53
47.84
46.51
45.38
44.21
42.78
40.92
38.56
35.74
32.58
29.14
25.42
21.31
16.6
11.19
5.08
-1.46
-8.03
-14.19
-19.61
-24.2
-28.14
-31.8
-35.67
-40.27
-46.01
-53.01
-60.93
-68.81
-75.08
-77.9
-75.64
-67.45
-53.66
-35.75
-15.95
3.43
20.62
34.67
45.39
53
57.76
59.88
59.52
57.02
53.04
48.51
44.39
41.4
39.8
39.37
39.51
39.54
38.9
37.27
34.69
31.37
27.63
23.65
19.42
14.78
9.42
3.18
-3.89
-11.51
-19.19
-26.5
-33.12
-39.02
-44.36
-49.5
-54.89
-61.06
-68.44
-77.17
-86.83
-96.2
-103.42
-106.33
-103.22
-93.35
-77.38
-57.13
-35.02
-13.43
5.95
22.25
35.32
45.38
52.76
57.76
60.65
61.74
61.41
60.09
58.21
56.14
54.15
52.42
51.02
49.92
49.05
48.21
47.21
45.74
43.59
40.55
36.61
31.86
26.55
20.9
15.05
8.98
2.64
-4.03
-10.91
-17.8
-24.42
-30.58
-36.28
-41.65
-47.05
-52.93
-59.78
-67.96
-77.44
-87.49
-96.59
-102.64
-103.45
-97.54
-84.7
-66.19
-44.4
-22.04
-1.41
16.15
30.33
41.48
50.18
56.83
61.6
64.52
65.7
65.47
64.31
62.75
61.18
59.75
58.38
56.95
55.43
53.95
52.69
51.79
51.12
50.23
48.52
45.43
40.74
34.72
28.01
21.4
15.46
10.3
5.58
0.68
-4.98
-11.64
-19.1
-26.86
-34.3
-40.98
-46.8
-51.95
-56.91
-62.29
-68.71
-76.57
-85.83
-95.67
-104.51
-110.17
-110.48
-104.01
-90.61
-71.57
-49.28
-26.45
-5.32
12.76
27.47
39.06
47.99
54.52
58.71
60.57
60.38
58.69
56.27
53.84
51.86
50.38
49.21
48.13
47.03
46
45.16
44.43
43.55
42.05
39.51
35.78
31.08
25.84
20.55
15.52
10.74
5.97
0.94
-4.5
-10.26
-16.07
-21.63
-26.69
-31.23
-35.44
-39.69
-44.51
-50.41
-57.67
-66.02
-74.55
-81.61
-85.22
-83.66
-76.01
-62.57
-44.75
-24.67
-4.57
13.74
29.09
40.99
49.35
54.43
56.64
56.53
54.71
51.86
48.6
45.45
42.79
40.8
39.49
38.71
38.25
37.83
37.22
36.22
34.7
32.54
29.63
25.93
21.49
16.5
11.17
5.68
0.1
-5.68
-11.77
-18.25
-25.02
-31.82
-38.36
-44.41
-49.97
-55.29
-60.85
-67.28
-75.11
-84.48
-94.89
-104.92
-112.48
-115.27
-111.5
-100.56
-83.26
-61.64
-38.33
-15.73
4.45
21.42
35.13
45.86
53.96
59.7
63.32
65.11
65.46
64.8
63.55
62.02
60.34
58.57
56.76
54.97
53.3
51.79
50.31
48.59
46.24
42.94
38.58
33.3
27.45
21.41
15.4
9.4
3.19
-3.5
-10.73
-18.31
-25.84
-32.84
-39.08
-44.66
-49.99
-55.68
-62.36
-70.46
-80.06
-90.72
-101.29
-109.99
-114.67
-113.38
-105.02
-89.83
-69.41
-46.23
-22.92
-1.52
16.9
32.16
44.63
54.76
62.88
69.07
73.33
75.73
76.47
75.93
74.54
72.72
70.78
68.89
67.12
65.48
63.96
62.5
60.97
59.1
56.57
53.07
48.45
42.82
36.46
29.68
22.71
15.5
7.83
-0.48
-9.44
-18.75
-27.91
-36.4
-43.91
-50.44
-56.38
-62.29
-68.86
-76.66
-85.88
-96.08
-106.01
-113.69
-116.85
-113.63
-103.32
-86.7
-65.86
-43.53
-22.23
-3.59
11.85
24.3
34.28
42.14
47.99
51.8
53.65
53.89
53.06
51.75
50.44
49.36
48.56
47.96
47.41
46.76
45.85
44.5
42.58
39.98
36.69
32.79
28.29
23.21
17.53
11.27
4.55
-2.38
-9.22
-15.7
-21.67
-27.12
-32.16
-37.05
-42.15
-47.96
-54.92
-63.21
-72.41
-81.33
-88.09
-90.6
-87.19
-77.31
-61.69
-42.22
-21.33
-1.25
16.5
31.25
43
52
58.46
62.46
64.05
63.49
61.28
58.14
54.81
51.85
49.52
47.8
46.5
45.38
44.18
42.67
40.61
37.83
34.29
30.07
25.33
20.22
14.79
8.97
2.67
-4.17
-11.47
-19
-26.43
-33.51
-40.05
-46.08
-51.81
-57.64
-64.14
-71.87
-81.18
-91.86
-102.86
-112.29
-117.79
-117.2
-109.33
-94.42
-74.11
-50.88
-27.29
-5.27
14.17
30.8
44.81
56.36
65.54
72.31
76.73
79.12
79.95
79.74
78.86
77.49
75.65
73.35
70.68
67.88
65.21
62.89
60.86
58.88
56.54
53.4
49.17
43.82
37.59
30.92
24.35
18.29
12.85
7.84
2.78
-2.81
-9.18
-16.24
-23.54
-30.49
-36.64
-41.89
-46.54
-51.19
-56.58
-63.37
-71.91
-82.01
-92.75
-102.42
-108.86
-109.94
-104.26
-91.68
-73.43
-51.78
-29.29
-8.13
10.39
25.92
38.7
49.23
57.86
64.71
69.69
72.74
73.92
73.51
71.98
69.82
67.42
65.01
62.69
60.47
58.41
56.58
54.96
53.44
51.79
49.72
47.02
43.59
39.47
34.81
29.72
24.35
18.84
13.33
8
2.93
-1.86
-6.51
-11.24
-16.29
-21.79
-27.69
-33.78
-39.72
-45.23
-50.19
-54.71
-59.2
-64.19
-70.25
-77.75
-86.68
-96.42
-105.71
-112.71
-115.42
-112.25
-102.49
-86.72
-66.58
-44.35
-22.27
-2.01
15.55
30.17
41.97
51.09
57.61
61.61
63.36
63.38
62.37
61.02
59.82
58.88
58.03
57.02
55.68
54.1
52.51
51.18
50.15
49.17
47.75
45.34
41.62
36.62
30.71
24.47
18.46
12.97
7.94
3.03
-2.18
-7.93
-14.18
-20.62
-26.77
-32.26
-36.95
-41
-44.85
-49.11
-54.41
-61.22
-69.54
-78.74
-87.41
-93.56
-95.19
-90.86
-80.3
-64.5
-45.35
-25.09
-5.61
11.9
26.92
39.42
49.48
57.13
62.35
65.16
65.78
64.68
62.53
60.05
57.84
56.21
55.15
54.38
53.51
52.28
50.6
48.58
46.4
44.14
41.72
38.89
35.34
30.89
25.55
19.6
13.5
7.7
2.5
-2.1
-6.37
-10.72
-15.56
-21.1
-27.3
-33.87
-40.4
-46.52
-52
-56.88
-61.39
-66
-71.29
-77.84
-86.02
-95.65
-105.84
-114.88
-120.61
-120.94
-114.52
-101.23
-82.27
-59.79
-36.29
-13.91
5.91
22.61
36.27
47.27
56.06
62.93
68.01
71.35
73.05
73.34
72.55
71.08
69.24
67.27
65.34
63.59
62.15
61.05
60.2
59.32
58.05
56.08
53.26
49.7
45.64
41.34
36.98
32.58
28.05
23.3
18.31
13.15
7.95
2.86
-2.01
-6.67
-11.22
-15.87
-20.83
-26.18
-31.83
-37.52
-42.91
-47.78
-52.17
-56.44
-61.22
-67.23
-74.97
-84.46
-94.95
-104.88
-112.14
-114.59
-110.75
-100.29
-84.17
-64.32
-43.05
-22.38
-3.64
12.59
26.21
37.32
46.02
52.38
56.54
58.83
59.75
59.85
59.58
59.24
58.86
58.38
57.7
56.81
55.85
55.02
54.51
54.29
54.13
53.55
52.02
49.13
44.77
39.22
32.99
26.72
20.88
15.69
11.01
6.5
1.75
-3.5
-9.25
-15.24
-21.03
-26.24
-30.64
-34.35
-37.75
-41.48
-46.24
-52.57
-60.63
-69.91
-79.16
-86.56
-90.09
-88.15
-80.13
-66.59
-49.17
-30
-11.17
5.82
20.18
31.69
40.41
46.46
49.99
51.2
50.47
48.37
45.56
42.64
40
37.8
36.05
34.71
33.76
33.19
32.88
32.62
32.04
30.75
28.48
25.15
20.95
16.19
11.23
6.27
1.34
-3.71
-9.11
-15.06
-21.57
-28.43
-35.29
-41.75
-47.56
-52.69
-57.46
-62.44
-68.33
-75.65
-84.47
-94.12
-103.14
-109.49
-111.09
-106.45
-95.17
-78.14
-57.29
-34.99
-13.47
5.74
21.91
34.96
45.16
52.86
58.32
61.75
63.4
63.65
63
61.91
60.68
59.37
57.89
56.13
54.13
52.11
50.38
49.15
48.29
47.36
45.68
42.65
38.05
32.09
25.39
18.65
12.38
6.66
1.18
-4.57
-11
-18.15
-25.7
-33.1
-39.86
-45.78
-51.02
-56.11
-61.69
-68.4
-76.64
-86.42
-97.15
-107.54
-115.66
-119.29
-116.54
-106.5
-89.69
-67.97
-44.02
-20.55
0.49
18.15
32.41
43.73
52.6
59.33
64.04
66.86
68.01
67.92
67.05
65.76
64.26
62.6
60.74
58.72
56.63
54.62
52.79
51.1
49.31
47.08
44.01
39.82
34.47
28.2
21.48
14.87
8.78
3.34
-1.74
-6.96
-12.84
-19.6
-27.04
-34.59
-41.61
-47.67
-52.77
-57.35
-62.11
-67.71
-74.64
-83.02
-92.46
-101.93
-109.81
-114.11
-112.91
-105.04
-90.56
-70.89
-48.34
-25.52
-4.47
13.6
28.39
40.1
49.1
55.68
60
62.29
62.85
62.18
60.82
59.22
57.69
56.37
55.28
54.33
53.48
52.62
51.66
50.43
48.77
46.53
43.63
40.09
35.95
31.26
26.05
20.29
14.01
7.3
0.38
-6.49
-13.05
-19.12
-24.61
-29.62
-34.43
-39.47
-45.28
-52.32
-60.6
-69.43
-77.33
-82.28
-82.32
-76.19
-63.86
-46.54
-26.36
-5.71
13.35
29.53
42.22
51.39
57.23
60.08
60.36
58.61
55.5
51.79
48.16
45.1
42.86
41.38
40.45
39.75
38.99
37.91
36.34
34.18
31.39
28.04
24.15
19.82
15.05
9.83
4.1
-2.22
-9.09
-16.37
-23.81
-31.07
-37.88
-44.14
-49.98
-55.74
-61.91
-69
-77.41
-87.11
-97.45
-107.01
-113.75
-115.46
-110.51
-98.38
-80.02
-57.57
-33.7
-10.84
9.43
26.51
40.5
51.76
60.56
66.99
71.13
73.14
73.43
72.57
71.08
69.34
67.52
65.66
63.82
62.11
60.71
59.71
59.03
58.32
57.11
54.9
51.41
46.68
41.01
34.9
28.76
22.79
16.91
10.8
4.15
-3.2
-11.1
-19.12
-26.78
-33.72
-39.92
-45.72
-51.74
-58.75
-67.33
-77.68
-89.27
-100.73
-109.91
-114.33
-111.94
-101.81
-84.59
-62.34
-37.9
-14.01
7.43
25.56
40.42
52.4
61.89
69.05
73.93
76.61
77.45
76.98
75.84
74.55
73.35
72.24
71.04
69.53
67.62
65.36
62.94
60.51
58.16
55.72
52.85
49.14
44.24
38.1
31.02
23.6
16.53
10.27
4.89
-0.01
-5.03
-10.73
-17.3
-24.51
-31.83
-38.68
-44.67
-49.83
-54.46
-59.14
-64.48
-71.02
-79.15
-88.84
-99.51
-109.79
-117.66
-120.8
-117.28
-106.27
-88.43
-65.78
-41.08
-17.04
4.37
22.19
36.31
47.13
55.09
60.53
63.65
64.74
64.18
62.57
60.49
58.43
56.68
55.26
54.06
52.94
51.8
50.58
49.24
47.67
45.65
42.96
39.41
35.04
30
24.63
19.24
14
8.88
3.67
-1.87
-7.87
-14.21
-20.58
-26.57
-31.86
-36.41
-40.45
-44.53
-49.35
-55.55
-63.33
-72.3
-81.22
-88.18
-91.08
-88.23
-78.97
-63.97
-45.03
-24.49
-4.58
13.09
27.68
38.99
47.06
52.03
54.04
53.37
50.6
46.6
42.38
38.79
36.31
34.91
34.16
33.5
32.44
30.84
28.83
26.71
24.71
22.73
20.39
17.1
12.37
6.04
-1.6
-9.87
-17.97
-25.3
-31.61
-37.12
-42.33
-47.84
-54.24
-61.91
-70.93
-80.83
-90.44
-97.98
-101.35
-98.82
-89.62
-74.34
-54.78
-33.37
-12.48
6.26
22.01
34.67
44.43
51.5
55.96
57.89
57.54
55.42
52.27
48.91
45.96
43.72
42.11
40.74
39.15
37.05
34.45
31.56
28.7
25.99
23.27
20.05
15.74
9.91
2.52
-5.99
-14.84
-23.22
-30.61
-36.94
-42.61
-48.3
-54.75
-62.51
-71.81
-82.42
-93.52
-103.67
-110.9
-113.16
-108.9
-97.66
-80.35
-59.03
-36.28
-14.45
4.88
21.14
34.47
45.27
53.88
60.36
64.59
66.52
66.41
64.79
62.43
60.06
58.16
56.84
55.92
55.04
53.86
52.19
49.94
47.15
43.88
40.21
36.15
31.71
26.83
21.4
15.39
8.82
1.87
-5.18
-12.1
-18.71
-25.04
-31.22
-37.48
-44.07
-51.31
-59.5
-68.74
-78.73
-88.45
-96.18
-99.81
-97.52
-88.43
-73
-53.01
-30.93
-9.21
10.41
27.09
40.77
51.77
60.36
66.65
70.61
72.29
72
70.32
67.96
65.54
63.45
61.75
60.35
59.06
57.76
56.34
54.68
52.59
49.84
46.21
41.63
36.22
30.26
24.02
17.74
11.52
5.37
-0.78
-6.93
-13.08
-19.14
-25
-30.54
-35.73
-40.72
-45.84
-51.61
-58.56
-66.89
-76.15
-85.06
-91.68
-93.92
-90.2
-80.08
-64.42
-45.17
-24.71
-5.17
12.01
26.22
37.43
45.88
51.79
55.31
56.6
55.99
54.04
51.48
49.01
47.13
46.01
45.52
45.34
45.18
44.87
44.35
43.51
42.17
40.02
36.77
32.33
26.88
20.87
14.83
9.11
3.75
-1.52
-7.1
-13.27
-19.97
-26.87
-33.46
-39.34
-44.49
-49.28
-54.36
-60.48
-68.18
-77.49
-87.8
-97.74
-105.41
-108.74
-106.06
-96.66
-81.05
-60.9
-38.5
-16.2
4.25
21.94
36.67
48.72
58.4
65.93
71.33
74.65
76.01
75.78
74.49
72.7
70.87
69.21
67.7
66.2
64.56
62.74
60.8
58.86
56.92
54.82
52.24
48.78
44.15
38.33
31.6
24.54
17.8
11.89
6.94
2.7
-1.4
-5.99
-11.46
-17.84
-24.77
-31.69
-38.05
-43.55
-48.2
-52.37
-56.6
-61.54
-67.8
-75.74
-85.28
-95.61
-105.2
-111.91
-113.59
-108.76
-97.09
-79.65
-58.52
-36.15
-14.65
4.65
21.25
35.2
46.78
56.17
63.44
68.61
71.78
73.2
73.26
72.43
71.17
69.85
68.68
67.75
67.04
66.44
65.87
65.2
64.3
62.98
60.98
58.13
54.32
49.65
44.43
39.08
33.99
29.33
25.03
20.8
16.27
11.26
5.86
0.36
-4.85
-9.55
-13.8
-17.95
-22.44
-27.56
-33.32
-39.41
-45.34
-50.67
-55.24
-59.23
-63.16
-67.71
-73.54
-81.01
-89.95
-99.43
-107.85
-113.16
-113.41
-107.36
-94.93
-77.31
-56.56
-35.05
-14.8
2.94
17.73
29.71
39.22
46.6
51.97
55.43
57.1
57.33
56.62
55.52
54.52
53.81
53.35
52.91
52.25
51.26
49.99
48.57
47.11
45.52
43.55
40.91
37.33
32.79
27.45
21.72
16.06
10.85
6.31
2.36
-1.32
-5.2
-9.69
-14.92
-20.64
-26.34
-31.42
-35.56
-38.84
-41.73
-44.93
-49.13
-54.8
-62.05
-70.54
-79.37
-87.07
-91.78
-91.73
-85.82
-74.03
-57.57
-38.52
-19.18
-1.4
13.72
25.85
35.11
41.75
46
48.06
48.22
46.97
44.95
42.77
40.89
39.47
38.43
37.53
36.6
35.56
34.5
33.49
32.52
31.35
29.61
26.92
23.09
18.19
12.58
6.71
0.95
-4.58
-10.01
-15.6
-21.55
-27.87
-34.29
-40.45
-46
-50.87
-55.33
-59.97
-65.49
-72.49
-81.1
-90.78
-100.2
-107.46
-110.55
-107.89
-98.88
-84.13
-65.25
-44.45
-23.85
-5.05
11.16
24.67
35.77
44.82
52.07
57.58
61.33
63.33
63.75
62.94
61.37
59.49
57.68
56.13
54.9
53.87
52.9
51.75
50.2
48.03
45.07
41.18
36.35
30.71
24.54
18.22
12.08
6.28
0.71
-4.93
-10.98
-17.61
-24.72
-31.9
-38.69
-44.75
-50.05
-54.96
-60.15
-66.43
-74.4
-84.1
-94.7
-104.47
-111.11
-112.4
-106.96
-94.8
-77.29
-56.7
-35.45
-15.39
2.5
17.99
31.29
42.63
52.08
59.6
65.1
68.64
70.42
70.8
70.18
68.9
67.2
65.23
63.12
61
59.03
57.34
55.94
54.64
53.06
50.71
47.21
42.45
36.71
30.53
24.54
19.14
14.35
9.8
4.91
-0.8
-7.42
-14.66
-21.9
-28.52
-34.17
-38.92
-43.2
-47.65
-52.92
-59.52
-67.63
-76.94
-86.52
-94.85
-99.96
-99.94
-93.59
-80.83
-62.87
-41.89
-20.36
-0.39
16.75
30.65
41.52
49.75
55.61
59.17
60.44
59.62
57.21
54.01
50.88
48.48
47.1
46.59
46.51
46.33
45.65
44.31
42.34
39.89
37.07
33.87
30.15
25.66
20.22
13.78
6.51
-1.18
-8.8
-15.93
-22.31
-27.98
-33.18
-38.29
-43.77
-50.06
-57.49
-66.16
-75.62
-84.79
-91.92
-94.99
-92.3
-83.06
-67.79
-48.23
-26.78
-5.83
12.85
28.41
40.76
50.26
57.37
62.38
65.46
66.7
66.32
64.69
62.27
59.56
56.94
54.6
52.59
50.84
49.2
47.55
45.71
43.49
40.69
37.14
32.8
27.73
22.16
16.31
10.35
4.35
-1.77
-8.06
-14.56
-21.19
-27.77
-34.06
-39.93
-45.42
-50.77
-56.48
-63.19
-71.46
-81.43
-92.5
-103.1
-110.95
-113.59
-109.24
-97.43
-79.23
-56.94
-33.26
-10.57
9.65
26.82
41
52.47
61.44
68.08
72.53
75.07
76.1
76.05
75.27
73.92
72.05
69.67
66.85
63.8
60.82
58.2
56.1
54.41
52.72
50.49
47.18
42.53
36.68
30.13
23.55
17.45
11.99
6.86
1.52
-4.58
-11.64
-19.39
-27.23
-34.46
-40.64
-45.72
-50.12
-54.57
-59.9
-66.82
-75.61
-85.88
-96.43
-105.3
-110.17
-109
-100.73
-85.71
-65.62
-42.94
-20.27
0.46
18.2
32.75
44.37
53.4
60.06
64.45
66.71
67.13
66.21
64.51
62.53
60.54
58.58
56.55
54.35
52.07
49.94
48.22
47.01
46.06
44.83
42.63
39
33.87
27.71
21.28
15.35
10.33
6.15
2.27
-1.95
-7.01
-12.97
-19.44
-25.83
-31.55
-36.32
-40.25
-43.8
-47.64
-52.43
-58.68
-66.45
-75.21
-83.69
-90.04
-92.26
-88.76
-78.95
-63.53
-44.29
-23.59
-3.65
13.96
28.48
39.81
48.16
53.75
56.82
57.61
56.58
54.34
51.56
48.82
46.45
44.55
43.05
41.85
40.91
40.15
39.48
38.67
37.43
35.39
32.33
28.21
23.2
17.68
12.06
6.63
1.47
-3.58
-8.85
-14.62
-20.99
-27.77
-34.59
-40.98
-46.6
-51.46
-55.86
-60.46
-66
-73.11
-81.87
-91.55
-100.51
-106.55
-107.5
-101.94
-89.74
-72.12
-51.22
-29.43
-8.78
9.44
24.7
36.94
46.39
53.33
58.04
60.86
62.14
62.27
61.62
60.51
59.17
57.74
56.23
54.58
52.78
50.88
49.09
47.55
46.31
45.1
43.46
40.8
36.74
31.28
24.8
18.01
11.61
6.02
1.25
-3.12
-7.69
-12.97
-19.16
-26.07
-33.19
-39.96
-45.94
-51.04
-55.54
-59.99
-65.12
-71.62
-79.91
-89.78
-100.25
-109.47
-115.11
-115
-107.87
-93.89
-74.59
-52.43
-29.96
-9.09
9.15
24.54
37.29
47.63
55.7
61.57
65.37
67.42
68.17
68.07
67.43
66.39
64.95
63.06
60.78
58.3
55.91
53.88
52.26
50.89
49.36
47.19
43.97
39.51
33.97
27.74
21.41
15.5
10.29
5.78
1.61
-2.67
-7.51
-13.08
-19.24
-25.6
-31.71
-37.23
-42.12
-46.58
-51.01
-55.94
-61.89
-69.21
-77.88
-87.29
-96.11
-102.44
-104.25
-99.99
-89.2
-72.73
-52.48
-30.88
-10.14
8.19
23.42
35.48
44.66
51.28
55.62
57.88
58.28
57.18
55.02
52.37
49.76
47.64
46.19
45.33
44.81
44.28
43.5
42.31
40.67
38.55
35.9
32.62
28.62
23.9
18.52
12.63
6.39
-0.01
-6.39
-12.57
-18.37
-23.76
-28.8
-33.7
-38.75
-44.34
-50.81
-58.36
-66.86
-75.59
-83.17
-87.71
-87.35
-80.91
-68.4
-51.14
-31.35
-11.44
6.72
22.07
34.37
43.78
50.5
54.67
56.38
55.89
53.67
50.48
47.08
44.13
41.96
40.6
39.82
39.25
38.55
37.43
35.73
33.4
30.47
27.01
23.07
18.67
13.8
8.41
2.44
-4.1
-11.2
-18.7
-26.37
-33.9
-41.02
-47.56
-53.6
-59.46
-65.71
-72.98
-81.7
-91.75
-102.23
-111.44
-117.21
-117.46
-110.89
-97.4
-78.22
-55.58
-32.03
-9.81
9.67
25.87
38.95
49.36
57.52
63.66
67.85
70.14
70.74
70.01
68.43
66.48
64.49
62.6
60.82
59.06
57.23
55.26
53.06
50.52
47.52
43.95
39.69
34.69
28.93
22.43
15.28
7.64
-0.28
-8.24
-15.98
-23.32
-30.17
-36.61
-42.82
-49.17
-56.15
-64.23
-73.72
-84.39
-95.25
-104.5
-109.86
-109.21
-101.3
-86.29
-65.77
-42.28
-18.53
3.32
22.06
37.38
49.58
59.09
66.29
71.4
74.56
75.96
75.87
74.61
72.52
69.94
67.14
64.4
61.89
59.76
57.98
56.39
54.71
52.58
49.66
45.82
41.12
35.79
30.16
24.46
18.78
13
6.9
0.27
-6.95
-14.58
-22.29
-29.66
-36.44
-42.58
-48.37
-54.37
-61.21
-69.33
-78.63
-88.23
-96.46
-101.17
-100.35
-92.76
-78.52
-59.07
-36.81
-14.39
6.09
23.41
37.18
47.57
54.82
59.09
60.53
59.46
56.56
52.8
49.18
46.42
44.74
43.86
43.19
42.18
40.55
38.41
36.09
33.92
31.99
30.01
27.39
23.52
18.03
11.04
3.13
-4.86
-12.16
-18.38
-23.58
-28.33
-33.35
-39.39
-46.91
-55.93
-65.91
-75.65
-83.39
-87.18
-85.37
-77.19
-63.11
-44.72
-24.3
-4.18
13.92
29.01
40.8
49.33
54.76
57.25
57.11
54.91
51.47
47.71
44.36
41.77
39.87
38.31
36.68
34.74
32.48
30.05
27.6
25.15
22.44
19
14.28
7.94
0
-9.04
-18.41
-27.25
-35.01
-41.65
-47.68
-53.96
-61.44
-70.71
-81.7
-93.49
-104.28
-111.76
-113.66
-108.49
-95.97
-77.27
-54.65
-30.79
-8.13
11.72
28.05
40.94
50.83
58.21
63.4
66.6
67.91
67.51
65.65
62.72
59.14
55.28
51.38
47.61
44.03
40.66
37.39
34.01
30.15
25.44
19.6
12.6
4.77
-3.36
-11.25
-18.58
-25.39
-32.11
-39.46
-48.09
-58.34
-69.81
-81.22
-90.5
-95.26
-93.55
-84.54
-68.87
-48.57
-26.33
-4.8
14.14
29.65
41.74
50.92
57.71
62.4
65.05
65.55
63.91
60.38
55.51
50.09
44.83
40.26
36.56
33.52
30.73
27.74
24.2
19.96
15.07
9.69
4.02
-1.82
-7.78
-13.94
-20.5
-27.73
-35.95
-45.36
-55.82
-66.6
-76.25
-82.73
-84.01
-78.66
-66.5
-48.76
-27.75
-6.21
13.54
30.13
43.15
52.96
60.09
64.96
67.71
68.32
66.85
63.61
59.21
54.42
49.96
46.22
43.2
40.52
37.67
34.22
29.98
25.11
19.88
14.62
9.41
4.18
-1.33
-7.43
-14.39
-22.44
-31.69
-42
-52.74
-62.67
-70.02
-72.84
-69.62
-59.9
-44.5
-25.36
-4.97
14.38
31.1
44.51
54.59
61.61
65.76
67.11
65.68
61.76
55.97
49.29
42.72
37.04
32.58
29.18
26.4
23.73
20.77
17.35
13.48
9.25
4.79
0.16
-4.64
-9.8
-15.58
-22.36
-30.5
-40.17
-51.11
-62.44
-72.63
-79.71
-81.8
-77.7
-67.39
-52.05
-33.76
-14.8
2.93
18.27
30.74
40.25
46.78
50.29
50.75
48.41
43.84
37.94
31.68
25.87
20.97
17.02
13.76
10.8
7.8
4.57
1.13
-2.41
-5.92
-9.4
-13.02
-17.1
-22.07
-28.32
-36.15
-45.57
-56.18
-66.93
-76.19
-81.96
-82.37
-76.33
-63.97
-46.69
-26.79
-6.73
11.53
26.92
39.17
48.46
55.02
58.9
60.04
58.5
54.67
49.3
43.35
37.72
32.93
29.06
25.71
22.29
18.32
13.57
8.17
2.48
-3.11
-8.43
-13.53
-18.74
-24.41
-30.91
-38.5
-47.28
-57.15
-67.62
-77.6
-85.46
-89.22
-87.19
-78.51
-63.59
-44.06
-22.31
-0.81
18.54
34.73
47.57
57.36
64.51
69.27
71.69
71.75
69.63
65.76
60.81
55.54
50.52
46
41.88
37.87
33.68
29.14
24.24
19.06
13.7
8.21
2.56
-3.27
-9.34
-15.71
-22.47
-29.82
-38.03
-47.25
-57.32
-67.45
-76.13
-81.36
-81.25
-74.62
-61.56
-43.44
-22.54
-1.32
18.23
35
48.65
59.36
67.38
72.89
75.96
76.73
75.54
72.95
69.57
65.95
62.38
58.92
55.48
51.94
48.3
44.72
41.42
38.56
36.09
33.7
30.81
26.78
21.08
13.51
4.34
-5.78
-15.97
-25.47
-33.83
-41.04
-47.48
-53.8
-60.68
-68.61
-77.61
-87.07
-95.68
-101.61
-103
-98.47
-87.62
-71.25
-51.15
-29.61
-8.81
9.63
24.91
36.89
45.83
52.1
56.07
58
58.17
56.94
54.75
52.03
49.2
46.53
44.14
42.06
40.23
38.59
36.99
35.29
33.3
30.87
27.93
24.51
20.69
16.58
12.21
7.53
2.47
-2.98
-8.75
-14.65
-20.44
-25.95
-31.12
-36.01
-40.79
-45.74
-51.21
-57.5
-64.77
-72.73
-80.49
-86.55
-89.09
-86.54
-78.18
-64.47
-47.02
-28.06
-9.75
6.38
19.62
29.95
37.64
42.91
45.82
46.41
44.9
41.88
38.2
34.75
32.11
30.39
29.22
28.05
26.42
24.21
21.63
19.02
16.6
14.35
11.94
8.93
4.95
-0.11
-6.03
-12.38
-18.64
-24.41
-29.53
-34.16
-38.68
-43.67
-49.63
-56.88
-65.29
-74.16
-82.18
-87.64
-88.86
-84.69
-74.93
-60.47
-43.04
-24.7
-7.21
8.26
21.21
31.59
39.47
44.88
47.77
48.25
46.66
43.63
39.99
36.52
33.77
31.92
30.79
29.98
29.01
27.5
25.3
22.51
19.36
16.08
12.75
9.26
5.34
0.7
-4.78
-10.98
-17.57
-24.13
-30.34
-36.08
-41.42
-46.66
-52.21
-58.51
-65.9
-74.5
-83.94
-93.27
-100.98
-105.26
-104.51
-97.85
-85.37
-68.22
-48.18
-27.22
-7.06
11.08
26.5
38.91
48.31
54.84
58.84
60.74
61.03
60.2
58.64
56.67
54.47
52.24
50.15
48.36
46.96
45.9
44.96
43.79
42.04
39.44
35.94
31.68
26.92
21.92
16.83
11.62
6.1
0.08
-6.58
-13.79
-21.23
-28.51
-35.22
-41.22
-46.6
-51.76
-57.23
-63.64
-71.46
-80.78
-91.05
-100.93
-108.39
-111.2
-107.65
-97.11
-80.37
-59.39
-36.66
-14.44
5.69
22.98
37.27
48.66
57.25
63.14
66.53
67.77
67.43
66.13
64.4
62.59
60.79
58.94
56.97
54.9
52.9
51.17
49.86
48.83
47.71
45.95
43.06
38.82
33.48
27.57
21.75
16.48
11.8
7.39
2.7
-2.76
-9.14
-16.26
-23.58
-30.49
-36.55
-41.64
-46.04
-50.37
-55.43
-61.93
-70.18
-79.84
-89.77
-98.06
-102.46
-100.98
-92.51
-77.32
-56.99
-33.99
-10.96
9.96
27.44
40.99
50.68
56.82
59.83
60.15
58.34
55.11
51.27
47.55
44.55
42.5
41.36
40.75
40.26
39.5
38.28
36.64
34.7
32.59
30.23
27.37
23.65
18.77
12.69
5.61
-2.02
-9.62
-16.73
-23.09
-28.76
-34.07
-39.54
-45.78
-53.25
-62.09
-71.91
-81.64
-89.62
-93.86
-92.56
-84.71
-70.5
-51.35
-29.54
-7.56
12.55
29.53
42.93
52.78
59.34
62.83
63.5
61.73
58.17
53.67
49.15
45.32
42.54
40.76
39.59
38.55
37.2
35.3
32.83
29.92
26.81
23.63
20.35
16.74
12.41
6.97
0.24
-7.67
-16.29
-24.98
-33.15
-40.47
-47.01
-53.17
-59.62
-67
-75.8
-86.02
-97.04
-107.5
-115.43
-118.63
-115.28
-104.53
-86.84
-63.96
-38.42
-12.88
10.52
30.42
46.29
58.2
66.49
71.62
74.06
74.31
72.94
70.5
67.58
64.65
62.03
59.86
58.06
56.43
54.67
52.57
50.05
47.18
44.11
40.9
37.48
33.57
28.81
22.87
15.67
7.42
-1.41
-10.19
-18.31
-25.4
-31.47
-36.89
-42.35
-48.65
-56.47
-66.15
-77.47
-89.42
-100.28
-107.77
-109.64
-104.27
-91.23
-71.59
-47.57
-22
2.47
23.96
41.62
55.39
65.66
72.89
77.42
79.48
79.34
77.42
74.26
70.46
66.58
63.02
60.04
57.71
55.97
54.6
53.31
51.77
49.66
46.82
43.24
39.04
34.36
29.25
23.73
17.73
11.26
4.37
-2.76
-9.91
-16.86
-23.47
-29.7
-35.62
-41.46
-47.61
-54.53
-62.65
-72.04
-82.09
-91.37
-97.76
-98.96
-93.31
-80.39
-61.33
-38.47
-14.64
7.69
26.85
42.12
53.43
60.93
64.82
65.33
62.89
58.3
52.69
47.29
43.05
40.43
39.27
38.93
38.62
37.71
36.03
33.77
31.33
29.04
26.87
24.44
21.2
16.66
10.67
3.47
-4.34
-12.07
-19.18
-25.38
-30.78
-35.8
-41.07
-47.27
-54.93
-64.15
-74.34
-84.12
-91.46
-94.14
-90.44
-79.71
-62.72
-41.43
-18.46
3.65
23.01
38.62
50.19
57.91
62.1
63.11
61.41
57.64
52.68
47.52
43.06
39.86
38
37.12
36.55
35.65
33.98
31.48
28.4
25.12
21.9
18.71
15.24
10.96
5.41
-1.53
-9.58
-18.1
-26.34
-33.76
-40.22
-46.02
-51.79
-58.27
-66.06
-75.5
-86.4
-97.9
-108.43
-115.85
-117.88
-112.83
-100.12
-80.67
-56.63
-30.76
-5.71
16.61
35.22
49.92
60.98
68.78
73.72
76.14
76.45
75.12
72.7
69.73
66.7
63.92
61.54
59.49
57.62
55.69
53.54
51.07
48.28
45.17
41.74
37.9
33.54
28.53
22.81
16.39
9.32
1.73
-6.23
-14.36
-22.37
-30.03
-37.16
-43.78
-50.14
-56.78
-64.36
-73.41
-84.02
-95.45
-106.07
-113.48
-115.19
-109.37
-95.56
-74.95
-50.03
-23.87
0.76
22.08
39.39
52.81
62.87
70.02
74.57
76.69
76.68
74.99
72.23
69.04
65.9
63.13
60.8
58.89
57.32
55.97
54.68
53.18
51.19
48.44
44.79
40.29
35.16
29.62
23.86
17.9
11.63
4.92
-2.27
-9.83
-17.47
-24.81
-31.57
-37.67
-43.29
-48.86
-54.99
-62.28
-71.03
-80.9
-90.7
-98.43
-101.72
-98.55
-87.98
-70.64
-48.56
-24.61
-1.6
18.44
34.51
46.5
54.75
59.7
61.66
61
58.21
54.07
49.55
45.55
42.67
41.04
40.27
39.77
38.93
37.45
35.45
33.27
31.25
29.44
27.47
24.64
20.29
14.12
6.41
-2.01
-10.16
-17.25
-23.05
-27.96
-32.79
-38.43
-45.55
-54.38
-64.61
-75.36
-85.14
-92.06
-94.12
-89.76
-78.42
-60.87
-39.2
-16.16
5.61
24.25
39
49.99
57.79
62.9
65.54
65.76
63.67
59.71
54.66
49.5
45.11
42.02
40.21
39.27
38.53
37.41
35.58
32.99
29.81
26.26
22.46
18.35
13.76
8.47
2.31
-4.71
-12.45
-20.57
-28.66
-36.33
-43.35
-49.72
-55.74
-61.97
-69.05
-77.55
-87.66
-98.95
-110.14
-119.2
-123.74
-121.65
-111.83
-94.59
-71.7
-45.83
-19.84
3.98
24.32
40.76
53.52
63.05
69.82
74.22
76.6
77.34
76.88
75.58
73.73
71.51
69
66.32
63.63
61.14
59.02
57.31
55.82
54.15
51.81
48.36
43.62
37.71
31.04
24.17
17.51
11.21
5.07
-1.3
-8.27
-15.99
-24.25
-32.59
-40.5
-47.66
-54.08
-60.12
-66.46
-73.83
-82.82
-93.46
-104.94
-115.45
-122.5
-123.46
-116.53
-101.4
-79.47
-53.51
-26.68
-1.7
19.85
37.54
51.7
62.9
71.48
77.57
81.15
82.39
81.71
79.78
77.28
74.75
72.39
70.16
67.91
65.56
63.21
61.11
59.47
58.25
57.06
55.25
52.18
47.47
41.23
34.01
26.6
19.74
13.8
8.71
4.02
-0.9
-6.6
-13.26
-20.7
-28.34
-35.5
-41.61
-46.51
-50.48
-54.26
-58.79
-64.96
-73.23
-83.39
-94.31
-104.08
-110.28
-110.65
-103.75
-89.48
-69.19
-45.31
-20.62
2.42
22.24
38.18
50.32
59.05
64.8
67.95
68.83
67.84
65.54
62.54
59.42
56.6
54.28
52.45
51.01
49.81
48.75
47.75
46.69
45.35
43.44
40.69
36.99
32.45
27.37
22.1
16.86
11.58
6.03
-0.09
-6.91
-14.29
-21.85
-29.16
-35.83
-41.73
-47
-52.02
-57.38
-63.73
-71.49
-80.52
-89.9
-97.9
-102.33
-101.25
-93.57
-79.52
-60.6
-39.11
-17.54
2.04
18.32
30.79
39.5
44.84
47.32
47.46
45.81
43.03
39.8
36.78
34.44
32.97
32.26
32.06
32.11
32.27
32.5
32.74
32.8
32.32
30.94
28.45
24.92
20.64
16
11.17
6.08
0.48
-5.97
-13.4
-21.64
-30.23
-38.56
-46.08
-52.5
-57.9
-62.8
-68.04
-74.55
-83.01
-93.38
-104.6
-114.58
-120.69
-120.45
-112.5
-97.08
-75.95
-51.85
-27.53
-5.06
14.52
31.03
44.72
55.9
64.69
71.15
75.36
77.55
78.11
77.46
76
73.97
71.57
68.96
66.31
63.87
61.92
60.63
60.01
59.74
59.25
57.85
54.94
50.36
44.36
37.65
31.07
25.28
20.46
16.28
12.06
7.14
1.23
-5.48
-12.34
-18.61
-23.74
-27.65
-30.71
-33.65
-37.31
-42.34
-49.02
-57.04
-65.29
-71.9
-74.45
-70.62
-58.88
-39.2
-13.22
16.1
45.34
71.65
93.38
110.25
122.99
132.64
140.05
145.62
149.44
151.58
152.31
151.99
150.95
149.11
146.04
141.14
134.13
125.3
115.59
106.15
97.81
90.54
83.43
75.02
63.91
49.24
30.86
9.09
-15.59
-42.84
-72.48
-104.33
-137.91
-172.42
-206.64
-239.08
-268.11
-292.08
-309.58
-319.77
-322.64
-319.26
-311.6
-302.13
-293.1
