-285.84
-280.35
-275.26
-268.2
-256.51
-238.02
-211.71
-178.09
-139.09
-97.63
-56.9
-19.65
12.29
38.19
58.18
72.93
83.23
89.8
93.27
94.26
93.53
91.96
90.41
89.49
89.33
89.65
89.87
89.43
88.06
85.85
83.1
80.07
76.8
73.07
68.5
62.75
55.69
47.47
38.46
29.1
19.84
10.98
2.68
-5.11
-12.64
-20.33
-28.73
-38.3
-49.19
-60.99
-72.5
-81.78
-86.56
-84.84
-75.66
-59.49
-38.2
-14.45
9.04
30.25
48.12
62.43
73.43
81.46
86.7
89.29
89.45
87.58
84.34
80.51
76.77
73.59
71.09
69.1
67.26
65.22
62.75
59.84
56.62
53.23
49.62
45.57
40.66
34.5
26.91
18.04
8.32
-1.65
-11.33
-20.39
-28.74
-36.53
-44.07
-51.84
-60.4
-70.32
-81.86
-94.66
-107.39
-117.81
-123.23
-121.33
-111
-92.8
-68.87
-42.24
-15.85
8.16
28.77
45.88
59.82
70.92
79.3
84.92
87.84
88.36
87.07
84.71
81.95
79.22
76.61
73.91
70.84
67.24
63.27
59.28
55.74
52.86
50.45
47.95
44.52
39.52
32.65
24.18
14.81
5.37
-3.43
-11.21
-18
-24.19
-30.35
-37.16
-45.21
-54.8
-65.71
-76.95
-86.74
-92.77
-92.88
-85.68
-71.18
-50.79
-26.93
-2.28
20.9
41.09
57.51
69.92
78.36
83.05
84.34
82.86
79.4
74.79
69.73
64.69
59.85
55.22
50.74
46.42
42.33
38.58
35.19
32.02
28.7
24.72
19.6
13.1
5.3
-3.35
-12.24
-20.74
-28.48
-35.42
-41.87
-48.46
-55.94
-64.9
-75.43
-86.78
-97.28
-104.6
-106.33
-100.83
-87.78
-68.41
-45.12
-20.75
2.23
22.23
38.59
51.33
60.73
67.02
70.32
70.75
68.69
64.81
60.04
55.3
51.28
48.17
45.78
43.67
41.46
38.97
36.3
33.67
31.18
28.69
25.81
21.99
16.79
10.08
2.11
-6.58
-15.32
-23.54
-30.97
-37.68
-43.98
-50.39
-57.51
-65.89
-75.85
-87.18
-98.8
-108.77
-114.55
-113.79
-105.1
-88.68
-66.33
-40.88
-15.3
8.1
28.04
44.22
56.9
66.48
73.31
77.61
79.6
79.6
78
75.3
71.97
68.44
64.97
61.67
58.52
55.4
52.23
49.02
45.83
42.73
39.68
36.5
32.86
28.43
23
16.56
9.33
1.64
-6.14
-13.71
-20.93
-27.73
-34.17
-40.33
-46.43
-52.8
-59.92
-68.2
-77.69
-87.75
-96.83
-102.74
-103.18
-96.59
-82.73
-62.88
-39.48
-15.33
7.14
26.48
42.16
54.3
63.26
69.38
72.92
74.14
73.42
71.24
68.18
64.74
61.3
58.13
55.32
52.87
50.66
48.55
46.35
43.89
41.06
37.79
34.08
29.92
25.35
20.39
14.99
9.09
2.6
-4.48
-12.01
-19.62
-26.87
-33.38
-39.04
-44.12
-49.2
-54.97
-62.01
-70.48
-79.86
-88.94
-95.93
-98.83
-96.03
-86.82
-71.73
-52.38
-31.07
-10.16
8.49
23.72
35.08
42.54
46.33
46.83
44.6
40.4
35.17
29.89
25.36
22
19.76
18.25
16.9
15.31
13.39
11.36
9.55
8.11
6.83
5.12
2.28
-2.22
-8.42
-15.86
-23.71
-31.16
-37.68
-43.17
-48.02
-52.92
-58.64
-65.79
-74.53
-84.32
-93.8
-100.98
-103.62
-99.94
-89.25
-72.22
-50.79
-27.59
-5.14
14.7
30.99
43.56
52.59
58.37
61.14
61.16
58.84
54.87
50.1
45.43
41.54
38.75
36.98
35.82
34.72
33.27
31.3
28.94
26.47
24.06
21.63
18.75
14.85
9.45
2.45
-5.78
-14.54
-23.05
-30.73
-37.46
-43.47
-49.3
-55.57
-62.84
-71.49
-81.57
-92.6
-103.36
-112.01
-116.32
-114.31
-104.95
-88.53
-66.68
-41.91
-16.87
6.21
25.99
41.95
54.17
63.07
69.12
72.77
74.34
74.13
72.49
69.81
66.56
63.21
60.12
57.52
55.41
53.67
52.11
50.47
48.51
46
42.75
38.66
33.78
28.3
22.42
16.29
9.92
3.19
-4.04
-11.78
-19.8
-27.76
-35.29
-42.2
-48.58
-54.8
-61.47
-69.21
-78.4
-88.9
-99.8
-109.35
-115.23
-115.16
-107.61
-92.44
-71.03
-45.95
-20.18
3.69
24.02
40.18
52.32
60.9
66.38
69.12
69.45
67.82
64.9
61.5
58.37
55.97
54.4
53.46
52.73
51.85
50.6
48.96
46.99
44.79
42.34
39.56
36.29
32.32
27.51
21.79
15.19
7.94
0.38
-7.11
-14.18
-20.67
-26.62
-32.32
-38.13
-44.48
-51.72
-60.04
-69.21
-78.51
-86.55
-91.46
-91.31
-84.74
-71.49
-52.65
-30.43
-7.52
13.62
31.37
44.98
54.44
60.04
62.14
61.14
57.58
52.25
46.18
40.45
35.88
32.82
31.06
30.05
29.11
27.8
26.02
24
22.01
20.16
18.19
15.55
11.6
5.93
-1.39
-9.81
-18.47
-26.58
-33.7
-39.89
-45.66
-51.75
-58.89
-67.55
-77.74
-88.75
-99.14
-106.8
-109.41
-105.12
-93.2
-74.43
-50.93
-25.57
-1.16
20.3
37.85
51.37
61.19
67.67
71.04
71.48
69.37
65.37
60.44
55.6
51.69
49.1
47.68
46.89
46.04
44.53
42.12
38.94
35.32
31.63
28.03
24.32
20.07
14.76
8.08
0.1
-8.73
-17.74
-26.26
-33.97
-40.9
-47.45
-54.21
-61.77
-70.65
-81.08
-92.88
-105.21
-116.46
-124.37
-126.48
-120.89
-106.97
-85.68
-59.44
-31.42
-4.63
18.74
37.7
52.25
62.97
70.6
75.7
78.6
79.53
78.79
76.82
74.22
71.56
69.27
67.53
66.24
65.17
64.06
62.72
61.01
58.82
56.05
52.57
48.35
43.4
37.83
31.74
25.16
18.09
10.55
2.67
-5.32
-13.12
-20.52
-27.51
-34.29
-41.22
-48.79
-57.45
-67.46
-78.63
-90.05
-99.98
-106.08
-105.98
-98.13
-82.41
-60.36
-34.78
-8.82
14.84
34.61
50
61.29
69.03
73.65
75.43
74.64
71.72
67.41
62.6
58.16
54.64
52.19
50.51
49.09
47.46
45.34
42.74
39.91
37.05
34.2
31.05
27.09
21.8
14.92
6.59
-2.65
-12.09
-21.05
-29.16
-36.38
-42.99
-49.42
-56.16
-63.69
-72.38
-82.24
-92.73
-102.57
-109.75
-112.02
-107.57
-95.72
-77.31
-54.52
-30.21
-7.07
13.05
29.35
41.73
50.38
55.46
57.05
55.41
51.25
45.74
40.23
35.84
33.09
31.79
31.26
30.7
29.61
27.91
25.87
23.87
22.1
20.36
18.09
14.63
9.45
2.45
-5.98
-15.04
-23.87
-31.81
-38.64
-44.64
-50.46
-56.96
-64.89
-74.73
-86.36
-98.85
-110.39
-118.5
-120.6
-114.84
-100.77
-79.63
-54.01
-27.12
-1.74
20.31
38.38
52.61
63.44
71.17
75.89
77.66
76.74
73.76
69.65
65.46
61.98
59.59
58.19
57.3
56.35
54.85
52.62
49.72
46.39
42.79
38.93
34.62
29.51
23.32
15.92
7.46
-1.7
-11.04
-20.06
-28.4
-35.91
-42.72
-49.21
-55.97
-63.66
-72.82
-83.61
-95.42
-106.72
-115.15
-118.04
-113.26
-100.03
-79.29
-53.5
-25.88
0.58
23.84
43.07
58.33
70.08
78.72
84.49
87.54
88.18
86.93
84.46
81.41
78.18
75.03
72
69.16
66.53
64.16
61.99
59.85
57.47
54.55
50.88
46.39
41.15
35.32
29.04
22.39
15.33
7.8
-0.22
-8.61
-17.13
-25.42
-33.17
-40.23
-46.7
-53.01
-59.78
-67.7
-77.15
-87.9
-98.81
-107.84
-112.5
-110.53
-100.74
-83.48
-60.66
-35.17
-10.01
12.43
30.85
44.91
54.94
61.46
64.92
65.64
64.02
60.64
56.29
51.87
48.09
45.31
43.39
41.87
40.22
38.04
35.35
32.41
29.61
27.08
24.59
21.56
17.26
11.15
3.22
-5.96
-15.44
-24.23
-31.73
-37.9
-43.32
-48.83
-55.32
-63.38
-73.13
-84.09
-95.08
-104.3
-109.58
-108.91
-101.1
-86.25
-65.88
-42.48
-18.83
2.82
21.19
35.88
47.12
55.27
60.57
63.19
63.37
61.61
58.75
55.73
53.41
52.22
52.16
52.79
53.52
53.86
53.58
52.72
51.48
50.02
48.32
46.11
43
38.6
32.7
25.37
16.99
8.14
-0.55
-8.59
-15.78
-22.18
-28.12
-34.13
-40.77
-48.55
-57.73
-67.99
-78.26
-86.61
-90.62
-88.04
-77.53
-59.32
-35.18
-8.01
19.04
43.39
63.53
79.04
90.26
97.88
102.63
105.09
105.74
104.99
103.17
100.6
97.57
94.35
91.2
88.34
85.86
83.67
81.54
79.12
76.09
72.22
67.44
61.82
55.53
48.72
41.52
33.97
26.09
17.94
9.62
1.36
-6.62
-14.1
-21.01
-27.41
-33.56
-39.86
-46.8
-54.78
-63.84
-73.31
-81.65
-86.62
-85.77
-77.28
-60.65
-37.03
-8.87
20.7
48.81
73.45
93.68
109.47
121.29
129.75
135.44
138.8
140.2
139.92
138.22
135.27
131.21
126.11
119.97
112.69
104.07
93.95
82.17
68.67
53.35
35.95
16.01
-7.13
-34.18
-65.52
-100.98
-139.62
-179.74
-219.16
-255.52
-286.71
-311.15
-328.04
-337.38
-339.98
-337.33
-331.4
-324.27
-317.63
-312.29
-307.71
-302.05
-292.53
-276.47
-252.21
-219.92
-181.7
-140.97
-101.5
-66.28
-36.98
-13.87
3.68
16.63
25.92
32.37
36.92
40.61
44.52
49.44
55.49
62.06
68.04
72.39
74.55
74.72
73.64
72.14
70.65
68.95
66.18
61.33
53.74
43.48
31.43
18.97
7.45
-2.37
-10.55
-17.9
-25.63
-34.91
-46.32
-59.58
-73.31
-85.27
-92.76
-93.37
-85.76
-70.09
-48.09
-22.49
3.77
28.28
49.56
67.03
80.68
90.7
97.29
100.62
101.01
99
95.37
91.05
86.86
83.39
80.87
79.12
77.73
76.22
74.18
71.41
67.94
63.85
59.23
54.07
48.32
41.89
34.76
27.01
18.82
10.43
2.11
-5.92
-13.51
-20.7
-27.72
-35.01
-43.14
-52.7
-64.1
-77.33
-91.67
-105.5
-116.44
-121.82
-119.42
-108.29
-89.14
-64.19
-36.47
-8.97
16.17
37.89
56.05
70.95
82.93
92.11
98.53
102.32
103.82
103.57
102.2
100.22
97.94
95.49
92.92
90.31
87.86
85.76
84.08
82.59
80.79
78
73.67
67.61
60.08
51.73
43.34
35.5
28.41
21.82
15.2
7.99
-0.14
-9.12
-18.5
-27.63
-35.91
-43.07
-49.32
-55.35
-62.17
-70.74
-81.57
-94.25
-107.29
-118.23
-124.23
-122.87
-112.95
-94.91
-70.76
-43.46
-16.06
9.04
30.49
47.96
61.71
72.2
79.8
84.72
87.24
87.78
86.96
85.48
83.88
82.42
81.04
79.59
77.92
76.1
74.31
72.67
71.1
69.21
66.46
62.41
56.95
50.35
43.16
35.99
29.24
22.98
16.97
10.81
4.2
-2.89
-10.22
-17.31
-23.66
-28.96
-33.29
-37.08
-41.16
-46.42
-53.55
-62.59
-72.59
-81.62
-87.07
-86.46
-78.28
-62.64
-41.26
-16.9
7.56
29.97
49.25
65.26
78.3
88.58
96.09
100.69
102.42
101.7
99.38
96.5
94.07
92.72
92.59
93.41
94.6
95.47
95.43
94.11
91.49
88.01
84.53
82.23
82.25
85.32
91.5
100.09
109.89
119.64
128.32
135.39
140.63
143.92
145.08
143.82
139.98
133.67
125.42
115.98
106.1
96.13
85.92
74.93
62.59
48.72
33.75
18.7
4.83
-6.93
-16.41
-24.36
-32.27
-41.91
-54.77
-71.77
-93.16
-118.67
-147.72
-179.5
-212.92
-246.61
-278.92
-308.25
-333.36
-353.51
-368.44
-377.91
-381.42
-378.05
-366.95
-347.83
-321.53
-290
-255.82
-221.49
-188.8
-158.62
-131.13
-106.21
-83.86
-64.24
-47.64
-34.17
-23.74
-15.99
-10.53
-7.07
-5.52
-5.9
-8.29
-12.61
-18.59
-25.86
-34.03
-42.81
-51.82
-60.35
-67.18
-70.57
-68.7
-60.34
-45.38
-25.1
-1.79
21.87
43.7
62.42
77.79
90.25
100.42
108.69
115.08
119.39
121.45
121.38
119.58
116.68
113.22
109.61
105.96
102.27
98.55
94.91
91.54
88.58
85.98
83.4
80.33
76.23
70.76
63.99
56.33
48.44
40.98
34.36
28.61
23.39
18.12
12.32
5.76
-1.43
-8.83
-16
-22.58
-28.49
-33.9
-39.18
-44.84
-51.47
-59.53
-69.19
-80.01
-90.71
-99.28
-103.42
-101.19
-91.78
-75.84
-55.29
-32.74
-10.66
9.12
25.72
38.95
49.01
56.19
60.69
62.74
62.69
61.09
58.63
56.02
53.79
52.24
51.32
50.83
50.5
50.12
49.56
48.76
47.53
45.63
42.77
38.77
33.68
27.82
21.63
15.5
9.57
3.7
-2.42
-9.08
-16.36
-24.1
-31.95
-39.56
-46.76
-53.65
-60.63
-68.27
-77.14
-87.49
-98.94
-110.29
-119.6
-124.56
-123.16
-114.35
-98.48
-77.19
-52.97
-28.41
-5.55
14.43
31.16
44.75
55.47
63.55
69.13
72.39
73.67
73.43
72.28
70.78
69.35
68.18
67.26
66.43
65.57
64.65
63.73
62.87
62.02
60.87
58.92
55.63
50.67
44.09
36.39
28.34
20.69
13.88
7.89
2.26
-3.65
-10.38
-18.11
-26.59
-35.28
-43.54
-50.9
-57.28
-63
-68.77
-75.5
-84.02
-94.8
-107.54
-121
-133.03
-140.9
-142.01
-134.71
-118.87
-95.96
-68.66
-40.03
-12.7
11.62
32.24
49.19
62.86
73.62
81.79
87.6
91.34
93.34
93.98
93.67
92.72
91.41
89.9
88.3
86.68
85.09
83.56
82.07
80.53
78.74
76.38
73.13
68.71
63.08
56.4
49.01
41.35
33.83
26.73
20.16
14.02
8.02
1.78
-5.05
-12.63
-20.81
-29.15
-37.1
-44.21
-50.39
-55.89
-61.31
-67.41
-74.87
-84.15
-95.28
-107.58
-119.56
-129.01
-133.39
-130.52
-119.37
-100.48
-75.89
-48.58
-21.59
2.72
23.02
39.01
51.02
59.65
65.43
68.78
70.02
69.5
67.66
65.03
62.12
59.33
56.91
54.89
53.28
52.02
51.06
50.31
49.58
48.56
46.84
44.05
40.03
34.86
28.8
22.22
15.37
8.41
1.31
-5.98
-13.48
-21.1
-28.64
-35.87
-42.55
-48.68
-54.45
-60.4
-67.22
-75.57
-85.62
-96.71
-107.14
-114.43
-115.98
-109.92
-95.86
-75.11
-50.28
-24.42
-0.21
20.68
37.62
50.74
60.42
67
70.75
71.98
71.19
69.08
66.43
63.88
61.76
60.09
58.71
57.48
56.38
55.47
54.81
54.27
53.43
51.68
48.47
43.54
37.08
29.75
22.33
15.39
9.09
3.08
-3.24
-10.4
-18.54
-27.35
-36.21
-44.51
-51.89
-58.41
-64.55
-71.06
-78.76
-88.3
-99.79
-112.45
-124.5
-133.34
-136.21
-131.12
-117.54
-96.64
-70.96
-43.53
-17.08
6.57
26.6
42.9
55.72
65.43
72.36
76.89
79.43
80.43
80.31
79.39
77.9
75.97
73.72
71.31
68.94
66.87
65.25
64.13
63.24
62.15
60.25
57.03
52.26
46.07
38.95
31.55
24.41
17.79
11.5
5.11
-1.92
-9.82
-18.47
-27.33
-35.7
-43.03
-49.18
-54.53
-59.91
-66.31
-74.61
-85.2
-97.57
-110.26
-120.89
-126.71
-125.38
-115.72
-98.21
-74.87
-48.63
-22.46
1.41
21.79
38.46
51.69
61.9
69.39
74.35
77.03
77.79
77.12
75.54
73.46
71.16
68.74
66.27
63.85
61.67
59.92
58.64
57.64
56.48
54.59
51.48
46.97
41.25
34.8
28.17
21.75
15.63
9.59
3.26
-3.62
-11.03
-18.64
-25.95
-32.52
-38.22
-43.25
-48.19
-53.77
-60.66
-69.23
-79.34
-90.04
-99.63
-105.84
-106.42
-99.87
-86.01
-66.21
-43
-19.3
2.42
20.64
34.87
45.33
52.48
56.72
58.34
57.67
55.19
51.59
47.66
44.08
41.31
39.45
38.36
37.74
37.27
36.72
35.91
34.63
32.68
29.83
26
21.27
15.88
10.11
4.16
-1.95
-8.33
-15.08
-22.22
-29.56
-36.8
-43.64
-49.9
-55.6
-61.01
-66.64
-73.1
-80.98
-90.45
-100.9
-110.78
-117.75
-119.27
-113.44
-99.71
-79.22
-54.48
-28.58
-4.26
16.78
33.96
47.59
58.26
66.47
72.37
76.01
77.51
77.28
75.97
74.27
72.61
71.08
69.51
67.64
65.42
63.04
60.83
59.02
57.54
55.95
53.56
49.78
44.36
37.55
30.02
22.59
15.85
9.95
4.51
-1.14
-7.6
-15.12
-23.44
-31.95
-39.98
-47.06
-53.13
-58.55
-64.01
-70.32
-78.24
-88.1
-99.45
-110.89
-120.11
-124.4
-121.49
-110.37
-91.71
-67.73
-41.5
-15.93
6.95
26.26
42.04
54.74
64.78
72.36
77.52
80.38
81.29
80.82
79.61
78.14
76.67
75.17
73.49
71.53
69.32
67.08
65.06
63.39
61.91
60.21
57.73
53.98
48.73
42.15
34.77
27.31
20.45
14.58
9.63
5.13
0.35
-5.35
-12.27
-20.22
-28.53
-36.4
-43.2
-48.76
-53.43
-57.97
-63.25
-70.04
-78.78
-89.4
-101.09
-112.23
-120.57
-123.69
-119.7
-107.96
-89.33
-66.03
-40.96
-16.87
4.28
21.59
35.05
45.12
52.37
57.23
59.94
60.68
59.73
57.52
54.67
51.82
49.49
47.91
47.03
46.58
46.22
45.65
44.64
43.05
40.81
37.89
34.34
30.19
25.51
20.33
14.62
8.34
1.53
-5.69
-13.07
-20.34
-27.25
-33.72
-39.81
-45.72
-51.74
-58.22
-65.56
-74.03
-83.53
-93.25
-101.6
-106.35
-105.32
-97.11
-81.76
-60.85
-37.04
-13.19
8.37
26.38
40.53
51.1
58.52
63.1
65.09
64.84
62.93
60.12
57.16
54.55
52.45
50.76
49.31
48.01
46.97
46.26
45.82
45.27
44.04
41.59
37.6
32.25
26.01
19.51
13.2
7.18
1.18
-5.21
-12.35
-20.3
-28.77
-37.22
-45.12
-52.14
-58.29
-63.97
-69.86
-76.81
-85.49
-96.13
-108.16
-119.95
-129.08
-132.83
-128.99
-116.74
-96.94
-71.98
-44.99
-18.91
4.24
23.59
39.25
51.73
61.57
69.1
74.49
77.92
79.67
80.13
79.66
78.53
76.85
74.65
72.04
69.26
66.71
64.73
63.44
62.64
61.74
60.02
56.84
51.9
45.41
37.96
30.34
23.17
16.73
10.78
4.8
-1.79
-9.29
-17.6
-26.23
-34.6
-42.23
-48.95
-55
-60.94
-67.51
-75.44
-85.16
-96.52
-108.43
-118.9
-125.36
-125.36
-117.46
-101.76
-79.98
-54.89
-29.46
-6.02
14.13
30.71
44.07
54.72
63.03
69.13
73.05
74.83
74.68
73
70.33
67.23
64.18
61.51
59.38
57.78
56.59
55.6
54.56
53.15
51.03
47.93
43.74
38.52
32.55
26.17
19.66
13.12
6.44
-0.54
-7.94
-15.62
-23.24
-30.36
-36.67
-42.18
-47.33
-52.86
-59.59
-67.97
-77.72
-87.66
-95.74
-99.61
-97.26
-87.74
-71.53
-50.42
-27.02
-3.98
16.54
33.31
45.95
54.72
60.18
62.91
63.4
62.06
59.35
55.79
52.05
48.77
46.42
45.16
44.79
44.84
44.78
44.18
42.82
40.67
37.83
34.41
30.47
26
20.93
15.13
8.53
1.12
-6.93
-15.32
-23.68
-31.61
-38.9
-45.55
-51.85
-58.31
-65.59
-74.23
-84.4
-95.62
-106.55
-115.12
-119
-116.23
-105.91
-88.57
-66.08
-41.15
-16.5
5.78
24.55
39.6
51.31
60.23
66.83
71.41
74.11
75.13
74.74
73.31
71.3
69.1
66.96
65
63.28
61.85
60.74
59.92
59.11
57.81
55.38
51.28
45.35
37.95
29.81
21.81
14.56
8.16
2.21
-3.92
-10.72
-18.28
-26.24
-34.01
-41.04
-47.08
-52.29
-57.19
-62.55
-69.23
-77.87
-88.52
-100.27
-111.09
-118.18
-118.75
-111
-94.9
-72.25
-46.16
-19.94
3.76
23.58
39.27
51.23
59.93
65.7
68.74
69.39
68.23
66.05
63.63
61.43
59.56
57.86
56.08
54.18
52.4
51.11
50.61
50.86
51.45
51.64
50.7
48.18
44.14
39.12
33.95
29.37
25.7
22.72
19.71
15.85
10.57
3.87
-3.61
-10.89
-17.03
-21.53
-24.61
-27.07
-30.08
-34.67
-41.37
-49.85
-58.84
-66.27
-69.72
-67.02
-56.92
-39.58
-16.59
9.49
35.78
59.95
80.57
97.29
110.41
120.4
127.59
132.04
133.75
132.86
129.9
125.71
121.17
116.95
113.22
109.6
105.36
99.69
92.04
82.33
70.83
57.89
43.48
26.93
6.89
-18.28
-49.77
-87.59
-130.15
-174.41
-216.51
-252.84
-280.92
-299.81
-310.14
-313.64
-312.52
-309.05
-305.12
-301.94
-299.69
-297.21
-292.02
-280.93
-261.04
-230.99
-191.67
-146.17
-98.79
-53.79
-14.18
18.7
44.94
65.34
80.81
91.97
99.29
103.25
104.52
103.95
102.4
100.56
98.86
97.46
96.34
95.36
94.3
92.9
90.9
88.05
84.21
79.34
73.52
66.91
59.63
51.77
43.33
34.34
24.85
15.04
5.14
-4.6
-13.99
-22.94
-31.54
-40.07
-49.02
-59.02
-70.58
-83.7
-97.51
-110.14
-118.97
-121.37
-115.54
-101.21
-79.79
-53.97
-26.85
-1.12
21.54
40.5
55.92
68.28
77.99
85.32
90.43
93.54
94.99
95.22
94.64
93.5
91.87
89.73
87.13
84.31
81.66
79.51
77.95
76.65
74.91
71.96
67.25
60.75
52.96
44.67
36.63
29.21
22.26
15.27
7.68
-0.77
-9.92
-19.22
-28.04
-35.94
-42.9
-49.34
-56.03
-63.82
-73.38
-84.83
-97.42
-109.45
-118.41
-121.65
-117.12
-104.15
-83.74
-58.33
-31.05
-4.8
18.38
37.6
52.89
64.75
73.76
80.36
84.81
87.32
88.16
87.68
86.29
84.35
82.12
79.76
77.35
74.98
72.76
70.79
69.01
67.19
64.93
61.79
57.49
52.03
45.68
38.88
32
25.26
18.62
11.83
4.68
-2.93
-10.85
-18.71
-26.09
-32.68
-38.52
-44.04
-50.03
-57.36
-66.59
-77.51
-88.94
-98.71
-104.17
-103.02
-94.07
-77.76
-56.07
-31.89
-8.15
12.93
30.2
43.5
53.19
59.8
63.71
65.19
64.49
62.03
58.44
54.46
50.8
47.96
46.09
44.95
44.11
43.05
41.47
39.32
36.75
33.99
31.09
27.88
24.03
19.18
13.13
5.95
-2.02
-10.28
-18.31
-25.69
-32.24
-38.07
-43.53
-49.15
-55.55
-63.28
-72.64
-83.4
-94.58
-104.42
-110.62
-110.89
-103.69
-88.81
-67.54
-42.3
-15.91
9.16
31.28
49.75
64.55
75.97
84.33
89.98
93.33
94.94
95.55
96.01
97.09
99.32
102.9
107.65
113.14
118.8
124.16
128.99
133.3
137.28
141.04
144.46
147.16
148.66
148.59
146.9
143.94
140.19
136.09
131.65
126.48
119.94
111.57
101.35
89.79
77.71
65.79
54.14
42.16
28.72
12.49
-7.67
-32.47
-62.18
-96.61
-135.2
-176.9
-220.08
-262.53
-301.47
-333.88
-356.85
-368.22
-367.01
-353.85
-330.83
-301.03
-267.79
-233.87
-201.02
-169.86
-140.31
-112.12
-85.19
-59.77
-36.25
-15.01
3.73
19.81
33.12
43.44
50.64
54.76
56.12
55.39
53.38
50.8
48.02
44.99
41.26
36.37
30.06
22.55
14.47
6.59
-0.43
-6.42
-11.73
-17.21
-23.88
-32.61
-43.7
-56.53
-69.51
-80.19
-85.9
-84.56
-75.35
-59.11
-38.11
-15.3
6.57
25.64
41.14
53.18
62.18
68.51
72.27
73.5
72.35
69.3
65.13
60.73
56.8
53.71
51.42
49.59
47.8
45.78
43.53
41.25
39.17
37.3
35.37
32.82
29.01
23.49
16.26
7.8
-1.07
-9.47
-16.8
-22.95
-28.3
-33.61
-39.69
-47.23
-56.54
-67.33
-78.66
-88.81
-95.65
-97.01
-91.41
-78.6
-59.76
-37.25
-13.88
7.84
26.29
40.87
51.74
59.32
64.01
66.03
65.59
63.11
59.3
55.09
51.41
48.87
47.52
46.93
46.39
45.21
43.05
40.03
36.53
33.02
29.69
26.32
22.35
17.16
10.37
2.11
-7.06
-16.32
-24.96
-32.68
-39.61
-46.22
-53.1
-60.81
-69.74
-80.05
-91.54
-103.4
-114.04
-121.22
-122.53
-116.22
-101.86
-80.67
-55.15
-28.34
-2.87
19.56
38.4
53.81
66.27
76.11
83.48
88.31
90.62
90.64
88.86
85.98
82.72
79.64
77.01
74.8
72.76
70.56
67.99
64.99
61.59
57.85
53.72
49.05
43.62
37.22
29.79
21.37
12.21
2.71
-6.7
-15.62
-23.86
-31.49
-38.88
-46.56
-55.15
-65.14
-76.65
-89.23
-101.63
-111.91
-117.71
-116.91
-108.3
-92.14
-70.14
-45
-19.63
3.68
23.62
39.84
52.57
62.16
68.83
72.7
73.94
72.99
70.58
67.58
64.74
62.47
60.76
59.27
57.59
55.45
52.83
49.97
47.14
44.44
41.72
38.55
34.36
28.74
21.56
13.11
4.04
-4.85
-12.9
-19.8
-25.69
-31.16
-36.93
-43.77
-52.16
-62.15
-73.15
-83.84
-92.26
-96.22
-93.88
-84.42
-68.34
-47.48
-24.42
-1.81
18.37
35.05
47.96
57.32
63.4
66.33
66.29
63.61
59.01
53.55
48.39
44.41
41.93
40.68
39.97
39.08
37.6
35.5
33.07
30.6
28.15
25.45
22.04
17.5
11.56
4.29
-3.98
-12.74
-21.41
-29.52
-36.78
-43.23
-49.26
-55.53
-62.81
-71.75
-82.47
-94.36
-105.95
-115.05
-119.25
-116.56
-106.05
-88.25
-65.02
-39.05
-13.14
10.5
30.55
46.56
58.69
67.36
73.01
76.02
76.78
75.76
73.45
70.39
67.05
63.82
60.94
58.53
56.6
54.99
53.48
51.78
49.64
46.89
43.48
39.48
34.99
30.07
24.72
18.88
12.48
5.53
-1.86
-9.46
-16.99
-24.21
-30.98
-37.36
-43.55
-49.94
-56.98
-65.13
-74.61
-85.13
-95.66
-104.4
-109.1
-107.64
-98.79
-82.73
-61.11
-36.58
-12.03
10.21
28.84
43.58
54.78
63
68.64
71.85
72.72
71.47
68.58
64.75
60.73
57.12
54.18
51.9
50.05
48.33
46.51
44.46
42.1
39.4
36.32
32.84
28.9
24.48
19.51
13.95
7.78
1.08
-6
-13.16
-20.09
-26.51
-32.27
-37.47
-42.45
-47.72
-53.87
-61.36
-70.25
-79.96
-89.16
-95.92
-98.12
-94.12
-83.31
-66.45
-45.53
-23.15
-1.84
16.62
31.37
42.35
49.88
54.31
55.92
54.94
51.8
47.19
42.02
37.19
33.35
30.66
28.87
27.43
25.84
23.81
21.4
18.84
16.41
14.12
11.65
8.47
4.01
-1.98
-9.29
-17.32
-25.25
-32.45
-38.66
-44.11
-49.37
-55.16
-62.08
-70.48
-80.28
-90.87
-101
-108.88
-112.44
-109.89
-100.26
-83.82
-62.16
-37.69
-13.05
9.58
28.86
44.25
55.79
63.79
68.58
70.54
70.09
67.83
64.45
60.68
57.14
54.23
52.06
50.54
49.41
48.35
47.1
45.47
43.38
40.8
37.71
34.11
29.94
25.1
19.52
13.14
5.96
-1.86
-10.07
-18.35
-26.39
-33.95
-40.95
-47.47
-53.77
-60.32
-67.69
-76.36
-86.46
-97.32
-107.4
-114.38
-115.83
-109.93
-96.27
-75.97
-51.45
-25.61
-1.06
20.44
38.14
52.06
62.63
70.3
75.45
78.33
79.2
78.41
76.38
73.6
70.51
67.46
64.66
62.18
60.05
58.23
56.67
55.28
53.79
51.83
48.98
44.99
39.83
33.79
27.35
20.92
14.69
8.52
2.05
-5.03
-12.84
-21.08
-29.26
-36.86
-43.59
-49.6
-55.44
-61.92
-69.8
-79.47
-90.59
-101.87
-111.2
-116.05
-114.29
-104.87
-88.3
-66.48
-42.16
-18.08
3.66
21.95
36.49
47.43
55.06
59.58
61.19
60.25
57.37
53.4
49.28
45.76
43.24
41.73
40.89
40.27
39.51
38.48
37.23
35.89
34.44
32.71
30.3
26.83
22
15.83
8.63
0.91
-6.75
-13.94
-20.48
-26.52
-32.36
-38.41
-45.11
-52.81
-61.71
-71.64
-81.89
-91.01
-96.96
-97.66
-91.59
-78.46
-59.46
-36.95
-13.76
7.65
25.73
39.93
50.4
57.59
61.82
63.34
62.37
59.37
55.04
50.27
45.91
42.53
40.33
39.1
38.42
37.77
36.78
35.24
33.13
30.54
27.56
24.19
20.32
15.73
10.26
3.82
-3.49
-11.41
-19.57
-27.61
-35.25
-42.33
-48.91
-55.22
-61.65
-68.78
-77.15
-87.07
-98.25
-109.56
-119
-124.04
-122.41
-112.8
-95.45
-72.16
-45.74
-19.21
5.01
25.53
41.95
54.57
63.9
70.42
74.45
76.28
76.29
74.98
72.92
70.62
68.48
66.67
65.2
63.99
62.92
61.86
60.67
59.18
57.16
54.39
50.72
46.12
40.68
34.49
27.65
20.15
12.01
3.3
-5.72
-14.66
-23.14
-30.91
-38.01
-44.79
-51.83
-59.76
-69.06
-79.8
-91.36
-102.31
-110.52
-113.69
-109.93
-98.5
-80.13
-56.86
-31.48
-6.72
15.35
33.66
47.97
58.56
65.92
70.45
72.44
72.2
70.13
66.84
63.07
59.54
56.75
54.83
53.53
52.41
51.04
49.22
46.96
44.44
41.77
38.86
35.41
31
25.3
18.25
10.14
1.54
-6.81
-14.32
-20.71
-26.11
-31.08
-36.37
-42.8
-50.93
-60.92
-72.23
-83.54
-92.85
-97.82
-96.5
-87.89
-72.42
-51.88
-28.92
-6.25
14.01
30.68
43.46
52.49
58.07
60.41
59.75
56.54
51.57
45.94
40.84
37.14
35.15
34.55
34.56
34.33
33.29
31.37
28.92
26.4
24.07
21.76
18.92
14.9
9.22
1.89
-6.67
-15.71
-24.48
-32.5
-39.61
-46.04
-52.25
-58.84
-66.45
-75.59
-86.34
-98.09
-109.31
-117.72
-120.76
-116.45
-104.03
-84.42
-59.88
-33.4
-7.79
14.94
33.8
48.58
59.57
67.1
71.52
73.19
72.61
70.45
67.47
64.39
61.72
59.65
58.08
56.7
55.18
53.25
50.82
47.98
44.87
41.62
38.13
34.16
29.31
23.22
15.72
6.98
-2.58
-12.31
-21.61
-30.02
-37.42
-43.98
-50.21
-56.79
-64.47
-73.9
-85.32
-98.29
-111.47
-122.64
-129.12
-128.47
-119.25
-101.66
-77.53
-49.83
-21.81
3.9
25.77
43.41
57.17
67.62
75.24
80.31
83.05
83.78
82.98
81.17
78.85
76.33
73.77
71.24
68.82
66.62
64.68
62.9
61.02
58.65
55.45
51.19
45.89
39.74
33.02
25.93
18.55
10.83
2.69
-5.89
-14.74
-23.53
-31.82
-39.28
-45.81
-51.6
-57.22
-63.43
-71.05
-80.54
-91.65
-103.15
-112.89
-118.17
-116.62
-106.94
-89.5
-66.25
-40.16
-14.31
8.91
28.19
43.27
54.45
62.19
66.85
68.66
67.92
65.17
61.22
57
53.35
50.75
49.23
48.44
47.84
46.9
45.37
43.28
40.83
38.23
35.53
32.5
28.73
23.8
17.5
9.96
1.75
-6.4
-13.79
-20.07
-25.35
-30.14
-35.1
-40.88
-47.9
-56.26
-65.71
-75.48
-84.2
-89.96
-90.7
-84.8
-71.69
-52.2
-28.43
-3.18
20.84
41.65
58.23
70.42
78.56
83.12
84.58
83.38
80.07
75.41
70.29
65.6
62
59.75
58.66
58.25
57.9
57.13
55.65
53.4
50.49
47.11
43.44
39.59
35.52
31.05
25.9
19.88
12.97
5.48
-2.09
-9.14
-15.26
-20.32
-24.53
-28.31
-32.19
-36.62
-41.9
-48.02
-54.49
-60.27
-63.85
-63.59
-58.23
-47.38
-31.83
-13.36
5.75
23.4
38.17
49.53
57.66
63.12
66.51
68.36
69.1
69.09
68.72
68.33
68.13
68.19
68.49
69.02
69.85
71.18
73.18
75.86
78.97
81.95
84.15
85
84.31
82.34
79.7
77.08
75
73.59
72.58
71.55
70.16
68.32
66.21
64.06
61.97
59.64
56.36
51.09
42.69
30.1
12.53
-10.49
-39.02
-72.67
-110.6
-151.53
-193.97
-236.44
-277.73
-316.87
-352.96
-384.71
-410.21
-426.97
-432.43
-424.66
-403.1
-368.99
-325.29
-276.14
-225.97
-178.57
-136.49
-100.74
-71.04
-46.28
-25.2
-6.83
9.34
23.39
35.31
45.11
52.94
58.94
63.16
65.53
65.9
64.24
60.74
55.8
49.96
43.78
37.61
31.62
25.69
19.63
13.17
6.08
-1.88
-11.02
-21.6
-33.6
-46.39
-58.42
-67.4
-70.83
-66.85
-54.96
-36.41
-13.75
10
32.26
51.47
67.11
79.28
88.18
93.8
96.08
95.14
91.59
86.49
81.12
76.53
73.28
71.31
70.17
69.29
68.21
66.72
64.83
62.64
60.17
57.3
53.71
48.99
42.82
35.05
25.86
15.75
5.4
-4.52
-13.6
-21.78
-29.39
-37.01
-45.29
-54.81
-65.88
-78.41
-91.69
-104.27
-114.01
-118.51
-115.66
-104.47
-85.43
-60.52
-32.69
-4.98
20.22
41.53
58.54
71.46
80.69
86.59
89.48
89.75
88
84.95
81.39
77.98
75.11
72.96
71.47
70.47
69.73
68.97
67.87
66.14
63.5
59.81
55.07
49.38
42.88
35.64
27.67
18.88
9.27
-1.06
-11.85
-22.71
-33.23
-43.12
-52.26
-60.83
-69.28
-78.32
-88.7
-100.95
-114.88
-129.3
-141.88
-149.63
-149.65
-140.15
-121.11
-94.39
-63.21
-31.09
-0.97
25.34
47.2
64.73
78.37
88.52
95.52
99.75
101.73
102.05
101.31
99.98
98.3
96.35
94.12
91.73
89.38
87.36
85.8
84.56
83.16
80.92
77.18
71.66
64.51
56.33
47.87
39.73
32.1
24.71
16.99
8.42
-1.23
-11.71
-22.39
-32.53
-41.57
-49.41
-56.49
-63.68
-72.02
-82.39
-95.09
-109.49
-123.88
-135.58
-141.55
-139.18
-127.23
-106.25
-78.55
-47.49
-16.5
11.71
35.57
54.62
69.11
79.57
86.56
90.57
92.06
91.55
89.62
86.92
83.97
81.16
78.63
76.38
74.38
72.63
71.19
70.05
69.02
67.69
65.45
61.79
56.5
49.75
42.1
34.22
26.64
19.57
12.77
5.82
-1.69
-9.94
-18.72
-27.53
-35.78
-43.04
-49.24
-54.71
-60.2
-66.65
-74.84
-85.04
-96.65
-108
-116.61
-119.75
-115.27
-102.38
-82.02
-56.58
-29.25
-3.04
19.87
38.41
52.39
62.12
68.05
70.57
70.08
67.17
62.7
57.71
53.22
49.96
48.18
47.65
47.81
47.98
47.61
46.43
44.4
41.7
38.54
35.05
31.18
26.73
21.42
15.08
7.69
-0.48
-9.02
-17.46
-25.43
-32.8
-39.67
-46.33
-53.21
-60.78
-69.5
-79.55
-90.61
-101.58
-110.55
-115.15
-113.17
-103.33
-85.78
-62.23
-35.42
-8.42
16.15
36.65
52.48
63.84
71.39
75.83
77.76
77.68
76.04
73.36
70.25
67.28
64.84
63.06
61.72
60.45
58.89
56.85
54.34
51.51
48.43
45.06
41.2
36.68
31.43
25.55
19.23
12.57
5.57
-1.87
-9.84
-18.28
-26.94
-35.41
-43.34
-50.57
-57.29
-64.05
-71.65
-80.82
-91.8
-103.9
-115.34
-123.53
-125.71
-119.96
-105.84
-84.66
-59.05
-32.13
-6.57
15.97
34.91
50.44
63.02
73.01
80.6
85.85
88.93
90.19
90.17
89.55
88.96
88.84
89.41
90.7
92.59
94.86
97.27
99.5
101.24
102.22
102.36
101.74
100.61
99.19
97.46
95.11
91.56
86.22
78.84
69.68
59.52
49.29
39.75
31.03
22.57
13.22
1.59
-13.61
-33.21
-57.4
-85.64
-116.67
-148.7
-179.71
-207.89
-231.99
-251.54
-266.66
-277.64
-284.39
-286.09
-281.35
-268.67
-247.3
-217.74
-181.98
-143.05
-104.3
-68.63
-37.9
-12.92
6.4
20.69
30.85
37.92
43
47.17
51.34
56.06
61.31
66.53
70.81
73.2
73.13
70.57
66.11
60.68
55.2
50.24
45.8
41.41
36.39
30.16
22.53
13.8
4.59
-4.37
-12.54
-19.72
-26.13
-32.35
-39.17
-47.4
-57.51
-69.38
-82.02
-93.56
-101.63
-103.92
-98.97
-86.61
-68.08
-45.6
-21.78
1.07
21.35
38.18
51.24
60.48
65.98
67.92
66.77
63.33
58.72
54.15
50.57
48.43
47.59
47.46
47.29
46.6
45.25
43.49
41.63
39.85
37.92
35.31
31.39
25.68
18.16
9.21
-0.45
-10.01
-18.88
-26.78
-33.9
-40.76
-48.09
-56.65
-66.94
-78.89
-91.59
-103.22
-111.35
-113.52
-107.99
-94.4
-73.95
-49.09
-22.83
2.15
24.02
41.99
56.03
66.46
73.57
77.55
78.62
77.23
74.2
70.55
67.26
64.92
63.54
62.68
61.71
60.12
57.75
54.77
51.48
48.09
44.56
40.57
35.68
29.48
21.76
12.62
2.47
-8.11
-18.46
-28.09
-36.81
-44.77
-52.49
-60.69
-70.13
-81.39
-94.47
-108.6
-122.06
-132.39
-136.87
-133.34
-120.9
-100.3
-73.81
-44.55
-15.61
10.71
33.22
51.76
66.7
78.56
87.68
94.2
98.23
99.98
99.9
98.58
96.62
94.49
92.42
90.38
88.21
85.73
82.76
79.28
75.37
71.11
66.54
61.56
55.93
49.33
41.51
32.43
22.33
11.68
1.06
-9.06
-18.43
-27.1
-35.39
-43.77
-52.81
-63.03
-74.78
-87.99
-101.85
-114.69
-124.08
-127.45
-122.79
-109.52
-88.78
-63.1
-35.68
-9.39
13.86
33.27
48.89
61.08
70.11
76.1
79.11
79.38
77.45
74.16
70.45
67.07
64.43
62.5
60.92
59.23
57.08
54.44
51.5
48.55
45.63
42.47
38.47
33
25.7
16.73
6.74
-3.34
-12.62
-20.59
-27.29
-33.22
-39.22
-46.13
-54.65
-65.03
-76.92
-89.23
-100.05
-107.05
-107.95
-101.28
-86.94
-66.37
-42.09
-17.02
6.34
26.46
42.74
55.27
64.31
70.04
72.57
72.08
69.12
64.59
59.65
55.36
52.39
50.79
50.11
49.58
48.5
46.52
43.67
40.3
36.75
33.16
29.28
24.64
18.74
11.33
2.58
-6.98
-16.68
-25.89
-34.31
-41.94
-49.09
-56.3
-64.16
-73.27
-84.02
-96.33
-109.32
-121.23
-129.56
-131.71
-125.76
-111.24
-89.39
-62.8
-34.7
-7.93
15.58
35.1
50.72
62.9
72.05
78.41
82.11
83.36
82.63
80.57
77.88
75.13
72.63
70.41
68.39
66.39
64.28
61.99
59.39
56.35
52.72
48.37
43.27
37.44
31
23.99
16.43
8.3
-0.35
-9.36
-18.47
-27.34
-35.71
-43.51
-50.89
-58.28
-66.28
-75.47
-86.18
-98.09
-109.99
-119.8
-124.93
-123.06
-112.89
-94.82
-70.84
-44.01
-17.52
6.24
26.04
41.73
53.82
62.88
69.27
73.13
74.59
73.95
71.8
68.9
65.94
63.39
61.35
59.71
58.19
56.57
54.71
52.61
50.32
47.86
45.14
41.98
38.14
33.34
27.4
20.3
12.25
3.69
-4.83
-12.79
-19.89
-26.12
-31.8
-37.49
-43.82
-51.36
-60.43
-70.94
-82.09
-92.36
-99.62
-101.67
-96.93
-84.99
-66.95
-45.06
-22.04
-0.32
18.51
33.75
45.29
53.26
57.74
58.86
57
52.95
47.88
43.05
39.43
37.43
36.83
36.93
36.98
36.43
35.16
33.41
31.49
29.53
27.27
24.16
19.57
13.15
5.03
-4.2
-13.68
-22.59
-30.48
-37.35
-43.64
-50.08
-57.42
-66.3
-76.94
-88.84
-100.67
-110.3
-115.26
-113.38
-103.6
-86.38
-63.67
-38.37
-13.35
9.16
28.02
43.02
54.39
62.46
67.39
69.32
68.57
65.78
61.89
57.89
54.51
52.09
50.5
49.3
48
46.23
43.87
41.02
37.88
34.58
31.09
27.19
22.53
16.83
9.96
2.03
-6.63
-15.59
-24.44
-32.86
-40.69
-47.97
-54.95
-62.08
-70
-79.35
-90.45
-102.94
-115.46
-125.77
-131.2
-129.39
-119.18
-101.04
-76.98
-49.99
-23.06
1.49
22.49
39.73
53.57
64.47
72.69
78.34
81.48
82.35
81.43
79.32
76.66
73.87
71.2
68.67
66.21
63.73
61.17
58.43
55.4
51.91
47.82
43.04
37.55
31.39
24.6
17.19
9.2
0.67
-8.24
-17.29
-26.18
-34.63
-42.5
-49.85
-56.94
-64.24
-72.33
-81.65
-92.34
-103.81
-114.65
-122.64
-125.33
-120.77
-108.21
-88.53
-63.99
-37.58
-12.11
10.43
29.11
43.81
54.74
62.15
66.16
66.97
65.08
61.42
57.17
53.37
50.62
48.85
47.56
46.07
44.01
41.42
38.73
36.41
34.63
33.12
31.2
28.05
23.1
16.22
7.83
-1.31
-10.31
-18.52
-25.71
-32.17
-38.55
-45.73
-54.45
-65.03
-77.17
-89.69
-100.68
-107.76
-108.66
-101.95
-87.55
-66.86
-42.43
-17.18
6.38
26.64
42.97
55.38
64.1
69.35
71.27
70.14
66.58
61.57
56.3
51.81
48.72
47.03
46.25
45.65
44.59
42.76
40.19
37.12
33.79
30.21
26.11
21.05
14.6
6.55
-2.94
-13.38
-24.05
-34.27
-43.6
-51.97
-59.71
-67.42
-75.79
-85.44
-96.7
-109.33
-122.37
-134.06
-141.96
-143.56
-136.99
-121.73
-98.96
-71.28
-41.98
-14.06
10.47
30.82
47.17
60.13
70.25
77.84
83.02
85.88
86.73
86.09
84.6
82.84
81.16
79.64
78.12
76.36
74.14
71.38
68.11
64.49
60.59
56.36
51.54
45.71
38.47
29.63
19.33
8.13
-3.2
-13.93
-23.58
-32.09
-39.83
-47.43
-55.65
-65.15
-76.32
-89.13
-102.82
-115.8
-125.75
-130.09
-126.74
-114.8
-95.06
-69.74
-41.93
-14.63
9.98
30.82
47.76
61.12
71.26
78.34
82.4
83.58
82.41
79.7
76.43
73.43
71.05
69.17
67.35
65.11
62.27
59.05
55.89
53.16
50.88
48.56
45.41
40.61
33.76
25.01
15.04
4.81
-4.79
-13.24
-20.53
-27.05
-33.47
-40.5
-48.79
-58.68
-70.13
-82.43
-94.17
-103.26
-107.36
-104.52
-93.84
-75.95
-52.84
-27.4
-2.53
19.51
37.47
50.98
60.2
65.45
67.07
65.53
61.55
56.22
50.71
45.98
42.48
40.08
38.27
36.5
34.48
32.28
30.17
28.26
26.36
23.91
20.22
14.75
7.44
-1.33
-10.75
-19.98
-28.38
-35.78
-42.53
-49.37
-57.23
-66.9
-78.63
-91.84
-104.91
-115.39
-120.52
-118.06
-107.07
-88.29
-64
-37.28
-11.14
12.22
31.74
47.22
58.96
67.27
72.34
74.32
73.6
70.9
67.25
63.68
60.91
59.1
57.88
56.58
54.64
51.85
48.44
44.86
41.49
38.33
34.96
30.69
24.88
17.25
8.01
-2.14
-12.32
-21.71
-29.91
-37
-43.53
-50.34
-58.29
-68.02
-79.72
-92.86
-106.05
-117.1
-123.39
-122.56
-113.24
-95.63
-71.51
-43.8
-15.64
10.38
32.76
51.11
65.73
77.14
85.68
91.38
94.19
94.22
91.89
88.04
83.67
79.62
76.31
73.7
71.31
68.62
65.3
61.32
56.94
52.44
47.89
43.07
37.58
30.98
23.05
13.9
3.91
-6.35
-16.27
-25.43
-33.68
-41.21
-48.47
-56.11
-64.81
-75.1
-87.11
-100.29
-113.24
-123.72
-129.11
-127.15
-116.66
-98.13
-73.65
-46.27
-19.14
5.4
26.12
42.75
55.57
64.83
70.63
73.04
72.4
69.47
65.38
61.35
58.22
56.25
55.1
54.12
52.72
50.69
48.2
45.65
43.31
41.18
38.83
35.62
30.95
24.49
16.36
7.11
-2.47
-11.57
-19.69
-26.75
-33.22
-39.9
-47.72
-57.35
-68.93
-81.82
-94.51
-104.8
-110.22
-108.66
-99.06
-81.86
-58.98
-33.32
-7.94
14.74
33.44
47.92
58.64
66.24
71.09
73.39
73.24
70.98
67.29
63.12
59.36
56.62
54.98
54.08
53.3
52.03
49.89
46.82
42.92
38.39
33.34
27.82
21.77
15.11
7.77
-0.34
-9.18
-18.63
-28.36
-37.94
-46.96
-55.14
-62.54
-69.5
-76.67
-84.79
-94.51
-106.06
-118.88
-131.43
-141.18
-145.18
-140.88
-127.13
-104.71
-76.14
-44.95
-14.45
13.1
36.78
56.7
73.34
87.09
98
106.09
111.53
114.88
116.94
118.52
120.14
121.98
123.92
125.73
127.3
128.7
130.15
131.94
134.17
136.72
139.2
141.1
141.97
141.68
140.45
138.82
137.46
136.82
137.11
138.23
139.93
141.96
144.12
146.24
148
148.9
148.31
145.67
140.68
133.47
124.59
114.76
104.75
95.06
85.94
77.22
68.41
58.65
46.86
31.84
12.61
-11.31
-39.7
-71.63
-105.71
-140.5
-174.98
-208.8
-242.35
-276.48
-311.96
-348.84
-385.83
-420.26
-448.52
-467.16
-474.07
-469.08
-453.73
-430.35
-400.97
-366.79
-328.47
-286.95
-244.18
-203.13
-166.95
-137.78
-115.99
-100.22
-88.19
-77.88
-68.32
-59.67
-52.86
-48.86
-48.27
-51.08
-56.72
-64.18
-71.96
-78.17
-80.65
-77.36
-66.94
-49.22
-25.41
2.16
30.61
57.33
80.53
99.42
114.02
124.7
131.9
135.92
137.04
135.66
132.45
128.31
124.19
120.76
118.27
116.53
115.02
113.15
110.52
106.94
102.45
97.18
91.26
84.75
77.63
69.81
61.23
51.86
41.76
31.07
20.05
8.99
-1.83
-12.24
-22.24
-32.04
-42.03
-52.71
-64.62
-78.08
-92.87
-107.87
-121.03
-129.59
-130.79
-122.84
-105.58
-80.67
-51.16
-20.51
8.33
33.53
54.45
71.31
84.66
94.95
102.47
107.36
109.79
110.13
108.92
106.78
104.27
101.76
99.46
97.41
95.54
93.75
91.84
89.51
86.41
82.24
76.86
70.4
63.15
55.43
47.44
39.17
30.47
21.16
11.21
0.74
-9.93
-20.45
-30.51
-39.95
-48.84
-57.5
-66.6
-76.9
-89.02
-102.82
-117.03
-129.21
-136.19
-135.05
-124.18
-103.94
-76.65
-45.81
-15.03
12.94
36.71
56.08
71.49
83.45
92.24
97.98
100.82
101.2
99.83
97.54
95
92.55
90.24
87.93
85.57
83.22
81.07
79.2
77.45
75.35
72.29
67.79
61.7
54.28
46.11
37.78
29.66
21.76
13.78
5.36
-3.7
-13.24
-22.81
-31.81
-39.84
-46.87
-53.39
-60.24
-68.36
-78.39
-90.32
-103.12
-114.77
-122.55
-123.79
-116.64
-100.85
-77.86
-50.49
-22.01
4.68
27.72
46.36
60.61
70.79
77.18
80.02
79.61
76.56
71.77
66.35
61.35
57.49
54.98
53.56
52.64
51.58
49.9
47.49
44.49
41.16
37.6
33.69
29.02
23.13
15.75
6.95
-2.78
-12.69
-22.08
-30.46
-37.81
-44.48
-51.1
-58.41
-67.03
-77.3
-89.08
-101.46
-112.79
-120.8
-123.1
-117.87
-104.55
-84.09
-58.8
-31.68
-5.61
17.26
35.77
49.62
58.99
64.27
65.92
64.55
60.96
56.07
50.77
45.75
41.38
37.75
34.73
32.25
30.22
28.56
27.05
25.26
22.66
18.73
13.16
6.04
-2.22
-11
-19.73
-28.04
-35.93
-43.8
-52.34
-62.32
-74.15
-87.52
-101.03
-112.33
-118.58
-117.35
-107.43
-89.39
-65.44
-38.76
-12.59
10.62
29.62
44.24
54.88
62.09
66.24
67.48
65.96
62.04
56.4
49.96
43.71
38.41
34.39
31.53
29.31
27.04
24.09
20.12
15.06
9.11
2.53
-4.49
-11.9
-19.78
-28.21
-37.33
-47.31
-58.44
-70.94
-84.65
-98.66
-111.02
-119.08
-120.17
-112.59
-96.28
-72.99
-45.77
-18.01
7.44
28.84
45.58
57.86
66.26
71.39
73.75
73.74
71.7
68.03
63.17
57.57
51.71
45.99
40.74
36.15
32.27
28.97
25.91
22.6
18.4
12.79
5.49
-3.37
-13.3
-23.61
-33.72
-43.35
-52.69
-62.35
-73.11
-85.51
-99.43
-113.66
-125.89
-133.14
-132.54
-122.36
-102.69
-75.57
-44.38
-12.73
16.5
41.75
62.73
79.89
93.81
104.8
112.83
117.76
119.64
118.9
116.24
112.56
108.62
104.91
101.49
98.17
94.61
90.63
86.27
81.77
77.38
73.13
68.74
63.67
57.29
49.17
39.26
27.95
15.91
4
-7.1
-17.03
-25.84
-33.92
-41.91
-50.58
-60.64
-72.65
-86.63
-101.78
-116.24
-127.23
-131.68
-127.24
-113.16
-90.68
-62.72
-32.87
-4.35
20.81
41.94
59.3
73.47
84.93
93.79
99.94
103.29
103.97
102.35
99.06
94.79
90.15
85.55
81.2
77.12
73.21
69.38
65.54
61.65
57.64
53.36
48.59
43.08
36.61
29.09
20.58
11.35
1.79
-7.7
-16.75
-25.15
-32.91
-40.17
-47.24
-54.55
-62.62
-71.95
-82.78
-94.73
-106.58
-116.17
-120.9
-118.44
-107.59
-88.86
-64.39
-37.33
-10.89
12.53
31.78
46.78
58.08
66.28
71.79
74.73
75.27
73.72
70.68
66.88
63.02
59.58
56.8
54.68
53.14
51.99
51.03
49.99
48.63
46.74
44.19
41.01
37.25
32.9
27.92
22.19
15.67
8.51
1.06
-6.22
-12.99
-19.07
-24.61
-29.93
-35.48
-41.72
-48.99
-57.43
-66.76
-76.14
-84.05
-88.53
-87.67
-80.27
-66.38
-47.4
-25.72
-4.01
15.48
31.4
43.27
51.21
55.53
56.61
54.83
50.76
45.22
39.25
33.83
29.58
26.65
24.67
23.09
21.42
19.47
17.37
15.44
13.82
12.38
10.64
8
3.97
-1.56
-8.24
-15.41
-22.4
-28.7
-34.23
-39.25
-44.36
-50.2
-57.31
-65.79
-75.14
-84.12
-90.9
-93.46
-90.18
-80.39
-64.71
-44.95
-23.56
-3.01
14.86
29.11
39.59
46.59
50.49
51.59
50.18
46.69
41.84
36.56
31.76
28.04
25.53
23.94
22.75
21.48
19.89
18.03
16.07
14.18
12.41
10.6
8.43
5.54
1.62
-3.48
-9.63
-16.47
-23.45
-30.06
-35.96
-41.12
-45.83
-50.69
-56.35
-63.35
-71.83
-81.2
-90.11
-96.58
-98.45
-94.05
-82.84
-65.65
-44.54
-22.16
-1.01
17.19
31.69
42.55
50.25
55.3
58.13
59
58.15
55.89
52.57
48.62
44.5
40.59
37.21
34.53
32.54
31.06
29.82
28.51
26.89
24.82
22.22
19.06
15.33
11.04
6.26
1.11
-4.24
-9.67
-15.13
-20.64
-26.2
-31.75
-37.18
-42.39
-47.44
-52.57
-58.2
-64.78
-72.47
-80.9
-88.95
-94.89
-96.75
-92.99
-83.02
-67.51
-48.24
-27.54
-7.63
9.89
24.21
35.2
43.08
48.2
50.94
51.74
51.13
49.65
47.79
45.79
43.7
41.4
38.81
36.04
33.39
31.28
30.02
29.64
29.78
29.8
29.05
27.06
23.76
19.48
14.72
9.99
5.55
1.34
-2.94
-7.64
-13
-19
-25.41
-31.84
-37.91
-43.39
-48.25
-52.7
-57.21
-62.37
-68.72
-76.45
-85.08
-93.32
-99.26
-100.78
-96.3
-85.36
-68.82
-48.63
-27.24
-6.92
10.74
24.98
35.71
43.29
48.23
51.01
52.07
51.77
50.48
48.54
46.28
44.01
41.91
40.07
38.48
37.1
35.96
35.04
34.33
33.62
32.55
30.69
27.72
23.61
18.65
13.34
8.16
3.33
-1.25
-5.93
-11.1
-16.93
-23.29
-29.78
-35.95
-41.47
-46.37
-51
-55.97
-61.92
-69.26
-77.88
-86.94
-94.91
-99.77
-99.6
-93.17
-80.39
-62.47
-41.58
-20.18
-0.46
16.2
29.26
38.87
45.46
49.5
51.34
51.28
49.65
46.93
43.68
40.51
37.87
35.99
34.8
34.03
33.36
32.53
31.43
30.07
28.49
26.71
24.6
21.98
18.65
14.49
9.5
3.84
-2.25
-8.51
-14.73
-20.76
-26.55
-32.17
-37.75
-43.58
-50
-57.42
-66.02
-75.5
-84.88
-92.49
-96.33
-94.65
-86.56
-72.42
-53.76
-32.89
-12.16
6.51
22
33.9
42.27
47.37
49.51
49.03
46.47
42.54
38.09
33.9
30.53
28.15
26.61
25.6
24.85
24.2
23.65
23.23
22.83
22.11
20.63
17.94
13.82
8.43
2.22
-4.19
-10.31
-15.92
-21.2
-26.68
-32.99
-40.67
-49.81
-59.81
-69.37
-76.61
-79.5
-76.44
-66.86
-51.43
-32.04
-11.23
8.5
25.31
38.28
47.31
52.76
55.07
54.61
51.63
46.54
40.01
33
26.55
21.47
18.09
16.2
15.17
14.3
12.99
10.97
8.23
4.95
1.31
-2.6
-6.74
-11.11
-15.72
-20.64
-26.1
-32.49
-40.2
-49.38
-59.49
-69.23
-76.58
-79.39
-76
-65.94
-50.14
-30.65
-10.09
9.14
25.34
37.62
45.82
50.09
50.76
48.18
42.88
35.64
27.53
19.67
13.06
8.2
5.05
3.02
1.26
-1.01
-4.23
-8.41
-13.18
-18.02
-22.56
-26.74
-30.89
-35.62
-41.62
-49.43
-59.19
-70.36
-81.68
-91.15
-96.49
-95.64
-87.43
-72
-50.87
-26.55
-1.86
20.74
39.62
53.99
63.68
68.82
69.67
66.64
60.46
52.27
43.52
35.64
29.65
25.88
23.83
22.51
20.82
18.01
13.94
9
3.85
-0.98
-5.36
-9.7
-14.84
-21.74
-31.23
-43.59
-58.35
-74.05
-88.31
-98.21
-101.01
-94.95
-79.87
-57.37
-30.38
-2.31
23.89
46.28
64.08
77.34
86.39
91.56
93.03
91.06
86.21
79.48
72.11
65.29
59.72
55.4
51.76
47.94
43.29
37.67
31.42
25.18
19.45
14.32
9.37
3.83
-3.18
-12.44
-24.32
-38.6
-54.24
-69.26
-80.95
-86.38
-83.23
-70.64
-49.6
-22.75
6.36
34.25
58.37
77.41
91.21
100.27
105.34
107.13
106.24
103.25
98.74
93.27
87.32
81.24
75.22
69.4
63.88
58.74
54.02
49.6
45.18
40.34
34.67
27.95
20.21
11.74
2.93
-5.92
-14.7
-23.54
-32.88
-43.27
-55.2
-68.61
-82.59
-95.1
-103.32
-104.34
-96.26
-78.96
-54.34
-25.79
2.95
28.75
49.83
65.62
76.38
82.61
84.8
83.45
79.31
73.47
67.2
61.64
57.44
54.56
52.46
50.39
47.81
44.64
41.23
38.06
35.45
33.24
30.73
27.03
21.39
13.67
4.41
-5.33
-14.44
-22.24
-28.71
-34.45
-40.37
-47.41
-56.21
-66.93
-79
-91.02
-100.81
-105.73
-103.45
-92.7
-73.92
-49.28
-22.09
4.16
26.74
44.15
56.14
63.14
65.92
65.21
61.7
56.17
49.51
42.69
36.52
31.54
27.91
25.47
23.92
22.93
22.25
21.59
20.63
18.94
16.08
11.78
6.06
-0.76
-8.15
-15.55
-22.59
-29.22
-35.76
-42.82
-51.1
-61.06
-72.51
-84.28
-94.15
-99.34
-97.27
-86.55
-67.65
-42.83
-15.55
10.67
33.11
50.39
62.33
69.48
72.59
72.38
69.49
64.67
58.8
52.83
47.5
43.2
39.88
37.21
34.83
32.54
30.33
28.26
26.25
23.99
20.91
16.47
10.41
2.89
-5.51
-14.03
-22.06
-29.4
-36.32
-43.48
-51.77
-61.84
-73.78
-86.74
-98.78
-107.16
-109.08
-102.55
-87.22
-64.65
-37.87
-10.41
14.67
35.51
51.48
62.82
70.06
73.67
74.01
71.57
67.13
61.72
56.44
52.11
49
46.83
44.96
42.78
39.97
36.63
33.16
30
27.31
24.85
22.01
18.05
12.44
5.1
-3.52
-12.55
-21.03
-28.25
-34.06
-38.92
-43.82
-49.84
-57.85
-68.04
-79.73
-91.24
-100.24
-104.23
-101.2
-90.31
-72.22
-48.96
-23.41
1.47
23.34
40.84
53.57
61.75
65.86
66.48
64.24
59.96
54.62
49.29
44.84
41.7
39.77
38.56
37.44
35.96
34.01
31.79
29.6
27.51
25.29
22.41
18.34
12.78
5.88
-1.82
-9.55
-16.71
-22.98
-28.54
-33.87
-39.71
-46.77
-55.42
-65.48
-75.87
-84.69
-89.52
-88.17
-79.41
-63.57
-42.58
-19.42
2.78
21.62
35.85
45.36
50.68
52.48
51.32
47.6
41.79
34.57
26.9
19.77
14.04
10.11
7.93
7.02
6.67
6.18
5.01
2.9
-0.19
-4.09
-8.55
-13.36
-18.39
-23.63
-29.17
-35.2
-41.97
-49.78
-58.8
-68.81
-78.94
-87.55
-92.5
-91.66
-83.69
-68.62
-48.02
-24.58
-1.32
19.19
35.45
47
54.17
57.56
57.74
55.12
50.11
43.32
35.6
28.03
21.57
16.88
14.06
12.68
11.91
10.82
8.69
5.2
0.49
-4.99
-10.68
-16.27
-21.72
-27.32
-33.56
-40.93
-49.84
-60.46
-72.57
-85.24
-96.76
-104.73
-106.61
-100.52
-85.97
-64.24
-38.06
-10.84
14.33
35.41
51.58
63.03
70.42
74.43
75.61
74.31
70.96
66.11
60.51
54.94
50.03
46.06
42.91
40.16
37.26
33.79
29.6
24.77
19.56
14.2
8.75
3.14
-2.83
-9.43
-16.89
-25.45
-35.4
-46.87
-59.67
-72.85
-84.58
-92.33
-93.5
-86.35
-70.76
-48.4
-22.36
3.87
27.31
46.18
59.96
69
74
75.64
74.47
71
65.82
59.68
53.41
47.75
43.17
39.8
37.37
35.4
33.35
30.76
27.4
23.2
18.25
12.65
6.52
-0.06
-7.01
-14.25
-21.75
-29.58
-38
-47.4
-58.01
-69.57
-80.93
-90.02
-94.25
-91.31
-80.09
-61.22
-37.04
-10.92
13.73
34.35
49.73
59.8
65.23
66.91
65.6
61.94
56.54
50.1
43.4
37.19
32.09
28.37
25.99
24.63
23.79
22.86
21.26
18.52
14.39
8.9
2.36
-4.77
-12.02
-19.12
-26.04
-33.02
-40.52
-49.14
-59.33
-71.15
-83.83
-95.62
-103.98
-106.18
-100.19
-85.54
-63.58
-37.17
-9.84
15.31
36.23
52.1
63.03
69.55
72.25
71.69
68.5
63.58
57.95
52.64
48.29
45.03
42.57
40.39
38.13
35.75
33.45
31.46
29.73
27.82
24.99
20.53
14.04
5.73
-3.64
-13.06
-21.61
-28.83
-34.9
-40.67
-47.27
-55.81
-66.79
-79.73
-93.01
-104.05
-109.86
-107.88
-96.88
-77.39
-51.72
-23.25
4.53
28.94
48.57
63.18
73.23
79.34
81.98
81.52
78.42
73.48
67.81
62.57
58.59
56.15
54.89
54.07
52.9
50.87
47.92
44.37
40.72
37.29
34.03
30.43
25.72
19.25
10.83
0.95
-9.44
-19.21
-27.65
-34.63
-40.74
-46.92
-54.17
-63.17
-74.1
-86.48
-99.06
-109.81
-116.23
-115.89
-107.22
-90.17
-66.45
-39.08
-11.55
13.16
33.18
47.84
57.33
62.25
63.28
61.1
56.51
50.49
44.09
38.23
33.47
29.93
27.38
25.44
23.78
22.23
20.69
19.06
17.1
14.46
10.77
5.76
-0.6
-8.05
-16.15
-24.34
-32.16
-39.4
-46.19
-53.07
-60.78
-69.91
-80.45
-91.35
-100.57
-105.5
-103.77
-94.19
-77.23
-55
-30.62
-7.26
12.59
27.6
37.43
42.44
43.3
40.83
35.91
29.54
22.79
16.64
11.82
8.68
7.23
7.2
8.19
9.72
11.33
12.5
12.75
11.71
9.17
5.23
0.2
-5.47
-11.34
-17.14
-22.85
-28.82
-35.59
-43.79
-53.76
-65.19
-76.79
-86.31
-91.03
-88.51
-77.51
-58.54
-33.78
-6.47
20.08
43.27
61.69
75.05
83.69
88.26
89.33
87.48
83.31
77.56
71.1
64.78
59.27
54.99
52.02
50.15
48.92
47.75
46.05
43.34
39.38
34.22
28.12
21.41
14.44
7.39
0.26
-7.11
-15.08
-24.17
-34.86
-47.33
-61.01
-74.32
-84.72
-89.33
-85.81
-73.36
-53.12
-27.97
-1.61
22.55
42.22
56.58
65.94
71.18
73.17
72.56
69.81
65.34
59.7
53.57
47.63
42.41
38.24
35.16
33
31.36
29.74
27.6
24.56
20.44
15.34
9.49
3.19
-3.38
-10.16
-17.24
-24.78
-33.03
-42.29
-52.8
-64.49
-76.57
-87.34
-94.33
-94.93
-87.3
-71.23
-48.44
-22.15
3.91
26.55
43.9
55.51
61.97
64.28
63.41
60.08
54.87
48.38
41.33
34.53
28.72
24.35
21.5
19.84
18.75
17.53
15.6
12.66
8.75
4.14
-0.85
-6.02
-11.37
-17.06
-23.29
-30.25
-38.1
-47.03
-57.18
-68.37
-79.76
-89.61
-95.54
-95.1
-86.72
-70.41
-48.01
-22.64
2.22
23.73
40.28
51.59
58.23
61.06
60.85
58.13
53.35
47.07
40.08
33.34
27.75
23.86
21.69
20.8
20.39
19.63
17.88
14.85
10.54
5.16
-1
-7.67
-14.67
-21.89
-29.37
-37.28
-46
-55.95
-67.46
-80.33
-93.52
-105.01
-112.06
-112.01
-103.17
-85.59
-61.2
-33.34
-5.67
18.81
38.4
52.75
62.41
68.22
70.91
71.05
69.13
65.71
61.49
57.11
53.07
49.59
46.65
44.14
41.92
39.91
37.95
35.76
32.9
28.88
23.33
16.2
7.78
-1.32
-10.39
-18.91
-26.72
-34.12
-41.79
-50.59
-61.17
-73.56
-86.8
-98.83
-106.82
-107.92
-100.25
-83.68
-60.02
-32.52
-4.83
20.06
40.53
56.24
67.66
75.43
79.96
81.49
80.3
77.04
72.68
68.27
64.56
61.77
59.62
57.5
54.89
51.59
47.82
44.03
40.62
37.65
34.71
31.04
25.8
18.54
9.37
-0.95
-11.32
-20.72
-28.64
-35.21
-41.14
-47.45
-55.08
-64.62
-76.09
-88.78
-101.11
-110.82
-115.35
-112.54
-101.39
-82.58
-58.37
-31.98
-6.63
15.32
32.72
45.48
54.07
59
60.68
59.49
56.01
51.15
45.99
41.57
38.48
36.78
36.02
35.56
34.9
33.85
32.52
31.17
29.87
28.35
26.02
22.21
16.48
8.94
0.21
-8.7
-16.86
-23.69
-29.25
-34.16
-39.44
-46.15
-54.97
-65.85
-77.72
-88.55
-95.67
-96.57
-89.69
-75
-54.12
-29.84
-5.26
16.99
35.29
49.03
58.32
63.6
65.33
64.05
60.44
55.4
49.99
45.22
41.72
39.61
38.51
37.8
36.9
35.58
33.92
32.18
30.44
28.39
25.35
20.61
13.75
4.98
-4.89
-14.76
-23.69
-31.27
-37.75
-43.94
-50.88
-59.49
-70.23
-82.75
-95.73
-106.93
-113.57
-113.07
-103.94
-86.35
-62.32
-35.05
-8.05
15.9
35.24
49.69
59.72
66.11
69.51
70.41
69.25
66.56
63.06
59.44
56.25
53.73
51.71
49.84
47.72
45.19
42.38
39.64
37.22
35.04
32.59
29.02
23.58
15.96
6.57
-3.62
-13.46
-22.06
-29.17
-35.19
-41.02
-47.71
-56.14
-66.68
-78.95
-91.6
-102.39
-108.56
-107.62
-98.18
-80.6
-56.98
-30.53
-4.58
18.36
37.12
51.65
62.52
70.33
75.36
77.64
77.31
74.83
71.04
66.97
63.46
60.92
59.26
58.01
56.61
54.69
52.16
49.17
45.98
42.72
39.31
35.43
30.69
24.72
17.45
9.07
0.09
-8.84
-17.17
-24.53
-30.95
-36.75
-42.53
-48.91
-56.49
-65.6
-76.14
-87.31
-97.58
-104.75
-106.48
-100.98
-87.76
-67.9
-43.9
-18.91
4.14
23.27
37.68
47.49
53.29
55.71
55.3
52.63
48.46
43.69
39.27
35.86
33.64
32.29
31.22
29.92
28.22
26.29
24.49
22.93
21.32
18.98
15.15
9.36
1.78
-6.84
-15.45
-23.12
-29.46
-34.67
-39.5
-44.9
-51.73
-60.43
-70.79
-81.76
-91.52
-97.71
-98.02
-90.96
-76.42
-55.92
-32.23
-8.49
12.59
29.46
41.67
49.61
53.9
55.09
53.62
49.98
44.91
39.35
34.23
30.2
27.45
25.72
24.56
23.6
22.64
21.59
20.33
18.58
15.84
11.59
5.57
-2.08
-10.74
-19.57
-27.76
-34.95
-41.33
-47.59
-54.66
-63.4
-74.2
-86.59
-99.13
-109.44
-114.76
-112.67
-101.96
-83.24
-58.81
-32.02
-6.22
16.19
34.17
47.79
57.66
64.36
68.18
69.31
68.07
65.21
61.72
58.56
56.26
54.79
53.62
52.09
49.85
46.95
43.84
41.03
38.76
36.75
34.23
30.29
24.27
16.12
6.48
-3.61
-13.08
-21.26
-28.13
-34.27
-40.65
-48.27
-57.85
-69.48
-82.41
-94.87
-104.38
-108.21
-104.23
-91.68
-71.56
-46.42
-19.58
5.88
27.88
45.62
59.37
69.84
77.7
83.26
86.54
87.54
86.47
83.93
80.77
77.82
75.7
74.51
73.97
73.53
72.65
71
68.52
65.26
61.34
56.8
51.52
45.35
38.14
29.81
20.46
10.43
0.2
-9.64
-18.66
-26.65
-33.78
-40.5
-47.45
-55.24
-64.35
-74.98
-86.79
-98.72
-108.93
-115.05
-114.78
-106.7
-90.92
-69.17
-44.32
-19.53
2.7
21
35.13
45.45
52.44
56.39
57.46
55.88
52.27
47.61
43
39.37
37.1
36
35.45
34.7
33.32
31.23
28.74
26.24
23.9
21.5
18.44
14.02
7.8
-0.15
-9.19
-18.33
-26.6
-33.44
-38.88
-43.51
-48.24
-54
-61.44
-70.78
-81.62
-92.81
-102.52
-108.46
-108.45
-101.08
-86.29
-65.6
-41.7
-17.66
3.89
21.44
34.69
44.11
50.39
54.01
55.17
54.01
50.92
46.71
42.45
39.14
37.34
37.01
37.59
38.32
38.55
37.97
36.57
34.53
32.03
29.08
25.48
20.96
15.21
8.15
-0.08
-8.98
-17.91
-26.21
-33.51
-39.82
-45.53
-51.38
-58.13
-66.47
-76.7
-88.56
-100.98
-112.06
-119.39
-120.54
-113.87
-99.16
-77.81
-52.48
-26.28
-1.89
19.05
36.07
49.53
60.06
68.19
74.15
77.99
79.76
79.7
78.28
76.08
73.72
71.61
70
68.86
67.99
67.11
65.87
63.98
61.18
57.36
52.54
46.88
40.6
33.89
26.81
19.32
11.34
2.86
-5.9
-14.6
-22.82
-30.27
-36.93
-43.08
-49.29
-56.27
-64.66
-74.76
-86.29
-98.16
-108.43
-114.66
-114.52
-106.57
-90.84
-68.97
-43.72
-18.16
5.18
24.9
40.71
53.09
62.72
70.12
75.45
78.73
79.99
79.51
77.76
75.33
72.74
70.33
68.24
66.46
64.94
63.63
62.47
61.28
59.74
57.38
53.79
48.75
42.42
35.27
28
21.13
14.84
8.89
2.75
-4.09
-11.86
-20.34
-28.95
-37
-43.96
-49.71
-54.66
-59.63
-65.62
-73.5
-83.5
-94.88
-105.83
-113.75
-115.92
-110.42
-96.84
-76.57
-52.37
-27.46
-4.65
14.38
29.16
40.03
47.6
52.33
54.48
54.27
52.12
48.79
45.26
42.42
40.78
40.33
40.57
40.87
40.69
39.8
38.3
36.38
34.17
31.59
28.35
24.14
18.73
12.12
4.55
-3.59
-11.81
-19.66
-26.83
-33.22
-39.03
-44.69
-50.85
-58.17
-67.1
-77.59
-88.83
-99.16
-106.29
-107.84
-102.13
-88.78
-68.99
-45.22
-20.48
2.52
22.03
37.37
48.72
56.6
61.55
63.95
64.11
62.44
59.56
56.25
53.28
51.16
50.02
49.54
49.16
48.31
46.62
44.03
40.74
37.07
33.26
29.36
25.2
20.46
14.85
8.2
0.53
-7.91
-16.74
-25.52
-33.86
-41.52
-48.47
-54.92
-61.32
-68.28
-76.49
-86.34
-97.69
-109.47
-119.64
-125.57
-124.74
-115.63
-98.38
-74.87
-48.15
-21.52
2.42
22.33
38.03
50.08
59.19
65.86
70.39
72.99
74.01
73.97
73.38
72.64
71.89
71.09
70.13
68.98
67.67
66.25
64.69
62.77
60.21
56.7
52.12
46.57
40.33
33.68
26.82
19.71
12.23
4.31
-4.02
-12.48
-20.74
-28.5
-35.65
-42.33
-48.95
-56.1
-64.42
-74.34
-85.79
-97.79
-108.4
-114.98
-114.95
-106.73
-90.39
-67.79
-42
-16.32
6.69
25.68
40.48
51.62
59.73
65.23
68.34
69.24
68.31
66.17
63.58
61.19
59.34
58.01
56.89
55.62
53.92
51.76
49.26
46.58
43.8
40.87
37.58
33.66
28.81
22.84
15.68
7.51
-1.27
-10.08
-18.34
-25.66
-32.01
-37.67
-43.21
-49.28
-56.43
-65.05
-75.07
-85.85
-96.03
-103.56
-106.16
-101.98
-90.38
-72.25
-49.9
-26.32
-4.26
14.47
29.14
39.86
47.04
51.01
52
50.27
46.42
41.42
36.44
32.52
30.24
29.59
29.99
30.65
30.82
30.11
28.52
26.34
23.92
21.4
18.6
15.07
10.27
3.88
-3.99
-12.78
-21.64
-29.76
-36.71
-42.57
-47.93
-53.7
-60.76
-69.69
-80.5
-92.41
-103.8
-112.43
-115.84
-112.12
-100.52
-81.83
-58.24
-32.69
-8.03
13.67
31.45
45.26
55.53
62.71
67.14
69.01
68.61
66.48
63.4
60.25
57.75
56.26
55.65
55.46
55.03
53.9
51.87
49.09
45.86
42.5
39.08
35.44
31.17
25.86
19.21
11.27
2.41
-6.76
-15.59
-23.61
-30.75
-37.27
-43.69
-50.59
-58.51
-67.81
-78.55
-90.36
-102.15
-112.1
-117.88
-117.21
-108.64
-92.18
-69.45
-43.25
-16.72
7.51
27.87
43.93
56.04
64.82
70.85
74.55
76.21
76.22
75.02
73.13
71.04
69.08
67.4
66.03
64.91
63.88
62.75
61.25
59.11
56.12
52.2
47.47
42.12
36.4
30.44
24.25
17.71
10.65
2.98
-5.23
-13.74
-22.22
-30.31
-37.83
-44.76
-51.35
-58.07
-65.56
-74.39
-84.76
-96.14
-107.02
-115.08
-117.63
-112.59
-99.23
-78.6
-53.3
-26.69
-1.83
19.25
35.89
48.41
57.56
63.99
67.98
69.59
68.97
66.57
63.19
59.72
56.94
55.18
54.37
54.08
53.77
52.99
51.47
49.2
46.32
43.01
39.42
35.5
31.04
25.73
19.32
11.76
3.34
-5.42
-13.88
-21.62
-28.48
-34.69
-40.66
-46.9
-53.86
-61.85
-70.97
-80.93
-90.77
-98.86
-103.01
-101.1
-91.83
-75.36
-53.48
-29.1
-5.4
15.12
31.2
42.72
50.25
54.47
55.79
54.43
50.72
45.35
39.39
34.09
30.42
28.73
28.66
29.32
29.69
29.02
27.08
24.15
20.74
17.34
14.06
10.61
6.49
1.18
-5.53
-13.37
-21.71
-29.79
-37.01
-43.17
-48.51
-53.56
-59.01
-65.47
-73.39
-82.9
-93.56
-104.21
-112.9
-117.21
-114.88
-104.61
-86.65
-62.86
-36.23
-9.91
13.6
32.99
48.08
59.33
67.3
72.36
74.69
74.48
72.25
68.8
65.16
62.2
60.39
59.62
59.35
58.88
57.68
55.56
52.72
49.55
46.38
43.23
39.78
35.5
29.83
22.53
13.79
4.25
-5.23
-13.88
-21.27
-27.48
-33.01
-38.55
-44.86
-52.53
-61.88
-72.85
-84.8
-96.35
-105.41
-109.56
-106.66
-95.65
-77.03
-52.92
-26.42
-0.79
21.53
39.33
52.6
62.1
68.76
73.21
75.7
76.29
75.13
72.65
69.58
66.68
64.52
63.19
62.42
61.67
60.49
58.65
56.16
53.22
49.97
46.42
42.46
37.9
32.53
26.27
19.15
11.37
3.23
-4.89
-12.65
-19.81
-26.34
-32.4
-38.33
-44.58
-51.63
-59.96
-69.86
-81.1
-92.63
-102.46
-107.97
-106.69
-97.19
-79.85
-56.78
-31.24
-6.54
14.87
31.86
44.45
53.31
59.15
62.49
63.61
62.83
60.59
57.53
54.39
51.77
50.05
49.29
49.28
49.59
49.76
49.48
48.57
47.07
45.06
42.57
39.48
35.62
30.8
24.98
18.28
10.96
3.35
-4.28
-11.69
-18.74
-25.32
-31.43
-37.14
-42.65
-48.38
-54.86
-62.59
-71.74
-81.75
-91.14
-97.73
-99.08
-93.47
-80.51
-61.47
-38.92
-15.89
4.98
22.11
34.97
43.81
49.11
51.26
50.55
47.39
42.5
36.99
32.08
28.73
27.27
27.32
27.96
28.2
27.45
25.73
23.53
21.48
19.86
18.41
16.38
12.95
7.55
0.27
-8.26
-17.09
-25.35
-32.54
-38.67
-44.17
-49.74
-56.04
-63.62
-72.74
-83.17
-94.02
-103.61
-109.69
-109.91
-102.68
-87.75
-66.53
-41.74
-16.57
6.24
25.06
39.44
49.78
56.74
60.84
62.4
61.64
59.01
55.31
51.5
48.5
46.85
46.51
46.96
47.38
47.01
45.51
42.95
39.75
36.39
33.12
29.84
26.12
21.45
15.5
8.25
0.03
-8.67
-17.36
-25.72
-33.61
-41.04
-48.14
-55.13
-62.38
-70.39
-79.62
-90.26
-101.72
-112.47
-120.14
-122.08
-116.3
-102.27
-81.24
-55.89
-29.5
-4.93
16.05
32.92
46.04
56.08
63.55
68.72
71.65
72.51
71.68
69.79
67.52
65.44
63.89
62.86
62.18
61.55
60.69
59.4
57.55
55.03
51.78
47.78
43.07
37.73
31.83
25.45
18.55
11.13
3.2
-5.11
-13.54
-21.77
-29.47
-36.46
-42.77
-48.74
-54.97
-62.2
-71.1
-81.78
-93.47
-104.36
-111.83
-113.2
-106.61
-91.77
-70.14
-44.49
-18.04
6.49
27.4
44.05
56.62
65.59
71.49
74.81
76.04
75.71
74.35
72.45
70.37
68.36
66.57
65.08
63.89
62.98
62.21
61.45
60.44
58.91
56.51
52.93
48.06
42.01
35.17
28.02
20.97
14.13
7.31
0.18
-7.49
-15.6
-23.77
-31.46
-38.32
-44.3
-49.76
-55.36
-61.86
-69.86
-79.59
-90.54
-101.32
-109.69
-113.09
-109.38
-97.72
-78.96
-55.52
-30.61
-7.21
12.72
28.4
39.98
47.91
52.55
54.1
52.78
49.2
44.39
39.63
36.08
34.36
34.37
35.37
36.37
36.57
35.64
33.81
31.66
29.7
28.07
26.36
23.8
19.58
13.32
5.23
-3.94
-13.16
-21.53
-28.58
-34.41
-39.54
-44.76
-50.92
-58.65
-68.2
-79.21
-90.54
-100.29
-106.1
-105.73
-97.86
-82.57
-61.55
-37.54
-13.56
8
25.82
39.69
50
57.24
61.7
63.47
62.76
60.08
56.32
52.52
49.55
47.82
47.22
47.24
47.23
46.65
45.21
42.97
40.16
37.05
33.77
30.19
25.95
20.57
13.71
5.36
-4.09
-13.94
-23.4
-31.84
-39.06
-45.25
-50.97
-56.97
-64.02
-72.77
-83.49
-95.8
-108.48
-119.36
-125.75
-125.14
-116.05
-98.68
-74.92
-47.82
-20.64
4.03
24.76
41.27
54.02
63.7
70.89
75.88
78.84
79.92
79.43
77.85
75.75
73.65
71.86
70.46
69.29
68.12
66.73
64.96
62.7
59.85
56.26
51.78
46.38
40.14
33.26
25.97
18.45
10.75
2.83
-5.32
-13.67
-22.01
-30.1
-37.7
-44.75
-51.43
-58.22
-65.8
-74.81
-85.47
-97.18
-108.35
-116.49
-118.92
-113.61
-99.99
-79.29
-54.18
-27.95
-3.46
17.52
34.44
47.64
57.75
65.28
70.46
73.46
74.51
74.06
72.7
70.95
69.13
67.29
65.38
63.34
61.24
59.25
57.51
56
54.46
52.45
49.53
45.48
40.33
34.42
28.17
21.93
15.77
9.52
2.88
-4.38
-12.22
-20.26
-27.94
-34.75
-40.47
-45.31
-49.91
-55.18
-62.03
-70.94
-81.61
-92.72
-102.03
-106.85
-104.89
-95.06
-77.97
-55.77
-31.49
-8.08
12.32
28.69
40.96
49.51
54.81
57.2
56.99
54.66
50.92
46.7
42.92
40.23
38.86
38.57
38.78
38.83
38.18
36.6
34.2
31.32
28.27
25.16
21.78
17.65
12.27
5.37
-2.9
-11.93
-20.89
-28.99
-35.81
-41.41
-46.32
-51.32
-57.25
-64.77
-74.16
-85.09
-96.43
-106.27
-112.2
-111.9
-103.95
-88.33
-66.62
-41.5
-16.04
7.2
26.62
41.71
52.73
60.29
64.96
67.23
67.46
66.06
63.56
60.56
57.68
55.37
53.83
52.92
52.31
51.6
50.42
48.59
46.05
42.82
38.91
34.35
29.16
23.42
17.2
10.55
3.48
-3.96
-11.68
-19.49
-27.14
-34.39
-41.15
-47.49
-53.68
-60.13
-67.32
-75.7
-85.47
-96.31
-107.11
-115.92
-120.3
-118.03
-107.87
-90.11
-66.63
-40.29
-14.13
9.48
29.26
44.95
56.99
65.97
72.41
76.63
78.86
79.43
78.77
77.4
75.78
74.17
72.57
70.89
69.02
67.03
65.11
63.44
62
60.51
58.43
55.19
50.44
44.29
37.23
29.97
23.15
17.03
11.42
5.84
-0.31
-7.33
-15.18
-23.38
-31.34
-38.52
-44.77
-50.39
-56.1
-62.81
-71.29
-81.79
-93.72
-105.45
-114.55
-118.27
-114.49
-102.37
-82.83
-58.29
-31.94
-6.82
14.91
32.27
45.31
54.56
60.72
64.31
65.73
65.4
63.8
61.49
59
56.7
54.75
53.13
51.76
50.6
49.59
48.65
47.6
46.16
43.99
40.86
36.67
31.55
25.71
19.43
12.9
6.23
-0.57
-7.46
-14.39
-21.23
-27.84
-34.03
-39.7
-44.89
-49.79
-54.85
-60.69
-67.87
-76.62
-86.4
-95.79
-102.56
-104.24
-98.94
-86.11
-66.82
-43.51
-19.25
3.19
21.95
36.33
46.47
52.93
56.32
57.07
55.61
52.43
48.19
43.7
39.73
36.85
35.26
34.8
35.04
35.43
35.5
34.9
33.51
31.33
28.46
24.99
21
16.47
11.3
5.36
-1.42
-8.98
-17.08
-25.35
-33.37
-40.83
-47.61
-53.82
-59.76
-65.94
-72.96
-81.39
-91.42
-102.6
-113.48
-121.78
-124.89
-120.64
-108.18
-88.37
-63.57
-36.92
-11.44
10.73
28.66
42.38
52.49
59.65
64.37
66.95
67.66
66.85
65.02
62.69
60.38
58.39
56.85
55.7
54.75
53.8
52.64
51.07
48.91
46.02
42.32
37.81
32.64
26.96
20.87
14.37
7.36
-0.25
-8.43
-16.98
-25.54
-33.72
-41.25
-48.1
-54.51
-61
-68.24
-76.86
-87.18
-98.85
-110.55
-120.02
-124.57
-121.82
-110.67
-91.74
-67.3
-40.54
-14.57
8.38
27.35
42.32
53.86
62.51
68.58
72.23
73.61
73.05
71.14
68.56
65.99
63.9
62.51
61.8
61.52
61.34
60.85
59.72
57.68
54.63
50.61
45.78
40.38
34.58
28.48
22.05
15.22
7.89
0.11
-7.98
-16.11
-23.98
-31.4
-38.34
-45.02
-51.83
-59.33
-68.01
-78.05
-88.95
-99.33
-107.07
-109.71
-105.29
-93.03
-73.82
-50.01
-24.7
-0.81
19.68
36.03
48.39
57.31
63.24
66.36
66.78
64.77
61.06
56.7
52.81
50.14
48.86
48.53
48.39
47.75
46.23
43.93
41.24
38.55
36.03
33.44
30.21
25.71
19.54
11.74
2.84
-6.3
-14.84
-22.25
-28.47
-33.92
-39.33
-45.48
-53.02
-62.19
-72.62
-83.22
-92.11
-97.08
-96.08
-88.03
-73.25
-53.38
-30.95
-8.57
11.71
28.67
41.82
51.07
56.46
58.17
56.61
52.58
47.28
42.01
37.86
35.37
34.47
34.59
34.93
34.81
33.89
32.24
30.17
27.94
25.58
22.77
18.97
13.68
6.74
-1.54
-10.43
-19.11
-26.94
-33.74
-39.78
-45.77
-52.56
-60.94
-71.33
-83.52
-96.42
-108.02
-115.77
-117.13
-110.51
-95.8
-74.6
-49.68
-24.16
-0.58
19.63
36.14
49.28
59.52
67.06
71.9
73.99
73.58
71.35
68.33
65.57
63.79
63.11
63.1
63.03
62.17
60.14
57
53.15
49.1
45.14
41.19
36.84
31.5
24.69
16.33
6.81
-3.15
-12.71
-21.31
-28.81
-35.54
-42.11
-49.21
-57.46
-67.25
-78.65
-91.15
-103.47
-113.55
-118.84
-117.08
-107.05
-89.16
-65.44
-38.95
-12.79
10.71
30.41
46.25
58.71
68.37
75.54
80.33
82.81
83.24
82.11
80.09
77.78
75.59
73.67
71.96
70.33
68.73
67.12
65.49
63.65
61.24
57.83
53.08
46.99
39.87
32.3
24.82
17.69
10.75
3.63
-4.1
-12.56
-21.49
-30.36
-38.59
-45.84
-52.17
-58.08
-64.34
-71.79
-81.04
-92.13
-104.22
-115.52
-123.53
-125.63
-119.96
-106.08
-85.24
-60.01
-33.52
-8.57
13.07
30.7
44.51
55
62.66
67.77
70.52
71.13
70.03
67.86
65.3
62.97
61.22
60.11
59.44
58.83
57.88
56.23
53.69
50.23
45.96
41.07
35.71
29.96
23.75
17
9.61
1.67
-6.6
-14.88
-22.81
-30.15
-36.81
-42.92
-48.7
-54.55
-60.95
-68.35
-77.04
-86.79
-96.6
-104.67
-108.68
-106.48
-96.87
-80.16
-58.17
-33.68
-9.59
11.84
29.43
42.94
52.68
59.12
62.62
63.52
62.22
59.39
55.85
52.47
49.87
48.32
47.68
47.49
47.23
46.41
44.79
42.3
39.08
35.32
31.18
26.7
21.83
16.4
10.2
3.12
-4.82
-13.39
-22.16
-30.68
-38.61
-45.9
-52.69
-59.38
-66.43
-74.34
-83.51
-94.08
-105.69
-117.18
-126.56
-131.34
-129.18
-118.8
-100.53
-76.35
-49.3
-22.52
1.65
22.04
38.56
51.71
62
69.79
75.23
78.52
80
80.18
79.58
78.55
77.23
75.58
73.58
71.31
69.02
67
65.36
63.94
62.22
59.49
55.16
49.02
41.4
33.04
24.77
17.21
10.47
4.15
-2.39
-9.72
-18.01
-26.93
-35.82
-44.02
-51.19
-57.51
-63.63
-70.47
-78.92
-89.42
-101.62
-114.19
-124.92
-131.16
-130.55
-121.81
-105.17
-82.39
-56.19
-29.45
-4.45
17.51
35.99
51.1
63.09
72.16
78.51
82.39
84.24
84.62
84.05
82.94
81.5
79.75
77.71
75.4
73
70.72
68.69
66.86
64.91
62.33
58.63
53.51
47.04
39.68
32.12
25.02
18.72
13.19
7.93
2.31
-4.19
-11.72
-19.97
-28.35
-36.17
-43.02
-48.91
-54.31
-59.99
-66.84
-75.53
-86.2
-98.23
-110.02
-119.2
-123.16
-119.79
-108.28
-89.44
-65.57
-39.74
-14.87
7
24.94
38.97
49.49
56.95
61.57
63.5
63.05
60.78
57.57
54.35
51.85
50.43
50.01
50.16
50.36
50.12
49.11
47.24
44.5
41.02
36.89
32.15
26.75
20.55
13.37
5.15
-3.93
-13.47
-22.86
-31.57
-39.33
-46.21
-52.62
-59.15
-66.43
-74.96
-84.99
-96.29
-107.94
-118.15
-124.46
-124.43
-116.37
-100.16
-77.39
-50.92
-23.96
0.87
22.07
39.25
52.72
62.89
70.06
74.39
76.05
75.48
73.35
70.44
67.42
64.71
62.47
60.64
59.13
57.8
56.51
55.05
53.15
50.51
46.88
42.14
36.37
29.8
22.71
15.31
7.68
-0.24
-8.55
-17.3
-26.38
-35.48
-44.25
-52.38
-59.81
-66.81
-73.98
-82.15
-92.01
-103.77
-116.75
-129.27
-138.78
-142.47
-138.17
-125.07
-104.08
-77.65
-48.96
-21.01
4.05
25.22
42.44
56.13
66.75
74.64
80.02
83.08
84.23
83.91
82.67
80.89
78.84
76.65
74.43
72.31
70.48
69.05
67.94
66.81
65.07
62.12
57.56
51.42
44.18
36.53
29.13
22.2
15.53
8.58
0.83
-7.85
-17.14
-26.39
-34.99
-42.6
-49.38
-55.89
-62.88
-71.14
-81.19
-93.06
-105.97
-118.17
-127.04
-129.75
-124.11
-109.49
-87.17
-60
-31.52
-4.81
18.19
36.88
51.55
62.79
71.07
76.63
79.64
80.46
79.65
77.92
75.81
73.65
71.44
69.12
66.66
64.23
62.06
60.33
58.93
57.48
55.38
52.09
47.35
41.33
34.51
27.47
20.64
14.14
7.76
1.15
-6.01
-13.8
-22.04
-30.36
-38.28
-45.43
-51.69
-57.24
-62.59
-68.5
-75.72
-84.6
-94.71
-104.6
-111.99
-114.3
-109.49
-96.81
-77.18
-52.93
-27.14
-2.69
18.41
35.26
47.86
56.63
61.99
64.2
63.49
60.33
55.55
50.32
45.75
42.65
41.14
40.8
40.83
40.46
39.26
37.21
34.6
31.78
28.9
25.83
22.18
17.48
11.34
3.71
-5.1
-14.48
-23.7
-32.15
-39.57
-46.09
-52.21
-58.6
-65.99
-74.92
-85.52
-97.21
-108.56
-117.37
-121.1
-117.6
-105.9
-86.62
-61.89
-34.74
-8.21
15.4
34.88
49.98
61.04
68.56
73
74.73
74.14
71.78
68.31
64.5
61
58.25
56.41
55.31
54.66
54.08
53.2
51.76
49.57
46.5
42.55
37.75
32.21
26.05
19.32
12.04
4.15
-4.32
-13.28
-22.46
-31.54
-40.28
-48.56
-56.5
-64.38
-72.65
-81.82
-92.3
-104.16
-116.75
-128.51
-137
-139.45
-133.66
-118.89
-96.21
-68.32
-38.64
-10.3
14.61
35.29
51.8
64.64
74.26
80.93
84.9
86.5
86.23
84.69
82.47
80.01
77.54
75.21
73.05
71.09
69.31
67.65
65.96
63.97
61.31
57.65
52.84
46.92
40.2
33.09
25.94
18.85
11.66
4.02
-4.32
-13.36
-22.76
-31.96
-40.45
-48
-54.8
-61.46
-68.83
-77.75
-88.68
-101.32
-114.37
-125.53
-131.96
-131.04
-121.31
-103.03
-78.19
-49.95
-21.61
4.21
26.07
43.61
57.12
67.1
73.94
77.95
79.48
79.04
77.29
74.91
72.45
70.2
68.2
66.39
64.68
63.06
61.56
60.14
58.62
56.62
53.73
49.66
44.38
38.13
31.26
24.09
16.73
9.12
1.13
-7.25
-15.9
-24.47
-32.57
-39.92
-46.45
-52.39
-58.25
-64.73
-72.52
-82.01
-92.98
-104.28
-113.85
-119.11
-117.66
-108.12
-90.73
-67.33
-40.86
-14.49
9.2
28.71
43.63
54.18
60.82
63.96
63.98
61.39
57.01
51.94
47.3
43.89
41.98
41.29
41.16
40.9
40.05
38.48
36.36
33.94
31.4
28.68
25.53
21.56
16.41
9.89
2.08
-6.61
-15.61
-24.3
-32.32
-39.64
-46.59
-53.75
-61.74
-71.07
-81.94
-94.09
-106.54
-117.53
-124.73
-125.67
-118.58
-103.05
-80.39
-53.34
-25.26
0.83
23.02
40.63
53.91
63.48
69.91
73.55
74.71
73.86
71.69
69.06
66.72
65.15
64.38
64.17
64.04
63.52
62.27
60.12
57.06
53.21
48.71
43.63
37.95
31.57
24.33
16.15
7.08
-2.58
-12.42
-21.99
-30.96
-39.28
-47.1
-54.83
-62.97
-72.11
-82.68
-94.84
-108.07
-120.95
-131.14
-135.85
-132.64
-120.32
-99.53
-72.65
-43.03
-14.04
11.93
33.72
51.32
65.21
75.93
83.75
88.75
91.09
91.16
89.64
87.33
84.94
82.87
81.21
79.81
78.47
77.01
75.35
73.4
71.02
68
64.12
59.24
53.4
46.77
39.56
31.91
23.85
15.31
6.29
-3.14
-12.73
-22.19
-31.24
-39.74
-47.78
-55.67
-64
-73.44
-84.52
-97.17
-110.4
-122.15
-129.61
-130.09
-121.86
-104.91
-81.04
-53.36
-25.28
0.37
21.89
38.85
51.58
60.81
67.13
70.9
72.36
71.77
69.63
66.63
63.58
61.14
59.61
58.88
58.5
57.91
56.67
54.61
51.8
48.43
44.67
40.57
36
30.72
24.5
17.19
8.87
-0.16
-9.34
-18.13
-26.1
-33.13
-39.44
-45.48
-51.81
-58.93
-67.21
-76.82
-87.54
-98.52
-108.13
-114.1
-114.03
-106.24
-90.51
-68.34
-42.6
-16.6
6.92
26.38
41.44
52.44
59.91
64.09
65.05
63
58.62
53.08
47.76
43.77
41.54
40.78
40.64
40.25
39.03
36.88
34.08
31.01
27.89
24.58
20.69
15.69
9.19
1.09
-8.25
-18.16
-27.77
-36.35
-43.54
-49.5
-54.87
-60.57
-67.55
-76.49
-87.53
-100.06
-112.62
-123.03
-128.71
-127.41
-117.82
-100.17
-76.2
-48.77
-21.04
4.37
25.87
43.02
56.09
65.69
72.33
76.32
77.89
77.37
75.27
72.32
69.23
66.58
64.67
63.48
62.8
62.29
61.6
60.41
58.45
55.57
51.71
46.93
41.36
35.07
28.1
20.4
11.99
2.96
-6.43
-15.84
-24.91
-33.37
-41.14
-48.33
-55.23
-62.32
-70.2
-79.53
-90.68
-103.4
-116.44
-127.57
-133.9
-132.81
-122.8
-104.13
-78.87
-50.2
-21.46
4.82
27.29
45.76
60.64
72.42
81.39
87.64
91.32
92.81
92.76
91.93
90.94
90.04
89.11
87.87
86.05
83.68
81.05
78.52
76.27
74.13
71.56
67.94
62.81
56.16
48.46
40.49
32.97
26.26
20.17
14.11
7.34
-0.63
-9.75
-19.51
-29.11
-37.84
-45.4
-52.06
-58.49
-65.63
-74.32
-85.04
-97.62
-111.01
-123.22
-131.62
-133.53
-127.1
-111.99
-89.64
-62.83
-34.87
-8.61
14.13
32.69
47.23
58.21
66.13
71.31
74.07
74.82
74.15
72.69
71
69.39
67.91
66.44
64.83
63.07
61.31
59.72
58.32
56.91
55.03
52.16
47.99
42.52
36.12
29.32
22.6
16.17
9.92
3.54
-3.36
-10.95
-19.1
-27.39
-35.29
-42.35
-48.49
-54.04
-59.74
-66.47
-74.98
-85.47
-97.34
-109.01
-118.16
-122.22
-119.16
-108.13
-89.89
-66.63
-41.32
-16.86
4.67
22.25
35.83
45.83
52.67
56.59
57.71
56.31
53
48.77
44.69
41.63
40
39.62
39.93
40.23
39.96
38.85
36.91
34.29
31.16
27.61
23.56
18.81
13.13
6.36
-1.47
-10.04
-18.83
-27.27
-34.93
-41.72
-47.89
-53.93
-60.41
-67.85
-76.62
-86.78
-97.9
-108.87
-117.77
-122.26
-120.11
-110.08
-92.42
-68.99
-42.68
-16.56
7.02
26.8
42.57
54.68
63.62
69.74
73.3
74.56
74.03
72.31
70.06
67.8
65.8
64.11
62.67
61.39
60.18
58.91
57.42
55.43
52.69
48.97
44.24
38.64
32.46
25.99
19.35
12.49
5.16
-2.88
-11.7
-21.1
-30.6
-39.65
-47.77
-54.83
-61.14
-67.42
-74.57
-83.45
-94.35
-106.7
-118.88
-128.39
-132.48
-128.9
-116.75
-96.76
-71.14
-42.92
-15.09
10.09
31.43
48.68
62.18
72.46
79.96
85
87.78
88.6
87.87
86.11
83.82
81.41
79.11
77
75.13
73.54
72.26
71.19
70.05
68.33
65.49
61.14
55.27
48.27
40.74
33.26
26.09
19.1
11.88
3.98
-4.82
-14.39
-24.24
-33.78
-42.56
-50.42
-57.59
-64.66
-72.44
-81.74
-92.97
-105.68
-118.38
-128.52
-133.16
-129.86
-117.63
-97.36
-71.63
-43.88
-17.35
5.77
24.6
39.27
50.41
58.61
64.18
67.25
67.95
66.67
64.08
61
58.17
56.02
54.59
53.61
52.69
51.49
49.84
47.77
45.36
42.65
39.56
35.9
31.4
25.83
19.08
11.23
2.54
-6.56
-15.63
-24.28
-32.29
-39.69
-46.71
-53.77
-61.37
-70.02
-80.06
-91.39
-103.18
-113.78
-120.94
-122.36
-116.46
-102.95
-83.09
-59.34
-34.64
-11.59
8.14
23.88
35.74
44.15
49.54
52.18
52.38
50.59
47.56
44.25
41.57
40.12
39.96
40.64
41.45
41.71
41.04
39.45
37.2
34.65
31.92
28.88
25.1
20.14
13.67
5.73
-3.3
-12.75
-21.99
-30.54
-38.23
-45.25
-51.97
-58.89
-66.55
-75.42
-85.75
-97.33
-109.14
-119.25
-125.14
-124.33
-115.28
-98.03
-74.3
-47.03
-19.42
5.93
27.52
44.93
58.46
68.66
76.05
81.04
83.98
85.22
85.13
84.04
82.25
80.04
77.65
75.29
73.1
71.05
69.01
66.69
63.81
60.18
55.7
50.39
44.35
37.67
30.45
22.77
14.72
6.4
-2.05
-10.48
-18.72
-26.66
-34.27
-41.63
-49.03
-56.9
-65.74
-75.99
-87.72
-100.3
-112.24
-121.29
-124.88
-120.93
-108.6
-88.69
-63.41
-35.74
-8.54
16.16
37.3
54.68
68.46
78.91
86.25
90.76
92.89
93.22
92.42
91
89.3
87.38
85.22
82.76
80.03
77.24
74.6
72.28
70.18
67.92
64.93
60.65
54.82
47.6
39.56
31.38
23.59
16.3
9.23
1.9
-6.11
-14.87
-24.1
-33.3
-41.98
-49.86
-56.99
-63.72
-70.69
-78.65
-88.16
-99.35
-111.49
-122.86
-130.94
-133.01
-127.06
-112.54
-90.73
-64.38
-36.82
-11.01
11.22
29.3
43.47
54.28
62.1
67.02
69.13
68.74
66.53
63.4
60.2
57.48
55.41
53.87
52.68
51.7
50.88
50.11
49.18
47.75
45.43
41.99
37.45
32.05
26.12
19.94
13.59
7.02
0.08
-7.3
-15
-22.71
-30.08
-36.8
-42.83
-48.4
-54.03
-60.43
-68.3
-77.94
-88.96
-100
-108.88
-113.01
-110.25
-99.61
-81.72
-58.67
-33.4
-8.77
13.15
31.34
45.64
56.31
63.65
67.81
68.98
67.58
64.37
60.35
56.51
53.5
51.48
50.21
49.21
48.08
46.6
44.68
42.33
39.43
35.84
31.41
26.15
20.33
14.31
8.41
2.73
-2.93
-8.97
-15.74
-23.33
-31.48
-39.68
-47.37
-54.18
-60.12
-65.67
-71.6
-78.83
-88.08
-99.43
-112
-123.82
-132.17
-134.27
-128.21
-113.61
-91.85
-65.68
-38.3
-12.51
9.91
28.35
42.97
54.33
62.95
69.18
73.27
75.51
76.29
76.05
75.23
74.11
72.73
71.01
68.82
66.22
63.44
60.85
58.69
56.9
55.01
52.32
48.19
42.38
35.17
27.25
19.38
12.08
5.36
-1.14
-7.94
-15.37
-23.4
-31.62
-39.47
-46.51
-52.63
-58.14
-63.7
-70.15
-78.25
-88.3
-99.83
-111.43
-120.82
-125.36
-122.72
-111.77
-92.98
-68.38
-40.97
-13.81
10.79
31.64
48.55
61.91
72.2
79.77
84.9
87.88
89.19
89.42
89.13
88.63
87.96
86.99
85.56
83.66
81.45
79.15
76.93
74.76
72.41
69.46
65.53
60.39
54.11
47.08
39.88
32.99
26.58
20.39
13.85
6.37
-2.32
-12
-21.99
-31.5
-39.93
-47.13
-53.48
-59.75
-66.88
-75.66
-86.41
-98.67
-111.02
-121.19
-126.57
-124.91
-115.18
-97.98
-75.42
-50.47
-26.09
-4.51
13.17
26.77
36.68
43.38
47.23
48.49
47.46
44.71
41.02
37.33
34.43
32.71
32.08
32.06
32
31.36
29.9
27.69
24.98
22
18.81
15.28
11.18
6.25
0.37
-6.4
-13.78
-21.39
-28.81
-35.75
-42.11
-48.04
-53.88
-60.08
-67.16
-75.5
-85.25
-96.04
-106.8
-115.69
-120.41
-118.74
-109.3
-92.18
-68.97
-42.43
-15.62
8.95
29.8
46.51
59.34
68.75
75.09
78.53
79.27
77.72
74.56
70.65
66.81
63.6
61.24
59.58
58.27
56.93
55.27
53.11
50.43
47.28
43.71
39.75
35.35
30.38
24.66
18.06
10.55
2.3
-6.33
-14.92
-23.14
-30.83
-38.1
-45.24
-52.62
-60.68
-69.82
-80.34
-92.12
-104.33
-115.27
-122.53
-123.65
-116.92
-102.11
-80.63
-55.11
-28.62
-3.73
17.96
35.92
50.36
61.77
70.55
76.89
80.87
82.61
82.41
80.79
78.37
75.75
73.33
71.23
69.34
67.44
65.31
62.83
59.95
56.65
52.87
48.55
43.59
37.96
31.66
24.77
17.37
9.57
1.45
-6.88
-15.27
-23.52
-31.45
-38.96
-46.15
-53.34
-61.04
-69.79
-79.84
-90.78
-101.26
-109.18
-112.13
-108.16
-96.56
-78.2
-55.3
-30.74
-7.15
13.75
31.22
45.32
56.36
64.53
69.9
72.48
72.54
70.7
67.83
64.83
62.35
60.57
59.27
57.94
56.1
53.53
50.37
47.05
43.96
41.25
38.6
35.37
30.84
24.59
16.69
7.73
-1.46
-10.15
-17.99
-25.05
-31.76
-38.69
-46.34
-55.12
-65.16
-76.27
-87.73
-98.15
-105.58
-107.93
-103.65
-92.32
-74.99
-53.89
-31.78
-11.04
6.81
21.28
32.53
40.93
46.63
49.66
50.07
48.23
44.96
41.29
38.21
36.29
35.54
35.48
35.41
34.78
33.34
31.25
28.87
26.48
24.04
21.15
17.14
11.44
3.91
-5.1
-14.75
-24.1
-32.36
-39.24
-44.9
-49.9
-55.06
-61.22
-69.08
-78.93
-90.33
-101.95
-111.57
-116.64
-114.94
-105.42
-88.6
-66.46
-41.76
-17.25
5.09
24.3
40.25
53.27
63.7
71.67
77.16
80.14
80.81
79.7
77.61
75.36
73.54
72.34
71.5
70.54
69.05
66.87
64.17
61.25
58.23
54.95
50.97
45.8
39.15
31.11
22.08
12.65
3.37
-5.4
-13.52
-21.04
-28.19
-35.24
-42.62
-50.77
-60.09
-70.71
-82.18
-93.33
-102.25
-106.7
-104.74
-95.4
-79.16
-57.87
-34.22
-10.89
10.18
28.07
42.81
54.89
64.76
72.59
78.18
81.29
81.88
80.29
77.25
73.66
70.3
67.58
65.53
63.86
62.18
60.19
57.75
54.81
51.4
47.47
42.98
37.86
32.13
25.82
19.02
11.84
4.42
-3
-10.21
-16.98
-23.22
-29.04
-34.7
-40.66
-47.43
-55.44
-64.9
-75.56
-86.44
-95.89
-101.78
-102.11
-95.7
-82.65
-64.41
-43.34
-21.92
-2.09
15.05
29.16
40.3
48.53
53.85
56.23
55.89
53.44
49.75
45.79
42.29
39.58
37.52
35.74
33.86
31.67
29.22
26.71
24.31
21.96
19.32
15.85
11.07
4.73
-3
-11.54
-20.18
-28.21
-35.3
-41.54
-47.43
-53.72
-61.16
-70.24
-80.83
-92.1
-102.44
-109.71
-111.78
-107.15
-95.53
-77.98
-56.63
-34.03
-12.43
6.72
22.87
36.02
46.41
54.14
59.18
61.47
61.23
59.02
55.74
52.34
49.55
47.66
46.42
45.29
43.67
41.25
38.07
34.45
30.71
26.94
22.95
18.33
12.71
5.89
-2
-10.6
-19.41
-27.96
-35.88
-43.01
-49.42
-55.38
-61.43
-68.17
-76.23
-85.89
-96.82
-107.83
-116.91
-121.67
-120.01
-110.84
-94.55
-72.95
-48.65
-24.31
-1.9
17.62
34.17
48.12
59.86
69.55
77.11
82.4
85.41
86.41
85.88
84.44
82.63
80.8
79.07
77.37
75.56
73.5
71.08
68.23
64.89
61.02
56.55
51.43
45.61
39.05
31.75
23.81
15.43
6.92
-1.43
-9.37
-16.83
-23.87
-30.75
-37.82
-45.55
-54.45
-64.81
-76.45
-88.42
-98.95
-105.7
-106.48
-99.97
-86.24
-66.82
-44.18
-20.95
0.79
19.92
36.17
49.75
60.95
69.85
76.35
80.38
82.05
81.77
80.19
77.97
75.69
73.67
71.98
70.47
68.85
66.8
64.03
60.4
55.92
50.72
44.98
38.83
32.24
25.1
17.25
8.69
-0.37
-9.57
-18.44
-26.66
-34.14
-40.99
-47.53
-54.18
-61.42
-69.7
-79.31
-90.13
-101.33
-111.34
-118.1
-119.54
-114.32
-102.32
-84.75
-63.75
-41.76
-20.85
-2.32
13.24
25.74
35.23
41.72
45.23
45.95
44.37
41.31
37.76
34.6
32.3
30.88
29.95
29.02
27.72
25.99
24.01
21.99
19.96
17.64
14.52
10.08
4.05
-3.41
-11.7
-20.03
-27.65
-34.17
-39.7
-44.72
-49.97
-56.18
-63.9
-73.33
-84.07
-95.06
-104.54
-110.29
-110.21
-102.96
-88.51
-68.21
-44.43
-19.81
3.4
23.85
41.06
55.1
66.18
74.44
79.87
82.51
82.63
80.76
77.66
74.06
70.56
67.42
64.68
62.22
59.88
57.48
54.84
51.79
48.13
43.74
38.64
32.96
26.85
20.4
13.54
6.15
-1.84
-10.33
-19.03
-27.56
-35.62
-43.13
-50.26
-57.4
-65.07
-73.79
-83.92
-95.44
-107.7
-119.24
-127.95
-131.46
-127.9
-116.53
-98.07
-74.54
-48.64
-22.93
0.72
21.34
38.69
52.94
64.33
73.07
79.35
83.42
85.58
86.18
85.53
83.89
81.49
78.59
75.54
72.72
70.46
68.84
67.68
66.48
64.64
61.61
57.16
51.37
44.65
37.54
30.48
23.65
17
10.28
3.18
-4.45
-12.57
-20.88
-28.98
-36.5
-43.26
-49.38
-55.31
-61.74
-69.48
-79.09
-90.47
-102.58
-113.39
-120.21
-120.51
-112.72
-96.93
-74.86
-49.4
-23.63
-0
20.14
36.53
49.52
59.58
66.92
71.55
73.41
72.68
69.92
65.99
61.83
58.18
55.38
53.35
51.71
50.06
48.08
45.69
42.92
39.82
36.39
32.48
27.93
22.61
16.5
9.71
2.38
-5.27
-13.09
-20.88
-28.5
-35.76
-42.54
-48.81
-54.75
-60.81
-67.65
-75.86
-85.65
-96.4
-106.52
-113.68
-115.44
-110.02
-97.02
-77.62
-54.2
-29.62
-6.41
13.74
30.12
42.62
51.45
56.81
58.85
57.87
54.47
49.57
44.27
39.58
36.1
33.95
32.74
31.9
30.87
29.37
27.4
25.17
22.81
20.28
17.28
13.33
8
1.13
-7.09
-16.15
-25.36
-34.09
-41.98
-49.02
-55.56
-62.13
-69.39
-77.96
-88.21
-100.09
-112.84
-124.88
-133.91
-137.43
-133.42
-121.06
-101.09
-75.6
-47.49
-19.63
5.8
27.64
45.57
59.81
70.69
78.42
83.16
85.09
84.66
82.6
79.8
77.07
74.89
73.35
72.14
70.81
69.01
66.6
63.69
60.44
56.97
53.19
48.8
43.39
36.62
28.4
18.94
8.76
-1.5
-11.23
-20.04
-27.91
-35.13
-42.24
-49.87
-58.66
-69.02
-80.96
-93.8
-106.01
-115.35
-119.32
-115.87
-104.18
-84.95
-60.34
-33.29
-6.68
17.37
37.78
54.39
67.49
77.5
84.68
89.2
91.26
91.22
89.65
87.16
84.35
81.64
79.26
77.23
75.47
73.81
72.1
70.16
67.82
64.98
61.58
57.61
53.06
47.87
41.94
35.13
27.34
18.61
9.15
-0.72
-10.61
-20.2
-29.32
-37.97
-46.38
-54.98
-64.3
-74.75
-86.32
-98.18
-108.58
-115.16
-115.56
-108.28
-93.34
-72.33
-47.94
-23.12
-0.26
19.23
34.81
46.49
54.46
58.88
59.99
58.28
54.58
49.97
45.49
41.86
39.33
37.6
36.13
34.38
32.13
29.49
26.82
24.4
22.25
19.97
16.89
12.41
6.25
-1.35
-9.76
-18.14
-25.8
-32.42
-38.1
-43.32
-48.76
-55.08
-62.8
-72.09
-82.63
-93.34
-102.5
-107.9
-107.5
-100.03
-85.53
-65.44
-42.22
-18.6
3.12
21.53
36.11
46.92
54.17
58.02
58.65
56.43
52.1
46.73
41.51
37.42
34.85
33.58
32.93
32.1
30.52
28.13
25.26
22.4
19.89
17.6
14.97
11.22
5.73
-1.64
-10.46
-19.89
-29.05
-37.33
-44.58
-51.12
-57.52
-64.47
-72.56
-82.17
-93.23
-105.05
-116.17
-124.44
-127.47
-123.28
-111.07
-91.51
-66.67
-39.4
-12.51
11.85
32.51
49.16
61.98
71.31
77.46
80.68
81.32
79.92
77.26
74.16
71.33
69.11
67.43
65.89
64.03
61.57
58.52
55.18
51.86
48.71
45.56
41.94
37.25
31.02
23.14
13.92
3.95
-6.04
-15.46
-24.04
-31.9
-39.45
-47.28
-56.03
-66.15
-77.74
-90.27
-102.38
-111.98
-116.62
-114.14
-103.51
-85.2
-61.19
-34.39
-7.78
16.38
36.82
53.28
66.03
75.49
81.94
85.58
86.57
85.3
82.38
78.6
74.8
71.57
69.16
67.43
65.94
64.15
61.69
58.48
54.71
50.69
46.64
42.49
37.89
32.36
25.52
17.34
8.17
-1.36
-10.58
-19.06
-26.67
-33.64
-40.44
-47.59
-55.61
-64.89
-75.58
-87.32
-99.08
-109.12
-115.22
-115.29
-107.97
-93.21
-72.4
-47.95
-22.7
0.9
21.13
37.17
48.83
56.29
59.88
60.09
57.6
53.32
48.27
43.4
39.4
36.5
34.6
33.31
32.23
31.11
29.83
28.44
26.88
24.94
22.2
18.09
12.22
4.51
-4.58
-14.23
-23.48
-31.59
-38.4
-44.34
-50.39
-57.64
-66.88
-78.11
-90.34
-101.58
-109.24
-110.85
-104.78
-90.82
-70.26
-45.56
-19.52
5.32
27.25
45.38
59.38
69.19
74.84
76.6
75.03
71.21
66.44
61.98
58.63
56.5
55.15
53.86
52.05
49.48
46.33
42.96
39.7
36.59
33.32
29.3
23.91
16.77
7.9
-2.22
-12.79
-22.99
-32.25
-40.46
-48.04
-55.83
-64.79
-75.74
-88.88
-103.53
-117.98
-129.65
-135.68
-133.74
-122.86
-103.74
-78.66
-50.74
-23
2.33
24.17
42.31
57.05
68.67
77.28
82.86
85.51
85.61
83.9
81.32
78.75
76.74
75.36
74.25
72.92
70.96
68.26
65.01
61.51
57.98
54.29
50.09
44.85
38.18
29.98
20.55
10.49
0.48
-8.93
-17.55
-25.48
-33.17
-41.15
-49.94
-59.97
-71.41
-83.99
-96.82
-108.26
-116.04
-117.78
-111.73
-97.42
-76
-49.99
-22.53
3.49
26.14
44.68
59.23
70.34
78.52
84.03
86.94
87.31
85.49
82.1
77.99
73.99
70.64
68.06
65.95
63.82
61.24
58.03
54.3
50.33
46.35
42.4
38.25
33.51
27.84
21.05
13.2
4.62
-4.21
-12.79
-20.76
-27.99
-34.6
-40.96
-47.55
-54.96
-63.64
-73.83
-85.25
-96.89
-106.97
-113.2
-113.35
-105.99
-91.07
-70.06
-45.56
-20.49
2.65
22.29
37.84
49.34
57.07
61.33
62.42
60.82
57.34
53.02
48.92
45.74
43.64
42.24
40.93
39.18
36.86
34.2
31.6
29.31
27.17
24.61
20.84
15.18
7.44
-2.01
-12.29
-22.29
-31.15
-38.47
-44.55
-50.16
-56.33
-63.98
-73.59
-84.95
-97.04
-108.03
-115.55
-117.24
-111.43
-97.8
-77.54
-53.18
-27.78
-4.05
16.24
32.47
44.77
53.58
59.23
61.95
61.99
59.93
56.66
53.25
50.59
49.18
48.97
49.51
50.14
50.24
49.42
47.56
44.81
41.45
37.77
33.89
29.69
24.86
19.03
11.97
3.78
-5.17
-14.26
-22.95
-30.9
-38.11
-44.93
-51.91
-59.71
-68.91
-79.77
-91.95
-104.25
-114.68
-120.76
-120.19
-111.61
-95.14
-72.42
-46.14
-19.33
5.52
26.85
44.12
57.56
67.67
74.95
79.72
82.2
82.61
81.33
78.9
75.95
73.02
70.47
68.39
66.63
64.93
62.99
60.53
57.41
53.54
48.96
43.75
38.03
31.89
25.4
18.52
11.2
3.4
-4.83
-13.3
-21.65
-29.43
-36.27
-42.06
-47.05
-51.89
-57.46
-64.59
-73.7
-84.41
-95.34
-104.28
-108.63
-106.12
-95.61
-77.5
-53.68
-27.05
-0.59
23.32
43.36
59.19
71.15
79.77
85.59
88.96
90.23
89.76
88.05
85.56
82.74
79.88
77.14
74.55
72.1
69.73
67.35
64.85
62.07
58.81
54.86
50.06
44.35
37.83
30.74
23.4
15.99
8.54
0.9
-7.1
-15.48
-24.01
-32.25
-39.77
-46.37
-52.18
-57.7
-63.69
-70.92
-79.95
-90.78
-102.55
-113.46
-121
-122.56
-116.31
-101.95
-80.87
-55.8
-29.92
-5.93
14.44
30.54
42.42
50.44
54.91
56.14
54.57
50.9
46.16
41.44
37.68
35.35
34.39
34.26
34.28
33.85
32.68
30.87
28.66
26.29
23.75
20.77
16.9
11.73
5.08
-2.87
-11.62
-20.5
-28.86
-36.3
-42.81
-48.75
-54.75
-61.54
-69.75
-79.64
-90.91
-102.51
-112.62
-118.93
-119.16
-111.8
-96.72
-75.34
-50.32
-24.73
-1.21
18.63
34.3
46.05
54.33
59.5
61.72
61.22
58.54
54.6
50.49
47.15
45.04
44.05
43.62
43.05
41.81
39.66
36.72
33.28
29.59
25.74
21.58
16.79
11.04
4.15
-3.8
-12.5
-21.48
-30.28
-38.59
-46.26
-53.34
-60.05
-66.72
-73.87
-82.1
-91.86
-103.2
-115.28
-126.33
-133.79
-135.03
-128.2
-112.94
-90.61
-63.87
-35.89
-9.41
13.83
33.16
48.64
60.65
69.49
75.32
78.33
78.86
77.49
74.98
72.06
69.33
67.12
65.5
64.36
63.49
62.63
61.57
60.17
58.31
55.92
52.96
49.34
44.96
39.67
33.41
26.16
18.05
9.33
0.38
-8.45
-16.84
-24.65
-32.01
-39.23
-46.84
-55.45
-65.58
-77.42
-90.49
-103.43
-114.05
-119.73
-118.16
-108.16
-90.17
-66.21
-39.28
-12.48
11.78
32.17
48.39
60.72
69.64
75.54
78.68
79.35
78
75.26
71.89
68.64
66.03
64.3
63.36
62.93
62.64
62.18
61.35
60.03
58.16
55.66
52.43
48.35
43.27
37.06
29.6
20.96
11.41
1.46
-8.22
-17.07
-24.83
-31.64
-38
-44.68
-52.45
-61.83
-72.87
-84.88
-96.36
-105.2
-109.06
-106.09
-95.55
-78.12
-55.81
-31.38
-7.55
13.55
30.72
43.55
52.14
56.78
57.88
56.07
52.21
47.42
42.85
39.32
37.17
36.11
35.55
34.87
33.74
32.2
30.5
28.85
27.16
25.01
21.75
16.86
10.13
1.86
-7.19
-16.08
-24
-30.55
-35.92
-40.8
-46.2
-53.14
-62.27
-73.53
-85.92
-97.5
-105.7
-107.97
-102.53
-89.01
-68.65
-44
-18.12
6.24
27.21
43.94
56.38
64.86
69.75
71.39
70.25
67.02
62.66
58.21
54.52
51.99
50.47
49.38
48.04
45.98
43.14
39.88
36.66
33.79
31.09
27.92
23.4
16.89
8.26
-1.87
-12.48
-22.48
-31.19
-38.64
-45.42
-52.5
-60.81
-70.95
-82.98
-96.23
-109.3
-120.07
-126.08
-125.12
-115.89
-98.56
-74.89
-47.77
-20.4
4.59
25.68
42.49
55.37
64.9
71.53
75.48
76.98
76.48
74.76
72.76
71.25
70.59
70.59
70.65
70.14
68.72
66.48
63.84
61.32
59.12
56.98
54.2
49.94
43.57
35.02
24.88
14.12
3.77
-5.48
-13.56
-20.93
-28.34
-36.59
-46.29
-57.74
-70.75
-84.51
-97.39
-107.1
-111.11
-107.44
-95.38
-75.89
-51.44
-25.24
-0.29
21.34
38.8
52.18
61.97
68.69
72.64
74.02
73.11
70.44
66.75
62.9
59.59
57.23
55.83
55.02
54.28
53.13
51.3
48.76
45.7
42.31
38.63
34.48
29.49
23.29
15.73
7.03
-2.27
-11.46
-19.95
-27.42
-33.97
-39.98
-45.96
-52.47
-59.96
-68.72
-78.79
-89.75
-100.53
-109.35
-114.02
-112.5
-103.59
-87.48
-65.78
-41.14
-16.49
5.8
24.26
38.43
48.46
54.74
57.64
57.54
54.96
50.73
45.97
41.76
38.81
37.27
36.71
36.42
35.79
34.58
32.96
31.25
29.66
28.01
25.78
22.25
16.88
9.59
0.79
-8.69
-17.93
-26.26
-33.46
-39.86
-46.21
-53.42
-62.27
-73
-85.08
-97.07
-106.8
-111.82
-110.11
-100.7
-84.06
-62.05
-37.35
-12.77
9.46
28.04
42.51
52.97
59.71
63.02
63.24
60.88
56.73
51.82
47.21
43.68
41.48
40.35
39.64
38.7
37.08
34.75
31.98
29.15
26.46
23.76
20.54
16.17
10.14
2.36
-6.77
-16.49
-25.9
-34.32
-41.52
-47.78
-53.72
-60.1
-67.61
-76.67
-87.32
-99.04
-110.61
-120.09
-125.07
-123.32
-113.52
-95.82
-71.93
-44.71
-17.27
7.88
29.33
46.76
60.47
70.95
78.49
83.21
85.2
84.79
82.64
79.59
76.47
73.86
71.91
70.41
68.98
67.19
64.85
61.96
58.71
55.25
51.6
47.58
42.85
37.06
30.02
21.77
12.6
2.96
-6.64
-15.82
-24.33
-32.14
-39.4
-46.43
-53.77
-62.05
-71.82
-83.2
-95.52
-107.1
-115.44
-117.86
-112.32
-98.28
-76.96
-51.08
-23.94
1.51
23.36
40.92
54.42
64.48
71.72
76.53
79.17
79.92
79.17
77.46
75.34
73.26
71.48
70.05
68.87
67.74
66.46
64.9
62.98
60.66
57.85
54.45
50.32
45.33
39.43
32.64
25.07
16.9
8.34
-0.38
-9.03
-17.44
-25.48
-33.17
-40.69
-48.39
-56.78
-66.35
-77.37
-89.53
-101.72
-111.97
-117.79
-116.92
-108.09
-91.59
-69.31
-44.19
-19.29
2.99
21.45
35.86
46.56
53.89
58.03
59.05
57.26
53.42
48.7
44.32
41.16
39.44
38.76
38.33
37.46
35.79
33.43
30.75
28.08
25.45
22.55
18.82
13.75
7.15
-0.77
-9.42
-18.09
-26.17
-33.33
-39.63
-45.46
-51.43
-58.26
-66.54
-76.45
-87.45
-98.09
-106.17
-109.25
-105.39
-93.86
-75.49
-52.44
-27.55
-3.51
17.77
35.31
48.85
58.49
64.36
66.59
65.48
61.71
56.38
50.79
46.12
43.04
41.51
40.9
40.29
38.88
36.35
32.9
29.02
25.24
21.7
18.09
13.75
7.99
0.47
-8.61
-18.59
-28.56
-37.77
-45.88
-53.06
-59.89
-67.16
-75.62
-85.81
-97.85
-111.16
-124.35
-135.21
-141.17
-139.9
-130.14
-112.12
-87.67
-59.62
-31.07
-4.55
18.41
37.32
52.38
64.02
72.61
78.33
81.29
81.78
80.3
77.64
74.63
71.93
69.88
68.38
67.08
65.53
63.43
60.65
57.28
53.48
49.38
44.93
39.95
34.16
27.32
19.39
10.53
1.15
-8.27
-17.34
-25.87
-33.93
-41.79
-49.78
-58.35
-67.9
-78.77
-90.97
-103.84
-115.85
-124.65
-127.6
-122.62
-108.94
-87.57
-61.02
-32.6
-5.42
18.42
38.05
53.64
65.83
75.24
82.19
86.79
89.13
89.48
88.42
86.64
84.8
83.26
82.05
80.97
79.73
78.14
76.09
73.6
70.64
67.1
62.82
57.6
51.3
43.85
35.22
25.44
14.67
3.21
-8.43
-19.72
-30.19
-39.67
-48.32
-56.6
-65.14
-74.52
-85.14
-96.96
-109.35
-120.94
-129.65
-133.13
-129.38
-117.49
-98.1
-73.33
-46.16
-19.56
4.23
24.05
39.66
51.3
59.31
63.91
65.38
64.19
61.17
57.42
54.03
51.71
50.59
50.21
49.86
48.93
47.2
44.88
42.38
39.99
37.53
34.4
29.82
23.22
14.64
4.69
-5.58
-15.18
-23.54
-30.71
-37.32
-44.24
-52.37
-62.29
-74.08
-87.15
-100.1
-110.83
-116.88
-116.04
-107.12
-90.42
-67.78
-42.09
-16.4
6.86
26.33
41.65
53
60.7
64.95
65.93
64.05
60.14
55.35
50.84
47.4
45.22
43.9
42.71
41
38.47
35.29
31.93
28.82
26.11
23.49
20.31
15.83
9.56
1.54
-7.68
-17.15
-25.97
-33.61
-40.14
-46.2
-52.83
-61.06
-71.63
-84.62
-99.23
-113.71
-125.53
-131.88
-130.47
-120.22
-101.71
-77.1
-49.45
-21.82
3.48
25.26
43.27
57.76
69.02
77.14
82.11
84.1
83.62
81.54
78.88
76.46
74.67
73.41
72.23
70.61
68.22
65.12
61.62
58.1
54.77
51.42
47.55
42.45
35.63
26.99
16.97
6.37
-3.92
-13.25
-21.45
-28.81
-36.03
-43.96
-53.34
-64.65
-77.8
-91.98
-105.56
-116.24
-121.51
-119.35
-108.9
-90.83
-67.2
-40.88
-14.74
9.04
29.28
45.74
58.66
68.42
75.26
79.28
80.69
79.87
77.54
74.57
71.78
69.7
68.41
67.63
66.85
65.61
63.65
61.02
57.92
54.54
50.94
46.97
42.33
36.7
29.92
22.04
13.39
4.44
-4.28
-12.34
-19.56
-26
-31.96
-37.9
-44.38
-51.97
-61.03
-71.47
-82.46
-92.28
-98.58
-99
-92
-77.51
-57.11
-33.55
-9.87
11.47
29.07
42.56
52.17
58.24
61.02
60.76
57.95
53.47
48.5
44.2
41.29
39.86
39.43
39.19
38.4
36.72
34.21
31.29
28.36
25.57
22.71
19.29
14.77
8.82
1.55
-6.54
-14.74
-22.43
-29.28
-35.39
-41.2
-47.35
-54.54
-63.31
-73.85
-85.74
-97.77
-107.92
-113.77
-113.09
-104.65
-88.68
-66.9
-41.99
-16.82
6.33
26.11
42.09
54.34
63.12
68.6
70.93
70.41
67.59
63.32
58.55
54.13
50.59
48.06
46.27
44.78
43.18
41.2
38.83
36.15
33.26
30.13
26.58
22.32
17.03
10.56
2.93
-5.57
-14.51
-23.39
-31.78
-39.44
-46.37
-52.87
-59.46
-66.85
-75.75
-86.64
-99.42
-113.12
-125.78
-134.7
-137.13
-131.12
-116.23
-93.83
-66.7
-38.22
-11.39
11.88
30.93
46.01
57.78
66.81
73.4
77.7
79.84
80.16
79.14
77.38
75.31
73.23
71.22
69.27
67.36
65.5
63.68
61.78
59.59
56.84
53.25
48.75
43.42
37.51
31.28
24.89
18.32
11.42
4.02
-3.94
-12.36
-20.93
-29.27
-37.02
-44.06
-50.53
-57.01
-64.25
-73.07
-83.89
-96.34
-108.95
-119.36
-124.72
-122.61
-111.88
-93.07
-68.33
-40.68
-13.17
11.93
33.42
51.04
65.09
75.92
83.79
88.77
91.01
90.92
89.17
86.6
83.93
81.59
79.58
77.7
75.69
73.49
71.27
69.2
67.23
64.97
61.78
57.1
50.74
43.06
34.8
26.81
19.6
13.21
7.16
0.85
-6.24
-14.19
-22.65
-31.02
-38.7
-45.34
-50.98
-56.07
-61.33
-67.56
-75.4
-85.08
-96.09
-107.02
-115.7
-119.59
-116.52
-105.47
-87
-63.23
-37.19
-11.98
10.08
27.86
41.27
50.76
56.89
60.01
60.35
58.23
54.3
49.58
45.14
41.86
40.06
39.49
39.5
39.33
38.45
36.69
34.19
31.26
28.17
24.94
21.33
16.9
11.22
4.1
-4.28
-13.35
-22.37
-30.67
-37.88
-44.12
-49.89
-55.9
-62.83
-71.21
-81.18
-92.42
-103.98
-114.21
-120.92
-121.86
-115.41
-101.13
-80.13
-54.78
-28.03
-2.64
19.5
37.57
51.56
61.79
68.64
72.3
73.03
71.26
67.81
63.68
59.87
57.07
55.45
54.75
54.4
53.83
52.65
50.7
48.05
44.81
41.06
36.79
31.86
26.07
19.27
11.41
2.61
-6.83
-16.48
-25.91
-34.8
-43.03
-50.76
-58.37
-66.43
-75.57
-86.24
-98.48
-111.55
-123.83
-132.9
-136.2
-131.68
-118.65
-98.07
-72.3
-44.39
-17.22
7.19
27.88
44.69
57.88
67.76
74.51
78.31
79.47
78.52
76.23
73.39
70.67
68.46
66.8
65.51
64.23
62.66
60.63
58.11
55.17
51.92
48.39
44.49
40.05
34.8
28.55
21.23
12.99
4.18
-4.76
-13.44
-21.63
-29.39
-37.03
-45.04
-54
-64.43
-76.54
-90.01
-103.68
-115.58
-123.16
-124.06
-116.79
-101.39
-79.48
-53.84
-27.61
-3.41
17.09
33.35
45.55
54.19
59.76
62.6
63.06
61.65
59.12
56.38
54.22
53.04
52.72
52.7
52.31
51.11
49.04
46.41
43.62
40.88
38.04
34.62
30.1
24.13
16.82
8.65
0.4
-7.19
-13.64
-18.97
-23.64
-28.48
-34.37
-41.99
-51.56
-62.67
-74.21
-84.44
-91.23
-92.51
-86.83
-73.85
-54.61
-31.29
-6.63
16.77
37.11
53.55
66.02
74.82
80.22
82.33
81.3
77.53
71.85
65.31
58.99
53.53
49.04
45.17
41.39
37.33
32.98
28.61
24.57
20.93
17.38
13.26
7.79
0.5
-8.51
-18.6
-28.77
-38.09
-46.05
-52.78
-58.94
-65.45
-73.17
-82.63
-93.81
-106.01
-117.72
-126.79
-130.73
-127.42
-115.86
-96.63
-71.86
-44.59
-17.88
6.09
26.32
42.79
55.92
66.07
73.28
77.44
78.67
77.52
75
72.28
70.28
69.35
69.2
69.11
68.33
66.34
63.09
58.89
54.2
49.36
44.45
39.26
33.35
26.32
17.95
8.37
-1.96
-12.38
-22.24
-31.14
-39.09
-46.43
-53.76
-61.71
-70.8
-81.33
-93.2
-105.71
-117.39
-126.09
-129.29
-124.91
-112.06
-91.49
-65.51
-37.32
-10.04
14.03
33.89
49.51
61.51
70.53
77.02
81.2
83.27
83.57
82.59
80.91
79
77.11
75.23
73.25
71.05
68.64
66.09
63.43
60.58
57.28
53.24
48.28
42.44
35.97
29.17
22.26
15.23
7.89
-0
-8.54
-17.55
-26.64
-35.35
-43.33
-50.56
-57.36
-64.35
-72.35
-82.03
-93.66
-106.66
-119.44
-129.51
-134.05
-130.71
-118.54
-98.36
-72.57
-44.43
-17.02
7.45
27.95
44.38
57.13
66.61
73.16
77.02
78.59
78.39
77.07
75.21
73.22
71.27
69.4
67.59
65.88
64.35
63.02
61.73
60.13
57.77
54.24
49.37
43.36
36.67
29.88
23.43
17.45
11.78
6.02
-0.14
-6.82
-13.84
-20.86
-27.5
-33.58
-39.18
-44.64
-50.52
-57.41
-65.71
-75.34
-85.49
-94.51
-100.15
-100.22
-93.22
-79.06
-59.13
-35.92
-12.27
9.45
27.8
42.34
53.23
60.8
65.33
66.96
65.97
62.9
58.64
54.21
50.53
48.11
46.96
46.61
46.4
45.7
44.09
41.46
37.94
33.75
29.01
23.73
17.75
10.86
2.95
-5.94
-15.46
-25.09
-34.21
-42.32
-49.17
-54.91
-60.01
-65.15
-71.04
-78.23
-86.94
-96.84
-106.89
-115.37
-120.08
-118.89
-110.37
-94.46
-72.55
-47.2
-21.37
2.4
22.54
38.56
50.69
59.47
65.34
68.65
69.68
68.86
66.82
64.24
61.68
59.46
57.66
56.18
54.91
53.77
52.7
51.57
50.12
48.03
45.02
40.99
35.99
30.24
23.95
17.23
10.09
2.51
-5.46
-13.63
-21.69
-29.3
-36.26
-42.56
-48.48
-54.53
-61.38
-69.71
-79.91
-91.83
-104.47
-115.95
-123.77
-125.49
-119.48
-105.51
-84.95
-60.31
-34.51
-10.06
11.42
29.31
43.68
54.94
63.46
69.54
73.39
75.24
75.47
74.52
72.89
70.99
69.07
67.22
65.4
63.57
61.79
60.2
58.9
57.8
56.5
54.43
51.03
46.08
39.81
32.84
25.92
19.62
14.05
8.85
3.43
-2.79
-10.1
-18.34
-27.03
-35.5
-43.21
-49.95
-55.96
-61.9
-68.67
-77.11
-87.6
-99.73
-112.09
-122.41
-128.08
-126.86
-117.62
-100.77
-78.18
-52.61
-26.9
-3.31
16.9
33.36
46.26
55.95
62.74
66.84
68.56
68.39
67.01
65.15
63.41
62.05
61.04
60.18
59.27
58.3
57.39
56.6
55.82
54.7
52.7
49.41
44.69
38.82
32.31
25.75
19.49
13.6
7.83
1.83
-4.72
-11.94
-19.7
-27.62
-35.22
-42.09
-48.06
-53.34
-58.51
-64.36
-71.66
-80.74
-91.21
-101.72
-110.16
-114.08
-111.44
-101.33
-84.35
-62.5
-38.59
-15.38
5.11
21.89
34.87
44.37
50.78
54.3
55.11
53.55
50.33
46.45
42.96
40.65
39.76
39.99
40.69
41.11
40.75
39.49
37.53
35.2
32.71
29.98
26.65
22.28
16.59
9.65
1.86
-6.2
-13.99
-21.23
-27.94
-34.41
-40.99
-48.07
-55.97
-64.92
-74.91
-85.49
-95.55
-103.32
-106.69
-103.8
-93.74
-76.98
-55.32
-31.39
-7.91
13.06
30.35
43.63
53.1
59.12
62.09
62.46
60.85
58.07
55.04
52.53
51.05
50.7
51.17
51.92
52.31
51.77
50.04
47.13
43.36
39.1
34.66
30.02
24.88
18.79
11.38
2.6
-7.17
-17.22
-26.77
-35.27
-42.59
-49.05
-55.32
-62.19
-70.38
-80.35
-92.05
-104.75
-116.92
-126.32
-130.44
-127.19
-115.64
-96.47
-71.84
-44.83
-18.46
5.05
24.67
40.41
52.79
62.37
69.46
74.16
76.52
76.79
75.5
73.32
70.92
68.76
66.99
65.53
64.15
62.58
60.59
58.03
54.83
51
46.59
41.69
36.38
30.67
24.44
17.54
9.87
1.51
-7.23
-15.89
-24.06
-31.54
-38.41
-45
-51.81
-59.33
-68.01
-78.03
-89.15
-100.44
-110.17
-116.07
-115.86
-108.02
-92.49
-70.75
-45.45
-19.58
4.35
24.88
41.55
54.62
64.59
71.87
76.71
79.31
79.95
79.07
77.22
74.9
72.5
70.24
68.17
66.28
64.53
62.87
61.21
59.34
56.98
53.81
49.6
44.32
38.21
31.69
25.13
18.75
12.49
6.13
-0.57
-7.69
-15.02
-22.24
-28.97
-35.03
-40.52
-45.81
-51.52
-58.3
-66.61
-76.39
-86.72
-95.82
-101.25
-100.62
-92.42
-76.58
-54.71
-29.59
-4.29
18.65
37.76
52.62
63.48
70.8
74.89
76.01
74.45
70.84
66.11
61.31
57.37
54.79
53.54
53.17
52.97
52.32
50.84
48.48
45.5
42.18
38.73
35.07
30.9
25.79
19.43
11.77
3.12
-5.92
-14.7
-22.66
-29.56
-35.51
-40.89
-46.32
-52.41
-59.74
-68.57
-78.68
-89.14
-98.24
-103.78
-103.66
-96.55
-82.45
-62.83
-40.2
-17.33
3.49
20.94
34.66
44.9
52.05
56.4
58.09
57.33
54.6
50.71
46.62
43.2
40.99
40.01
39.85
39.9
39.55
38.41
36.33
33.37
29.68
25.43
20.75
15.71
10.33
4.59
-1.54
-8.05
-14.88
-21.93
-29.07
-36.15
-43.04
-49.7
-56.21
-62.9
-70.28
-78.96
-89.28
-100.93
-112.62
-122.1
-126.69
-124.08
-113.21
-94.76
-70.98
-44.99
-19.82
2.4
20.77
35.4
46.88
55.81
62.5
67.04
69.47
69.99
69
67.04
64.65
62.27
60.15
58.33
56.7
55.07
53.23
51.01
48.35
45.22
41.64
37.58
33
27.81
21.93
15.34
8.11
0.39
-7.57
-15.51
-23.16
-30.32
-36.96
-43.28
-49.71
-56.88
-65.4
-75.64
-87.33
-99.4
-109.87
-116.23
-116.15
-108.22
-92.55
-70.85
-45.9
-20.63
2.61
22.63
39.19
52.66
63.48
71.86
77.81
81.37
82.81
82.65
81.55
80.08
78.55
76.97
75.26
73.35
71.33
69.39
67.65
66.02
64.11
61.35
57.25
51.64
44.78
37.27
29.81
22.88
16.59
10.64
4.53
-2.21
-9.78
-18
-26.4
-34.43
-41.67
-48.1
-54.1
-60.38
-67.78
-76.83
-87.46
-98.66
-108.52
-114.6
-114.58
-107.06
-92.1
-71.27
-47.21
-22.81
-0.45
18.48
33.61
45.22
53.84
59.9
63.62
65.18
64.86
63.16
60.73
58.23
56.13
54.62
53.6
52.86
52.1
51.11
49.77
47.96
45.56
42.43
38.46
33.58
27.87
21.5
14.68
7.55
0.21
-7.29
-14.83
-22.27
-29.41
-36.1
-42.32
-48.25
-54.24
-60.79
-68.4
-77.32
-87.3
-97.4
-105.89
-110.64
-109.63
-101.68
-86.95
-66.98
-44.31
-21.68
-1.29
15.58
28.65
38.26
44.96
49.16
51.08
50.91
48.96
45.82
42.3
39.2
37.08
36.04
35.76
35.65
35.15
33.92
31.95
29.45
26.69
23.78
20.61
16.9
12.28
6.5
-0.45
-8.34
-16.7
-25.01
-32.86
-40.03
-46.59
-52.85
-59.25
-66.35
-74.63
-84.37
-95.38
-106.74
-116.77
-123.17
-123.7
-116.86
-102.5
-82
-57.84
-32.88
-9.51
10.81
27.64
41.23
52.06
60.49
66.71
70.76
72.77
73.03
72.04
70.38
68.56
66.92
65.53
64.3
63.03
61.55
59.73
57.49
54.73
51.32
47.14
42.14
36.38
29.98
23.1
15.8
8.12
0.02
-8.44
-17.08
-25.63
-33.81
-41.47
-48.66
-55.71
-63.11
-71.43
-81.07
-91.98
-103.31
-113.39
-119.94
-120.68
-114.08
-99.92
-79.52
-55.23
-29.81
-5.6
15.93
34.21
49.32
61.58
71.32
78.71
83.85
86.89
88.07
87.74
86.31
84.17
81.64
78.96
76.29
73.82
71.64
69.76
67.97
65.89
63.01
58.91
53.48
46.95
39.88
32.9
26.39
20.4
14.57
8.4
1.46
-6.34
-14.71
-23.09
-30.91
-37.8
-43.83
-49.48
-55.57
-63
-72.36
-83.59
-95.69
-106.71
-114.13
-115.47
-109.17
-95.12
-74.76
-50.71
-25.91
-2.84
17.03
33.22
45.96
55.69
62.78
67.43
69.83
70.29
69.35
67.68
65.93
64.53
63.62
63.07
62.62
62.02
61.08
59.7
57.83
55.39
52.28
48.4
43.62
37.86
31.05
23.23
14.56
5.37
-3.9
-12.81
-21.03
-28.51
-35.48
-42.35
-49.61
-57.72
-66.99
-77.36
-88.24
-98.32
-105.66
-108.12
-104.06
-92.98
-75.88
-54.95
-32.91
-12.14
5.85
20.52
31.95
40.35
45.84
48.41
48.21
45.76
41.94
37.83
34.34
32.01
30.81
30.35
30.04
29.34
28.01
26.07
23.73
21.25
18.67
15.8
12.18
7.35
1.05
-6.63
-15.22
-24.02
-32.37
-39.87
-46.48
-52.5
-58.52
-65.23
-73.35
-83.26
-94.77
-106.77
-117.22
-123.54
-123.28
-115.03
-98.89
-76.58
-50.87
-24.72
-0.49
20.45
37.73
51.56
62.36
70.41
75.85
78.8
79.51
78.46
76.27
73.61
71
68.72
66.8
65.12
63.48
61.71
59.65
57.16
54.07
50.27
45.7
40.43
34.62
28.41
21.85
14.89
7.4
-0.67
-9.19
-17.84
-26.21
-33.98
-41.06
-47.7
-54.37
-61.73
-70.39
-80.73
-92.58
-104.97
-116.07
-123.4
-124.52
-117.75
-102.89
-81.39
-55.89
-29.41
-4.47
17.43
35.84
50.95
63.12
72.57
79.36
83.58
85.47
85.52
84.32
82.42
80.22
77.94
75.7
73.58
71.7
70.16
68.92
67.76
66.27
63.97
60.49
55.77
50
43.57
36.84
30
23.02
15.74
8.04
-0.05
-8.32
-16.5
-24.35
-31.78
-38.9
-45.98
-53.47
-61.91
-71.74
-83.01
-95.04
-106.2
-114.17
-116.44
-111.23
-98.1
-78.31
-54.39
-29.35
-5.82
14.54
31.17
44.2
54.06
61.04
65.26
66.79
65.94
63.32
59.76
56.13
53.07
50.75
49.02
47.44
45.61
43.33
40.7
37.92
35.16
32.31
28.98
24.63
18.83
11.49
2.97
-6.02
-14.68
-22.42
-29.07
-34.89
-40.48
-46.56
-53.82
-62.71
-73.25
-84.85
-96.19
-105.35
-110.11
-108.59
-99.88
-84.41
-63.95
-41.11
-18.62
1.42
17.81
30.21
38.79
43.85
45.69
44.69
41.46
36.88
32
27.7
24.46
22.24
20.63
19.13
17.4
15.42
13.33
11.25
9.08
6.44
2.83
-2.18
-8.63
-16.22
-24.26
-32.03
-39.02
-45.1
-50.61
-56.3
-63.07
-71.65
-82.29
-94.34
-106.14
-115.22
-118.94
-115.23
-103.41
-84.43
-60.6
-34.87
-9.91
12.4
31.18
46.26
57.8
65.96
70.85
72.69
71.91
69.27
65.71
62.13
59.17
56.99
55.33
53.68
51.56
48.76
45.42
41.87
38.4
34.93
30.98
25.81
18.82
9.9
-0.42
-11.11
-21.11
-29.79
-37.18
-43.99
-51.23
-59.88
-70.49
-82.92
-96.29
-108.89
-118.5
-122.72
-119.66
-108.52
-89.98
-66.07
-39.62
-13.43
10.38
30.78
47.6
61.17
71.83
79.68
84.67
86.79
86.36
84.08
80.89
77.77
75.29
73.54
72.18
70.62
68.42
65.45
61.97
58.38
54.9
51.44
47.49
42.38
35.57
27.01
17.16
6.89
-2.87
-11.52
-18.92
-25.49
-31.96
-39.16
-47.8
-58.26
-70.44
-83.58
-96.13
-105.85
-110.23
-107.22
-95.97
-77.2
-53.1
-26.68
-0.85
22.29
41.72
57.32
69.39
78.16
83.7
86.02
85.37
82.4
78.17
73.85
70.35
68.01
66.59
65.44
63.86
61.45
58.28
54.7
51.13
47.7
44.13
39.85
34.24
26.98
18.22
8.53
-1.34
-10.72
-19.27
-27
-34.23
-41.43
-49.12
-57.76
-67.65
-78.77
-90.56
-101.7
-110.25
-114
-111.1
-100.76
-83.64
-61.68
-37.6
-14.02
7.08
24.65
38.4
48.38
54.73
57.54
57.05
53.85
48.91
43.44
38.58
35.03
32.94
31.92
31.29
30.42
28.99
27.02
24.77
22.49
20.2
17.56
14.01
9.04
2.39
-5.73
-14.68
-23.64
-31.85
-38.95
-45.1
-50.94
-57.35
-65.2
-74.92
-86.27
-98.09
-108.43
-114.8
-114.88
-107.22
-91.72
-69.88
-44.26
-17.85
6.8
28.11
45.51
59.12
69.29
76.27
80.17
81.19
79.78
76.72
73
69.49
66.74
64.84
63.49
62.25
60.67
58.52
55.78
52.54
48.95
45.05
40.72
35.73
29.76
22.58
14.22
5.01
-4.48
-13.65
-22.07
-29.66
-36.63
-43.43
-50.57
-58.56
-67.83
-78.62
-90.75
-103.31
-114.5
-121.86
-122.88
-115.84
-100.54
-78.46
-52.31
-25.2
0.24
22.42
40.81
55.6
67.22
76
82.11
85.64
86.79
85.98
83.76
80.75
77.47
74.29
71.38
68.79
66.48
64.33
62.25
60.06
57.51
54.35
50.32
45.29
39.32
32.61
25.42
17.95
10.28
2.37
-5.8
-14.18
-22.54
-30.54
-37.9
-44.53
-50.65
-56.83
-63.81
-72.25
-82.37
-93.55
-104.2
-111.93
-114.17
-108.96
-95.74
-75.58
-50.95
-24.93
-0.32
21.01
38.32
51.71
61.68
68.71
73.11
75.11
74.99
73.21
70.38
67.15
64.03
61.32
59.09
57.29
55.75
54.32
52.82
51.06
48.87
46.1
42.63
38.42
33.46
27.73
21.27
14.13
6.45
-1.55
-9.59
-17.37
-24.66
-31.33
-37.41
-43.1
-48.76
-54.9
-62.07
-70.58
-80.21
-90.01
-98.24
-102.74
-101.55
-93.56
-78.96
-59.26
-36.85
-14.32
6.23
23.49
36.93
46.57
52.62
55.33
55.03
52.2
47.61
42.27
37.24
33.35
30.99
30
29.83
29.78
29.28
28.09
26.25
24.01
21.59
18.96
15.85
11.81
6.47
-0.29
-8.17
-16.57
-24.75
-32.13
-38.49
-44.06
-49.43
-55.35
-62.56
-71.46
-81.98
-93.29
-103.84
-111.46
-113.88
-109.39
-97.43
-78.88
-55.86
-31.14
-7.37
13.6
30.87
44.37
54.43
61.43
65.64
67.3
66.75
64.56
61.45
58.16
55.22
52.85
51.02
49.46
47.9
46.13
44.03
41.6
38.85
35.78
32.33
28.36
23.67
18.08
11.48
3.91
-4.39
-13.07
-21.7
-29.93
-37.56
-44.62
-51.35
-58.22
-65.82
-74.68
-85.03
-96.51
-107.95
-117.43
-122.6
-121.39
-112.63
-96.56
-74.82
-49.97
-24.77
-1.43
18.76
35.38
48.59
58.73
66.08
70.87
73.3
73.73
72.7
70.82
68.74
66.9
65.5
64.53
63.78
62.99
61.93
60.44
58.41
55.75
52.39
48.28
43.39
37.8
31.61
24.93
17.81
10.27
2.3
-5.99
-14.42
-22.68
-30.53
-37.81
-44.62
-51.3
-58.41
-66.55
-76.13
-87
-98.19
-107.86
-113.59
-113.1
-105.03
-89.43
-67.96
-43.3
-18.44
4.2
23.25
38.39
49.96
58.48
64.27
67.44
68.11
66.65
63.75
60.33
57.22
54.91
53.44
52.51
51.66
50.54
48.99
47.01
44.71
42.16
39.37
36.23
32.53
28
22.36
15.47
7.47
-1.22
-9.95
-18.1
-25.28
-31.52
-37.15
-42.75
-48.9
-56.06
-64.48
-74.08
-84.26
-93.82
-100.93
-103.51
-99.8
-89.01
-71.72
-49.84
-26.11
-3.25
16.67
32.58
44.25
51.99
56.19
57.24
55.56
51.77
46.81
41.79
37.7
35.07
33.82
33.31
32.71
31.37
29.15
26.36
23.54
21.06
18.89
16.5
13.15
8.14
1.25
-7.23
-16.53
-25.74
-34.11
-41.37
-47.74
-53.86
-60.57
-68.67
-78.58
-90.18
-102.6
-114.12
-122.43
-125.1
-120.27
-107.33
-87.23
-62.28
-35.51
-9.8
12.78
31.26
45.57
56.09
63.28
67.44
68.79
67.71
64.82
60.99
57.16
54.09
52.11
51.09
50.53
49.81
48.43
46.2
43.24
39.84
36.25
32.5
28.38
23.43
17.22
9.52
0.48
-9.38
-19.32
-28.66
-37.01
-44.42
-51.29
-58.24
-65.9
-74.77
-85.07
-96.49
-108.08
-118.06
-124.1
-123.82
-115.55
-99.05
-75.67
-48.12
-19.65
6.89
29.64
47.96
62.12
72.75
80.45
85.57
88.3
88.85
87.63
85.26
82.45
79.8
77.62
75.93
74.47
72.9
70.92
68.36
65.15
61.31
56.88
51.86
46.24
39.96
32.99
25.33
17.05
8.29
-0.69
-9.56
-18.05
-25.98
-33.39
-40.49
-47.65
-55.28
-63.84
-73.61
-84.54
-95.99
-106.51
-113.94
-115.86
-110.37
-96.8
-76.1
-50.7
-23.73
1.86
24.03
41.88
55.44
65.23
71.81
75.57
76.81
75.89
73.33
69.89
66.36
63.41
61.37
60.13
59.32
58.45
57.16
55.3
52.97
50.34
47.51
44.39
40.74
36.24
30.59
23.71
15.67
6.85
-2.25
-11.05
-19.11
-26.23
-32.57
-38.54
-44.64
-51.41
-59.23
-68.24
-78.19
-88.25
-96.91
-102.12
-101.81
-94.53
-80.13
-59.89
-36.31
-12.26
9.73
28.02
41.96
51.54
57.1
59.05
57.89
54.38
49.5
44.33
39.84
36.58
34.57
33.46
32.7
31.89
30.88
29.82
28.91
28.17
27.34
25.8
22.83
