1626185054.00
64.000000
-0.00
-0.00
-0.00
-0.00
-0.00
-0.00
-0.00
-0.00
-0.00
-0.00
0.00
0.01
0.01
-0.00
-0.03
-0.05
-0.05
0.00
0.13
0.36
0.66
1.01
1.37
1.72
2.06
2.40
2.79
3.24
3.80
4.42
5.06
5.66
6.20
6.68
7.15
7.68
8.31
9.14
10.09
11.04
11.88
12.56
13.14
13.76
14.65
15.96
17.91
20.32
22.90
25.38
27.58
29.57
31.68
34.32
37.81
42.54
48.15
54.10
59.83
64.97
69.58
74.14
79.34
85.71
93.76
103.00
112.62
121.73
129.77
136.75
143.30
150.75
157.77
166.64
177.95
191.79
206.97
220.57
228.25
225.36
208.53
176.87
132.76
80.05
23.07
-34.94
-92.44
-149.16
-205.23
-260.36
-313.74
-363.87
-409.84
-450.92
-486.52
-515.74
-537.20
-549.14
-549.85
-538.28
-514.25
-478.94
-434.44
-383.31
-328.09
-270.98
-213.69
-157.54
-103.67
-53.03
-6.66
34.60
70.20
99.97
124.13
143.20
157.78
168.40
175.52
179.48
180.64
179.46
176.48
172.25
167.14
161.28
154.60
146.91
138.21
128.76
119.18
110.21
102.42
95.86
89.98
83.88
76.65
67.92
58.11
48.37
40.09
34.28
30.96
29.10
26.95
22.89
16.19
7.43
-1.56
-8.75
-12.60
-12.88
-10.77
-8.29
-7.56
-10.13
-16.94
-27.59
-40.08
-50.44
-53.12
-42.60
-15.79
25.65
74.78
120.92
153.60
166.38
159.22
137.75
110.19
83.66
61.67
44.39
29.87
16.91
5.90
-1.77
-5.12
-4.81
-2.93
-2.35
-4.92
-10.70
-18.08
-24.85
-29.46
-31.32
-30.98
-29.17
-26.43
-22.87
-18.53
-13.56
-8.44
-3.78
-0.10
2.28
3.26
2.84
1.14
-1.52
-4.57
-7.18
-8.45
-7.78
-5.36
-2.05
0.93
2.73
3.28
3.12
3.13
3.96
5.80
8.36
11.19
13.80
15.79
16.82
16.66
15.38
13.38
11.33
9.86
9.12
8.59
7.44
4.98
1.23
-3.10
-6.92
-9.53
-10.69
-10.55
-9.26
-6.82
-3.04
1.56
5.63
7.30
5.08
-1.15
-9.77
-17.88
-22.55
-22.21
-17.45
-10.53
-4.26
-0.72
-0.45
-2.53
-5.34
-7.54
-8.48
-8.19
-6.87
-4.66
-1.60
1.91
4.95
6.19
4.55
-0.06
-6.49
-12.56
-16.12
-15.80
-11.79
-5.54
0.78
5.24
6.77
5.33
1.65
-3.19
-8.18
-12.72
-16.51
-19.47
-21.51
-22.60
-22.81
-22.43
-21.89
-21.61
-21.85
-22.55
-23.31
-23.59
-22.91
-20.96
-17.86
-14.01
-10.01
-6.52
-4.14
-3.31
-4.27
-6.97
-11.00
-15.51
-19.32
-21.28
-20.73
-17.90
-13.83
-9.84
-6.82
-4.66
-2.40
1.11
6.42
13.07
19.85
25.39
28.87
30.26
30.11
29.04
27.53
25.91
24.60
24.25
25.41
28.15
31.77
35.11
37.09
37.25
36.04
34.35
32.98
32.00
30.73
28.04
22.94
15.05
4.89
-6.32
-17.08
-25.95
-32.07
-35.39
-36.71
-37.36
-38.80
-42.01
-47.14
-53.35
-59.12
-62.92
-63.69
-61.38
-56.82
-51.33
-46.11
-41.71
-37.88
-33.86
-28.87
-22.62
-15.35
-7.69
-0.21
6.59
12.27
16.43
18.69
18.96
17.59
15.43
13.52
12.84
13.90
16.68
20.61
24.88
28.62
31.17
32.00
30.90
28.08
24.17
20.22
17.19
15.53
14.93
14.49
13.23
10.80
7.68
5.02
3.93
4.68
6.33
7.35
6.42
3.27
-1.13
-5.06
-6.90
-5.75
-1.51
5.43
14.60
25.46
37.08
47.86
55.60
58.21
54.83
46.37
35.50
25.70
19.91
19.46
23.61
30.16
36.43
40.25
40.65
37.92
33.24
28.06
23.53
20.05
17.24
14.25
10.37
5.65
0.84
-3.00
-5.18
-5.69
-5.10
-4.03
-2.85
-1.54
-0.08
1.27
2.10
2.17
1.88
2.12
3.79
7.13
11.39
15.27
17.65
18.22
17.46
16.10
14.42
12.00
8.23
2.97
-2.98
-8.19
-11.36
-12.32
-12.28
-13.19
-16.64
-22.96
-30.89
-38.10
-42.34
-42.28
-38.09
-31.13
-23.34
-16.55
-11.85
-9.40
-8.48
-8.12
-7.51
-6.50
-5.54
-5.36
-6.41
-8.57
-11.27
-13.85
-15.83
-17.03
-17.37
-16.63
-14.58
-11.28
-7.36
-4.03
-2.53
-3.53
-6.63
-10.69
-14.29
-16.47
-17.04
-16.45
-15.30
-13.94
-12.45
-11.08
-10.52
-11.77
-15.76
-22.57
-31.03
-39.13
-44.88
-47.27
-46.65
-44.32
-41.72
-39.73
-38.48
-37.78
-37.58
-37.98
-38.94
-39.99
-40.36
-39.47
-37.48
-35.16
-33.28
-31.60
-28.65
-22.48
-11.87
2.47
18.06
31.90
42.14
48.69
52.75
55.66
57.82
58.82
58.14
56.07
53.70
52.21
51.95
52.19
51.51
48.62
43.26
36.15
28.55
21.70
16.36
12.73
10.51
8.93
7.06
4.22
0.25
-4.20
-8.27
-11.55
-14.33
-17.53
-21.86
-27.14
-32.11
-35.37
-36.39
-36.05
-36.28
-38.84
-44.18
-50.94
-56.58
-58.75
-56.59
-50.95
-43.66
-36.38
-29.80
-23.68
-17.60
-11.69
-6.75
-3.58
-2.27
-1.95
-1.38
0.13
1.99
2.89
1.95
-0.13
-1.17
1.26
8.00
17.44
26.07
30.33
28.55
21.79
13.11
5.84
1.91
1.39
3.01
5.25
7.25
8.99
10.77
12.67
14.25
14.84
14.04
12.13
10.11
9.26
10.48
13.56
17.11
19.11
17.93
13.05
5.50
-2.59
-9.05
-12.72
-13.93
-14.10
-14.71
-16.39
-18.65
-20.24
-20.17
-18.28
-15.24
-11.83
-8.27
-4.05
1.51
8.36
15.29
20.19
21.20
17.78
11.25
4.30
-0.15
-0.10
5.00
14.44
26.76
40.26
53.18
63.79
70.67
73.12
71.60
67.47
62.44
57.80
53.93
50.41
46.57
42.05
36.89
31.45
26.15
21.33
17.32
14.54
13.49
14.39
16.69
19.20
20.70
20.62
19.46
18.44
18.65
20.19
21.79
21.55
18.04
11.31
2.85
-5.06
-10.67
-13.56
-14.65
-15.33
-16.38
-17.57
-17.99
-16.99
-14.73
-12.02
-9.95
-9.16
-9.74
-11.41
-13.98
-17.62
-22.65
-28.90
-35.40
-40.64
-43.26
-42.58
-38.96
-33.68
-28.22
-23.53
-19.63
-15.82
-11.25
-5.31
1.79
9.18
15.73
20.61
23.49
24.54
23.92
21.67
17.79
12.37
6.02
-0.03
-4.20
-5.02
-2.01
4.01
11.11
17.13
20.41
20.42
18.03
15.03
13.00
12.60
13.17
13.10
10.80
5.82
-0.91
-7.72
-13.26
-17.23
-20.44
-24.27
-29.37
-35.01
-39.35
-40.51
-38.34
-34.66
-32.54
-34.46
-40.77
-49.34
-56.96
-61.50
-63.28
-64.52
-67.40
-72.01
-75.97
-75.81
-69.43
-57.71
-44.34
-33.13
-25.73
-20.71
-15.07
-6.23
6.07
19.53
30.56
36.42
36.62
32.74
27.44
23.12
21.09
21.35
22.76
23.85
23.55
21.88
19.81
18.77
19.61
22.07
24.68
25.72
24.43
21.33
17.80
14.97
13.17
11.65
9.17
5.19
0.19
-4.43
-7.32
-7.96
-6.94
-5.60
-5.33
-6.67
-9.07
-11.41
-12.76
-13.10
-13.31
-14.44
-16.81
-19.56
-21.06
-20.18
-17.32
-14.39
-13.73
-16.28
-20.84
-24.62
-25.10
-21.78
-16.68
-13.11
-13.42
-17.58
-23.25
-27.32
-27.87
-24.96
-20.10
-15.04
-10.72
-7.14
-4.03
-1.35
0.69
2.09
3.41
5.67
9.73
15.56
22.14
27.81
31.27
32.11
30.88
28.64
26.33
24.47
23.23
22.80
23.53
25.83
29.90
35.42
41.48
46.77
50.15
51.23
50.60
49.61
49.62
51.21
53.77
55.84
55.89
53.28
48.50
42.85
37.56
33.16
29.34
25.47
21.21
16.82
12.94
10.12
8.33
6.99
5.40
3.17
0.55
-1.82
-3.39
-4.14
-4.81
-6.62
-10.79
-17.77
-26.80
-35.88
-42.42
-44.24
-40.60
-32.67
-23.02
-14.42
-8.62
-5.65
-4.24
-2.83
-0.59
2.18
4.59
6.01
6.51
6.67
6.73
6.14
3.70
-1.54
-9.24
-17.40
-23.02
-23.64
-18.67
-9.75
-0.08
7.35
11.03
11.60
11.20
12.10
15.49
21.01
27.18
32.26
35.12
35.47
33.68
30.54
27.02
24.39
24.11
27.36
34.38
43.96
53.42
59.41
58.97
50.57
34.64
13.31
-10.31
-32.91
-51.72
-64.97
-72.03
-73.43
-70.60
-65.41
-59.79
-55.31
-52.72
-51.94
-52.13
-52.11
-50.79
-47.61
-42.72
-36.84
-31.05
-26.25
-23.01
-21.46
-21.29
-21.87
-22.49
-22.47
-21.56
-20.07
-18.69
-18.16
-18.77
-20.20
-21.59
-22.01
-20.98
-18.57
-15.37
-12.15
-9.58
-8.12
-8.17
-10.08
-13.95
-19.22
-24.36
-27.15
-25.40
-18.15
-6.34
7.26
19.05
26.26
28.03
25.64
21.53
17.89
15.39
13.26
10.00
4.72
-2.21
-9.25
-14.59
-17.32
-17.77
-17.41
-18.03
-20.67
-25.16
-30.29
-34.55
-36.96
-37.46
-36.81
-35.95
-35.42
-35.03
-34.02
-31.68
-27.78
-22.78
-17.57
-12.96
-9.24
-6.15
-3.22
-0.30
2.26
3.74
3.78
2.80
2.24
3.62
7.61
13.49
19.39
23.38
24.55
23.56
22.12
21.75
22.83
24.64
26.14
26.96
27.74
29.56
32.80
36.52
39.02
38.90
36.07
31.79
27.75
24.93
23.20
21.72
19.97
18.39
18.04
19.69
22.92
26.07
27.36
25.94
22.39
18.35
15.41
14.41
15.39
18.01
22.05
27.23
32.72
36.88
37.67
33.54
24.39
11.88
-1.36
-12.88
-21.11
-25.32
-25.33
-21.11
-13.18
-3.24
6.02
11.90
13.16
10.90
8.07
7.74
11.14
16.86
21.79
23.15
20.24
14.81
9.90
7.75
8.59
10.64
11.59
10.21
7.23
4.70
4.61
7.54
12.12
15.84
16.35
12.95
6.90
0.69
-3.36
-4.38
-3.19
-1.61
-1.31
-2.84
-5.53
-8.23
-10.22
-11.57
-12.90
-14.62
-16.51
-17.70
-17.44
-15.70
-13.37
-11.89
-12.28
-14.49
-17.45
-19.63
-19.86
-17.97
-14.76
-11.38
-8.70
-6.92
-5.66
-4.27
-2.35
-0.02
2.37
4.46
6.22
7.86
9.54
10.92
11.21
9.68
6.31
2.03
-1.65
-3.47
-2.98
-0.84
1.77
3.94
5.58
7.18
9.18
11.40
13.10
13.41
12.13
9.88
7.54
5.58
3.67
1.03
-2.82
-7.54
-11.95
-14.83
-15.59
-14.71
-13.43
-13.01
-14.09
-16.45
-19.46
-22.51
-25.33
-27.95
-30.46
-32.83
-34.81
-36.20
-36.89
-36.83
-35.93
-34.19
-31.81
-29.26
-27.13
-25.79
-24.96
-23.71
-20.88
-15.74
-8.60
-0.65
6.66
12.34
16.39
19.48
22.26
24.63
25.83
24.96
21.81
17.28
13.03
10.62
10.74
12.86
15.74
18.22
19.79
20.65
21.27
21.82
21.88
20.65
17.37
11.90
4.83
-2.77
-9.82
-15.70
-20.47
-24.55
-28.31
-31.78
-34.54
-36.20
-36.81
-36.98
-37.53
-38.83
-40.23
-40.30
-37.67
-31.97
-24.30
-16.90
-12.02
-10.84
-13.07
-17.35
-21.96
-25.55
-27.20
-26.28
-22.42
-15.57
-6.46
3.25
11.47
16.71
18.98
19.99
22.33
28.05
37.51
49.13
60.17
68.11
71.69
71.07
67.29
61.41
54.27
46.55
39.24
33.76
31.45
32.77
36.75
41.29
44.21
44.23
41.42
36.80
31.44
25.92
20.23
14.30
8.48
3.55
0.15
-1.66
-2.51
-3.20
-4.04
-4.84
-5.21
-5.11
-4.92
-5.14
-5.76
-6.19
-5.74
-4.62
-4.22
-6.37
-12.02
-20.29
-28.58
-33.77
-33.87
-29.13
-21.73
-14.33
-8.54
-4.30
-0.39
4.42
10.56
17.38
23.68
28.61
31.96
33.90
34.29
32.57
28.00
20.34
10.48
0.39
-7.54
-11.53
-11.23
-7.69
-2.53
2.87
7.67
11.59
14.46
15.99
15.76
13.58
9.91
5.73
1.89
-1.43
-4.87
-9.31
-14.97
-20.85
-24.87
-25.08
-21.15
-14.91
-9.58
-8.04
-11.17
-17.26
-23.19
-26.42
-26.55
-25.30
-25.08
-27.09
-30.50
-33.24
-33.57
-31.38
-28.28
-26.32
-26.49
-27.95
-28.68
-26.71
-21.51
-14.15
-6.62
-0.58
3.35
5.73
7.58
9.40
10.88
11.09
9.22
5.21
0.02
-4.77
-7.78
-8.32
-6.64
-3.50
0.32
4.48
8.91
13.49
17.55
19.98
19.68
16.25
10.31
3.32
-2.93
-7.20
-9.15
-9.25
-8.30
-6.95
-5.41
-3.62
-1.62
0.26
1.48
1.56
0.46
-1.36
-3.10
-4.18
-4.76
-5.67
-8.20
-13.26
-20.93
-30.19
-39.13
-45.66
-48.24
-46.50
-41.41
-34.91
-29.03
-25.09
-23.34
-23.06
-23.28
-23.46
-23.72
-24.35
-25.29
-25.90
-25.15
-22.26
-17.36
-11.62
-6.44
-2.49
0.78
4.51
9.72
16.43
23.27
28.03
28.76
25.02
18.27
11.14
6.31
5.19
7.46
11.36
14.99
17.47
19.09
20.84
23.45
26.88
30.24
32.29
32.09
29.59
25.40
20.62
16.31
13.35
12.04
11.93
11.97
11.09
8.93
6.08
3.74
3.01
4.08
6.05
7.61
7.99
7.55
7.36
8.44
11.06
14.57
17.69
19.20
18.49
15.54
10.92
5.60
0.88
-1.82
-1.44
2.36
9.01
17.12
24.91
31.00
34.83
36.62
37.02
36.68
36.01
35.11
33.92
32.21
29.71
26.07
21.07
14.82
7.97
1.67
-2.83
-4.56
-3.41
-0.31
3.09
5.22
5.38
3.89
1.81
0.17
-0.74
-1.60
-3.56
-7.31
-12.45
-17.51
-20.85
-21.38
-19.34
-16.01
-13.10
-11.81
-12.38
-14.17
-16.16
-17.55
-18.08
-18.09
-18.29
-19.25
-21.14
-23.65
-26.28
-28.52
-30.14
-31.17
-31.62
-31.25
-29.45
-25.71
-20.10
-13.60
-7.76
-3.85
-2.16
-1.72
-0.87
1.79
6.67
13.21
20.07
25.90
29.62
30.66
28.93
24.84
19.34
13.64
9.08
6.75
7.21
10.38
15.49
21.36
26.68
30.30
31.52
30.32
27.34
23.49
19.43
15.18
10.45
5.02
-0.72
-5.78
-9.20
-10.73
-11.14
-11.87
-14.10
-17.91
-22.35
-26.14
-28.39
-29.18
-29.42
-30.31
-32.57
-36.10
-40.16
-43.88
-46.69
-48.44
-49.36
-49.72
-49.60
-48.91
-47.42
-44.97
-41.45
-36.80
-31.12
-24.81
-18.59
-13.24
-9.41
-7.13
-5.88
-4.74
-2.95
-0.39
2.19
3.73
3.58
2.13
0.65
0.67
3.00
7.24
12.11
16.26
19.14
21.11
22.88
24.78
26.31
26.56
24.94
21.71
17.96
14.71
12.22
9.75
6.26
1.20
-4.89
-10.66
-14.83
-16.88
-17.36
-17.34
-17.67
-18.55
-19.47
-19.52
-18.00
-14.76
-10.33
-5.85
-2.63
-1.66
-3.22
-6.89
-11.78
-17.00
-22.11
-26.87
-30.94
-33.47
-33.35
-29.89
-23.41
-15.45
-8.01
-2.45
1.30
4.53
8.77
14.67
21.53
27.85
32.37
34.94
36.54
38.58
41.86
45.99
49.74
51.88
52.19
51.65
52.02
54.88
60.80
68.84
77.07
83.38
86.33
85.64
82.07
76.79
70.81
64.73
58.83
53.28
48.20
43.55
39.04
34.04
27.98
20.66
12.43
4.16
-3.21
-9.11
-13.64
-17.51
-21.71
-27.07
-33.92
-41.87
-49.92
-56.66
-60.62
-60.63
-56.23
-47.92
-37.04
-25.41
-14.86
-6.68
-1.34
1.52
2.73
3.12
3.15
2.83
1.86
-0.14
-3.39
-7.87
-13.33
-19.21
-24.70
-28.77
-30.53
-29.49
-25.87
-20.45
-14.34
-8.49
-3.58
0.10
2.40
3.26
2.68
0.97
-1.20
-2.96
-3.61
-2.95
-1.48
-0.14
0.07
-1.33
-4.19
-7.82
-11.41
-14.31
-16.21
-17.09
-17.18
-16.83
-16.42
-16.33
-16.69
-17.44
-18.30
-18.92
-18.99
-18.48
-17.59
-16.68
-16.05
-15.70
-15.45
-14.93
-13.70
-11.32
-7.52
-2.34
3.71
9.61
14.20
16.51
16.09
13.24
8.72
3.49
-1.52
-5.63
-8.36
-9.37
-8.52
-5.77
-1.45
3.68
8.56
12.20
14.07
14.32
13.82
13.57
14.26
15.76
17.18
17.37
15.55
11.77
6.85
1.94
-1.94
-4.23
-4.85
-4.13
-2.47
-0.59
0.58
-0.00
-3.03
-8.57
-15.79
-23.31
-29.68
-34.00
-36.14
-36.56
-36.05
-35.25
-34.48
-33.76
-33.08
-32.50
-32.05
-31.58
-30.57
-28.33
-24.18
-17.87
-9.72
-0.58
8.43
16.17
21.83
25.05
25.90
24.60
21.33
16.24
9.76
2.86
-3.13
-6.89
-7.63
-5.61
-1.97
1.71
4.33
5.67
6.25
6.68
7.03
6.82
5.39
2.69
-0.47
-2.68
-2.88
-1.02
1.90
4.39
5.35
4.63
3.13
2.27
3.17
5.93
9.74
13.32
15.65
16.50
16.39
16.24
16.68
17.73
18.89
19.43
18.72
16.36
12.23
6.58
0.10
-6.03
-10.25
-10.99
-7.23
0.92
12.15
24.52
35.98
45.06
51.11
54.29
55.36
55.26
54.92
54.84
54.91
54.46
52.60
48.65
42.34
33.95
24.14
13.89
4.45
-2.78
-6.49
-5.88
-1.10
6.57
14.95
21.61
24.76
23.85
19.58
13.51
7.36
2.32
-1.32
-4.08
-6.87
-10.45
-15.03
-20.13
-24.90
-28.67
-31.29
-33.02
-34.09
-34.45
-33.78
-31.85
-29.04
-26.35
-25.06
-26.00
-28.96
-32.78
-35.89
-37.08
-35.96
-32.93
-28.83
-24.49
-20.55
-17.42
-15.34
-14.41
-14.32
-14.31
-13.45
-11.06
-7.03
-1.97
2.89
6.16
6.89
4.85
0.63
-4.64
-9.66
-13.30
-14.84
-14.09
-11.36
-7.27
-2.56
2.16
6.52
10.37
13.66
16.32
18.20
19.18
19.23
18.45
17.11
15.53
13.98
12.62
11.53
10.78
10.42
10.34
10.19
9.53
7.93
5.12
1.05
-4.14
-10.16
-16.57
-22.81
-28.23
-32.33
-34.84
-35.81
-35.53
-34.22
-32.07
-29.10
-25.52
-21.69
-18.16
-15.48
-13.91
-13.20
-12.70
-11.66
-9.44
-5.80
-0.98
4.29
9.03
12.33
13.54
12.54
9.77
6.16
2.81
0.71
0.48
2.25
5.68
10.01
14.36
17.98
20.48
21.87
22.45
22.62
22.58
22.29
21.53
20.02
17.58
14.18
9.94
5.19
0.55
-3.20
-5.20
-4.87
-2.23
1.86
5.90
8.37
8.38
6.06
2.34
-1.71
-5.57
-9.37
-13.62
-18.43
-23.19
-26.77
-28.25
-27.46
-25.19
-22.79
-21.41
-21.66
-23.57
-26.94
-31.59
-37.17
-42.94
-47.66
-49.80
-48.26
-42.88
-34.41
-24.15
-13.38
-2.99
6.52
14.77
21.41
26.17
29.07
30.69
31.96
33.92
37.33
42.22
48.09
54.13
59.62
64.16
67.66
70.24
72.08
73.33
74.08
74.45
74.58
74.54
74.29
73.51
71.66
68.27
63.18
56.67
49.39
42.15
35.55
29.97
25.45
21.87
19.00
16.50
13.98
11.04
7.20
2.16
-4.04
-11.02
-18.05
-24.40
-29.57
-33.56
-37.02
-40.85
-45.76
-51.85
-58.47
-64.33
-67.91
-68.14
-64.81
-58.70
-51.30
-44.20
-38.45
-34.30
-31.24
-28.48
-25.53
-22.35
-19.29
-16.66
-14.57
-12.95
-11.79
-11.38
-12.22
-14.58
-18.08
-21.64
-23.90
-23.87
-21.33
-16.77
-11.09
-5.20
0.19
4.55
7.44
8.64
8.43
7.57
7.10
7.77
9.59
11.80
13.32
13.42
12.25
10.52
9.05
8.10
7.22
5.67
3.07
-0.25
-3.45
-5.90
-7.66
-9.42
-11.97
-15.46
-19.21
-21.91
-22.59
-21.06
-18.16
-15.17
-13.18
-12.68
-13.33
-14.38
-14.99
-14.52
-12.62
-9.25
-4.63
0.70
5.89
10.06
12.48
12.71
10.64
6.46
0.63
-6.15
-12.91
-18.59
-22.21
-23.24
-21.72
-18.26
-13.77
-9.24
-5.53
-3.11
-2.22
-2.76
-4.33
-6.23
-7.62
-7.85
-6.58
-4.05
-0.97
1.74
3.32
3.45
2.40
0.85
-0.35
-0.54
0.48
2.41
4.61
6.49
7.77
8.46
8.74
8.49
7.35
4.79
0.62
-4.84
-10.80
-16.52
-21.50
-25.55
-28.61
-30.47
-30.80
-29.28
-25.95
-21.33
-16.14
-11.05
-6.36
-2.17
1.55
4.72
7.21
8.95
9.89
9.84
8.44
5.33
0.67
-4.60
-8.73
-9.96
-7.27
-0.92
7.81
17.20
25.87
33.21
39.14
43.80
47.19
49.20
50.00
50.21
50.74
52.39
55.43
59.47
63.76
67.57
70.50
72.43
73.40
73.42
72.24
69.37
64.12
55.79
43.95
28.78
11.27
-6.67
-22.54
-33.75
-38.49
-36.30
-28.29
-16.91
-5.13
4.36
9.84
10.91
8.39
3.84
-0.99
-4.81
-7.17
-8.35
-9.05
-9.90
-11.19
-12.75
-14.09
-14.63
-13.95
-11.83
-8.36
-3.80
1.31
6.11
9.49
10.38
8.15
3.12
-3.56
-10.12
-14.84
-16.56
-15.16
-11.57
-7.26
-3.89
-2.81
-4.80
-10.08
-18.13
-27.63
-36.65
-43.29
-46.27
-45.48
-41.98
-37.32
-32.80
-28.89
-25.20
-21.04
-16.07
-10.73
-6.04
-3.00
-2.09
-3.03
-4.99
-7.01
-8.14
-7.59
-4.79
0.32
7.28
15.06
22.09
26.78
27.89
25.09
19.19
11.90
5.24
0.79
-0.77
0.04
1.81
2.82
1.75
-1.68
-6.51
-10.93
-13.15
-12.29
-8.79
-4.26
-0.64
0.75
-0.23
-2.63
-5.05
-6.51
-6.89
-6.96
-7.75
-10.02
-13.91
-18.87
-23.94
-28.02
-30.37
-30.69
-29.19
-26.27
-22.36
-17.76
-12.72
-7.60
-3.09
-0.05
0.68
-1.35
-5.96
-12.31
-19.04
-24.58
-27.41
-26.40
-21.15
-12.21
-1.04
10.47
20.71
28.72
34.27
37.34
37.82
35.64
31.18
25.71
21.19
19.59
21.88
27.55
34.63
40.64
43.59
42.84
39.06
33.73
28.33
23.82
20.47
18.04
16.14
14.44
12.87
11.50
10.45
9.74
9.14
8.38
7.12
5.07
1.84
-2.92
-9.27
-16.68
-23.86
-29.15
-31.02
-28.94
-23.78
-17.65
-13.18
-12.50
-16.54
-24.65
-34.88
-44.57
-51.13
-52.80
-49.05
-40.77
-29.99
-19.09
-9.83
-2.79
2.96
9.11
17.08
27.31
38.88
49.90
58.20
62.28
61.81
57.79
52.08
46.74
43.25
42.01
42.45
43.45
44.09
44.10
43.92
44.38
46.06
48.79
51.70
53.54
53.39
51.12
47.49
43.81
41.32
40.82
42.36
45.12
47.72
48.55
46.47
41.24
33.84
26.16
20.18
17.28
17.57
19.77
21.49
19.90
12.61
-1.48
-21.66
-45.58
-69.76
-90.72
-105.84
-114.03
-115.78
-112.85
-107.40
-101.23
-95.04
-88.34
-80.11
-69.46
-56.42
-42.14
-28.66
-18.25
-12.51
-11.90
-15.61
-22.11
-29.67
-36.94
-43.05
-47.57
-50.17
-50.35
-47.49
-41.11
-31.46
-19.83
-8.28
1.19
7.73
12.39
17.55
25.15
35.11
44.73
49.91
47.49
37.11
21.65
5.76
-6.55
-13.71
-16.81
-18.29
-20.17
-22.92
-25.78
-27.72
-28.37
-28.33
-28.74
-30.31
-32.82
-35.15
-36.02
-34.80
-31.84
-28.47
-26.27
-26.28
-28.69
-32.76
-37.48
-41.94
-45.38
-46.99
-45.77
-40.39
-29.55
-12.79
8.67
31.63
51.85
65.76
72.01
71.85
68.27
64.35
61.79
60.46
59.19
56.90
53.49
49.72
46.64
44.79
43.78
42.74
40.85
37.85
34.08
30.17
26.47
23.04
19.47
14.81
8.06
-1.41
-13.41
-26.83
-39.85
-50.67
-57.98
-61.43
-61.74
-60.28
-58.63
-58.07
-59.17
-61.72
-64.92
-67.86
-70.06
-71.61
-73.03
-74.71
-76.49
-77.46
-76.62
-73.39
-67.64
-59.50
-48.90
-35.82
-20.91
-6.21
4.82
8.42
2.51
-11.76
-29.86
-45.46
-52.94
-49.70
-36.97
-18.79
0.02
15.96
27.76
36.12
42.57
48.32
53.71
58.23
61.04
61.66
60.20
57.33
53.73
50.05
46.72
44.08
42.48
42.44
44.56
49.06
55.57
63.06
70.09
75.30
77.72
77.10
73.89
69.04
63.76
59.15
55.84
53.83
52.48
50.84
48.13
44.27
39.86
35.93
33.34
32.20
31.81
31.00
28.90
25.39
21.12
17.19
14.50
13.25
12.81
11.86
8.89
2.82
-6.43
-17.70
-28.68
-36.46
-38.56
-33.87
-23.34
-9.64
3.73
13.70
18.78
19.47
17.61
15.37
14.25
14.68
16.29
18.56
21.32
24.75
28.64
31.82
32.38
28.48
19.76
7.99
-3.29
-10.42
-11.18
-5.91
2.91
11.96
18.52
21.24
19.92
14.95
6.81
-3.94
-16.59
-29.87
-42.19
-52.10
-58.70
-61.81
-61.84
-59.57
-55.91
-51.86
-48.19
-45.50
-43.94
-43.21
-42.69
-41.78
-40.19
-38.08
-35.93
-34.17
-32.91
-31.85
-30.41
-28.11
-24.86
-20.99
-17.11
-13.76
-11.11
-9.02
-7.16
-5.34
-3.63
-2.25
-1.35
-0.78
-0.18
0.86
2.49
4.46
6.28
7.40
7.53
6.68
5.09
3.07
0.86
-1.33
-3.30
-4.73
-5.34
-5.03
-3.97
-2.69
-1.77
-1.60
-2.14
-2.88
-3.29
-3.18
-2.79
-2.73
-3.56
-5.38
-7.74
-9.93
-11.44
-12.22
-12.76
-13.59
-14.97
-16.66
-18.12
-18.93
-19.01
-18.67
-18.35
-18.46
-19.23
-20.69
-22.91
-25.82
-29.23
-32.72
-35.70
-37.78
-38.94
-39.69
-40.86
-43.09
-46.54
-50.90
-55.54
-59.59
-62.14
-62.37
-59.70
-53.90
-45.11
-33.64
-20.17
-5.44
9.54
23.70
36.00
45.52
51.53
53.39
50.80
44.00
34.20
23.69
15.43
12.16
15.13
23.55
34.72
45.25
52.65
56.19
56.58
54.97
52.03
47.83
42.26
35.72
29.05
23.07
18.05
13.68
9.47
5.36
1.77
-0.51
-1.06
-0.08
1.65
3.20
4.01
4.03
3.60
3.17
3.06
3.54
4.77
6.77
9.11
10.91
11.15
9.06
4.60
-1.50
-7.91
-12.97
-15.23
-13.77
-8.70
-1.10
7.23
14.47
19.49
22.34
24.08
25.94
28.68
32.05
35.04
36.54
35.91
33.28
29.40
25.08
20.82
16.85
13.32
10.59
9.12
9.33
11.27
14.56
18.50
22.20
24.85
25.81
24.64
21.25
16.02
9.94
4.26
0.08
-2.06
-2.40
-1.83
-1.33
-1.45
-2.19
-3.24
-4.25
-5.00
-5.38
-5.19
-4.50
-3.79
-4.19
-7.20
-13.80
-23.72
-35.03
-44.81
-50.35
-50.45
-45.70
-37.97
-29.43
-21.56
-14.93
-9.53
-5.10
-1.38
1.93
5.08
8.07
10.69
12.36
12.50
10.98
8.23
5.07
2.03
-0.54
-2.62
-4.15
-4.82
-4.08
-1.54
2.53
7.22
11.34
14.05
15.02
14.47
12.83
10.65
8.40
6.56
5.64
5.95
7.23
8.64
9.12
7.99
5.32
1.91
-1.30
-3.60
-5.15
-6.68
-9.08
-12.67
-17.07
-21.47
-25.01
-27.27
-28.37
-28.73
-28.53
-27.55
-25.51
-22.47
-19.13
-16.58
-15.59
-16.07
-16.90
-16.45
-13.55
-8.35
-2.06
3.70
7.84
10.16
11.30
11.92
12.06
11.26
9.11
5.92
2.85
1.32
2.26
5.53
9.95
14.01
16.66
17.69
17.51
16.76
15.90
15.07
14.14
13.08
12.05
11.11
10.14
8.83
6.96
4.65
2.35
0.60
-0.44
-1.23
-2.51
-4.90
-8.30
-11.87
-14.54
-15.59
-15.10
-13.96
-13.28
-13.87
-15.73
-18.03
-19.73
-20.15
-19.31
-17.79
-16.45
-15.81
-15.94
-16.63
-17.59
-18.70
-19.90
-20.95
-21.26
-19.99
-16.46
-10.86
-4.42
1.07
4.11
4.31
2.80
1.68
2.85
6.93
12.97
18.92
22.74
23.26
20.76
16.74
12.97
10.65
10.12
11.01
12.68
14.87
17.83
22.06
27.63
33.72
38.75
41.04
39.68
35.16
29.43
25.03
23.79
25.93
29.96
33.64
35.15
34.00
31.07
28.00
25.98
25.27
25.29
25.39
25.49
26.06
27.63
30.00
31.78
30.74
25.02
14.28
0.18
-14.21
-25.56
-31.56
-31.75
-27.40
-20.60
-13.31
-6.69
-1.23
2.98
5.93
7.52
7.74
7.04
6.24
6.08
6.83
8.02
8.66
7.76
5.18
1.82
-0.72
-1.02
1.29
5.29
9.20
11.38
11.38
9.95
8.33
7.54
7.83
8.65
9.33
9.72
10.34
11.68
13.54
15.01
14.84
12.06
6.55
-1.08
-9.89
-19.04
-27.63
-34.92
-40.26
-43.37
-44.65
-45.10
-45.70
-46.77
-47.77
-47.76
-46.28
-43.80
-41.56
-40.50
-40.33
-39.61
-36.95
-32.21
-26.67
-22.32
-20.22
-19.55
-17.75
-12.06
-1.45
12.63
26.77
37.20
41.60
39.97
34.24
27.05
21.10
18.16
18.86
22.64
28.11
33.44
36.91
37.45
35.04
30.72
25.74
21.04
16.83
13.00
9.38
5.90
2.53
-1.04
-5.30
-10.59
-16.27
-21.15
-24.33
-25.97
-27.53
-30.85
-36.88
-44.66
-51.64
-55.06
-54.02
-50.34
-47.55
-48.73
-54.69
-63.55
-71.85
-77.01
-78.64
-78.30
-77.78
-77.34
-75.49
-70.14
-60.46
-47.64
-34.40
-23.15
-14.43
-6.80
1.85
12.33
23.56
33.24
39.53
42.25
42.68
42.30
41.50
39.58
35.85
31.06
27.54
28.00
33.54
42.85
52.61
59.28
60.87
57.57
51.13
43.42
35.60
28.07
21.13
15.50
11.87
10.36
9.90
8.70
5.34
-0.28
-6.62
-11.46
-13.42
-12.81
-11.23
-10.35
-10.97
-12.58
-13.96
-14.04
-12.51
-9.89
-7.18
-5.33
-5.36
-8.23
-14.40
-23.42
-33.44
-41.54
-44.59
-40.83
-30.70
-16.70
-2.31
9.69
17.91
22.69
25.35
27.26
29.26
31.42
33.47
35.05
36.06
36.50
36.51
36.13
35.18
33.48
31.08
28.47
26.52
26.32
28.64
33.62
40.34
47.09
52.10
54.25
53.66
51.56
49.72
49.52
51.25
54.13
56.88
58.59
59.14
59.26
59.90
61.62
64.41
67.87
71.64
75.49
79.06
81.08
79.24
70.53
52.60
25.13
-9.40
-46.05
-78.94
-103.07
-115.88
-117.75
-111.40
-100.57
-88.80
-78.47
-70.59
-65.03
-61.16
-58.27
-55.92
-53.86
-51.97
-49.93
-47.25
-43.52
-38.76
-33.71
-29.57
-27.38
-27.38
-28.71
-29.76
-29.04
-26.03
-21.47
-16.81
-13.33
-11.38
-10.40
-9.39
-7.74
-5.61
-3.73
-2.75
-2.79
-3.30
-3.52
-2.94
-1.73
-0.57
-0.25
-1.23
-3.46
-6.53
-10.03
-13.63
-17.20
-20.54
-23.34
-25.08
-25.47
-24.68
-23.38
-22.55
-23.00
-25.06
-28.37
-32.05
-34.94
-35.92
-34.27
-29.70
-22.50
-13.59
-4.42
3.33
8.38
10.45
10.30
9.40
9.00
9.38
9.80
9.22
7.16
4.32
2.09
1.74
3.50
6.52
9.28
10.74
10.83
10.28
10.02
10.51
11.59
12.81
13.94
14.86
15.64
16.18
16.27
15.89
15.23
14.72
14.60
14.66
14.30
12.86
10.16
6.52
2.65
-0.86
-3.73
-5.93
-7.41
-7.98
-7.45
-5.95
-4.27
-3.58
-4.99
-8.84
-14.46
-20.32
-24.88
-27.26
-27.52
-26.34
-24.48
-22.35
-19.86
-16.75
-12.82
-8.07
-2.59
3.45
9.59
14.97
18.41
18.76
15.58
9.56
2.35
-4.23
-9.09
-12.32
-14.71
-17.01
-19.00
-19.64
-17.84
-13.40
-7.28
-1.11
3.71
6.81
8.79
10.53
12.36
13.95
14.71
14.51
14.05
14.59
17.11
21.68
27.38
32.94
37.29
40.08
41.36
41.32
39.98
37.21
32.92
27.24
20.48
13.10
5.83
-0.26
-3.45
-1.73
6.23
20.02
37.07
53.52
65.80
72.41
74.30
73.97
73.37
72.52
69.58
62.43
50.63
36.39
23.51
15.01
11.22
9.91
7.96
3.72
-1.96
-6.41
-7.32
-4.68
-0.96
0.55
-2.25
-9.11
-17.70
-25.38
-30.68
-33.88
-36.19
-38.51
-40.80
-42.32
-42.44
-41.29
-39.77
-38.95
-39.28
-40.18
-40.36
-38.70
-35.18
-30.98
-27.81
-27.02
-28.82
-31.97
-34.40
-34.22
-30.71
-24.49
-16.93
-9.51
-3.24
1.56
5.05
7.38
8.52
8.52
7.84
7.29
7.70
9.30
11.48
12.94
12.54
10.04
6.24
2.56
0.29
0.02
1.45
3.65
5.70
7.11
7.86
8.24
8.54
8.86
8.83
7.94
5.84
2.71
-0.72
-3.41
-4.67
-4.66
-4.45
-5.38
-8.30
-12.79
-17.41
-20.47
-20.88
-18.66
-14.75
-10.44
-6.74
-4.07
-2.58
-2.36
-3.47
-5.72
-8.51
-11.03
-12.59
-12.90
-12.20
-11.10
-10.14
-9.44
-8.75
-7.50
-5.23
-1.66
3.08
8.51
13.83
18.11
20.33
19.64
15.70
8.95
0.65
-7.41
-13.59
-16.92
-17.53
-16.30
-14.28
-12.17
-9.96
-7.30
-3.89
-0.08
3.28
5.19
5.14
3.40
0.74
-2.05
-4.70
-7.47
-10.83
-14.81
-18.73
-21.31
-21.43
-18.74
-13.94
-8.24
-2.75
2.17
6.92
12.03
17.50
22.30
24.91
24.14
19.91
13.35
6.27
0.31
-3.71
-5.82
-6.40
-5.61
-3.47
-0.27
3.18
5.76
6.74
6.46
6.23
7.56
10.86
14.91
17.59
17.42
14.74
11.63
10.63
13.07
18.30
24.32
29.29
32.96
36.76
42.37
50.18
58.51
64.44
65.45
60.88
52.21
42.22
33.46
27.25
23.43
20.95
18.50
15.22
10.85
5.51
-0.49
-6.71
-12.40
-16.64
-18.49
-17.60
-14.71
-11.61
-10.64
-13.47
-20.27
-29.40
-38.03
-43.30
-43.71
-39.67
-32.98
-25.75
-19.37
-14.10
-9.50
-4.94
-0.26
4.23
8.05
10.74
12.07
12.10
11.13
9.81
8.95
9.06
10.24
11.99
13.62
14.68
15.38
16.41
18.26
20.52
21.64
19.82
14.16
5.48
-3.84
-10.91
-13.75
-12.32
-8.32
-4.19
-1.97
-2.57
-5.69
-10.22
-14.92
-18.76
-21.13
-21.64
-20.19
-16.81
-11.72
-5.40
1.30
7.02
10.23
9.81
5.62
-1.04
-7.84
-12.40
-13.46
-11.49
-8.35
-6.15
-5.99
-7.37
-8.71
-8.52
-6.43
-3.55
-1.82
-3.05
-8.07
-16.40
-26.48
-36.39
-44.48
-49.95
-52.97
-54.16
-53.94
-52.06
-47.63
-40.14
-30.16
-19.72
-11.61
-7.97
-9.03
-12.84
-16.73
-18.98
-19.76
-20.62
-22.81
-25.86
-27.64
-25.72
-19.34
-10.03
-0.77
6.03
9.86
12.00
14.02
16.22
17.24
15.13
9.20
1.00
-6.36
-10.19
-9.95
-7.35
-4.92
-4.16
-4.49
-3.66
0.43
8.26
18.27
27.95
35.46
40.52
44.10
47.13
49.41
49.55
45.91
38.03
27.29
16.49
8.39
4.37
3.92
5.30
6.67
7.04
6.49
5.65
4.96
4.31
3.42
2.35
1.55
1.46
1.78
1.21
-2.25
-10.08
-22.33
-37.05
-50.95
-60.88
-65.12
-63.94
-59.20
-53.19
-47.62
-43.07
-39.11
-34.92
-29.82
-23.59
-16.32
-8.38
-0.12
8.25
16.75
25.40
34.08
42.19
48.57
51.74
50.69
45.58
37.97
30.12
23.79
19.29
15.30
10.11
2.83
-5.58
-12.78
-16.42
-15.73
-11.84
-6.97
-2.79
0.64
4.57
10.21
17.24
23.73
27.30
26.90
23.65
20.34
19.73
22.67
27.56
31.60
32.65
30.64
27.36
25.07
24.93
26.09
26.11
22.36
13.28
-1.15
-19.63
-40.08
-60.06
-77.11
-89.02
-94.27
-92.14
-82.92
-67.92
-48.90
-27.57
-5.33
16.55
36.95
54.96
70.07
82.21
91.74
99.21
104.89
108.40
108.78
104.98
96.34
82.97
66.12
48.16
32.32
21.84
19.22
25.39
39.29
57.80
76.47
90.80
97.52
95.16
83.78
64.27
37.90
6.28
-28.24
-62.15
-91.02
-110.60
-118.33
-114.40
-101.85
-85.23
-68.84
-55.23
-44.79
-36.44
-28.80
-20.95
-12.80
-5.12
0.79
3.37
1.18
-6.83
-20.73
-39.35
-60.06
-79.27
-93.26
-99.26
-96.27
-85.12
-67.86
-47.04
-25.14
-4.29
13.66
27.12
34.89
36.47
32.46
24.54
14.96
5.80
-1.75
-7.47
-11.75
-14.89
-16.73
-16.80
-15.01
-12.04
-9.20
-7.71
-7.99
-9.50
-11.18
-12.19
-12.47
-12.58
-13.01
-13.50
-13.00
-10.08
-3.98
4.64
13.87
21.35
25.32
25.25
21.88
16.55
10.64
5.03
0.03
-4.46
-8.56
-12.01
-14.18
-14.43
-12.55
-9.07
-5.16
-2.23
-1.14
-1.81
-3.24
-4.06
-3.32
-0.99
2.14
4.87
6.39
6.59
5.90
4.90
4.00
3.36
3.13
3.49
4.56
6.22
8.01
9.32
9.70
9.13
7.97
6.68
5.42
3.98
1.90
-1.22
-5.51
-10.80
-16.58
-22.12
-26.52
-28.94
-28.85
-26.22
-21.70
-16.48
-11.79
-8.53
-6.99
-6.93
-7.79
-8.88
-9.60
-9.60
-8.62
-6.74
-4.22
-1.57
0.68
2.20
2.88
2.93
2.72
2.52
2.32
1.67
-0.09
-3.36
-7.89
-12.66
-16.23
-17.37
-15.78
-12.33
-8.60
-5.99
-4.99
-4.88
-4.19
-1.54
3.55
10.49
18.02
24.84
30.22
33.86
35.98
36.87
36.76
35.73
33.93
31.82
30.18
29.81
31.17
34.19
38.42
43.30
48.44
53.60
58.28
61.45
61.69
57.90
50.10
39.97
30.28
23.84
22.08
24.38
28.52
32.11
33.74
33.45
32.14
30.69
29.37
27.77
25.34
21.85
17.46
12.51
7.26
1.81
-3.83
-9.46
-14.78
-19.55
-23.64
-27.01
-29.59
-31.10
-31.17
-29.66
-26.82
-23.23
-19.58
-16.23
-13.30
-10.85
-9.18
-8.85
-10.29
-13.45
-17.70
-21.97
-25.44
-27.77
-29.24
-30.28
-31.05
-31.33
-30.78
-29.38
-27.71
-26.52
-26.28
-26.72
-26.71
-25.01
-20.89
-14.75
-7.90
-2.04
1.52
2.45
1.62
0.56
0.75
2.91
6.78
11.32
15.19
17.30
17.17
14.87
10.92
6.12
1.18
-3.34
-6.91
-8.98
-9.21
-7.60
-4.58
-0.86
2.73
5.73
8.20
10.61
13.40
16.48
19.24
20.68
20.05
17.25
12.92
8.05
3.51
-0.26
-3.30
-5.79
-7.80
-9.27
-10.32
-11.29
-12.62
-14.79
-18.00
-22.09
-26.61
-31.15
-35.34
-38.68
-40.53
-40.28
-37.73
-33.30
-28.17
-23.96
-22.02
-22.56
-24.45
-25.73
-24.66
-20.80
-15.10
-9.28
-4.54
-0.78
2.96
7.35
11.66
13.69
11.27
4.05
-5.76
-14.25
-18.21
-16.84
-12.07
-6.89
-3.24
-0.88
1.94
6.56
12.48
17.51
19.38
17.46
13.25
9.30
7.43
7.81
9.09
9.79
9.37
8.42
8.06
8.79
10.26
11.57
11.96
11.31
10.08
8.71
7.22
5.30
2.87
0.56
-0.66
-0.20
1.54
3.06
2.40
-1.71
-8.84
-16.78
-22.41
-23.35
-19.06
-11.25
-2.85
3.47
6.62
7.38
7.52
8.55
10.82
13.47
15.32
15.70
15.01
14.47
15.07
16.78
18.44
18.53
16.30
12.58
9.49
9.56
14.38
23.87
36.37
49.56
61.36
70.62
77.03
80.70
81.69
80.04
75.87
69.69
62.39
54.89
47.82
41.26
35.11
29.33
24.27
20.41
18.04
17.07
17.06
17.38
17.31
16.11
13.03
7.46
-0.74
-10.78
-20.92
-28.84
-32.58
-31.40
-26.31
-19.53
-13.43
-9.54
-8.04
-8.07
-8.65
-9.21
-9.89
-11.07
-12.80
-14.54
-15.42
-14.74
-12.61
-10.10
-8.63
-9.10
-11.41
-14.47
-16.86
-17.65
-16.77
-14.83
-12.66
-10.79
-9.30
-8.07
-7.13
-6.76
-7.37
-9.12
-11.96
-15.81
-20.70
-26.84
-34.23
-42.41
-50.50
-57.60
-63.27
-67.77
-71.75
-75.60
-79.04
-80.73
-78.90
-72.30
-61.01
-46.64
-31.74
-18.67
-8.57
-1.10
5.02
11.18
17.91
24.53
29.62
31.84
30.77
27.22
22.81
19.23
17.57
17.97
19.71
21.56
22.29
21.25
18.54
15.03
11.65
9.09
7.40
6.37
5.87
6.31
8.47
12.78
18.59
24.32
28.01
28.18
24.56
17.79
8.75
-2.09
-14.74
-29.04
-43.88
-57.09
-66.13
-69.32
-66.94
-61.16
-55.03
-50.98
-49.68
-49.84
-49.25
-46.11
-40.12
-32.44
-25.22
-20.33
-18.47
-18.94
-20.11
-20.42
-19.01
-16.05
-12.53
-9.62
-7.90
-7.23
-6.69
-5.19
-2.10
2.36
7.19
11.11
13.31
13.81
13.33
12.89
12.98
13.44
13.63
12.99
11.49
9.81
8.96
9.72
12.26
16.08
20.22
23.77
26.18
27.30
27.34
26.58
25.18
23.17
20.57
17.41
13.96
10.56
7.48
4.85
2.58
0.46
-1.58
-3.39
-4.47
-4.13
-1.84
2.40
7.90
13.24
16.77
17.10
13.67
7.10
-0.98
-8.35
-12.86
-12.93
-8.06
1.12
13.02
25.52
36.73
45.42
51.31
54.89
57.01
58.36
59.25
59.51
58.79
56.81
53.52
49.14
44.21
39.45
35.63
33.27
32.36
32.38
32.50
32.09
30.99
29.57
28.21
26.95
25.36
22.81
18.91
13.85
8.19
2.59
-2.76
-8.13
-13.99
-20.63
-27.84
-34.98
-41.15
-45.51
-47.40
-46.63
-43.68
-39.62
-35.97
-34.15
-34.89
-37.88
-41.82
-45.00
-45.89
-43.85
-39.18
-32.94
-26.45
-20.75
-16.30
-12.84
-9.55
-5.63
-0.64
5.11
10.72
15.06
17.40
17.65
16.27
13.80
10.54
6.68
2.50
-1.25
-3.42
-2.87
0.70
6.56
13.03
18.25
20.91
20.69
18.19
14.30
9.92
5.64
1.85
-1.10
-2.88
-3.40
-2.87
-1.91
-1.23
-1.28
-2.19
-3.78
-5.79
-8.11
-10.75
-13.78
-17.15
-20.74
-24.25
-27.37
-29.81
-31.26
-31.37
-29.89
-26.86
-22.68
-18.06
-13.76
-10.34
-8.07
-6.81
-6.27
-6.02
-5.63
-4.74
-3.13
-0.90
1.39
2.88
2.72
0.38
-3.90
-9.05
-13.55
-16.02
-15.69
-12.80
-8.41
-3.89
-0.38
1.56
2.01
1.44
0.24
-1.26
-2.91
-4.47
-5.56
-5.66
-4.47
-2.05
0.93
3.52
4.95
4.93
3.90
2.53
1.30
0.11
-1.65
-4.63
-8.95
-13.85
-18.01
-19.98
-18.98
-15.23
-9.74
-3.99
0.53
2.63
1.51
-3.15
-10.97
-20.72
-30.50
-38.07
-41.64
-40.47
-35.10
-27.04
-18.21
-10.07
-3.37
1.92
6.26
10.14
13.77
17.12
20.02
22.26
23.67
23.99
22.90
20.25
16.28
11.82
8.15
6.50
7.67
11.68
17.79
24.97
32.33
39.40
46.10
52.36
57.73
61.61
63.57
63.74
62.96
62.30
62.41
63.11
63.43
62.22
58.79
53.33
46.66
39.85
33.82
29.07
25.85
24.26
24.11
24.66
24.47
21.81
15.40
5.06
-7.90
-21.20
-32.32
-39.39
-41.60
-39.24
-33.27
-25.00
-15.80
-6.87
0.84
6.64
10.25
11.79
11.83
11.14
10.33
9.62
8.71
7.10
4.47
1.04
-2.27
-4.45
-5.06
-4.57
-4.16
-4.80
-6.55
-8.31
-8.44
-5.96
-1.24
4.05
8.04
9.67
9.15
7.53
5.74
3.91
1.43
-2.35
-7.38
-12.81
-17.49
-20.84
-23.17
-25.21
-27.50
-29.79
-31.32
-31.47
-30.40
-29.04
-28.50
-29.31
-31.10
-32.93
-33.82
-33.18
-30.94
-27.33
-22.58
-17.01
-11.01
-5.13
0.20
4.93
9.34
13.60
17.44
20.02
20.56
18.97
16.08
13.05
10.51
8.16
5.18
1.23
-2.83
-5.13
-4.03
0.59
6.89
11.96
13.49
11.22
6.95
3.40
2.38
3.85
6.05
6.83
4.89
0.34
-5.40
-10.68
-14.54
-17.10
-19.09
-21.06
-22.99
-24.23
-24.09
-22.52
-20.40
-19.12
-19.65
-22.05
-25.44
-28.71
-31.18
-32.91
-34.49
-36.30
-37.94
-38.53
-37.32
-34.48
-31.20
-28.85
-28.10
-28.26
-27.80
-24.99
-19.18
-11.24
-3.09
3.41
7.44
9.42
10.51
11.77
13.28
14.11
13.05
9.54
4.32
-0.94
-4.28
-4.55
-1.81
2.70
7.42
11.46
14.89
18.44
22.72
27.45
31.40
33.05
31.64
27.83
23.50
20.63
19.98
20.54
20.07
16.72
10.53
3.75
-0.55
-0.64
2.28
4.40
1.69
-7.29
-19.81
-30.30
-33.42
-27.41
-14.94
-1.25
9.00
13.88
13.91
10.27
2.97
-9.12
-26.47
-46.81
-64.98
-75.02
-73.33
-60.73
-41.89
-22.61
-6.76
5.28
15.61
26.64
39.24
52.37
63.96
72.20
76.45
77.42
76.53
75.17
73.95
72.59
70.44
67.12
63.10
59.75
58.66
60.72
65.39
70.85
74.63
74.70
70.32
62.20
52.14
42.23
33.97
27.93
23.56
19.51
14.32
7.15
-1.74
-11.12
-19.49
-25.81
-29.81
-31.91
-32.65
-32.39
-31.58
-31.12
-32.42
-36.67
-43.94
-52.61
-59.82
-62.80
-60.38
-53.70
-45.49
-38.45
-33.91
-31.48
-29.61
-27.00
-23.35
-19.26
-15.52
-12.37
-9.38
-6.04
-2.47
0.46
1.64
0.65
-1.78
-4.10
-4.76
-3.24
-0.06
3.68
7.18
10.27
13.05
15.51
17.20
17.56
16.59
14.97
13.67
13.27
13.37
12.92
11.08
7.93
4.59
2.33
1.54
1.26
-0.14
-3.68
-8.91
-14.14
-17.90
-20.21
-22.81
-27.85
-35.96
-45.33
-52.37
-53.87
-49.06
-40.21
-31.12
-24.71
-21.48
-19.56
-16.71
-12.33
-8.06
-6.43
-8.86
-14.25
-19.57
-21.82
-19.91
-15.26
-10.63
-8.45
-9.46
-12.83
-16.99
-20.72
-23.59
-25.77
-27.48
-28.67
-28.86
-27.41
-23.76
-17.47
-8.57
2.20
13.21
22.05
26.48
25.64
20.82
15.07
11.53
11.50
13.55
14.36
10.96
2.74
-8.00
-17.42
-22.56
-23.15
-21.35
-19.90
-19.76
-19.43
-16.22
-8.66
1.68
10.71
13.97
9.49
-1.22
-14.15
-25.33
-32.73
-36.61
-38.44
-39.16
-38.44
-35.11
-28.45
-18.97
-8.30
1.75
9.91
15.69
19.22
21.00
21.75
22.37
23.72
26.06
28.56
29.48
27.17
21.44
14.03
7.84
5.19
6.38
9.81
13.36
16.31
19.73
25.34
33.43
41.92
47.39
47.51
42.73
36.06
30.86
28.41
27.30
24.90
19.99
14.19
10.99
12.98
19.85
28.50
35.36
39.12
41.52
45.79
53.62
63.46
71.11
72.39
65.69
52.85
37.75
23.93
12.88
4.32
-2.33
-6.70
-7.46
-3.81
3.20
10.46
14.40
12.97
6.88
-1.14
-8.12
-12.78
-15.95
-19.51
-24.66
-30.83
-36.03
-38.20
-36.81
-33.26
-29.97
-28.75
-29.64
-30.77
-29.44
-23.78
-14.05
-2.71
6.77
11.78
11.79
8.47
4.57
2.06
1.15
0.35
-2.24
-7.42
-14.28
-20.83
-25.26
-27.23
-27.97
-29.33
-32.48
-37.05
-41.28
-42.91
-40.40
-33.71
-24.13
-13.73
-4.24
3.41
9.16
13.49
17.08
20.30
23.09
25.13
26.03
25.80
24.97
24.52
25.40
27.75
30.58
32.13
31.06
27.40
22.88
19.96
20.31
23.60
27.63
29.74
28.43
24.04
17.99
11.57
5.12
-1.68
-8.90
-15.58
-20.04
-20.90
-18.10
-13.22
-8.44
-5.39
-4.48
-5.10
-6.44
-8.06
-10.10
-12.90
-16.77
-21.77
-27.81
-34.78
-42.27
-49.35
-54.88
-57.99
-58.54
-57.34
-55.49
-53.49
-50.89
-46.89
-41.10
-34.17
-27.72
-23.46
-22.16
-23.02
-24.16
-23.81
-21.38
-17.71
-14.33
-12.26
-11.27
-10.09
-7.51
-3.53
0.33
1.77
-0.87
-7.21
-14.64
-19.60
-19.32
-13.30
-3.73
5.76
12.46
16.00
18.21
21.40
26.64
32.77
37.19
37.77
34.57
29.97
26.84
26.39
27.11
25.88
20.46
11.37
1.95
-3.86
-4.32
-1.07
2.18
2.61
0.39
-1.78
-1.21
2.22
5.68
5.39
-0.24
-8.96
-15.87
-16.85
-11.46
-3.39
2.04
1.12
-6.22
-16.85
-26.77
-33.31
-35.86
-34.95
-30.97
-23.50
-12.12
2.41
17.57
29.77
36.11
36.12
32.23
28.51
28.56
33.57
41.88
50.14
55.41
56.85
55.75
54.29
53.73
53.68
52.68
49.68
45.17
41.01
39.11
39.96
42.20
43.49
42.06
37.69
31.81
26.42
22.92
21.45
21.12
20.74
19.51
17.32
14.59
12.04
10.38
10.02
10.92
12.55
13.89
13.88
11.75
7.40
1.30
-5.87
-13.71
-22.31
-31.89
-42.22
-52.08
-59.35
-61.76
-58.07
-48.78
-36.38
-24.27
-15.42
-11.23
-11.31
-14.16
-18.18
-22.51
-26.87
-31.04
-34.22
-35.26
-33.39
-29.06
-24.10
-20.86
-20.81
-23.53
-26.89
-28.28
-26.03
-20.28
-12.55
-4.50
3.09
10.57
18.42
26.27
32.49
35.00
32.60
26.16
18.12
11.20
6.85
4.54
2.61
-0.18
-3.49
-5.61
-4.78
-0.88
4.01
6.56
4.29
-2.84
-12.32
-20.54
-24.88
-24.94
-22.34
-19.37
-17.45
-16.59
-15.81
-14.14
-11.29
-7.72
-4.19
-1.38
0.35
0.80
-0.17
-2.50
-5.63
-8.38
-9.15
-6.67
-0.62
8.09
17.64
26.00
31.59
33.79
32.81
29.20
23.50
16.20
8.09
0.54
-4.74
-6.48
-4.54
-0.15
4.59
7.86
9.09
9.18
9.63
11.38
14.00
15.90
15.28
11.17
4.10
-4.42
-12.78
-20.02
-26.09
-31.31
-36.01
-40.13
-43.26
-44.97
-45.13
-44.06
-42.41
-40.75
-39.40
-38.44
-37.86
-37.63
-37.72
-38.09
-38.52
-38.54
-37.67
-35.62
-32.55
-28.89
-25.16
-21.72
-18.54
-15.34
-11.76
-7.79
-3.80
-0.29
2.38
4.29
5.78
7.15
8.30
8.60
7.26
3.98
-0.57
-4.75
-6.68
-5.12
0.03
7.68
16.13
23.71
29.28
32.32
32.89
31.56
29.26
27.09
25.94
26.07
26.94
27.52
26.90
24.97
22.64
21.23
21.55
23.28
25.26
26.39
26.60
27.15
29.92
36.09
45.10
54.63
61.55
63.50
59.90
52.04
42.18
32.43
24.17
18.16
15.04
15.26
18.87
24.87
31.27
35.71
36.67
34.22
29.90
25.71
22.94
21.52
20.36
18.30
14.93
10.76
6.66
3.16
0.34
-1.99
-3.64
-4.06
-2.73
0.20
3.69
6.19
6.47
4.17
-0.35
-6.31
-12.93
-19.50
-25.26
-29.20
-30.30
-28.21
-23.82
-19.22
-16.84
-18.06
-22.47
-28.03
-32.23
-33.46
-31.98
-29.67
-28.97
-31.40
-36.88
-43.67
-49.28
-51.62
-49.88
-44.74
-37.86
-31.01
-25.35
-21.07
-17.44
-13.22
-7.52
-0.25
7.72
15.10
20.72
24.16
25.80
26.38
26.38
25.73
23.99
20.92
17.03
13.60
12.13
13.54
17.64
23.15
28.44
32.12
33.63
33.19
31.65
29.92
28.70
28.19
28.10
27.79
26.54
23.94
19.92
14.92
9.60
4.62
0.43
-2.89
-5.51
-7.90
-10.83
-15.37
-22.75
-33.64
-47.60
-62.82
-76.53
-85.76
-88.57
-85.08
-77.65
-70.13
-66.45
-69.09
-78.25
-91.70
-105.50
-115.31
-117.71
-110.96
-95.33
-72.95
-47.27
-22.26
-1.58
12.16
17.94
16.44
9.84
1.04
-7.06
-12.26
-13.32
-10.11
-3.60
4.38
11.79
17.06
19.55
19.74
18.99
18.86
20.12
22.31
23.96
23.43
19.64
12.47
2.72
-8.28
-19.22
-29.05
-36.97
-42.49
-45.43
-45.92
-44.48
-41.70
-38.05
-33.59
-28.06
-21.06
-12.53
-2.97
6.56
14.68
20.21
22.50
21.46
17.61
11.95
5.87
1.15
-0.13
4.05
15.03
32.79
55.31
78.52
97.10
105.77
101.04
82.52
53.27
19.30
-12.08
-34.21
-42.66
-36.12
-16.19
13.28
47.41
81.15
110.06
130.80
141.47
141.92
133.76
120.21
105.34
93.11
86.31
85.91
90.88
98.61
105.76
109.28
107.26
99.46
87.07
72.08
56.17
39.93
22.72
3.34
-19.11
-44.31
-70.50
-94.99
-114.98
-128.13
-132.92
-128.75
-115.95
-95.91
-71.06
-44.55
-19.54
1.65
17.98
29.68
37.53
42.22
43.89
42.33
37.44
29.69
20.22
10.71
2.83
-2.15
-3.77
-2.40
0.74
4.18
6.65
7.53
6.79
4.73
1.65
-2.24
-6.74
-11.38
-15.26
-17.35
-17.10
-14.90
-12.23
-11.21
-13.72
-20.58
-31.21
-43.69
-55.34
-63.63
-66.89
-64.73
-58.00
-48.18
-36.85
-25.23
-14.05
-3.81
4.86
11.07
13.91
12.87
8.21
0.95
-7.48
-15.61
-22.28
-26.65
-28.06
-26.07
-20.60
-12.31
-2.69
6.18
12.19
13.77
10.45
2.91
-7.31
-18.38
-28.65
-36.87
-42.27
-44.32
-42.74
-37.45
-28.94
-18.31
-7.25
2.45
9.35
12.75
12.70
9.91
5.34
0.12
-4.73
-8.32
-10.04
-9.67
-7.43
-3.88
0.23
4.24
7.75
10.54
12.49
13.45
13.19
11.42
7.96
2.72
-4.06
-11.56
-18.40
-22.85
-23.56
-20.01
-12.79
-3.39
6.43
15.24
22.24
27.23
30.23
31.32
30.48
27.82
23.81
19.18
14.71
10.84
7.53
4.36
0.95
-2.63
-5.83
-7.80
-8.07
-6.85
-5.10
-4.25
-5.32
-8.53
-13.12
-17.69
-21.00
-22.38
-22.03
-20.84
-19.93
-20.13
-21.76
-24.54
-27.77
-30.70
-32.69
-33.45
-33.15
-32.28
-31.46
-31.04
-30.84
-30.16
-28.29
-24.98
-20.72
-16.47
-13.03
-10.54
-8.73
-7.32
-6.46
-6.90
-9.32
-13.48
-17.74
-19.60
-16.95
-9.31
1.84
13.78
23.88
31.05
36.00
40.48
46.02
52.99
60.50
67.06
71.46
73.38
73.41
72.42
70.95
69.05
66.53
63.55
60.74
58.92
58.49
59.13
59.84
59.61
58.11
55.68
52.84
49.62
45.54
40.16
33.56
26.53
19.99
14.38
9.04
2.75
-5.40
-15.24
-25.36
-33.69
-38.53
-39.24
-36.43
-31.54
-26.34
-22.56
-21.62
-24.40
-30.98
-40.33
-50.25
-57.86
-60.49
-56.79
-47.35
-34.67
-22.22
-12.93
-7.88
-6.13
-5.52
-4.10
-1.20
2.58
6.23
9.36
12.30
15.49
18.62
20.46
19.70
16.22
11.35
7.07
4.54
3.53
2.96
2.19
1.96
3.84
8.60
14.97
20.09
21.38
18.51
13.70
10.20
9.68
10.91
10.45
5.36
-4.44
-15.92
-24.86
-28.79
-28.56
-27.63
-29.59
-35.79
-44.53
-52.41
-56.63
-56.78
-54.73
-53.12
-53.42
-54.99
-55.57
-52.98
-46.39
-36.87
-26.56
-17.59
-11.23
-7.72
-6.61
-7.01
-7.91
-8.11
-6.75
-3.46
1.31
6.56
11.41
15.52
19.18
22.60
25.53
27.12
26.64
24.29
21.35
19.56
19.88
21.75
23.40
22.98
19.85
15.01
10.56
8.29
8.70
10.84
13.11
14.27
14.04
12.95
11.58
9.98
7.47
3.17
-3.32
-11.24
-19.03
-25.01
-28.31
-29.30
-29.44
-30.31
-32.75
-36.39
-40.02
-42.48
-43.32
-43.03
-42.62
-42.94
-43.99
-45.02
-44.85
-42.57
-37.80
-30.65
-21.71
-11.86
-2.22
5.94
11.53
14.14
14.26
13.22
12.52
12.92
14.13
15.13
15.10
14.01
12.82
12.84
14.90
18.83
23.68
28.32
32.15
35.16
37.68
39.96
41.90
43.11
43.22
42.11
39.99
37.25
34.30
31.51
29.19
27.54
26.57
26.06
25.60
24.77
23.31
21.18
18.55
15.82
13.51
12.31
12.99
16.07
21.53
28.50
35.29
39.74
39.98
35.14
25.83
14.09
2.55
-6.34
-11.08
-11.24
-7.39
-0.83
6.73
13.37
17.51
18.27
15.89
11.50
6.69
2.64
-0.35
-2.89
-5.92
-10.10
-15.28
-20.65
-25.32
-28.74
-30.86
-31.84
-31.68
-30.01
-26.28
-20.29
-12.42
-3.88
3.79
9.36
12.36
13.23
12.94
12.36
11.81
11.05
9.59
7.09
3.60
-0.57
-5.08
-9.76
-14.57
-19.38
-23.72
-26.93
-28.37
-27.86
-25.81
-23.00
-20.29
-18.13
-16.50
-14.91
-12.75
-9.62
-5.58
-1.26
2.34
4.25
3.95
1.69
-1.61
-4.62
-6.06
-5.15
-1.87
3.17
8.92
14.25
18.18
20.11
19.89
17.87
14.83
11.76
9.47
8.50
8.79
9.91
11.26
12.28
12.66
12.41
11.72
10.87
10.02
9.08
7.78
5.77
2.86
-0.74
-4.50
-7.74
-9.97
-11.13
-11.67
-12.29
-13.53
-15.58
-18.17
-20.85
-23.35
-25.70
-28.27
-31.49
-35.55
-40.12
-44.46
-47.56
-48.53
-47.01
-43.20
-37.80
-31.74
-25.92
-21.06
-17.65
-15.89
-15.64
-16.34
-17.15
-17.14
-15.65
-12.53
-8.25
-3.66
0.36
3.01
3.90
3.01
0.70
-2.28
-4.94
-6.21
-5.39
-2.43
2.00
6.78
10.83
13.42
14.39
14.13
13.23
12.26
11.64
11.40
11.30
10.88
9.61
7.07
3.19
-1.72
-6.98
-11.72
-15.12
-16.69
-16.36
-14.52
-11.82
-9.00
-6.62
-4.93
-3.95
-3.49
-3.42
-3.69
-4.30
-5.28
-6.66
-8.55
-10.97
-13.84
-16.64
-18.47
-18.28
-15.35
-9.69
-2.10
6.06
13.50
19.45
23.85
27.07
29.54
31.36
32.29
32.00
30.38
27.76
24.91
22.65
21.45
21.30
21.71
21.93
21.45
20.34
19.22
19.06
20.72
24.50
30.04
36.49
42.79
48.00
51.54
53.16
53.03
51.55
49.29
46.68
43.96
41.09
37.92
34.44
30.90
27.74
25.35
23.80
22.72
21.34
18.84
14.59
8.40
0.64
-7.85
-15.98
-22.52
-26.43
-27.09
-24.67
-20.16
-15.18
-11.38
-9.83
-10.51
-12.37
-13.95
-14.04
-12.24
-9.03
-5.46
-2.68
-1.43
-1.86
-3.63
-6.12
-8.65
-10.65
-11.74
-11.81
-11.01
-9.62
-7.81
-5.55
-2.79
0.31
3.29
5.44
6.09
5.00
2.56
-0.36
-2.84
-4.26
-4.74
-4.92
-5.72
-7.77
-11.20
-15.59
-20.30
-24.81
-28.89
-32.62
-36.17
-39.70
-43.21
-46.59
-49.63
-51.93
-52.87
-51.58
-47.37
-40.08
-30.51
-20.23
-11.11
-4.59
-1.20
-0.45
-1.15
-1.92
-1.63
0.36
4.06
8.91
13.95
18.10
20.50
20.82
19.49
17.37
15.38
13.99
13.06
12.10
10.77
9.21
7.97
7.58
8.13
9.08
9.43
8.35
5.56
1.62
-2.42
-5.49
-7.15
-7.64
-7.70
-8.04
-9.02
-10.58
-12.47
-14.57
-16.86
-19.44
-22.21
-24.93
-27.28
-29.25
-31.17
-33.57
-36.64
-39.79
-41.72
-40.96
-36.75
-29.53
-20.95
-13.17
-7.75
-5.12
-4.57
-4.78
-4.53
-3.16
-0.65
2.62
6.24
9.88
13.23
15.89
17.31
16.96
14.64
10.73
6.25
2.62
1.19
2.72
7.18
13.78
21.12
27.63
31.98
33.45
32.07
28.58
24.19
20.13
17.39
16.29
16.53
17.30
17.62
16.57
13.63
8.84
2.85
-3.14
-7.60
-9.09
-6.83
-1.14
6.47
13.62
17.87
17.64
12.81
4.96
-3.08
-8.28
-8.30
-2.41
8.38
21.66
34.47
44.42
50.25
52.12
51.11
48.48
45.23
41.79
38.20
34.44
30.71
27.32
24.50
22.16
19.94
17.48
14.70
11.92
9.66
8.29
7.74
7.55
7.00
5.63
3.38
0.62
-2.00
-3.94
-4.81
-4.56
-3.35
-1.49
0.49
2.06
2.60
1.66
-0.87
-4.66
-9.00
-12.81
-15.24
-15.95
-15.45
-14.86
-15.49
-18.07
-22.34
-26.95
-29.96
-29.65
-25.20
-17.19
-7.25
2.46
10.05
14.59
16.25
16.03
15.14
14.27
13.39
11.98
9.63
6.56
3.35
0.59
-1.81
-4.41
-7.72
-11.42
-14.30
-14.72
-11.74
-5.86
1.09
7.03
10.59
11.74
11.35
10.27
8.68
6.23
2.52
-2.41
-7.99
-13.49
-18.55
-23.31
-28.23
-33.52
-38.76
-43.11
-45.62
-45.92
-44.36
-42.03
-40.21
-39.76
-40.83
-42.84
-44.86
-46.09
-46.17
-45.24
-43.61
-41.29
-37.81
-32.64
-25.94
-18.77
-12.74
-9.28
-8.90
-10.68
-12.50
-12.15
-8.50
-2.08
5.25
11.18
13.97
13.24
9.98
5.88
2.48
0.58
0.28
1.15
2.76
4.89
7.69
11.29
15.51
19.78
23.39
25.99
27.53
28.31
28.53
28.11
26.72
24.12
20.52
16.40
12.09
7.61
3.09
-0.75
-2.63
-1.46
2.60
7.63
10.64
9.33
3.63
-4.10
-10.59
-13.93
-14.56
-14.85
-16.95
-20.98
-24.94
-26.50
-25.07
-22.51
-22.01
-25.72
-33.10
-40.83
-44.62
-41.48
-31.25
-16.42
-0.73
12.52
21.74
27.18
30.41
33.26
37.06
42.24
48.30
54.05
58.09
59.40
57.50
52.72
46.12
39.31
34.04
31.62
32.60
36.66
42.98
50.63
58.87
67.15
74.81
80.79
83.80
82.84
77.91
70.18
61.41
53.15
46.08
39.82
33.42
26.36
19.12
12.89
8.82
7.15
6.84
5.96
2.72
-3.31
-10.86
-17.66
-21.98
-23.63
-24.38
-26.83
-32.86
-42.27
-52.69
-60.89
-64.36
-62.70
-57.42
-50.85
-44.76
-39.81
-35.60
-31.25
-26.23
-20.42
-14.07
-7.58
-1.71
2.57
4.34
3.26
-0.26
-4.99
-9.33
-11.95
-12.29
-10.70
-7.92
-4.73
-1.60
1.37
4.36
7.67
11.33
14.96
17.74
18.66
17.08
13.11
7.65
1.91
-3.18
-7.32
-10.65
-13.28
-15.15
-16.10
-16.05
-15.27
-14.37
-13.96
-13.98
-13.89
-13.62
-13.99
-16.62
-22.84
-32.68
-44.28
-54.44
-60.39
-61.33
-58.63
-54.63
-50.85
-47.01
-41.57
-32.96
-21.36
-8.99
0.98
6.57
8.26
8.38
9.52
12.77
17.16
20.62
21.37
19.22
15.60
12.30
10.07
8.53
6.80
4.45
2.08
0.95
2.13
5.44
9.42
12.16
12.58
11.03
9.03
8.16
8.94
10.33
10.31
7.30
1.39
-5.48
-10.67
-12.36
-10.75
-8.24
-8.10
-12.48
-21.01
-30.91
-38.48
-41.29
-39.37
-35.06
-31.54
-30.69
-32.03
-33.30
-32.28
-28.46
-23.67
-20.82
-21.86
-26.42
-31.73
-34.46
-32.76
-27.34
-20.87
-16.16
-14.37
-14.56
-14.41
-11.89
-6.51
0.64
7.95
14.41
20.00
25.26
30.55
35.40
38.47
38.07
33.10
23.83
11.79
-0.41
-9.90
-14.31
-12.73
-5.95
3.89
14.12
22.74
29.04
33.71
37.92
41.96
44.80
44.88
41.43
35.40
29.26
25.64
25.73
28.43
31.26
32.11
30.68
28.42
27.25
28.36
31.50
35.57
39.59
43.32
46.90
49.77
50.31
46.48
37.28
23.72
8.74
-3.94
-11.33
-12.24
-7.35
1.46
12.02
22.24
30.30
34.95
35.78
33.19
28.34
22.62
17.19
12.52
8.30
3.94
-0.90
-6.05
-11.13
-15.56
-18.86
-20.89
-21.84
-21.97
-21.26
-19.49
-16.49
-12.53
-8.34
-5.09
-3.90
-5.13
-8.04
-11.04
-12.61
-11.90
-9.28
-6.31
-4.99
-6.84
-11.98
-19.07
-25.81
-29.97
-30.42
-27.65
-23.58
-20.47
-19.79
-21.58
-24.71
-27.75
-29.66
-30.20
-29.64
-28.30
-26.05
-22.52
-17.59
-11.88
-6.50
-2.62
-0.70
-0.15
0.58
3.23
8.54
15.80
22.84
26.99
26.40
21.19
13.63
7.02
3.90
4.60
7.28
9.07
8.11
4.92
2.01
2.10
5.98
11.58
15.12
13.46
6.32
-3.46
-11.68
-15.52
-15.23
-13.56
-13.77
-17.13
-22.29
-26.43
-27.37
-25.11
-21.84
-20.30
-21.97
-26.32
-31.39
-35.27
-37.10
-37.45
-37.52
-38.28
-39.89
-41.80
-43.17
-43.26
-41.64
-38.18
-33.02
-26.59
-19.59
-12.96
-7.52
-3.65
-1.17
0.56
2.12
3.82
5.53
6.88
7.61
7.78
7.75
7.88
8.45
9.56
11.20
13.43
16.49
20.55
25.45
30.58
34.93
37.70
38.50
37.41
34.85
31.35
27.39
23.38
19.72
16.61
14.00
11.39
8.14
3.78
-1.53
-6.99
-11.49
-14.28
-15.38
-15.56
-15.74
-16.00
-15.46
-12.98
-8.24
-2.38
2.09
2.51
-2.29
-11.12
-20.79
-27.60
-29.13
-25.12
-17.19
-7.61
2.01
11.28
20.57
30.22
39.91
48.59
55.10
58.77
59.79
59.11
57.94
57.05
56.46
55.55
53.53
50.05
45.32
40.14
35.41
31.77
29.40
28.35
28.58
29.95
31.88
33.37
33.28
30.99
26.94
22.38
18.67
16.30
14.50
11.84
7.28
1.04
-5.67
-11.55
-16.04
-19.50
-22.76
-26.26
-29.78
-32.79
-35.05
-36.86
-38.79
-41.09
-43.45
-45.07
-44.92
-42.28
-37.02
-29.79
-21.97
-15.22
-11.03
-10.06
-11.70
-14.21
-15.60
-14.79
-12.06
-8.82
-6.70
-6.55
-8.07
-10.14
-11.63
-12.06
-11.52
-10.31
-8.70
-6.82
-4.45
-1.28
2.61
6.67
9.88
11.23
10.15
7.02
3.16
0.23
-0.73
0.03
1.11
0.91
-1.46
-5.56
-9.90
-12.92
-14.04
-14.06
-14.44
-16.18
-19.25
-22.63
-25.22
-26.84
-28.36
-31.10
-35.50
-40.11
-42.02
-38.66
-29.55
-16.97
-5.08
2.26
3.64
0.70
-3.18
-4.98
-3.61
0.06
4.37
8.21
11.63
15.43
19.87
23.97
25.92
24.39
19.63
13.53
8.64
6.90
8.73
13.04
18.02
22.06
24.25
24.27
22.31
18.94
15.03
11.44
8.70
6.72
4.91
2.57
-0.49
-3.63
-5.91
-6.79
-6.56
-6.08
-5.94
-5.92
-5.20
-3.09
0.30
3.78
5.71
4.97
1.57
-3.33
-8.07
-11.19
-11.80
-9.90
-6.34
-2.54
-0.04
0.10
-2.09
-5.46
-8.35
-9.52
-8.93
-7.87
-8.06
-10.65
-15.46
-21.12
-25.92
-28.74
-29.45
-28.81
-27.68
-26.36
-24.40
-21.03
-15.95
-9.84
-4.17
-0.34
1.15
1.14
1.44
3.58
7.74
12.34
15.10
14.55
10.88
5.94
2.09
0.91
2.41
5.46
8.79
11.94
15.38
19.94
26.05
33.28
40.53
46.47
50.16
51.33
50.37
48.22
46.15
45.31
46.12
47.77
48.62
47.28
43.49
38.34
33.59
30.46
28.75
27.17
24.56
21.09
18.39
18.20
20.70
23.83
24.21
19.33
9.37
-2.46
-11.62
-14.82
-11.78
-5.20
1.10
4.16
3.21
-0.61
-5.45
-10.05
-14.28
-18.77
-23.89
-29.07
-32.78
-33.22
-29.48
-22.43
-14.68
-9.31
-8.27
-11.12
-15.26
-17.63
-16.68
-13.63
-11.44
-12.71
-17.49
-22.98
-25.32
-22.28
-14.98
-7.18
-2.77
-3.33
-7.19
-10.98
-12.02
-10.01
-6.68
-4.14
-3.28
-3.38
-3.03
-1.51
0.37
0.94
-0.89
-4.67
-8.67
-11.02
-11.06
-9.62
-8.38
-8.50
-9.57
-9.81
-7.20
-0.94
7.91
16.87
23.24
25.46
23.70
19.46
14.68
10.71
8.06
6.67
6.28
6.70
7.82
9.40
10.76
10.95
9.32
6.25
2.99
0.83
0.32
1.06
1.93
1.66
-0.58
-4.55
-9.21
-13.34
-16.17
-17.23
-16.42
-14.16
-11.23
-8.54
-6.85
-6.64
-7.81
-9.71
-11.61
-13.36
-15.56
-18.74
-22.84
-26.84
-29.29
-28.80
-25.06
-19.16
-13.44
-10.17
-10.14
-12.56
-15.69
-17.89
-18.49
-18.18
-18.51
-20.73
-24.81
-29.63
-33.93
-37.10
-39.27
-40.91
-42.31
-42.81
-41.08
-36.10
-28.13
-18.83
-10.53
-5.11
-3.22
-4.14
-6.16
-7.45
-6.87
-4.29
-0.40
3.67
6.67
7.60
6.10
2.58
-1.81
-5.49
-7.05
-5.78
-1.74
4.53
12.45
21.61
31.55
41.27
49.39
54.52
56.10
54.95
52.93
51.89
52.49
53.87
54.35
52.61
48.81
44.55
41.73
41.15
42.08
42.91
42.37
40.43
38.32
37.68
39.31
42.55
45.32
45.22
40.54
31.05
18.07
4.10
-8.11
-16.39
-19.78
-18.87
-15.33
-11.42
-9.00
-8.84
-10.44
-12.54
-13.93
-14.03
-12.99
-11.38
-9.85
-8.79
-8.23
-8.07
-8.32
-9.05
-10.29
-11.88
-13.38
-14.13
-13.51
-11.09
-6.98
-1.72
3.86
8.90
12.74
15.10
16.15
16.36
16.27
16.31
16.67
17.32
18.04
18.46
18.23
17.08
14.89
11.81
8.07
3.89
-0.67
-5.71
-11.24
-17.02
-22.59
-27.49
-31.48
-34.49
-36.55
-37.39
-36.48
-33.25
-27.67
-20.62
-13.79
-9.06
-7.72
-9.80
-14.07
-18.65
-21.69
-22.13
-20.02
-16.23
-12.01
-8.49
-6.33
-5.59
-5.93
-6.81
-7.82
-8.63
-9.05
-8.95
-8.30
-7.12
-5.48
-3.51
-1.45
0.48
1.96
2.73
2.49
1.08
-1.48
-4.90
-8.74
-12.52
-15.91
-18.75
-20.92
-22.26
-22.59
-21.85
-20.35
-18.80
-18.12
-19.06
-21.79
-25.83
-30.25
-34.18
-37.28
-39.91
-42.72
-46.15
-49.91
-53.02
-54.16
-52.20
-46.80
-38.49
-28.40
-17.90
-8.08
0.32
7.02
12.19
16.18
19.55
22.67
25.60
28.06
29.56
29.78
28.84
27.18
25.28
23.32
21.16
18.52
15.36
12.18
9.89
9.34
10.68
13.07
15.07
15.39
13.59
10.37
7.18
5.33
5.23
6.31
7.51
8.07
7.87
7.35
6.86
6.16
4.61
1.79
-1.72
-4.27
-4.09
-0.28
6.36
13.55
18.69
20.08
17.77
13.21
8.56
5.70
5.84
9.50
16.65
26.76
38.77
50.96
61.30
68.15
70.75
69.58
65.91
61.26
56.86
53.24
50.34
47.80
45.27
42.40
38.97
34.84
30.05
24.91
19.78
15.08
11.00
7.59
4.70
2.29
0.41
-0.90
-1.72
-2.46
-3.71
-5.96
-9.17
-12.82
-16.06
-18.35
-19.88
-21.43
-23.98
-27.81
-32.20
-35.68
-36.89
-35.50
-32.60
-30.05
-29.47
-31.21
-34.06
-35.94
-35.03
-30.77
-24.08
-16.72
-10.52
-6.48
-4.50
-3.48
-2.14
0.33
3.93
7.87
10.93
12.02
10.67
7.14
2.35
-2.64
-6.89
-9.89
-11.49
-11.88
-11.22
-9.58
-7.05
-3.79
-0.28
2.82
4.65
4.50
2.16
-1.90
-6.65
-11.10
-14.71
-17.61
-20.38
-23.66
-27.56
-31.58
-35.07
-37.52
-38.98
-39.81
-40.50
-41.30
-42.23
-43.19
-44.05
-44.89
-45.70
-46.29
-46.03
-44.17
-40.06
-33.59
-25.38
-16.62
-8.71
-2.55
1.80
5.14
8.81
13.93
20.88
28.90
36.39
41.66
43.70
42.51
39.03
34.53
29.98
25.79
21.79
17.66
13.34
9.23
5.90
3.80
2.90
2.65
2.26
1.07
-1.14
-4.24
-7.95
-12.04
-16.30
-20.56
-24.53
-27.72
-29.67
-30.07
-28.87
-26.34
-22.91
-19.06
-15.19
-11.48
-7.85
-4.04
0.08
4.22
7.55
8.93
7.41
2.90
-3.57
-10.10
-14.80
-16.53
-15.27
-11.95
-7.77
-3.44
0.93
5.68
11.17
17.32
23.71
29.68
34.67
38.38
40.81
41.99
41.99
40.75
38.21
34.48
30.01
25.55
22.09
20.46
21.13
23.99
28.45
33.62
38.64
42.78
45.48
46.46
45.77
43.99
42.13
41.25
41.83
43.49
45.04
45.05
42.85
38.78
34.00
29.78
26.71
24.63
22.99
21.41
20.04
19.25
19.04
18.59
16.43
11.05
1.74
-10.90
-24.96
-37.73
-46.50
-49.58
-46.75
-39.36
-29.89
-20.89
-14.25
-10.60
-9.45
-9.79
-10.70
-11.51
-11.77
-11.09
-9.04
-5.63
-1.48
2.04
3.47
1.97
-2.09
-7.25
-11.74
-14.34
-14.82
-13.69
-11.66
-9.24
-6.70
-4.31
-2.59
-2.21
-3.51
-6.20
-9.26
-11.43
-11.93
-10.86
-9.15
-7.96
-7.97
-8.95
-10.18
-10.95
-11.10
-11.05
-11.35
-12.31
-13.84
-15.62
-17.48
-19.61
-22.46
-26.33
-30.94
-35.44
-38.66
-39.64
-37.96
-33.70
-27.33
-19.53
-11.24
-3.64
2.00
4.77
4.65
2.75
0.86
0.82
3.56
8.78
15.05
20.65
24.23
25.34
24.28
21.80
18.80
16.08
14.30
13.88
14.90
17.11
19.89
22.51
24.34
25.02
24.45
22.79
20.30
17.18
13.57
9.52
5.04
0.12
-5.05
-10.00
-14.17
-16.94
-18.11
-17.93
-17.01
-16.07
-15.69
-15.96
-16.75
-17.72
-18.50
-18.83
-18.56
-17.81
-17.00
-16.84
-18.11
-21.27
-26.25
-32.29
-38.16
-42.61
-44.82
-44.76
-43.16
-41.14
-39.83
-39.91
-41.43
-43.90
-46.49
-48.26
-48.30
-45.95
-40.90
-33.36
-24.01
-13.93
-4.39
3.66
9.81
14.33
17.95
21.37
24.96
28.67
32.18
35.18
37.47
38.93
39.44
38.98
37.77
36.37
35.62
36.28
38.50
41.77
45.10
47.48
48.47
48.34
47.73
47.18
46.95
46.81
46.44
45.64
44.48
43.14
41.78
40.45
39.07
37.59
36.07
34.69
33.71
33.33
33.49
33.92
34.18
33.81
32.61
30.63
28.16
25.48
22.72
19.75
16.07
11.02
4.04
-5.02
-15.57
-26.11
-34.64
-39.27
-38.97
-34.19
-26.80
-19.28
-13.77
-11.24
-11.37
-13.08
-15.29
-17.34
-19.03
-20.38
-21.40
-22.00
-22.21
-22.21
-22.28
-22.51
-22.61
-21.91
-19.68
-15.67
-10.28
-4.45
0.79
4.77
7.39
8.92
9.76
10.23
10.50
10.62
10.53
10.10
9.06
7.13
4.06
-0.08
-4.89
-9.69
-13.92
-17.33
-20.08
-22.43
-24.58
-26.49
-27.93
-28.86
-29.46
-30.12
-31.09
-32.30
-33.37
-33.88
-33.66
-32.90
-31.96
-31.01
-29.76
-27.62
-24.11
-19.26
-13.71
-8.34
-3.77
-0.09
3.15
6.61
10.59
14.95
19.21
22.93
25.95
28.19
29.36
28.82
25.84
20.21
12.77
5.27
-0.34
-2.89
-2.55
-0.67
1.12
1.81
1.55
1.13
1.27
1.92
2.24
1.34
-0.94
-3.76
-5.82
-6.28
-5.41
-4.47
-4.97
-7.65
-12.00
-16.55
-19.87
-21.45
-21.81
-22.10
-23.03
-24.46
-25.62
-25.88
-25.44
-25.28
-26.43
-29.09
-32.32
-34.47
-34.22
-31.40
-27.01
-22.71
-19.83
-18.77
-19.02
-19.56
-19.43
-18.08
-15.29
-11.12
-5.89
-0.04
5.88
11.38
16.10
19.97
23.12
25.70
27.74
29.13
29.63
29.06
27.31
24.36
20.35
15.53
10.31
5.39
1.57
-0.37
0.09
2.92
7.64
13.48
19.70
25.76
31.39
36.48
41.00
44.83
47.90
50.30
52.16
53.73
55.02
55.80
55.54
53.74
50.17
45.05
39.13
33.41
28.75
25.77
24.67
25.20
26.65
27.84
27.25
23.42
15.53
3.84
-9.98
-23.21
-32.96
-37.15
-35.32
-28.79
-20.09
-11.95
-6.37
-4.11
-4.75
-7.06
-9.54
-10.93
-10.53
-8.28
-4.73
-0.79
2.45
3.94
2.99
-0.53
-6.17
-12.93
-19.52
-24.70
-27.55
-27.60
-24.92
-20.00
-13.71
-7.23
-1.82
1.48
2.17
0.45
-2.65
-5.68
-7.47
-7.70
-7.15
-7.25
-9.28
-13.79
-20.17
-27.11
-33.19
-37.39
-39.35
-39.20
-37.31
-34.19
-30.26
-25.83
-21.18
-16.44
-11.63
-6.83
-2.20
1.89
5.10
7.29
8.60
9.36
9.88
10.33
10.78
11.31
12.22
13.90
16.60
20.01
23.18
24.70
23.30
18.52
11.08
2.74
-4.36
-8.72
-10.03
-9.18
-7.53
-6.18
-5.31
-4.39
-2.79
-0.57
1.53
2.41
1.34
-1.57
-5.45
-9.19
-12.08
-14.03
-15.40
-16.68
-17.99
-19.09
-19.68
-19.77
-19.85
-20.67
-22.78
-26.13
-29.98
-33.26
-35.17
-35.71
-35.52
-35.32
-35.26
-34.61
-32.06
-26.64
-18.34
-8.35
1.38
9.12
14.16
17.04
19.03
21.28
24.24
27.51
30.15
31.33
30.80
28.81
25.92
22.55
18.78
14.39
9.22
3.54
-1.95
-6.26
-8.72
-9.28
-8.49
-7.14
-5.78
-4.50
-3.00
-1.03
1.26
3.42
4.98
5.84
6.27
6.65
6.96
6.58
4.60
0.44
-5.62
-12.30
-17.83
-20.77
-20.50
-17.32
-11.95
-5.14
2.57
10.46
17.52
22.52
24.24
22.15
16.77
9.78
3.54
0.30
1.37
6.63
14.64
23.24
30.43
35.19
37.74
39.15
40.65
42.80
45.30
47.26
47.88
47.02
45.19
43.00
40.70
37.92
34.08
29.09
23.70
19.24
16.97
17.23
19.27
21.71
23.39
23.93
23.72
23.33
23.01
22.39
20.88
18.07
14.28
10.25
6.60
3.36
0.07
-3.75
-8.08
-12.10
-14.62
-14.76
-12.65
-9.57
-7.27
-7.33
-10.31
-15.56
-21.68
-27.17
-31.03
-32.95
-33.12
-31.79
-29.25
-25.70
-21.51
-17.16
-13.18
-9.92
-7.27
-4.85
-2.20
0.81
3.80
6.11
6.98
5.92
2.87
-1.78
-7.36
-12.97
-17.61
-20.32
-20.43
-17.87
-13.22
-7.50
-1.98
2.43
5.26
6.51
6.40
5.07
2.42
-1.71
-7.36
-14.04
-20.78
-26.34
-29.60
-30.01
-27.69
-23.29
-17.69
-11.69
-5.98
-1.00
2.76
4.85
5.08
3.60
0.91
-2.19
-4.98
-6.93
-7.86
-7.65
-6.21
-3.53
0.11
4.12
7.76
10.39
11.79
12.31
12.69
13.67
15.57
18.20
20.94
22.94
23.35
21.58
17.48
11.36
4.05
-3.32
-9.53
-13.62
-15.23
-14.66
-12.77
-10.70
-9.50
-9.82
-11.70
-14.62
-17.79
-20.39
-21.78
-21.66
-20.02
-17.25
-13.89
-10.66
-8.28
-7.30
-7.86
-9.60
-11.88
-14.12
-16.01
-17.62
-19.27
-21.21
-23.39
-25.36
-26.49
-26.24
-24.37
-21.00
-16.74
-12.55
-9.47
-8.50
-10.13
-14.25
-20.02
-26.06
-30.91
-33.39
-32.96
-29.91
-25.15
-19.88
-15.23
-11.81
-9.58
-7.86
-5.71
-2.25
2.88
9.40
16.39
22.51
26.43
27.28
24.87
19.91
13.80
8.30
5.00
4.92
8.26
14.42
22.37
30.94
39.29
46.96
53.80
59.75
64.73
68.64
71.44
73.23
74.24
74.80
75.07
74.78
73.16
69.27
62.43
52.80
41.45
30.06
20.08
12.12
5.69
-0.30
-6.80
-14.04
-21.65
-29.17
-36.72
-45.12
-55.13
-66.62
-77.91
-86.16
-88.58
-83.75
-72.18
-55.94
-37.58
-19.13
-1.77
13.80
26.76
35.89
40.01
38.81
33.29
25.69
18.70
14.34
13.35
15.17
18.55
22.37
25.95
28.95
31.01
31.71
30.69
28.28
25.60
24.29
25.71
30.09
36.19
41.84
44.87
43.94
39.00
30.93
20.97
10.22
-0.60
-10.83
-19.65
-26.05
-29.26
-29.12
-26.55
-23.25
-21.11
-21.46
-24.46
-29.21
-34.22
-37.94
-39.41
-38.42
-35.43
-31.26
-26.78
-22.56
-18.99
-16.13
-13.99
-12.53
-11.72
-11.53
-11.80
-12.28
-12.60
-12.40
-11.62
-10.62
-10.04
-10.46
-12.13
-14.80
-17.82
-20.37
-21.66
-21.21
-18.93
-15.09
-10.33
-5.31
-0.68
3.32
6.91
10.61
15.14
20.96
28.05
35.92
43.71
50.37
54.85
56.45
54.97
50.61
43.94
35.82
27.34
19.69
13.92
10.58
9.43
8.97
6.36
-2.02
-19.31
-47.04
-84.23
-127.31
-170.85
-208.81
-235.69
-247.40
-241.71
-218.74
-181.21
-134.34
-84.87
-39.78
-4.71
17.18
25.90
24.13
16.14
6.50
-0.81
-3.27
-0.12
7.75
18.33
29.26
38.31
43.74
44.35
39.85
31.05
20.07
10.16
4.59
5.43
12.41
22.89
33.14
40.23
43.32
43.70
43.65
44.88
47.51
50.28
51.56
50.60
47.93
45.06
43.38
43.19
43.34
41.88
37.25
29.19
18.99
8.89
0.97
-3.81
-5.59
-5.17
-3.10
0.60
6.25
13.58
21.11
26.50
27.65
23.93
16.75
8.95
3.44
2.02
4.84
11.06
19.63
29.78
40.87
52.02
61.85
68.75
71.58
70.23
65.47
58.30
49.26
38.30
25.23
10.42
-5.07
-19.57
-31.52
-39.83
-44.01
-43.93
-39.67
-31.75
-21.45
-11.11
-3.56
-1.15
-4.54
-12.14
-20.75
-27.03
-29.02
-26.64
-21.33
-14.67
-7.51
0.14
8.31
16.22
22.07
23.87
20.70
13.38
4.16
-4.64
-11.72
-16.88
-20.34
-21.75
-20.02
-13.90
-3.03
11.31
26.46
39.26
47.33
49.59
46.35
38.81
28.67
17.73
7.90
0.58
-3.66
-5.20
-5.35
-5.69
-7.38
-10.72
-15.20
-19.85
-23.83
-26.63
-28.25
-28.91
-28.82
-27.90
-26.11
-23.61
-20.90
-18.71
-17.70
-18.06
-19.33
-20.54
-20.78
-19.73
-17.65
-15.18
-13.10
-11.86
-11.55
-11.92
-12.59
-13.26
-13.83
-14.54
-15.84
-18.13
-21.45
-25.14
-28.06
-28.94
-27.04
-22.51
-16.48
-10.52
-6.03
-3.63
-3.16
-4.19
-6.24
-8.88
-11.76
-14.57
-16.97
-18.70
-19.55
-19.70
-19.79
-20.71
-23.35
-28.14
-34.61
-41.14
-45.27
-44.51
-37.54
-24.99
-9.35
6.01
18.19
25.99
29.96
31.66
32.35
32.21
30.46
26.18
19.31
11.11
3.85
-0.52
-1.38
0.30
2.71
4.29
4.41
3.49
2.34
1.59
1.29
1.07
0.58
-0.37
-1.77
-3.73
-6.52
-10.44
-15.28
-20.07
-23.21
-23.20
-19.31
-12.11
-3.35
4.77
10.36
12.56
11.67
8.81
5.22
1.79
-1.14
-3.63
-5.68
-7.17
-7.94
-8.18
-8.63
-10.10
-12.92
-16.35
-18.74
-18.39
-14.84
-9.36
-4.23
-1.37
-1.13
-2.26
-2.94
-2.28
-1.03
-1.03
-3.63
-8.43
-13.25
-15.49
-13.83
-9.20
-4.23
-1.39
-1.14
-1.77
-0.61
3.83
10.68
17.11
20.15
18.52
13.44
7.77
4.01
3.05
4.07
5.77
7.64
10.37
15.06
22.04
30.30
37.93
43.30
45.96
46.61
46.39
46.21
46.44
46.94
47.43
47.69
47.69
47.50
47.47
48.45
51.57
57.59
66.19
75.70
83.58
87.62
86.98
82.67
76.76
71.12
66.60
62.87
59.00
54.21
48.46
42.43
36.99
32.43
28.18
23.20
16.73
8.93
0.80
-6.37
-11.88
-16.32
-21.25
-27.95
-36.31
-44.63
-50.45
-51.80
-48.46
-42.16
-35.64
-30.97
-28.59
-27.39
-25.89
-23.29
-19.99
-17.12
-15.55
-15.37
-15.82
-16.02
-15.69
-15.28
-15.50
-16.63
-18.20
-19.10
-18.19
-15.09
-10.51
-5.82
-2.11
0.37
2.21
4.20
6.62
8.86
9.89
9.17
7.20
5.25
4.50
5.08
5.85
5.26
2.45
-2.16
-7.14
-11.30
-14.33
-16.83
-19.74
-23.34
-27.05
-29.69
-30.27
-28.39
-24.27
-18.31
-10.94
-2.88
4.93
11.45
15.92
18.10
18.12
16.22
12.56
7.24
0.74
-5.94
-11.55
-15.31
-17.40
-18.74
-20.33
-22.56
-24.95
-26.65
-27.12
-26.66
-26.15
-26.36
-27.39
-28.75
-29.77
-30.09
-29.83
-29.61
-30.38
-32.91
-37.60
-44.30
-52.10
-59.32
-63.95
-64.20
-59.11
-48.95
-35.11
-19.71
-4.98
7.08
15.02
18.04
15.98
9.55
0.38
-9.27
-17.02
-21.04
-20.62
-16.39
-10.00
-3.46
1.52
3.94
3.46
0.33
-4.76
-10.50
-15.31
-17.55
-16.18
-11.29
-4.13
3.45
9.90
14.69
18.28
21.52
24.92
28.22
30.57
31.04
29.18
25.31
20.24
14.83
9.82
5.69
2.61
0.52
-0.72
-1.23
-0.83
0.88
4.31
9.61
16.32
23.42
29.64
34.08
36.39
36.81
35.78
33.62
30.53
26.63
22.14
17.56
13.49
10.37
8.41
7.61
7.84
9.03
11.05
13.64
16.38
18.67
20.01
20.17
19.32
18.00
16.88
16.42
16.58
16.90
16.70
15.58
13.81
12.35
12.52
15.23
20.39
26.77
32.52
35.92
36.12
33.57
29.65
26.05
24.01
23.82
24.82
25.81
25.72
24.05
21.14
17.72
14.49
11.57
8.55
4.89
0.44
-4.30
-8.49
-11.47
-13.35
-14.78
-16.46
-18.46
-20.12
-20.39
-18.55
-14.77
-10.05
-5.72
-2.71
-1.15
-0.60
-0.42
-0.38
-0.72
-2.03
-4.68
-8.56
-13.05
-17.26
-20.47
-22.35
-23.03
-22.73
-21.60
-19.68
-17.12
-14.36
-12.23
-11.46
-12.21
-13.81
-14.94
-14.39
-11.69
-7.38
-2.49
1.86
5.02
6.82
7.21
6.14
3.59
-0.13
-4.15
-7.33
-8.81
-8.44
-6.89
-5.51
-5.57
-7.58
-10.97
-14.46
-16.78
-17.43
-16.79
-15.45
-13.25
-8.88
-0.98
10.50
23.19
33.20
37.14
34.37
27.58
21.01
17.63
16.97
15.75
10.71
1.55
-8.23
-13.36
-10.60
-1.31
9.13
14.53
11.77
2.49
-8.35
-15.77
-17.73
-15.86
-13.95
-15.07
-19.83
-26.48
-32.57
-36.70
-39.19
-41.46
-44.64
-48.72
-52.57
-54.94
-55.47
-54.70
-53.42
-51.84
-49.39
-45.24
-39.14
-31.86
-25.02
-20.02
-17.33
-16.28
-15.66
-14.27
-11.34
-6.73
-0.80
5.80
12.26
17.90
22.14
24.65
25.39
24.44
21.90
18.02
13.57
10.00
9.07
11.91
18.09
25.51
31.28
33.34
31.54
27.60
23.81
21.46
20.10
18.26
14.72
9.64
4.41
0.73
-0.78
-1.08
-1.88
-4.40
-8.45
-12.51
-14.78
-14.14
-10.87
-6.34
-2.38
-0.25
-0.35
-2.18
-4.82
-7.41
-9.45
-10.80
-11.49
-11.46
-10.53
-8.55
-5.73
-2.91
-1.49
-2.94
-7.93
-15.60
-23.46
-28.22
-27.19
-19.37
-5.95
10.32
26.41
40.12
50.59
58.13
63.50
67.33
69.78
70.75
70.26
68.59
66.11
62.96
58.74
52.87
45.02
35.65
26.16
18.33
13.64
12.55
14.42
17.86
21.37
23.86
24.79
24.03
21.59
17.53
12.14
5.97
-0.23
-5.75
-10.28
-13.95
-17.26
-20.61
-24.09
-27.38
-29.94
-31.28
-31.32
-30.43
-29.26
-28.44
-28.39
-29.18
-30.65
-32.51
-34.48
-36.34
-37.96
-39.23
-40.19
-40.89
-41.45
-41.81
-41.61
-40.25
-37.18
-32.27
-26.01
-19.36
-13.30
-8.33
-4.39
-0.99
2.33
5.76
9.26
12.48
15.10
16.95
18.04
18.36
17.82
16.36
14.09
11.51
9.32
8.38
9.31
12.19
16.57
21.64
26.45
30.17
32.18
32.21
30.26
26.52
21.37
15.37
9.29
4.03
0.32
-1.47
-1.60
-0.86
-0.27
-0.68
-2.38
-5.11
-8.26
-11.17
-13.40
-14.93
-16.01
-17.00
-18.14
-19.48
-20.99
-22.49
-23.71
-24.53
-25.07
-25.71
-26.86
-28.76
-31.21
-33.71
-35.67
-36.76
-36.92
-36.26
-34.75
-32.08
-27.92
-22.26
-15.74
-9.44
-4.31
-0.60
2.41
5.92
10.68
16.40
21.71
24.83
24.60
21.03
15.19
8.60
2.45
-2.78
-7.01
-10.22
-12.23
-12.83
-12.14
-10.79
-9.56
-8.89
-8.56
-7.98
-6.68
-5.08
-4.42
-6.05
-10.48
-16.85
-23.24
-27.75
-29.47
-28.76
-26.75
-24.43
-21.99
-18.99
-14.91
-9.66
-3.71
2.22
7.61
12.16
15.68
17.83
18.28
17.08
14.88
12.86
12.14
13.08
14.80
15.61
13.96
9.37
2.82
-3.75
-8.28
-9.39
-6.62
-0.39
8.48
18.96
29.75
39.65
47.54
52.76
55.37
56.23
56.48
57.04
58.05
58.89
58.75
57.22
54.59
51.56
48.78
46.28
43.78
40.99
37.99
35.20
32.96
31.30
29.84
28.21
26.33
24.48
23.11
22.40
22.17
22.02
21.81
21.72
21.86
22.00
21.33
18.68
13.21
5.11
-4.42
-13.58
-20.82
-25.25
-26.61
-25.09
-21.30
-16.37
-11.86
-9.53
-10.52
-14.65
-20.20
-24.68
-26.22
-24.73
-21.82
-19.54
-18.84
-18.97
-18.07
-14.96
-10.29
-6.26
-4.83
-5.79
-6.52
-3.63
4.34
15.27
24.19
26.25
19.79
7.49
-5.39
-14.32
-18.14
-18.99
-20.17
-23.20
-26.83
-28.26
-25.70
-20.12
-14.64
-12.37
-14.09
-17.75
-20.12
-19.18
-15.45
-11.22
-8.68
-8.28
-8.81
-8.66
-7.42
-6.08
-5.91
-6.92
-7.70
-6.75
-4.33
-2.83
-5.36
-13.37
-25.17
-36.79
-44.51
-47.40
-47.92
-49.75
-54.62
-60.68
-63.48
-59.27
-47.93
-33.54
-21.87
-16.61
-17.17
-19.62
-20.01
-17.04
-12.65
-9.93
-10.50
-13.19
-15.10
-14.31
-11.70
-10.35
-13.01
-19.59
-26.79
-29.87
-25.51
-13.46
3.76
22.59
40.04
54.33
64.33
69.22
68.81
64.03
56.89
49.42
42.64
36.22
29.23
21.67
15.08
11.71
12.49
15.82
18.30
17.03
11.81
5.43
1.71
2.61
6.82
10.72
10.99
6.90
0.61
-4.76
-7.58
-8.56
-9.67
-12.04
-14.95
-16.30
-14.48
-10.03
-5.56
-3.78
-5.53
-9.14
-11.66
-10.85
-6.71
-1.29
2.76
3.96
2.73
0.86
-0.08
0.54
2.34
4.73
7.59
11.47
16.97
24.08
31.88
38.71
42.96
43.80
41.32
36.37
30.25
24.15
18.86
14.74
12.16
11.58
13.23
16.79
21.27
25.19
27.12
26.41
23.79
21.03
19.94
21.25
24.17
26.78
27.01
23.90
18.11
11.42
5.58
1.51
-1.05
-3.02
-5.20
-7.85
-10.59
-12.90
-14.69
-16.55
-19.34
-23.59
-29.13
-35.07
-40.05
-42.72
-42.21
-38.29
-31.40
-22.63
-13.53
-5.78
-0.46
2.42
3.87
5.37
8.02
11.82
15.47
17.08
15.44
10.82
4.90
-0.32
-3.63
-5.23
-6.29
-7.99
-10.55
-12.97
-13.67
-11.76
-7.82
-3.77
-1.74
-2.76
-6.04
-9.38
-10.60
-8.99
-5.81
-3.52
-4.07
-7.82
-13.33
-18.08
-19.92
-18.24
-14.25
-10.03
-7.36
-6.93
-8.30
-10.35
-12.05
-13.12
-14.17
-16.29
-20.26
-25.94
-32.03
-36.53
-37.59
-34.46
-27.91
-19.82
-12.12
-5.79
-0.72
3.93
8.79
13.76
18.09
20.94
22.10
22.12
21.82
21.78
21.88
21.37
19.32
15.30
9.65
3.35
-2.43
-6.71
-9.07
-9.35
-7.72
-4.52
-0.35
3.97
7.42
9.13
8.65
6.10
2.16
-2.16
-5.95
-8.67
-10.38
-11.48
-12.63
-14.44
-17.28
-21.02
-25.01
-28.32
-30.01
-29.57
-27.24
-23.93
-20.79
-18.55
-17.33
-16.74
-16.09
-14.72
-12.38
-9.34
-6.15
-3.61
-2.47
-3.29
-6.06
-10.04
-13.78
-15.67
-14.55
-10.39
-4.41
1.45
5.36
6.59
5.55
3.46
1.50
0.29
-0.30
-0.92
-2.23
-4.40
-6.98
-9.19
-10.28
-9.82
-7.80
-4.49
-0.25
4.61
9.84
15.25
20.55
25.41
29.43
32.21
33.58
33.73
33.13
32.39
32.13
32.82
34.72
37.95
42.49
48.04
54.00
59.45
63.50
65.59
65.70
64.31
62.13
59.61
56.84
53.71
50.29
46.88
43.75
40.69
36.73
30.65
21.83
11.22
1.44
-4.17
-3.28
3.96
14.81
25.22
31.60
32.19
27.39
18.86
8.43
-2.65
-13.52
-23.40
-31.28
-36.18
-37.70
-36.36
-33.52
-30.75
-29.05
-28.62
-29.11
-30.12
-31.62
-33.86
-37.09
-41.12
-45.33
-48.90
-51.14
-51.76
-50.96
-49.14
-46.61
-43.41
-39.42
-34.66
-29.55
-24.95
-21.86
-20.96
-22.34
-25.44
-29.47
-33.81
-38.15
-42.41
-46.70
-50.97
-54.89
-57.91
-59.55
-59.69
-58.67
-57.17
-55.74
-54.22
-51.62
-46.67
-38.49
-27.28
-14.27
-1.05
11.42
23.33
35.39
47.76
59.24
67.65
71.02
68.92
62.90
55.41
48.44
42.61
37.27
31.83
26.66
23.19
22.83
25.78
30.41
33.92
33.73
28.91
20.45
10.48
1.16
-6.12
-10.85
-13.48
-14.86
-15.83
-16.86
-17.94
-18.65
-18.40
-17.09
-15.57
-15.32
-17.49
-21.98
-27.20
-30.55
-29.82
-24.60
-16.70
-9.49
-5.97
-7.14
-11.71
-16.85
-19.68
-18.58
-13.67
-6.27
2.23
11.13
20.38
30.20
40.46
50.41
58.70
64.11
66.37
66.55
66.48
67.76
70.98
75.28
78.59
78.60
73.96
65.01
53.64
42.56
34.11
29.27
27.56
27.51
27.76
27.77
27.72
28.02
28.76
29.56
29.79
28.92
26.75
23.38
18.89
13.29
6.76
-0.08
-6.22
-10.73
-13.35
-14.70
-16.07
-18.46
-21.89
-25.35
-27.67
-28.52
-28.82
-30.09
-33.45
-38.75
-44.62
-49.32
-51.60
-51.12
-48.15
-43.11
-36.16
-27.56
-18.26
-10.06
-4.96
-4.05
-6.59
-10.23
-12.21
-10.97
-6.97
-2.25
1.00
1.53
-0.43
-3.54
-6.30
-7.68
-7.33
-5.38
-2.26
1.44
4.92
7.45
8.64
8.58
7.80
6.97
6.43
6.16
6.18
6.84
8.69
11.87
15.59
18.17
17.99
14.57
9.16
3.90
0.43
-1.20
-2.39
-4.92
-9.40
-14.90
-19.64
-22.52
-23.97
-25.79
-29.87
-36.90
-45.87
-54.42
-60.24
-61.98
-59.61
-54.19
-47.32
-40.48
-34.70
-30.33
-26.94
-23.79
-20.30
-16.55
-13.20
-10.94
-9.58
-7.85
-3.90
3.22
12.38
20.45
23.86
20.83
12.65
3.22
-3.15
-4.35
-1.48
2.35
4.55
4.84
5.31
8.30
14.13
20.52
23.88
21.99
15.77
8.82
4.89
5.40
8.64
11.15
10.28
5.89
0.19
-4.19
-6.11
-6.58
-7.59
-10.55
-15.23
-20.15
-23.91
-26.28
-28.29
-31.19
-35.15
-38.78
-39.92
-37.03
-30.22
-21.31
-12.60
-5.77
-1.34
1.15
2.31
2.27
0.77
-2.20
-5.90
-8.66
-8.65
-4.74
2.96
13.11
23.84
33.44
40.84
45.81
48.72
50.25
51.21
52.32
53.89
55.70
56.90
56.54
54.20
50.33
46.20
43.22
42.23
43.17
45.32
47.95
50.76
53.92
57.63
61.54
64.59
65.41
63.00
57.32
49.33
40.54
32.36
25.64
20.72
17.57
15.95
15.50
15.67
15.71
14.61
11.46
5.75
-2.26
-11.61
-21.00
-29.26
-35.72
-40.41
-43.92
-47.30
-51.60
-57.56
-65.13
-73.34
-80.30
-83.69
-81.54
-73.25
-59.94
-44.20
-29.24
-17.68
-10.66
-7.72
-7.38
-7.84
-7.58
-5.58
-1.52
4.22
10.67
16.45
20.25
21.36
19.94
16.91
13.53
10.78
9.17
8.65
8.90
9.59
10.52
11.48
11.91
10.99
8.07
3.21
-2.51
-7.37
-9.83
-9.38
-6.84
-4.13
-3.16
-4.77
-8.37
-12.37
-15.25
-16.52
-16.79
-17.09
-17.87
-18.69
-18.65
-17.48
-15.90
-15.34
-17.03
-21.34
-27.43
-33.59
-38.28
-40.73
-41.02
-39.49
-36.45
-32.11
-26.78
-21.08
-15.80
-11.66
-8.85
-6.94
-5.13
-2.69
0.79
5.32
10.49
15.59
19.77
22.51
23.80
23.87
22.99
21.33
18.96
15.92
12.47
9.18
6.81
5.86
6.05
6.60
6.69
6.13
5.45
5.40
6.13
6.72
5.58
1.39
-5.53
-13.22
-19.11
-21.46
-20.43
-17.83
-16.00
-16.14
-17.64
-18.55
-17.23
-13.60
-9.28
-6.51
-6.73
-9.52
-13.13
-15.56
-15.92
-14.71
-13.37
-13.09
-14.26
-16.39
-18.78
-21.15
-23.84
-27.52
-32.44
-38.05
-42.84
-45.11
-43.53
-37.89
-29.19
-19.13
-9.60
-1.96
3.26
6.68
9.46
12.85
17.63
23.77
30.44
36.21
39.50
39.24
35.44
29.20
22.47
17.19
14.66
15.07
17.90
22.51
28.40
35.23
42.41
49.04
54.01
56.56
56.75
55.37
53.50
51.70
49.87
47.59
44.81
42.01
39.86
38.70
38.13
37.22
35.19
31.96
28.25
25.06
22.98
21.88
21.15
20.10
18.21
15.19
10.73
4.22
-4.91
-16.62
-29.79
-42.17
-51.11
-54.48
-51.74
-44.13
-34.22
-24.91
-18.51
-15.93
-16.42
-18.08
-18.87
-17.51
-13.94
-9.11
-4.41
-0.92
0.95
1.50
1.41
1.29
1.52
2.17
2.96
3.44
3.37
2.98
2.88
3.71
5.70
8.31
10.35
10.71
8.97
5.82
2.50
0.17
-0.90
-1.29
-2.06
-3.88
-6.64
-9.51
-11.55
-12.33
-12.06
-11.47
-11.19
-11.57
-12.63
-14.30
-16.57
-19.52
-23.52
-28.77
-34.87
-40.56
-43.95
-43.45
-38.80
-31.40
-23.68
-17.73
-14.30
-12.45
-10.52
-7.37
-3.19
0.74
3.12
3.65
3.16
3.01
3.92
5.24
5.33
2.87
-2.12
-8.08
-12.79
-14.64
-13.34
-10.04
-6.47
-3.87
-2.49
-1.70
-0.57
1.42
3.97
6.12
6.77
5.39
2.24
-1.70
-5.29
-7.85
-9.43
-10.67
-12.13
-13.83
-14.99
-14.61
-12.28
-8.74
-5.81
-5.31
-8.01
-13.09
-18.79
-23.60
-27.15
-30.16
-33.55
-37.28
-40.13
-40.50
-37.61
-32.17
-25.85
-20.13
-15.35
-10.67
-5.09
1.61
8.52
14.35
18.50
21.37
23.93
26.79
29.57
31.24
30.86
28.25
23.87
18.42
12.43
6.40
1.19
-1.83
-1.33
3.32
11.48
21.28
30.27
36.25
38.08
35.73
30.36
24.02
19.02
17.04
18.24
20.97
22.53
20.71
15.27
8.21
2.70
1.10
3.55
8.03
11.94
14.01
15.25
18.16
24.40
33.03
40.21
41.17
33.26
18.07
0.94
-11.52
-14.93
-9.14
2.16
13.94
22.85
28.48
32.56
36.87
41.45
44.57
44.14
39.40
31.50
22.80
15.34
9.80
5.39
0.75
-4.81
-10.76
-15.69
-18.06
-17.10
-13.21
-7.67
-2.15
1.91
3.57
2.47
-1.24
-7.13
-14.38
-21.78
-27.75
-30.84
-30.36
-26.80
-21.71
-16.98
-13.91
-12.68
-12.42
-11.80
-9.80
-6.21
-1.79
2.08
3.91
2.70
-1.71
-8.32
-15.22
-20.19
-21.37
-18.19
-11.55
-3.42
4.05
9.44
12.53
14.07
15.06
16.13
17.26
18.02
18.00
17.17
15.85
14.38
12.88
11.07
8.53
5.01
0.71
-3.45
-6.29
-6.82
-4.84
-1.03
3.27
6.66
8.31
8.20
7.02
5.58
4.28
2.88
0.78
-2.42
-6.55
-10.82
-14.31
-16.56
-17.87
-19.15
-21.26
-24.49
-28.37
-31.85
-33.98
-34.55
-34.20
-34.09
-35.18
-37.71
-41.07
-44.12
-45.80
-45.50
-43.25
-39.56
-35.01
-30.12
-25.20
-20.55
-16.57
-13.60
-11.87
-11.23
-11.17
-10.87
-9.59
-6.90
-2.90
1.75
6.07
9.15
10.43
10.10
9.03
8.46
9.35
11.93
15.55
19.20
21.97
23.38
23.29
21.54
17.88
12.40
6.01
0.53
-1.97
-0.27
5.19
12.39
18.78
22.74
24.36
24.87
25.38
25.88
25.25
22.46
17.70
12.64
9.39
9.12
11.05
12.95
12.49
8.62
2.09
-5.24
-11.62
-16.31
-19.67
-22.49
-25.13
-27.14
-27.72
-26.45
-23.83
-21.09
-19.73
-20.74
-24.16
-29.22
-34.77
-39.62
-42.67
-42.95
-39.75
-32.75
-22.39
-9.90
2.98
14.58
23.86
30.57
34.99
37.55
38.58
38.41
37.59
36.88
36.93
37.84
38.92
39.12
37.65
34.82
31.99
31.06
33.35
38.80
46.10
53.26
58.77
62.08
63.60
64.04
63.81
62.81
60.52
56.54
50.87
44.03
36.81
29.98
24.13
19.52
16.11
13.43
10.77
7.45
3.22
-1.64
-6.33
-9.97
-12.24
-13.68
-15.61
-19.48
-26.12
-35.31
-45.85
-55.94
-63.67
-67.60
-66.91
-61.60
-52.49
-41.29
-30.21
-21.31
-15.76
-13.45
-13.18
-13.40
-12.89
-11.28
-9.04
-7.04
-5.99
-6.08
-6.96
-7.93
-8.11
-6.88
-4.19
-0.40
4.11
9.00
13.96
18.65
22.68
25.52
26.62
25.76
23.30
20.01
16.45
12.86
9.17
5.35
1.65
-1.37
-3.18
-3.60
-3.05
-2.35
-2.24
-3.20
-5.33
-8.59
-12.60
-16.73
-20.28
-22.87
-24.66
-26.24
-28.16
-30.44
-32.28
-32.47
-30.39
-26.44
-21.84
-17.75
-14.58
-11.84
-8.78
-5.39
-2.69
-2.08
-3.99
-7.16
-8.91
-6.56
0.57
10.33
18.75
22.28
19.89
13.42
6.43
1.95
0.88
1.69
1.98
0.44
-2.00
-2.93
-0.06
6.92
15.72
22.66
24.72
21.42
15.02
9.19
6.52
7.00
8.27
7.13
1.94
-6.16
-13.68
-17.04
-15.02
-9.63
-5.06
-5.15
-10.97
-20.08
-27.92
-30.75
-28.04
-22.80
-19.73
-22.24
-30.29
-40.34
-47.48
-48.38
-43.16
-35.16
-28.71
-26.32
-27.23
-28.23
-25.98
-19.26
-9.79
-1.14
3.64
3.69
0.78
-2.03
-2.23
0.84
5.99
11.26
15.17
17.43
18.64
19.41
19.59
18.14
13.95
6.85
-1.67
-8.83
-11.91
-9.82
-3.82
3.13
8.02
9.41
8.14
6.77
7.78
12.05
18.24
23.74
26.41
25.76
23.30
21.30
21.49
23.96
27.40
30.05
30.85
29.94
28.38
27.34
27.40
28.38
29.79
31.44
33.53
36.41
39.95
43.27
44.95
43.64
38.69
30.51
20.28
9.42
-0.76
-9.14
-14.77
-16.88
-15.25
-10.41
-3.87
2.36
6.55
7.87
6.57
3.51
-0.44
-4.61
-8.62
-12.20
-15.17
-17.56
-19.70
-22.15
-25.37
-29.41
-33.78
-37.62
-40.22
-41.26
-40.86
-39.27
-36.83
-33.99
-31.29
-29.39
-28.81
-29.55
-31.02
-32.43
-33.25
-33.12
-31.62
-28.24
-22.78
-15.65
-8.27
-2.57
-0.15
-1.12
-3.98
-6.69
-8.01
-8.20
-8.48
-9.95
-12.54
-15.10
-16.24
-15.52
-13.66
-11.90
-10.84
-9.88
-7.93
-4.16
1.41
8.13
15.49
23.50
32.75
43.59
55.41
66.45
74.71
78.53
77.03
70.44
59.96
47.66
35.94
27.03
22.19
21.42
23.37
26.10
28.26
29.65
30.91
32.55
34.21
34.54
32.10
26.44
18.68
11.13
5.91
3.66
2.89
0.77
-5.40
-16.60
-31.48
-47.07
-60.23
-69.12
-73.82
-75.60
-75.39
-72.47
-64.21
-47.58
-21.49
11.63
46.02
74.83
92.97
98.90
94.48
83.20
68.34
51.88
34.77
17.43
0.41
-15.53
-29.47
-40.70
-48.84
-53.75
-55.94
-56.55
-57.08
-58.47
-60.14
-60.20
-56.67
-49.16
-39.84
-32.59
-30.69
-34.71
-41.96
-48.12
-49.85
-46.50
-39.87
-32.44
-25.66
-19.37
-12.87
-6.52
-2.46
-3.89
-13.04
-29.68
-50.81
-71.83
-88.20
-97.12
-97.97
-91.47
-78.64
-59.99
-35.63
-6.09
26.99
60.51
90.26
112.19
123.70
124.48
116.47
102.99
87.40
72.11
58.26
46.14
35.94
28.14
23.38
21.92
23.27
26.48
30.79
36.42
44.59
56.60
72.35
89.30
102.88
107.97
101.19
82.50
55.26
24.91
-2.99
-24.29
-36.88
-40.28
-35.41
-23.95
-7.97
10.66
30.48
50.51
69.77
86.69
98.74
103.09
97.61
82.10
58.55
30.39
1.35
-25.46
-47.45
-62.03
-66.49
-58.95
-39.79
-12.54
16.82
41.81
57.70
62.84
58.18
45.88
27.67
4.63
-22.05
-49.97
-75.56
-95.40
-107.85
-113.59
-114.52
-112.10
-106.29
-96.21
-81.90
-65.44
-50.52
-40.48
-36.20
-35.67
-35.55
-33.53
-29.82
-26.47
-25.30
-25.88
-25.30
-19.93
-7.99
9.08
27.09
41.21
48.29
48.25
43.53
37.35
32.03
27.79
23.24
16.83
8.33
-0.61
-7.05
-8.54
-4.86
1.55
6.62
6.95
1.50
-7.99
-18.23
-26.14
-30.47
-31.90
-32.03
-32.03
-32.02
-31.18
-28.50
-23.37
-15.61
-5.10
8.58
25.78
46.03
67.63
88.03
104.88
117.21
125.48
130.94
134.38
135.28
131.99
122.41
104.78
77.82
40.97
-4.99
-56.71
-107.34
-147.30
-166.93
-160.41
-128.83
-80.14
-25.82
23.68
62.43
89.56
107.04
116.63
118.31
110.85
93.76
68.85
39.96
11.45
-13.76
-34.98
-53.19
-69.88
-85.92
-101.23
-115.27
-127.14
-135.27
-136.78
-127.58
-103.83
-64.42
-13.34
40.15
83.91
107.40
105.97
82.25
44.32
1.91
-37.58
-70.68
-97.16
-117.77
-132.46
-139.75
-137.87
-126.30
-106.65
-82.41
-57.75
-36.13
-19.48
-8.10
-1.26
1.71
1.14
-2.91
-9.97
-18.55
-26.21
-30.55
-30.40
-26.57
-21.67
-18.64
-19.44
-24.31
-31.92
-40.01
-46.14
-47.90
-43.30
-31.30
-12.53
10.30
32.77
50.40
60.50
63.06
60.17
54.46
47.42
38.93
28.06
14.57
-0.05
-12.92
-21.09
-23.13
-19.98
-14.41
-9.39
-6.60
-5.77
-5.22
-3.28
0.64
5.61
9.95
12.21
12.16
10.77
9.54
9.61
11.29
14.34
18.64
24.51
32.38
42.18
52.88
62.77
70.38
75.10
77.43
78.32
78.47
77.89
76.27
73.57
70.42
67.83
66.69
67.16
68.56
69.79
69.87
68.35
65.26
60.95
55.98
50.99
46.53
42.65
38.66
33.23
25.17
14.42
2.47
-8.08
-14.92
-17.42
-17.26
-17.68
-21.71
-30.37
-41.91
-52.71
-59.13
-59.02
-52.42
-41.19
-28.05
-15.75
-6.49
-1.83
-2.62
-8.66
-18.65
-30.55
-42.18
-51.81
-58.40
-61.36
-60.21
-54.87
-46.01
-35.62
-26.53
-21.18
-20.14
-21.82
-23.35
-22.43
-18.63
-13.43
-8.86
-5.89
-3.63
-0.05
6.23
15.00
24.59
33.41
41.26
49.42
59.40
71.36
83.50
92.79
96.97
95.89
91.52
86.48
82.12
77.52
70.03
57.13
37.98
13.96
-12.03
-37.22
-59.86
-79.31
-94.86
-104.69
-105.81
-95.33
-72.16
-38.17
1.92
42.03
76.58
102.05
117.09
121.76
116.44
101.44
77.16
44.91
8.11
-27.90
-57.22
-75.56
-81.83
-78.32
-69.29
-59.10
-50.84
-46.34
-47.02
-54.46
-69.67
-91.56
-116.07
-136.77
-147.40
-144.88
-130.89
-111.28
-93.30
-82.57
-81.43
-89.01
-102.35
-117.30
-129.00
-132.32
-123.05
-99.26
-62.72
-19.21
23.29
57.46
79.39
89.61
92.20
92.43
94.16
98.39
103.90
108.90
112.48
114.85
116.06
114.41
105.38
83.06
43.36
-12.39
-75.78
-133.16
-170.30
-178.12
-156.44
-113.95
-64.09
-19.02
14.88
37.87
54.05
67.04
76.84
80.33
74.38
58.94
37.94
17.28
1.31
-9.69
-18.97
-30.43
-45.21
-60.54
-71.31
-73.24
-65.62
-51.30
-34.74
-19.31
-6.02
5.90
17.13
26.67
32.04
30.89
22.75
9.88
-3.88
-15.06
-22.17
-26.06
-28.41
-30.18
-30.90
-28.90
-22.58
-11.43
3.59
20.74
38.25
54.38
67.24
74.58
74.44
65.98
50.42
30.86
10.95
-6.74
-21.64
-34.56
-46.48
-57.20
-65.12
-68.19
-65.34
-57.30
-46.41
-35.41
-26.00
-18.37
-11.70
-5.29
0.79
5.36
6.79
4.07
-2.42
-10.83
-18.50
-22.99
-22.92
-18.47
-11.05
-2.64
5.06
11.06
15.18
17.79
19.39
20.21
20.07
18.64
15.63
11.38
6.83
3.35
2.12
3.64
7.52
12.73
18.22
23.44
28.43
33.36
38.18
42.40
45.33
46.74
47.09
47.24
47.67
47.90
46.51
42.08
34.34
24.61
15.43
9.12
6.69
7.27
8.79
9.25
7.69
4.47
0.76
-2.26
-3.83
-3.57
-1.11
3.90
11.41
20.54
29.45
36.01
38.63
37.15
32.99
28.40
25.39
24.83
26.15
27.81
28.17
26.24
22.02
16.39
10.69
6.11
3.31
2.22
2.16
2.28
2.05
1.57
1.42
2.25
4.25
7.03
9.69
11.49
12.26
12.55
13.14
14.45
16.10
17.16
16.58
13.89
9.51
4.63
0.57
-1.78
-2.38
-1.86
-1.17
-1.12
-2.05
-3.78
-5.78
-7.55
-8.78
-9.48
-9.94
-10.38
-10.75
-10.66
-9.39
-6.59
-2.51
1.82
4.97
5.97
4.84
2.77
1.54
2.44
5.45
9.18
11.63
11.30
7.99
2.95
-1.83
-4.77
-5.43
-4.59
-3.72
-4.00
-5.81
-8.58
-11.39
-13.82
-16.16
-19.03
-22.74
-26.70
-29.69
-30.58
-29.24
-27.07
-26.28
-28.48
-33.47
-39.05
-42.46
-42.04
-38.20
-33.10
-29.14
-27.31
-26.73
-25.61
-22.92
-19.31
-16.55
-15.95
-17.12
-17.89
-15.60
-9.06
0.47
10.05
17.01
20.64
22.22
23.83
26.43
29.05
29.21
24.84
15.99
5.16
-4.07
-9.13
-9.76
-7.94
-6.31
-6.36
-7.46
-7.49
-4.90
-0.16
4.15
5.02
0.93
-6.94
-15.48
-21.68
-24.43
-24.86
-25.14
-26.80
-29.80
-32.80
-34.30
-33.66
-31.58
-29.55
-29.04
-30.83
-34.47
-38.31
-40.00
-37.65
-31.26
-23.22
-17.16
-15.62
-17.99
-20.43
-18.30
-9.68
2.71
12.97
16.12
11.93
5.38
3.50
10.38
24.06
37.52
43.34
38.53
26.24
13.55
6.87
8.18
14.35
19.67
19.71
14.00
5.86
0.19
0.25
5.73
12.91
17.11
15.52
9.21
2.33
-0.46
2.95
10.73
18.32
21.43
18.89
13.24
8.64
7.84
10.33
13.36
14.48
13.82
14.01
17.87
25.65
34.22
38.89
36.64
28.32
18.19
11.33
10.68
15.56
22.73
28.72
31.98
33.18
34.15
36.04
38.48
40.10
39.66
37.25
34.03
31.44
29.98
28.76
26.16
20.92
13.14
4.32
-3.49
-8.90
-11.88
-13.45
-14.86
-16.69
-18.69
-20.12
-20.50
-19.80
-18.49
-17.14
-16.30
-16.37
-17.60
-19.93
-22.86
-25.54
-26.90
-26.33
-23.98
-20.79
-17.99
-16.34
-15.73
-15.25
-13.80
-10.79
-6.46
-1.45
3.71
8.92
14.26
19.48
23.80
26.28
26.50
25.05
23.21
22.06
21.66
21.07
19.07
15.48
11.44
8.76
8.39
9.52
9.86
7.38
1.97
-4.17
-7.95
-7.60
-4.08
-0.51
0.07
-3.13
-8.11
-11.67
-11.82
-9.35
-7.26
-8.45
-13.48
-20.05
-24.82
-25.95
-24.65
-24.24
-27.58
-34.75
-42.61
-46.75
-44.58
-37.15
-28.43
-22.75
-22.04
-24.68
-26.94
-25.52
-19.82
-12.24
-6.43
-4.70
-6.52
-8.85
-8.13
-2.59
6.73
16.49
23.14
24.90
22.49
18.36
14.92
13.26
12.77
12.09
10.26
7.49
5.03
4.21
5.61
8.68
12.15
14.64
15.48
14.82
13.38
11.80
10.25
8.32
5.33
0.93
-4.57
-10.24
-15.11
-18.61
-21.04
-23.29
-26.11
-29.54
-32.70
-34.27
-33.52
-30.85
-27.78
-25.95
-26.16
-27.77
-29.09
-28.47
-25.21
-20.02
-14.58
-10.43
-8.05
-6.81
-5.39
-2.88
0.80
4.83
8.23
10.51
11.82
12.66
13.35
13.85
13.71
12.66
10.80
8.72
7.17
6.61
7.10
8.34
9.93
11.58
13.10
14.29
14.90
14.87
14.37
13.89
14.00
15.10
17.21
19.97
22.93
25.60
27.65
28.81
28.91
27.96
26.27
24.61
23.94
25.09
28.23
32.67
36.91
39.33
38.66
34.56
27.71
19.56
11.95
6.53
4.31
5.33
8.82
13.51
18.11
21.75
23.99
24.88
24.68
23.68
22.11
20.11
17.77
15.20
12.54
9.83
6.94
3.66
-0.16
-4.42
-8.62
-11.95
-13.52
-12.74
-9.67
-5.05
-0.10
3.92
6.23
6.73
5.71
3.57
0.50
-3.43
-8.17
-13.40
-18.55
-23.10
-26.77
-29.62
-31.94
-33.87
-35.30
-35.87
-35.43
-34.29
-33.20
-32.96
-33.86
-35.33
-36.14
-34.95
-31.08
-24.81
-17.36
-10.33
-5.06
-2.13
-1.27
-1.57
-1.89
-1.31
0.53
3.38
6.58
9.45
11.60
12.97
13.67
13.59
12.44
9.93
6.16
1.82
-2.01
-4.24
-4.44
-2.97
-0.83
0.96
1.91
2.15
2.17
2.37
2.74
2.94
2.47
0.96
-1.66
-5.23
-9.49
-14.21
-19.13
-23.73
-27.17
-28.55
-27.30
-23.72
-19.05
-15.11
-13.42
-14.48
-17.58
-21.23
-23.87
-24.48
-22.76
-18.96
-13.56
-7.22
-0.87
4.31
7.16
6.96
3.84
-1.09
-6.23
-10.09
-11.85
-11.40
-8.95
-4.76
1.02
8.22
16.35
24.41
31.22
35.69
37.25
36.02
32.67
28.30
23.95
20.42
18.04
16.56
15.43
13.89
11.26
7.14
1.77
-4.06
-9.22
-12.62
-13.71
-12.67
-10.31
-7.76
-6.18
-6.18
-7.61
-9.84
-12.02
-13.73
-14.80
-14.95
-13.78
-11.21
-7.63
-4.02
-1.52
-0.70
-1.08
-1.34
-0.27
2.12
4.45
4.84
2.28
-2.65
-7.98
-11.73
-13.22
-13.54
-14.67
-17.77
-22.44
-27.06
-29.81
-29.77
-27.35
-23.88
-20.80
-18.79
-17.42
-15.66
-12.47
-7.12
0.50
9.64
18.96
26.96
32.52
35.35
35.85
34.90
33.45
32.13
31.09
30.29
29.82
30.03
31.41
34.27
38.37
43.06
47.43
50.97
53.67
55.88
57.79
59.17
59.41
57.98
54.79
50.37
45.45
40.52
35.52
30.15
24.28
18.31
13.04
9.20
7.02
6.08
5.66
5.17
4.49
3.74
2.93
1.72
-0.52
-4.31
-9.86
-16.94
-24.81
-32.34
-38.11
-40.59
-38.54
-31.66
-21.06
-9.34
0.27
4.92
3.35
-3.58
-13.32
-22.77
-29.53
-32.80
-33.31
-32.55
-31.88
-31.72
-31.40
-29.73
-25.81
-19.73
-12.63
-6.14
-1.45
1.20
2.75
4.66
7.90
12.38
16.93
20.03
20.74
19.28
16.92
15.07
14.54
14.92
15.09
13.94
11.09
7.19
3.47
1.06
0.60
1.99
4.57
7.48
9.94
11.35
11.44
10.28
8.26
5.95
4.01
3.06
3.64
6.04
10.20
15.65
21.50
26.64
30.09
31.41
30.94
29.70
29.01
30.07
33.60
39.60
46.92
53.31
55.63
50.83
37.42
16.54
-7.96
-30.92
-48.13
-58.20
-62.74
-64.87
-66.92
-69.01
-69.37
-66.08
-58.84
-49.58
-41.33
-36.28
-34.45
-33.83
-31.79
-26.86
-19.48
-11.63
-5.45
-1.98
-0.88
-0.96
-1.05
-0.61
0.01
0.11
-0.99
-3.65
-7.68
-12.50
-17.34
-21.61
-25.07
-27.98
-30.85
-34.12
-38.03
-42.47
-47.13
-51.72
-56.07
-60.10
-63.70
-66.67
-68.81
-69.94
-70.07
-69.41
-68.19
-66.70
-65.25
-64.23
-64.07
-65.04
-66.99
-69.23
-70.79
-70.72
-68.51
-64.25
-58.48
-51.92
-44.93
-37.37
-28.71
-18.50
-6.66
6.31
19.39
31.38
41.31
48.69
53.55
56.25
57.23
56.95
55.78
54.08
52.29
50.87
50.33
50.97
52.80
55.42
58.07
59.76
59.63
57.33
53.26
48.49
44.34
41.84
41.40
42.64
44.85
47.37
49.80
51.81
52.91
52.33
49.22
43.12
34.33
24.03
13.86
5.53
0.11
-2.14
-1.77
0.17
2.59
4.64
6.13
7.39
9.07
11.59
14.66
17.18
17.78
15.55
10.75
4.77
-0.43
-3.40
-3.83
-2.58
-0.99
0.13
0.93
2.38
5.42
10.12
15.28
18.93
19.31
15.98
10.05
3.84
-0.27
-1.12
0.89
4.06
6.44
6.77
5.13
2.58
0.36
-0.92
-1.55
-2.29
-3.66
-5.50
-7.07
-7.67
-7.20
-6.39
-6.31
-7.57
-9.84
-11.97
-12.58
-10.96
-7.43
-3.23
0.21
2.20
3.01
3.73
5.35
8.19
11.74
14.89
16.77
17.19
16.75
16.27
16.26
16.65
16.88
16.38
15.08
13.44
12.34
12.42
13.70
15.61
17.28
17.98
17.47
15.94
13.81
11.40
8.90
6.31
3.69
1.14
-1.29
-3.65
-6.23
-9.24
-12.66
-16.07
-18.85
-20.62
-21.65
-22.68
-24.51
-27.47
-31.13
-34.62
-37.22
-38.76
-39.57
-40.04
-40.11
-39.30
-37.07
-33.22
-28.22
-23.01
-18.47
-15.02
-12.51
-10.53
-8.55
-6.36
-3.84
-0.97
2.32
6.14
10.48
15.05
19.31
22.61
24.44
24.64
23.34
20.97
18.05
15.06
12.35
10.09
8.42
7.44
7.28
7.96
9.45
11.55
13.94
16.22
17.98
18.87
18.67
17.41
15.39
12.99
10.64
8.61
6.87
5.16
3.17
0.71
-2.06
-4.78
-7.15
-9.12
-10.90
-12.83
-15.15
-17.80
-20.55
-23.05
-25.11
-26.75
-28.12
-29.48
-30.97
-32.59
-34.15
-35.46
-36.25
-36.23
-35.25
-33.31
-30.70
-27.92
-25.41
-23.39
-21.72
-20.12
-18.38
-16.52
-14.70
-13.06
-11.55
-9.87
-7.64
-4.61
-0.66
4.12
9.48
15.11
20.60
25.35
28.64
29.78
28.40
24.76
19.72
14.58
10.68
8.91
9.44
11.63
14.47
16.92
18.38
18.72
18.22
17.20
15.96
14.70
13.71
13.35
13.96
15.67
18.13
20.66
22.56
23.36
23.21
22.69
22.59
23.47
25.41
28.08
31.02
33.85
36.42
38.70
40.55
41.56
41.16
38.96
35.05
30.08
24.89
20.21
16.35
13.26
10.78
8.78
7.12
5.44
3.18
-0.33
-5.40
-11.69
-18.13
-23.28
-25.94
-25.73
-23.30
-19.91
-16.89
-14.90
-13.78
-12.72
-10.94
-8.24
-5.13
-2.54
-1.17
-1.15
-1.94
-2.85
-3.52
-4.17
-5.15
-6.51
-7.77
-8.17
-7.27
-5.25
-2.81
-0.66
0.92
2.25
3.95
6.43
9.66
13.13
16.28
18.66
20.04
20.35
19.60
17.96
15.81
13.77
12.46
12.15
12.63
13.25
13.31
12.34
10.24
7.23
3.66
-0.29
-4.51
-8.79
-12.71
-15.84
-18.07
-19.78
-21.75
-24.54
-28.13
-31.70
-34.10
-34.53
-32.94
-30.07
-26.94
-24.23
-21.91
-19.57
-16.78
-13.66
-10.79
-8.86
-8.07
-7.91
-7.32
-5.28
-1.29
4.29
10.38
15.54
18.76
19.64
18.53
16.15
13.21
10.12
6.94
3.69
0.53
-2.06
-3.56
-3.61
-2.21
0.35
3.70
7.58
11.78
15.90
19.38
21.49
21.84
20.53
18.22
15.74
13.64
11.99
10.42
8.50
6.02
3.20
0.48
-1.80
-3.56
-5.01
-6.43
-8.05
-9.94
-12.10
-14.52
-17.17
-19.96
-22.67
-25.19
-27.47
-29.61
-31.80
-34.09
-36.35
-38.22
-39.45
-39.95
-39.98
-39.98
-40.32
-41.08
-41.97
-42.53
-42.35
-41.35
-39.76
-37.96
-36.18
-34.48
-32.66
-30.53
-28.02
-25.17
-22.06
-18.67
-14.61
-9.43
-2.78
5.24
13.92
21.97
28.10
31.47
32.02
30.37
27.50
24.35
21.44
18.88
16.52
14.27
12.20
10.73
10.40
11.45
13.68
16.33
18.44
19.21
18.50
16.81
15.03
13.85
13.24
12.50
10.77
7.62
3.46
-0.65
-3.64
-4.85
-4.30
-2.65
-0.60
1.30
2.90
4.30
5.67
7.09
8.49
9.65
10.37
10.62
10.62
10.75
11.39
12.53
13.70
14.23
13.63
12.02
10.23
9.46
10.61
13.83
18.25
22.36
24.66
24.32
21.70
18.25
15.97
16.48
20.22
26.02
31.78
35.31
35.51
32.88
29.16
26.26
25.05
25.07
24.96
23.57
20.76
17.34
14.42
12.42
10.78
8.43
4.70
0.02
-4.11
-6.11
-5.31
-2.34
1.18
3.75
4.89
5.21
5.86
7.47
9.59
10.91
10.09
6.63
1.37
-4.01
-7.77
-9.09
-8.48
-7.40
-7.37
-9.14
-12.37
-15.97
-18.78
-20.33
-20.98
-21.56
-22.70
-24.33
-25.82
-26.45
-25.85
-24.26
-22.41
-20.97
-20.17
-19.84
-19.64
-19.56
-19.86
-20.88
-22.49
-23.93
-24.11
-22.17
-18.21
-13.33
-9.10
-6.72
-6.56
-8.06
-10.24
-12.24
-13.61
-14.31
-14.32
-13.64
-12.38
-10.98
-10.11
-10.20
-11.13
-12.13
-12.21
-10.83
-8.35
-5.80
-4.14
-3.71
-4.04
-4.33
-4.05
-3.40
-2.99
-3.32
-4.08
-4.15
-2.21
2.31
8.66
15.20
20.15
22.62
22.99
22.62
22.87
24.38
26.75
28.98
30.20
30.16
29.16
27.67
25.96
23.87
21.32
18.47
15.85
14.12
13.63
14.19
15.04
15.23
13.97
11.01
6.65
1.33
-4.77
-11.87
-20.37
-30.34
-41.22
-51.77
-60.50
-66.30
-68.97
-69.07
-67.60
-65.34
-62.53
-59.02
-54.60
-49.34
-43.66
-38.13
-33.08
-28.59
-24.60
-21.14
-18.34
-16.37
-15.29
-15.02
-15.38
-16.00
-16.39
-15.87
-13.73
-9.66
-3.97
2.52
8.68
13.56
16.72
18.15
18.23
17.45
16.26
15.06
14.22
13.97
14.26
14.73
14.81
14.10
12.69
11.15
10.21
10.35
11.50
13.26
15.05
16.41
17.11
16.95
15.77
13.48
10.05
5.67
0.62
-4.79
-10.28
-15.57
-20.18
-23.55
-25.06
-24.37
-21.61
-17.33
-12.36
-7.64
-4.00
-1.94
-1.54
-2.34
-3.40
-3.51
-1.61
2.87
9.76
18.36
27.69
36.83
45.24
52.64
58.99
64.20
68.13
70.47
70.93
69.34
65.77
60.66
54.70
48.47
42.26
36.14
30.28
25.33
22.23
21.72
23.90
27.77
31.61
33.61
32.70
28.84
22.88
16.10
9.62
4.05
-0.61
-4.71
-8.74
-13.11
-17.97
-23.04
-27.63
-30.90
-32.34
-32.21
-31.37
-30.82
-31.09
-32.00
-32.76
-32.59
-31.34
-29.62
-28.43
-28.46
-29.71
-31.46
-32.78
-33.17
-32.75
-32.03
-31.25
-30.15
-28.10
-24.71
-20.34
-16.08
-13.04
-11.56
-10.92
-9.70
-6.63
-1.38
5.13
11.36
16.01
18.62
19.47
19.01
17.36
14.24
9.57
4.04
-0.83
-3.37
-2.70
0.66
5.09
8.83
11.08
12.26
13.54
15.91
19.36
22.89
25.29
25.86
24.79
22.60
19.58
15.45
9.71
2.29
-5.94
-13.45
-18.79
-21.46
-22.18
-22.37
-23.27
-25.31
-28.01
-30.48
-32.01
-32.42
-31.91
-30.89
-29.77
-28.99
-29.02
-30.22
-32.54
-35.18
-36.85
-36.30
-33.10
-27.96
-22.39
-17.83
-14.81
-12.73
-10.50
-7.41
-3.68
-0.27
1.98
3.02
3.72
5.11
7.55
10.50
13.15
15.18
17.07
19.63
23.03
26.14
27.10
24.45
18.07
9.37
0.34
-7.76
-14.98
-22.20
-29.87
-37.25
-42.51
-43.88
-40.67
-33.75
-24.93
-15.76
-6.87
2.04
11.53
21.61
31.43
39.66
45.16
47.63
47.56
45.78
42.97
39.52
35.55
31.16
26.54
21.79
16.94
12.04
7.33
3.47
1.30
1.29
3.13
5.75
7.82
8.40
7.39
5.28
2.55
-0.82
-5.33
-11.28
-17.97
-23.60
-25.87
-23.03
-14.92
-3.09
9.81
21.30
29.99
35.86
39.65
42.26
44.11
45.11
44.96
43.72
42.01
40.70
40.56
41.85
44.34
47.56
51.10
55.06
59.94
66.32
74.48
84.23
94.69
104.64
112.81
118.43
121.31
121.79
120.35
117.14
111.80
103.64
91.80
75.45
54.02
27.42
-3.62
-37.01
-69.22
-96.00
-113.70
-120.74
-118.11
-108.96
-97.19
-86.03
-77.40
-71.99
-69.97
-71.27
-75.50
-81.49
-87.01
-89.25
-86.11
-77.20
-64.36
-50.80
-39.57
-32.12
-27.68
-24.11
-19.38
-12.91
-5.85
-0.37
1.83
0.68
-2.39
-5.44
-7.39
-8.55
-10.09
-12.76
-15.89
-17.63
-16.09
-10.78
-3.12
4.16
8.49
8.84
6.13
2.53
0.10
-0.34
0.51
1.15
0.22
-2.78
-7.29
-12.18
-16.41
-19.50
-21.52
-22.92
-24.14
-25.48
-27.02
-28.78
-30.77
-32.92
-35.16
-37.28
-39.24
-41.06
-42.60
-43.57
-43.43
-41.53
-37.52
-31.75
-25.40
-20.05
-16.80
-15.79
-16.21
-16.68
-15.76
-12.45
-6.37
2.28
12.78
23.86
33.78
40.78
43.84
43.02
39.46
34.72
30.05
25.85
21.85
17.82
14.18
12.08
12.42
15.23
19.54
23.91
27.15
28.87
29.45
29.45
28.85
27.07
23.54
18.42
12.79
8.07
5.35
4.66
4.96
4.77
3.10
-0.21
-4.50
-8.90
-12.74
-15.87
-18.58
-21.20
-23.86
-26.51
-29.20
-32.20
-35.81
-40.18
-45.09
-49.84
-53.49
-55.28
-55.16
-53.85
-52.39
-51.54
-51.19
-50.33
-47.49
-41.79
-33.57
-24.38
-16.10
-9.81
-5.31
-1.18
4.14
11.25
19.25
26.19
30.38
31.36
30.09
28.08
26.43
25.18
23.53
20.75
17.09
13.84
12.65
14.30
18.27
22.87
26.17
26.77
24.47
20.18
15.44
11.67
9.69
9.55
10.63
11.99
12.93
13.29
13.45
13.80
14.40
14.89
14.86
14.32
14.13
15.56
19.36
24.98
30.51
33.68
33.48
30.86
28.44
28.95
33.67
41.41
48.93
52.53
50.08
41.90
30.40
18.85
9.89
4.72
3.02
3.78
5.97
9.03
12.82
17.08
21.38
25.05
27.58
28.73
28.74
27.95
26.64
24.77
22.04
18.19
13.09
6.88
0.10
-6.31
-11.31
-14.27
-15.12
-14.43
-12.97
-11.38
-9.65
-7.23
-3.55
1.43
6.86
11.35
13.59
13.08
10.28
6.26
2.13
-1.44
-4.40
-6.98
-9.40
-11.71
-13.67
-15.05
-15.59
-15.28
-14.36
-13.28
-12.73
-13.23
-14.87
-17.17
-19.51
-21.57
-23.53
-25.92
-28.91
-31.90
-33.36
-31.76
-26.51
-18.62
-10.16
-3.22
1.07
2.74
2.75
2.16
1.59
1.15
0.89
1.07
2.12
4.19
6.97
9.67
11.24
10.74
7.86
3.17
-2.05
-6.21
-8.02
-6.90
-3.46
0.83
4.29
5.80
5.11
2.72
-0.50
-3.79
-6.61
-8.79
-10.30
-11.06
-10.72
-9.09
-6.26
-2.69
0.78
3.10
3.42
1.66
-1.43
-4.79
-7.52
-9.52
-11.48
-14.47
-19.20
-25.51
-32.49
-38.87
-43.70
-46.81
-48.84
-50.76
-53.09
-55.37
-56.42
-55.10
-51.20
-45.95
-41.64
-40.32
-42.38
-46.08
-48.34
-46.30
-38.86
-27.33
-14.62
-3.63
4.18
9.22
13.05
17.21
22.29
27.70
32.18
34.53
34.31
32.10
28.93
25.74
22.97
20.49
17.86
14.74
11.47
9.11
8.91
11.52
16.41
22.01
26.37
28.25
27.89
26.74
26.25
26.79
27.44
26.92
24.83
22.30
21.25
22.95
26.78
30.46
31.55
29.24
25.01
21.84
22.18
26.47
32.78
38.20
40.51
39.36
35.88
31.60
27.62
24.28
21.59
19.54
18.12
16.81
14.57
10.14
2.92
-6.20
-14.82
-19.97
-19.59
-13.73
-4.80
3.94
10.08
13.12
14.35
15.46
17.25
19.01
18.97
15.95
10.30
3.86
-1.21
-3.78
-4.50
-5.09
-7.15
-10.65
-13.87
-14.74
-12.48
-8.34
-4.77
-3.66
-4.70
-5.58
-3.59
2.23
10.04
16.28
18.28
16.16
12.52
10.41
10.76
11.57
9.60
3.30
-5.43
-12.31
-13.96
-10.75
-6.85
-7.39
-14.55
-25.68
-34.96
-37.19
-31.58
-22.25
-15.30
-14.66
-19.81
-26.48
-29.97
-28.33
-23.25
-18.45
-16.71
-17.97
-19.73
-19.25
-15.60
-10.24
-5.82
-3.94
-4.00
-3.70
-1.00
4.04
9.00
10.75
7.71
1.04
-5.92
-9.98
-10.31
-8.81
-8.54
-11.08
-15.25
-17.88
-16.03
-9.15
0.42
8.94
13.55
13.65
10.45
5.51
-0.52
-8.07
-17.65
-29.01
-40.56
-49.96
-55.18
-55.22
-50.42
-42.24
-32.79
-24.70
-20.53
-22.15
-29.94
-42.80
-58.51
-74.67
-89.33
-101.23
-109.36
-112.49
-109.16
-98.44
-80.66
-57.84
-33.22
-10.21
8.72
22.88
33.02
40.70
47.39
53.94
60.42
66.40
71.53
76.00
80.74
87.09
96.10
107.83
121.12
134.01
144.84
153.06
159.51
165.67
172.52
179.52
184.64
185.39
180.15
169.26
154.86
139.76
125.93
113.50
100.92
85.99
67.04
43.65
16.49
-12.95
-42.67
-70.19
-92.75
-108.04
-115.13
-115.05
-110.73
-106.08
-104.78
-109.04
-119.00
-132.89
-147.55
-159.31
-164.69
-161.13
-147.52
-124.70
-95.14
-62.05
-28.28
4.46
35.51
64.63
91.28
114.48
133.18
146.57
154.27
156.27
152.85
144.71
133.18
120.37
108.69
100.01
94.59
90.63
84.38
71.49
48.44
14.00
-30.08
-79.48
-128.36
-170.90
-202.58
-221.03
-226.04
-219.25
-203.48
-182.43
-160.47
-142.21
-131.65
-130.81
-138.38
-149.17
-155.24
-148.63
-124.41
-82.85
-29.63
25.98
73.78
105.08
114.17
98.90
60.88
5.70
-57.47
-117.11
-161.84
-183.37
-178.57
-149.54
-101.73
-41.38
25.89
94.94
159.94
213.56
248.05
257.71
241.27
202.54
148.89
88.14
26.07
-34.54
-92.70
-147.16
-195.01
-231.56
-251.80
-252.46
-233.23
-196.87
-148.26
-93.10
-36.65
16.91
64.62
104.58
135.88
158.52
173.64
183.41
190.58
197.48
204.98
212.12
216.67
216.19
209.14
195.37
175.79
151.51
123.01
89.66
49.92
2.19
-53.86
-116.09
-179.35
-236.08
-278.01
-298.43
-294.17
-266.29
-219.40
-160.23
-96.21
-34.51
18.21
56.45
76.91
79.57
68.22
49.31
29.80
14.73
6.03
2.82
2.86
3.96
4.70
4.39
2.74
-0.09
-3.11
-4.22
-0.76
8.88
24.19
42.29
59.46
72.91
81.96
87.78
91.66
93.28
90.31
80.03
61.52
37.03
11.35
-10.41
-25.33
-33.79
-38.43
-42.00
-45.54
-48.19
-48.44
-45.58
-40.36
-34.65
-30.45
-29.04
-30.70
-35.00
-41.25
-48.81
-56.75
-64.00
-69.48
-72.66
-73.61
-72.80
-70.53
-66.59
-60.33
-51.32
-40.15
-28.37
-17.90
-9.94
-4.34
0.11
4.68
9.55
13.49
14.52
11.35
4.79
-2.39
-6.65
-5.40
2.00
14.53
30.76
49.79
71.51
95.75
121.07
144.56
162.50
171.92
171.66
162.59
146.72
126.32
103.32
79.40
56.34
36.01
19.93
8.64
1.68
-1.89
-2.68
-0.72
4.28
12.41
22.94
34.38
45.07
53.55
58.71
59.62
55.41
45.54
30.36
11.28
-9.26
-28.56
-44.44
-55.82
-62.60
-65.41
-65.13
-62.65
-58.95
-55.00
-51.52
-48.88
-46.79
-44.27
-40.18
-34.01
-26.41
-19.24
-14.63
-13.97
-17.05
-22.33
-27.82
-32.25
-35.43
-37.78
-39.46
-39.64
-37.05
-31.02
-22.55
-13.97
-7.60
-4.19
-2.43
-0.17
3.80
8.46
11.33
10.46
6.11
0.76
-2.46
-1.99
1.13
4.15
4.66
2.31
-0.89
-2.16
-0.06
4.35
8.41
9.48
6.91
2.39
-0.86
-0.24
4.45
10.59
14.13
11.87
3.30
-8.98
-20.70
-28.12
-29.99
-27.91
-25.03
-23.94
-25.33
-27.79
-29.00
-27.43
-23.55
-19.48
-17.67
-19.25
-23.22
-27.08
-28.29
-25.64
-20.01
-13.71
-8.80
-5.66
-2.62
2.65
11.37
22.36
32.35
38.00
37.92
33.55
28.02
23.95
21.79
20.09
17.01
11.96
6.31
2.21
0.81
1.16
1.03
-1.21
-5.22
-8.89
-9.96
-7.79
-3.84
-0.61
0.24
-1.02
-2.68
-3.32
-3.06
-3.40
-5.84
-10.45
-15.44
-18.28
-17.54
-14.19
-11.08
-11.07
-15.08
-21.50
-27.43
-30.41
-29.97
-27.68
-25.97
-26.36
-28.72
-31.67
-33.93
-35.27
-36.31
-37.62
-38.53
-37.12
-31.32
-20.44
-6.15
8.22
19.56
26.65
30.38
32.73
35.19
37.74
39.17
38.39
35.64
32.44
30.73
31.53
34.45
38.15
41.19
42.92
43.54
43.73
44.09
45.00
46.66
49.06
51.93
54.45
55.50
54.08
49.89
43.66
36.79
30.76
26.22
22.92
19.97
16.63
12.69
8.49
4.67
1.64
-0.75
-3.07
-5.71
-8.59
-10.88
-11.58
-10.24
-7.55
-5.25
-5.16
-7.78
-11.65
-13.81
-11.32
-3.10
9.27
22.17
31.75
35.87
34.95
31.16
26.84
23.09
19.40
14.39
7.18
-1.88
-11.36
-19.59
-25.60
-29.42
-31.67
-32.78
-32.57
-30.26
-25.22
-17.49
-8.12
1.35
9.32
14.82
17.49
17.49
14.96
9.88
2.06
-8.35
-20.66
-33.46
-44.86
-53.08
-56.96
-56.27
-51.58
-43.85
-34.03
-22.91
-11.39
-0.53
8.35
14.12
16.31
15.48
12.92
9.93
7.08
4.08
-0.04
-6.03
-13.88
-22.44
-29.90
-34.34
-34.40
-29.45
-19.73
-6.21
9.58
25.73
40.25
51.47
58.39
60.78
59.14
54.29
47.06
38.03
27.66
16.54
5.59
-3.98
-11.08
-15.16
-16.61
-16.51
-16.12
-16.17
-16.59
-16.59
-15.19
-11.93
-7.29
-2.57
0.55
0.74
-2.75
-9.84
-19.87
-31.65
-43.64
-54.21
-61.85
-65.59
-65.19
-61.13
-54.39
-45.99
-36.73
-27.26
-18.23
-10.44
-4.69
-1.52
-0.80
-1.77
-3.39
-4.89
-6.19
-7.62
-9.55
-11.77
-13.48
-13.72
-12.03
-8.73
-4.71
-0.85
2.51
5.40
7.75
8.94
7.87
3.75
-3.09
-10.79
-16.83
-19.33
-18.20
-15.07
-12.03
-10.15
-8.73
-6.05
-0.75
6.83
14.79
20.70
23.14
22.38
20.05
17.86
16.64
16.15
15.68
14.97
14.33
14.19
14.65
15.11
14.76
13.13
10.44
7.39
4.67
2.66
1.49
1.45
2.99
6.38
11.11
15.67
17.99
16.43
10.92
3.15
-4.07
-8.22
-8.27
-4.94
0.04
5.05
9.57
14.17
19.69
26.37
33.37
39.22
42.64
43.20
41.60
38.99
36.32
33.77
31.09
27.97
24.61
21.79
20.31
20.48
21.85
23.57
24.78
25.02
24.19
22.41
19.71
16.14
11.85
7.16
2.55
-1.61
-5.08
-7.86
-10.00
-11.57
-12.83
-14.13
-15.86
-18.13
-20.72
-23.13
-24.84
-25.87
-26.79
-28.42
-31.09
-34.22
-36.38
-35.87
-31.68
-24.15
-14.90
-6.09
0.55
4.44
6.35
7.93
10.52
14.42
18.61
21.38
21.37
18.56
14.43
11.00
9.73
10.62
12.15
12.29
9.78
5.08
-0.03
-3.52
-4.45
-3.30
-1.59
-0.67
-0.83
-1.27
-0.91
0.59
2.48
3.49
2.83
0.86
-1.06
-1.63
-0.48
1.43
2.46
1.21
-2.66
-8.38
-14.64
-20.24
-24.31
-26.55
-27.07
-26.29
-24.83
-23.27
-21.79
-19.82
-16.41
-11.05
-4.55
1.12
4.02
3.58
1.25
-0.17
1.66
7.01
13.60
18.05
18.02
13.75
7.96
4.03
3.84
6.68
9.88
10.72
8.21
3.53
-1.00
-3.61
-4.23
-4.16
-4.98
-7.21
-9.85
-11.16
-10.02
-6.97
-4.05
-3.52
-6.35
-11.41
-16.03
-17.85
-16.58
-14.40
-14.79
-20.16
-30.12
-41.18
-48.72
-49.66
-44.29
-36.15
-29.75
-27.79
-29.53
-31.63
-30.57
-25.23
-17.62
-11.30
-8.94
-10.46
-13.31
-14.28
-11.70
-6.40
-0.86
2.44
2.69
0.89
-0.93
-1.10
1.04
5.17
10.42
16.02
21.23
25.28
27.22
26.47
23.14
18.21
13.16
9.32
7.36
7.12
7.88
8.83
9.61
10.31
11.28
12.74
14.51
16.04
16.63
15.92
14.08
11.73
9.51
7.77
6.53
5.61
4.95
4.66
5.00
5.99
7.31
8.33
8.54
7.93
7.00
6.54
7.08
8.70
11.06
13.55
15.59
16.85
17.18
16.65
15.46
13.89
12.23
10.62
9.19
8.27
8.52
10.76
15.39
22.05
29.38
35.59
39.31
40.34
39.79
39.29
39.78
40.78
40.87
38.70
34.22
28.86
24.54
22.18
20.74
17.87
11.76
2.98
-5.54
-10.17
-9.28
-4.78
-1.07
-2.14
-8.64
-17.20
-22.77
-22.09
-16.07
-9.29
-6.82
-10.54
-17.81
-23.55
-24.18
-20.41
-16.65
-17.51
-24.16
-33.08
-38.57
-36.88
-29.24
-21.06
-18.26
-22.89
-31.83
-39.05
-39.88
-34.14
-25.96
-20.39
-19.65
-21.84
-22.80
-19.59
-12.65
-5.36
-1.18
-1.03
-2.59
-2.07
2.76
11.06
19.41
24.14
23.67
19.07
13.18
8.73
6.84
6.80
7.09
6.44
4.67
2.56
1.08
0.75
1.47
2.67
3.67
4.06
3.79
3.12
2.60
2.73
3.76
5.40
6.95
7.46
6.37
3.75
0.44
-2.41
-4.02
-4.35
-4.12
-4.18
-4.95
-6.28
-7.81
-9.42
-11.57
-14.99
-19.91
-25.65
-30.75
-33.67
-33.63
-31.09
-27.37
-23.88
-21.50
-20.20
-19.44
-18.80
-18.09
-17.41
-16.85
-16.28
-15.17
-12.94
-9.26
-4.41
0.84
5.42
8.46
9.62
9.12
7.64
5.91
4.39
3.25
2.47
2.09
2.34
3.54
5.84
9.01
12.41
15.19
16.60
16.24
14.10
10.60
6.45
2.45
-0.82
-3.23
-5.05
-6.72
-8.52
-10.35
-11.71
-12.02
-11.05
-9.05
-6.74
-4.94
-4.15
-4.51
-5.78
-7.61
-9.67
-11.50
-12.55
-12.32
-10.80
-8.68
-7.21
-7.72
-10.82
-16.03
-21.83
-26.30
-27.97
-26.35
-21.97
-15.98
-9.39
-2.81
3.64
10.01
16.27
22.11
27.08
30.89
33.57
35.49
37.18
39.03
41.01
42.63
43.27
42.52
40.61
38.26
36.47
36.02
37.06
39.22
41.94
44.63
46.98
48.72
49.43
48.58
45.72
40.98
35.12
29.30
24.66
21.58
19.64
17.84
15.37
12.06
8.40
5.22
3.01
1.65
0.57
-0.79
-2.63
-4.62
-6.37
-7.89
-9.70
-12.52
-16.71
-21.90
-27.04
-30.92
-32.66
-32.13
-29.67
-25.92
-21.55
-17.12
-13.12
-9.80
-7.13
-4.74
-2.13
1.11
4.91
8.62
11.35
12.28
11.17
8.32
4.38
0.03
-4.13
-7.65
-10.20
-11.50
-11.45
-10.22
-8.31
-6.29
-4.78
-4.09
-4.31
-5.21
-6.38
-7.29
-7.64
-7.39
-6.88
-6.61
-6.97
-7.92
-9.04
-9.65
-9.24
-7.67
-5.37
-3.17
-2.03
-2.75
-5.64
-10.34
-16.00
-21.54
-25.95
-28.66
-29.50
-28.71
-26.69
-23.90
-20.83
-17.83
-15.27
-13.31
-11.82
-10.43
-8.77
-6.67
-4.23
-1.74
0.72
3.21
5.92
8.86
11.60
13.49
13.98
13.09
11.25
9.13
7.24
5.77
4.71
4.10
4.10
5.00
6.89
9.37
11.72
13.13
13.07
11.40
8.44
4.97
1.75
-0.76
-2.67
-4.52
-7.05
-10.80
-15.58
-20.40
-23.83
-24.81
-23.12
-19.60
-15.65
-12.61
-11.14
-10.94
-11.13
-10.76
-9.27
-6.75
-3.88
-1.65
-0.86
-1.57
-2.91
-3.74
-3.36
-2.09
-1.18
-2.23
-6.41
-13.40
-21.51
-28.45
-32.42
-32.82
-30.29
-26.20
-21.89
-18.10
-14.86
-11.78
-8.47
-4.63
-0.19
4.55
8.85
11.80
12.69
11.36
8.30
4.58
1.29
-0.89
-1.95
-2.27
-2.07
-1.17
0.96
4.71
10.05
16.31
22.49
27.74
31.85
35.09
37.80
40.00
41.30
41.27
39.81
37.46
35.15
33.75
33.41
33.62
33.53
32.60
30.91
29.09
27.98
28.05
29.19
30.78
32.09
32.55
31.85
29.70
25.72
19.42
10.63
-0.04
-10.97
-19.79
-24.19
-23.01
-16.68
-7.19
2.79
10.89
15.89
17.88
17.67
16.16
13.78
10.50
6.27
1.40
-3.38
-7.31
-9.95
-11.48
-12.33
-12.82
-12.76
-11.70
-9.33
-5.94
-2.50
-0.09
0.66
-0.06
-1.47
-2.80
-3.92
-5.19
-7.05
-9.39
-11.43
-12.30
-11.73
-10.41
-9.63
-10.32
-12.32
-14.46
-15.39
-14.69
-13.25
-12.70
-14.20
-17.68
-21.66
-24.41
-25.04
-24.00
-22.55
-21.66
-21.22
-20.22
-17.69
-13.55
-8.73
-4.49
-1.39
1.29
4.99
10.63
17.46
23.25
25.52
23.27
17.69
11.32
6.60
4.23
3.02
0.85
-3.53
-9.51
-14.85
-16.84
-14.09
-7.55
-0.28
4.39
4.95
2.75
1.09
3.00
8.95
16.09
19.76
16.57
7.08
-4.10
-10.91
-9.76
-1.92
7.30
11.99
9.45
1.61
-6.67
-11.15
-11.00
-8.80
-8.20
-11.12
-16.65
-21.90
-24.25
-23.27
-20.72
-19.19
-20.18
-23.30
-26.81
-29.01
-29.24
-28.10
-26.62
-25.20
-23.27
-19.83
-14.49
-8.08
-2.45
0.72
0.91
-0.76
-2.22
-1.97
-0.12
1.74
1.98
0.22
-2.14
-2.81
-0.29
5.03
10.92
14.74
15.06
12.48
8.94
6.37
5.51
5.77
6.00
5.42
4.19
3.03
2.41
2.01
0.96
-1.50
-5.49
-10.35
-15.13
-18.91
-21.19
-21.87
-21.01
-18.71
-15.15
-10.82
-6.54
-3.39
-2.37
-4.07
-8.39
-14.37
-20.48
-25.20
-27.51
-27.08
-24.21
-19.58
-13.92
-7.81
-1.66
4.01
8.86
12.76
16.13
19.68
24.01
29.02
33.70
36.59
36.64
34.05
30.40
27.80
27.84
30.73
35.50
40.80
45.71
50.03
53.96
57.41
59.80
60.36
58.93
56.26
53.56
51.69
50.43
48.74
45.59
40.91
35.89
32.14
30.49
30.00
28.57
24.21
16.74
8.18
1.61
-0.60
1.58
5.81
8.67
7.67
2.47
-5.28
-13.24
-19.88
-24.91
-28.96
-32.39
-34.80
-35.29
-33.46
-30.04
-26.61
-24.54
-24.02
-24.08
-23.28
-20.78
-16.95
-13.08
-10.51
-9.76
-10.47
-11.76
-13.07
-14.21
-15.27
-16.23
-16.74
-16.23
-14.30
-11.13
-7.32
-3.83
-1.48
-0.67
-1.27
-2.54
-3.59
-3.64
-2.53
-0.74
0.72
0.94
-0.43
-2.82
-5.18
-6.48
-6.31
-5.09
-3.68
-2.88
-2.82
-3.17
-3.45
-3.52
-3.86
-5.14
-7.78
-11.42
-15.08
-17.66
-18.55
-17.88
-16.26
-14.37
-12.48
-10.47
-8.08
-5.32
-2.51
-0.06
1.81
3.30
4.88
6.96
9.56
12.34
14.69
16.10
16.30
15.35
13.42
10.56
6.92
2.66
-1.83
-5.87
-8.67
-9.54
-8.35
-5.46
-1.65
2.23
5.46
7.72
9.12
9.90
10.28
10.32
9.99
9.07
7.48
5.34
3.02
0.91
-0.66
-1.54
-1.81
-1.71
-1.67
-2.17
-3.74
-6.65
-10.75
-15.42
-19.79
-23.33
-26.11
-28.78
-32.25
-36.92
-42.27
-47.08
-50.10
-50.89
-50.02
-48.60
-47.51
-46.65
-44.95
-41.22
-35.18
-27.92
-21.41
-17.29
-15.88
-16.05
-15.86
-13.85
-9.95
-5.17
-0.70
3.13
6.97
11.85
18.16
25.17
31.37
35.20
35.99
34.33
31.54
28.86
26.98
25.97
25.63
25.84
26.54
27.71
29.06
30.20
30.94
31.36
31.46
30.83
28.72
24.71
19.42
14.41
11.30
10.84
12.15
13.10
11.69
7.31
1.13
-4.57
-8.02
-9.05
-9.04
-9.79
-12.25
-15.95
-19.52
-21.84
-22.70
-22.60
-22.33
-22.25
-22.43
-22.93
-24.02
-26.13
-29.60
-34.21
-39.01
-42.54
-43.29
-40.39
-33.94
-25.01
-15.27
-6.31
0.97
6.47
10.75
14.44
17.69
20.11
21.20
20.86
19.74
18.96
19.27
20.46
21.38
20.84
18.44
15.13
12.56
12.11
14.08
17.54
21.02
23.41
24.46
24.63
24.49
24.17
23.42
22.08
20.18
17.98
15.61
12.84
9.14
4.15
-1.87
-7.99
-12.89
-15.54
-15.54
-13.30
-9.72
-5.90
-2.91
-1.44
-1.90
-4.15
-7.48
-10.42
-11.22
-8.57
-2.10
7.33
18.04
28.21
36.57
42.75
47.01
49.72
50.95
50.54
48.19
43.98
38.48
32.67
27.57
23.90
22.01
21.97
23.77
27.24
31.77
36.25
39.28
39.63
36.76
31.30
24.85
19.37
16.32
16.20
18.49
22.03
25.54
27.96
28.46
26.36
21.19
12.98
2.54
-8.57
-18.55
-26.11
-30.93
-33.69
-35.69
-38.15
-41.66
-45.95
-50.16
-53.19
-54.11
-52.44
-48.28
-42.25
-35.18
-27.82
-20.55
-13.49
-6.74
-0.56
4.55
8.07
9.87
10.38
10.59
11.50
13.79
17.53
22.24
27.33
32.25
36.64
40.46
43.82
46.86
49.67
52.10
53.75
54.16
53.26
51.41
49.28
47.49
46.10
44.67
42.42
38.70
33.17
25.84
16.87
6.57
-4.67
-16.38
-28.02
-39.08
-49.37
-58.85
-67.39
-74.56
-79.51
-81.57
-80.61
-77.33
-73.01
-68.88
-65.57
-63.02
-60.80
-58.32
-55.13
-50.99
-45.80
-39.76
-33.47
-27.85
-23.78
-21.72
-21.44
-22.07
-22.60
-22.35
-21.13
-19.23
-17.01
-14.64
-12.15
-9.53
-7.05
-5.19
-4.36
-4.70
-5.79
-6.86
-7.11
-6.08
-3.86
-1.14
1.06
1.80
0.63
-2.10
-5.46
-8.35
-10.05
-10.46
-10.04
-9.51
-9.58
-10.60
-12.51
-14.82
-16.85
-18.02
-18.13
-17.48
-16.78
-16.71
-17.61
-19.37
-21.44
-23.39
-25.31
-27.63
-30.44
-32.85
-32.99
-28.86
-19.51
-5.95
9.04
22.23
31.60
37.32
41.12
44.94
49.26
52.83
53.77
51.40
47.18
44.12
44.66
49.19
55.45
60.05
60.42
56.15
48.65
39.98
31.65
24.25
18.06
13.57
11.29
10.95
11.04
9.40
4.45
-3.59
-12.61
-19.91
-23.79
-24.66
-24.37
-24.74
-26.44
-28.60
-29.82
-29.40
-27.92
-26.75
-26.96
-28.51
-30.31
-30.94
-29.64
-26.84
-23.94
-22.34
-22.51
-23.80
-24.96
-24.99
-23.87
-22.42
-21.69
-22.23
-23.62
-24.82
-25.02
-24.12
-22.82
-22.24
-23.21
-25.96
-30.02
-34.53
-38.73
-42.33
-45.57
-49.23
-54.11
-60.30
-66.49
-70.20
-68.82
-61.07
-47.81
-31.62
-15.17
0.29
15.33
30.83
46.17
58.52
64.30
61.76
52.92
43.09
38.10
41.11
50.76
62.34
70.95
74.29
73.62
71.91
71.50
72.48
73.07
71.12
65.82
57.93
49.01
40.14
31.48
22.35
12.07
0.63
-11.21
-22.46
-32.17
-39.64
-44.12
-44.73
-40.87
-33.03
-23.14
-14.19
-8.90
-8.17
-10.56
-12.87
-11.83
-5.87
4.07
15.08
23.80
27.73
25.98
18.99
8.09
-5.04
-18.29
-29.38
-35.95
-36.06
-28.89
-15.25
2.55
21.38
38.22
51.02
59.24
63.70
66.09
68.03
70.42
73.10
75.31
76.47
76.34
75.14
72.77
68.62
61.80
51.78
39.34
26.77
17.28
13.47
16.15
24.02
34.31
43.93
50.34
51.78
47.11
35.85
18.38
-3.52
-26.67
-47.31
-62.32
-70.40
-72.25
-70.11
-66.41
-62.80
-59.56
-56.12
-51.88
-46.85
-41.83
-37.92
-36.18
-36.84
-39.24
-42.17
-44.57
-46.08
-46.77
-46.84
-46.14
-44.10
-40.17
-34.35
-27.49
-20.88
-15.59
-11.80
-8.96
-6.30
-3.52
-0.94
0.74
1.13
0.47
-0.52
-1.17
-1.18
-0.63
0.30
1.55
3.09
4.84
6.45
7.44
7.61
7.17
6.72
6.79
7.47
8.37
8.84
8.45
7.27
5.78
4.52
3.70
3.10
2.29
0.94
-0.94
-3.06
-5.09
-6.77
-8.10
-9.22
-10.12
-10.67
-10.67
-10.03
-8.95
-7.93
-7.63
-8.45
-10.36
-12.71
-14.48
-14.74
-13.06
-9.76
-5.83
-2.45
-0.42
0.11
-0.20
-0.35
0.56
2.87
6.29
10.01
13.07
14.75
14.79
13.40
11.05
8.30
5.68
3.57
2.22
1.66
1.69
1.94
2.13
2.14
2.08
2.13
2.24
2.13
1.42
-0.02
-1.93
-3.57
-4.24
-3.62
-2.03
-0.17
1.26
2.07
2.50
2.93
3.45
3.73
3.09
1.02
-2.42
-6.46
-10.04
-12.44
-13.80
-14.90
-16.50
-18.74
-20.99
-22.38
-22.51
-22.02
-22.19
-24.06
-27.54
-31.32
-33.80
-34.39
-33.98
-34.28
-36.32
-39.31
-40.83
-38.28
-30.89
-20.34
-9.94
-2.57
1.05
2.66
5.26
11.04
19.87
29.24
35.93
37.80
34.72
28.26
20.56
13.20
6.91
1.91
-1.51
-2.76
-1.28
2.80
8.38
13.79
17.60
19.30
19.47
19.24
19.50
20.31
21.00
20.63
18.49
14.48
9.07
3.33
-1.28
-3.47
-2.69
0.52
4.63
7.81
8.85
7.60
4.89
1.77
-1.24
-4.46
-8.53
-13.66
-18.96
-22.81
-23.65
-20.96
-15.73
-9.97
-5.68
-4.02
-5.06
-8.05
-12.17
-16.87
-21.88
-26.79
-30.75
-32.39
-30.60
-25.24
-17.44
-9.32
-2.78
1.49
4.49
8.17
14.10
22.28
30.98
37.69
40.57
39.56
36.26
33.02
31.62
32.51
34.97
37.87
40.36
42.11
43.21
43.82
44.00
43.95
44.10
44.98
46.82
49.18
51.01
51.29
49.65
46.61
43.32
40.76
39.10
37.69
35.68
32.68
29.21
26.38
25.23
26.08
28.33
30.95
32.83
33.34
32.04
28.64
22.73
13.95
2.38
-11.27
-25.47
-38.14
-47.16
-51.03
-49.36
-43.06
-34.13
-24.87
-17.12
-11.52
-7.43
-3.55
1.00
5.93
9.77
10.57
7.24
0.22
-8.63
-17.06
-23.60
-28.19
-31.67
-34.71
-37.17
-37.94
-35.71
-29.95
-21.52
-12.44
-4.97
-0.66
0.28
-1.19
-3.47
-5.18
-5.64
-5.11
-4.50
-4.71
-6.07
-8.22
-10.34
-11.66
-12.13
-12.52
-13.85
-16.74
-20.78
-24.76
-27.43
-28.14
-27.07
-25.07
-23.04
-21.62
-21.02
-21.07
-21.48
-22.01
-22.42
-22.61
-22.50
-22.04
-21.09
-19.38
-16.51
-12.05
-5.68
2.42
11.42
19.98
26.75
30.76
31.90
30.86
28.78
26.55
24.26
21.22
16.67
10.60
4.13
-0.85
-2.74
-1.09
3.16
8.21
12.39
14.87
15.70
15.45
14.69
13.78
12.71
11.27
9.18
6.29
2.72
-0.90
-3.55
-4.41
-3.62
-2.41
-2.58
-5.51
-11.24
-18.42
-25.03
-29.54
-31.60
-31.89
-31.47
-30.92
-30.12
-28.73
-26.85
-25.29
-25.21
-27.34
-31.27
-35.56
-38.36
-38.42
-35.83
-31.71
-27.33
-23.28
-19.22
-14.26
-7.73
-0.00
7.47
12.79
14.88
14.14
12.19
10.69
10.47
11.10
11.31
10.06
7.36
4.34
2.47
2.58
4.59
7.49
9.95
10.96
10.27
8.46
6.47
5.22
5.34
7.00
9.51
11.32
10.53
6.15
-1.06
-8.54
-13.26
-13.42
-9.78
-5.47
-3.97
-6.79
-12.33
-17.01
-17.63
-13.29
-6.00
0.87
5.00
6.52
7.63
10.40
14.81
18.65
19.15
15.33
9.13
4.16
3.15
6.02
10.24
12.93
13.20
12.82
14.56
19.84
27.44
34.47
38.60
39.97
40.98
44.27
50.56
57.88
63.07
64.14
61.59
57.72
54.49
51.94
48.22
41.34
31.08
19.64
10.55
6.48
7.50
10.93
13.09
11.46
6.12
-0.60
-5.74
-7.79
-7.47
-7.19
-9.23
-14.19
-20.53
-25.63
-27.68
-26.68
-24.13
-21.86
-20.88
-20.99
-21.43
-21.71
-21.96
-22.60
-23.75
-24.93
-25.29
-24.13
-21.26
-17.09
-12.40
-7.98
-4.45
-2.17
-1.01
-0.39
0.57
2.79
6.57
11.12
14.83
16.24
14.99
11.88
8.32
5.51
3.76
2.22
-0.20
-3.89
-8.08
-11.33
-12.48
-11.48
-9.35
-7.55
-6.88
-6.93
-6.54
-4.78
-1.98
0.35
0.43
-2.39
-7.07
-11.57
-14.05
-14.01
-12.61
-11.77
-12.64
-14.71
-16.28
-16.00
-13.95
-11.75
-11.68
-15.36
-22.49
-30.91
-37.64
-40.51
-39.29
-35.55
-31.70
-29.81
-30.47
-32.67
-34.44
-34.18
-31.51
-27.33
-23.17
-20.10
-18.12
-16.12
-12.43
-6.07
2.48
11.43
18.72
22.94
24.00
22.89
20.78
18.10
14.29
8.65
1.69
-4.67
-7.87
-6.34
-0.48
7.41
14.33
18.41
19.85
20.48
22.14
25.24
28.48
29.81
28.08
23.79
18.84
15.04
12.91
11.34
8.69
4.12
-1.70
-6.87
-9.51
-9.09
-6.92
-5.44
-6.84
-11.65
-18.34
-24.31
-27.33
-26.82
-23.98
-20.87
-19.11
-19.09
-20.17
-21.52
-22.99
-25.12
-28.58
-33.20
-37.58
-39.43
-36.76
-28.96
-17.20
-3.95
8.25
17.85
24.75
30.01
34.93
40.29
45.97
51.25
55.26
57.47
57.82
56.42
53.63
49.82
45.62
41.87
39.48
38.95
40.06
41.90
43.36
43.71
42.94
41.57
40.15
38.79
37.19
34.96
32.05
28.84
25.67
22.51
18.79
13.80
7.26
-0.33
-7.82
-14.01
-18.28
-20.92
-22.69
-24.21
-25.42
-25.79
-24.86
-22.91
-21.15
-21.18
-23.95
-29.05
-34.66
-38.36
-38.35
-34.48
-28.20
-21.70
-16.73
-13.68
-11.63
-9.09
-5.05
0.39
6.08
10.59
12.96
13.25
12.19
10.64
8.96
6.87
3.81
-0.61
-6.18
-12.08
-17.16
-20.41
-21.29
-19.80
-16.48
-12.13
-7.54
-3.38
-0.08
2.21
3.63
4.46
4.90
4.87
4.18
2.70
0.56
-1.76
-3.55
-4.27
-3.78
-2.41
-0.81
0.28
0.22
-1.30
-4.32
-8.47
-13.18
-17.72
-21.53
-24.34
-26.27
-27.76
-29.15
-30.52
-31.72
-32.44
-32.37
-31.39
-29.71
-27.68
-25.64
-23.70
-21.50
-18.35
-13.44
-6.44
2.13
10.84
17.89
21.96
22.64
20.49
16.59
11.93
7.14
2.55
-1.43
-4.17
-4.97
-3.52
0.12
5.30
11.16
16.89
21.88
25.80
28.38
29.49
29.01
27.01
23.60
19.07
13.93
8.99
5.16
3.14
3.03
4.22
5.67
6.43
5.98
4.38
1.91
-1.22
-4.96
-9.24
-13.69
-17.64
-20.28
-21.08
-20.22
-18.68
-17.86
-19.05
-22.91
-29.13
-36.52
-43.36
-47.88
-48.64
-45.00
-37.17
-26.16
-13.39
-0.28
12.09
23.07
32.38
40.06
46.21
50.90
54.12
55.80
55.87
54.42
51.74
48.44
45.29
43.20
42.80
44.17
46.73
49.35
50.91
50.81
49.14
46.58
43.82
41.14
38.28
34.72
30.24
25.17
20.28
16.21
13.08
10.33
7.20
3.25
-1.35
-5.98
-10.14
-13.71
-17.03
-20.36
-23.57
-26.22
-28.02
-29.24
-30.88
-34.13
-39.60
-46.70
-53.61
-58.21
-59.07
-56.17
-50.97
-45.43
-41.09
-38.20
-35.84
-32.72
-27.98
-21.63
-14.43
-7.28
-0.68
5.40
11.17
16.53
20.89
23.41
23.65
22.08
19.86
18.31
18.21
19.47
21.32
22.81
23.35
22.87
21.65
19.87
17.49
14.36
10.44
5.98
1.60
-2.01
-4.39
-5.47
-5.56
-5.08
-4.39
-3.78
-3.41
-3.33
-3.61
-4.40
-6.02
-8.87
-13.13
-18.45
-24.07
-29.02
-32.42
-33.99
-34.05
-33.23
-32.14
-31.05
-29.83
-28.25
-26.12
-23.44
-20.27
-16.67
-12.53
-7.88
-2.95
1.79
5.85
8.98
11.17
12.53
13.30
13.62
13.57
13.15
12.16
10.21
7.05
2.68
-2.35
-6.90
-9.77
-10.23
-8.50
-5.83
-3.90
-3.80
-5.38
-7.37
-7.92
-5.89
-1.50
3.77
7.96
9.77
9.18
7.33
5.70
5.27
6.09
7.49
8.59
8.96
8.69
8.02
6.89
4.94
1.65
-3.14
-8.87
-14.36
-18.32
-20.13
-20.20
-19.91
-20.80
-23.74
-28.49
-33.75
-37.87
-39.59
-38.37
-34.54
-28.83
-21.95
-14.43
-6.59
1.26
8.92
16.19
22.94
29.00
33.96
36.93
36.69
32.34
23.86
12.50
0.63
-9.07
-14.51
-15.02
-11.44
-5.70
0.22
5.09
8.85
12.34
16.60
22.14
28.63
35.05
40.28
43.81
45.92
47.48
49.38
51.87
54.36
55.70
54.84
51.39
45.77
39.02
32.35
26.82
23.11
21.58
22.26
24.70
27.84
30.06
29.66
25.49
17.39
6.45
-5.31
-15.59
-22.49
-25.11
-23.76
-19.72
-14.59
-9.69
-5.63
-2.38
0.29
2.35
3.42
2.98
0.74
-2.87
-6.91
-10.31
-12.55
-13.95
-15.40
-17.65
-20.62
-23.40
-24.71
-23.72
-20.63
-16.51
-12.65
-9.59
-6.88
-3.36
1.99
9.21
17.03
23.44
26.80
26.68
24.00
20.31
16.85
13.84
10.70
6.54
0.90
-6.04
-13.75
-21.69
-29.55
-37.11
-44.13
-50.10
-54.53
-57.12
-57.93
-57.20
-55.09
-51.40
-45.76
-38.01
-28.42
-17.83
-7.35
2.05
9.71
15.45
19.44
22.00
23.44
23.90
23.30
21.42
18.21
13.91
9.29
5.28
2.61
1.35
0.84
0.13
-1.48
-3.93
-6.53
-8.40
-9.09
-8.93
-8.82
-9.64
-11.72
-14.57
-17.11
-18.32
-17.68
-15.40
-12.34
-9.50
-7.68
-7.24
-8.14
-10.02
-12.56
-15.45
-18.32
-20.75
-22.16
-22.26
-21.23
-19.94
-19.43
-20.43
-22.67
-24.75
-24.86
-21.94
-16.46
-10.44
-6.28
-5.46
-7.63
-11.02
-13.59
-14.27
-13.23
-11.31
-9.16
-6.82
-3.96
-0.41
3.51
7.39
10.95
14.47
18.27
22.17
25.35
26.65
25.52
22.48
18.83
15.72
13.51
11.71
9.75
7.78
6.71
7.75
11.34
16.69
22.01
25.45
25.99
23.85
20.25
16.63
14.07
12.88
12.78
13.34
14.26
15.48
17.01
18.79
20.54
21.76
22.00
21.21
19.92
19.13
19.81
22.38
26.33
30.28
32.52
31.63
27.11
19.57
10.42
1.41
-5.72
-9.65
-9.70
-5.92
0.79
8.80
16.16
21.23
23.37
23.06
21.49
19.87
18.79
18.08
17.22
15.85
14.14
12.53
11.16
9.75
7.64
4.48
0.54
-3.15
-5.43
-5.57
-3.73
-0.88
1.68
2.97
2.58
0.66
-2.11
-4.90
-6.98
-8.08
-8.50
-8.89
-9.92
-11.72
-13.74
-15.27
-16.10
-16.83
-18.46
-21.59
-25.67
-29.28
-31.00
-30.45
-28.65
-27.37
-27.83
-29.73
-31.41
-30.85
-26.95
-20.13
-12.12
-5.04
-0.45
1.36
1.36
1.31
2.88
6.78
12.23
17.32
19.79
18.58
14.36
9.08
4.78
2.24
0.53
-2.02
-6.22
-11.27
-15.25
-16.62
-15.54
-13.74
-13.36
-15.31
-18.64
-21.19
-21.15
-18.28
-13.93
-9.91
-7.25
-5.69
-4.20
-2.12
0.13
1.21
-0.14
-4.05
-9.18
-13.62
-16.24
-17.22
-17.79
-19.29
-22.02
-24.90
-26.23
-24.93
-21.38
-17.15
-14.01
-12.72
-12.67
-12.47
-11.05
-8.42
-5.54
-3.38
-2.07
-0.64
2.14
6.82
12.63
17.79
20.62
20.40
17.89
14.74
12.44
11.35
10.81
9.64
7.09
3.42
-0.13
-2.09
-1.51
1.39
5.34
8.68
10.29
10.16
9.17
8.40
8.33
8.43
7.66
5.36
2.02
-0.88
-1.80
-0.33
2.27
3.69
2.02
-2.97
-9.54
-15.14
-17.76
-17.18
-14.70
-12.06
-10.33
-9.49
-8.99
-8.66
-9.07
-11.13
-15.08
-19.78
-23.11
-23.15
-19.42
-13.21
-6.81
-1.94
1.33
4.35
8.73
14.91
21.75
27.24
29.87
29.59
27.66
25.74
24.75
24.53
24.44
24.13
24.11
25.31
28.45
33.40
39.24
44.87
49.50
52.91
55.16
56.24
55.98
54.29
51.25
47.32
43.03
38.63
33.83
28.06
21.01
13.12
5.70
0.41
-1.49
0.04
3.67
7.16
8.27
5.62
-0.79
-9.72
-19.16
-27.09
-32.07
-33.55
-31.72
-27.42
-21.88
-16.33
-11.62
-7.91
-4.67
-1.15
3.10
7.83
12.01
14.39
14.23
11.61
7.33
2.35
-2.69
-7.61
-12.28
-16.21
-18.56
-18.61
-16.53
-13.59
-11.58
-11.80
-14.28
-17.67
-20.19
-20.70
-19.29
-16.96
-14.88
-13.62
-13.08
-12.87
-12.88
-13.44
-14.94
-17.36
-19.86
-21.24
-20.53
-17.64
-13.37
-8.99
-5.66
-4.05
-4.23
-5.63
-7.41
-8.65
-8.60
-6.97
-4.05
-0.68
2.15
3.80
4.26
4.09
4.06
4.67
5.98
7.70
9.58
11.35
12.62
12.77
11.08
7.31
2.05
-3.34
-7.20
-8.58
-7.60
-5.44
-3.51
-2.61
-2.47
-2.17
-1.11
0.40
1.07
-0.52
-4.84
-10.93
-16.83
-20.57
-21.33
-19.70
-17.30
-15.93
-16.70
-19.61
-23.85
-28.26
-31.85
-34.12
-35.02
-34.90
-34.15
-33.06
-31.81
-30.48
-28.95
-27.19
-25.28
-23.24
-20.99
-18.42
-15.49
-12.33
-9.09
-5.83
-2.47
1.15
4.99
8.53
10.86
11.49
10.61
9.35
8.99
10.31
13.00
15.95
17.89
18.26
17.53
16.75
16.85
17.94
19.35
19.99
18.99
16.13
12.09
8.32
6.28
6.92
10.07
14.50
18.24
19.66
18.22
14.75
10.93
8.27
7.44
8.20
9.90
12.03
14.44
17.23
20.18
22.46
22.90
20.69
15.91
9.61
3.28
-1.70
-4.55
-4.97
-2.87
1.74
8.81
17.84
27.66
36.71
43.49
47.23
48.18
47.50
46.43
45.75
45.16
43.63
40.26
34.90
28.52
22.65
18.74
17.43
18.15
19.55
20.26
19.77
18.36
16.86
15.72
14.66
12.74
8.96
3.10
-4.01
-10.85
-16.04
-18.93
-19.87
-19.72
-19.42
-19.60
-20.46
-22.01
-24.18
-26.85
-29.49
-31.38
-31.83
-30.67
-28.36
-25.68
-23.40
-22.07
-21.92
-22.97
-24.94
-27.13
-28.33
-27.31
-23.39
-17.11
-10.01
-3.73
1.00
4.79
8.92
14.19
19.93
24.06
24.35
20.12
12.69
4.67
-1.52
-5.13
-7.00
-8.66
-10.78
-12.62
-12.39
-8.59
-1.13
8.44
17.50
23.69
25.83
24.06
19.60
14.02
8.67
4.20
0.42
-3.59
-8.85
-15.62
-23.01
-28.94
-31.26
-29.05
-23.33
-16.65
-11.75
-9.97
-10.73
-12.28
-13.07
-13.08
-13.79
-17.03
-23.42
-31.74
-39.45
-44.13
-44.91
-42.66
-39.37
-36.75
-35.23
-34.03
-31.88
-28.02
-22.64
-16.91
-12.26
-9.55
-8.56
-8.13
-6.82
-3.64
1.31
6.85
11.16
12.80
11.37
7.84
4.09
2.01
2.64
5.63
9.51
12.60
14.10
14.42
14.80
16.34
19.05
21.75
22.91
21.65
18.70
15.84
14.64
15.27
16.33
15.97
13.38
9.54
6.40
5.29
5.85
6.33
5.08
1.87
-1.90
-4.49
-5.30
-5.54
-7.30
-11.81
-18.35
-24.58
-28.04
-27.69
-24.24
-19.42
-14.76
-10.89
-7.93
-6.24
-6.46
-9.30
-14.38
-20.01
-23.51
-22.61
-16.57
-6.72
4.31
13.96
21.05
26.01
30.18
34.41
38.59
41.64
42.65
41.64
39.78
38.72
39.55
42.05
44.88
46.56
46.29
44.27
41.46
38.93
37.27
36.46
36.25
36.34
36.48
36.26
35.23
33.14
30.11
26.57
22.92
19.35
15.65
11.31
6.07
0.30
-5.01
-8.70
-10.14
-9.67
-8.53
-8.17
-9.39
-11.66
-13.43
-13.20
-10.76
-7.54
-6.01
-8.27
-14.58
-22.98
-30.24
-33.80
-33.08
-29.54
-25.38
-22.14
-19.77
-17.15
-13.24
-8.06
-2.74
1.49
4.15
5.72
7.08
8.67
9.95
9.79
7.26
2.54
-3.10
-7.93
-10.66
-10.94
-9.38
-6.87
-4.10
-1.34
1.33
3.66
5.16
5.28
3.75
0.81
-2.87
-6.48
-9.35
-11.15
-11.81
-11.52
-10.57
-9.38
-8.52
-8.62
-10.05
-12.74
-16.13
-19.41
-21.87
-23.24
-23.71
-23.78
-24.03
-24.77
-25.91
-27.05
-27.83
-28.12
-28.15
-28.26
-28.65
-29.06
-28.81
-27.14
-23.80
-19.16
-14.04
-9.13
-4.60
0.06
5.36
11.14
16.35
19.41
19.06
15.15
8.71
1.42
-5.32
-10.82
-15.08
-18.24
-19.92
-19.34
-15.86
-9.61
-1.78
5.86
11.64
14.81
15.73
15.57
15.53
16.28
17.72
19.13
19.63
18.73
16.48
13.42
10.25
7.50
5.13
2.64
-0.68
-5.17
-10.68
-16.69
-22.48
-27.44
-31.10
-33.19
-33.51
-32.01
-28.92
-25.00
-21.45
-19.56
-20.26
-23.56
-28.47
-33.24
-36.08
-35.90
-32.69
-27.48
-21.67
-16.37
-11.94
-8.09
-4.23
-0.16
3.84
7.26
9.83
11.74
13.48
15.63
18.55
22.42
27.25
33.07
39.67
46.32
51.76
54.51
53.57
48.86
41.29
32.35
23.46
15.69
9.72
6.12
5.35
7.62
12.64
19.43
26.63
33.06
38.20
42.17
45.39
48.15
50.36
51.58
51.35
49.43
45.94
41.21
35.79
30.51
26.19
23.35
21.91
21.13
20.11
18.24
15.57
12.73
10.39
8.71
7.32
5.55
2.98
-0.41
-4.46
-9.39
-15.73
-23.91
-33.42
-42.36
-48.06
-48.54
-43.95
-36.66
-29.97
-26.09
-24.86
-24.12
-21.34
-15.73
-8.94
-4.11
-3.60
-7.37
-12.82
-16.53
-16.29
-12.39
-7.33
-3.96
-3.67
-5.76
-8.15
-8.81
-6.87
-2.83
2.21
7.34
12.22
16.95
21.46
25.38
28.06
28.75
27.15
23.51
18.67
13.73
9.71
7.16
5.95
5.30
4.10
1.46
-2.74
-7.89
-12.96
-17.11
-20.08
-21.98
-23.03
-23.25
-22.58
-21.23
-19.91
-19.57
-20.76
-23.36
-26.43
-28.86
-29.89
-29.49
-28.14
-26.32
-24.04
-21.02
-17.13
-12.88
-9.23
-7.29
-7.55
-9.42
-11.42
-12.02
-10.63
-8.00
-5.72
-5.13
-6.25
-7.66
-7.34
-4.17
1.07
6.07
8.36
6.91
2.88
-1.19
-3.00
-2.07
0.14
1.26
-0.23
-3.99
-8.02
-10.06
-8.90
-5.22
-0.96
1.70
1.62
-1.06
-5.22
-9.58
-13.23
-15.74
-17.05
-17.34
-16.89
-16.32
-16.36
-17.53
-19.80
-22.42
-24.27
-24.50
-22.95
-20.30
-17.39
-14.84
-12.69
-10.75
-8.78
-6.67
-4.28
-1.24
2.94
8.42
14.47
19.39
21.38
19.65
15.13
10.09
6.98
6.98
9.57
13.08
16.05
18.01
19.55
21.30
23.23
24.59
24.59
23.34
21.88
21.49
22.63
24.53
25.86
25.80
24.66
23.44
22.88
22.88
22.76
22.21
21.80
22.83
26.10
31.13
36.18
39.34
39.69
37.61
34.17
30.07
25.18
19.03
11.98
5.60
2.03
2.50
6.40
11.57
15.65
17.56
18.00
18.83
21.52
25.97
30.61
33.31
32.60
28.45
22.08
15.34
9.69
5.83
3.45
1.76
-0.06
-2.53
-5.60
-8.81
-11.44
-13.07
-13.60
-13.46
-13.35
-13.92
-15.43
-17.41
-19.01
-19.41
-18.37
-16.51
-15.15
-15.71
-18.82
-23.87
-28.98
-31.91
-31.09
-26.55
-19.80
-13.04
-8.06
-5.35
-4.27
-3.82
-3.33
-2.86
-2.73
-3.10
-3.54
-3.36
-2.17
-0.55
0.44
-0.11
-2.24
-4.93
-6.83
-7.04
-5.85
-4.50
-4.40
-6.19
-9.51
-13.34
-16.57
-18.60
-19.37
-19.08
-17.86
-15.71
-12.60
-8.76
-4.62
-0.71
2.63
5.27
7.26
8.65
9.45
9.58
9.07
7.98
6.43
4.48
2.29
-0.01
-2.26
-4.33
-6.07
-7.31
-8.13
-8.86
-10.10
-12.33
-15.63
-19.46
-22.83
-24.72
-24.71
-23.19
-21.19
-19.68
-19.07
-18.82
-17.93
-15.67
-12.24
-8.63
-6.03
-5.14
-5.79
-7.17
-8.14
-7.78
-5.69
-2.13
2.16
6.11
8.67
8.97
6.64
1.94
-4.23
-10.61
-15.93
-19.38
-20.86
-20.69
-19.26
-16.64
-12.76
-7.48
-1.10
5.62
11.56
15.63
17.27
16.62
14.36
11.32
8.29
5.83
4.25
3.69
4.01
4.84
5.49
5.25
3.68
0.80
-3.04
-7.36
-11.61
-15.34
-18.18
-19.98
-20.62
-19.93
-17.77
-14.19
-9.88
-6.07
-4.47
-6.25
-11.39
-18.25
-24.26
-27.22
-26.55
-23.51
-20.19
-18.13
-17.19
-15.99
-13.02
-7.63
-0.32
7.90
16.24
24.43
32.13
38.47
42.04
41.75
37.77
31.91
26.83
24.60
25.64
28.66
31.87
34.32
36.47
39.68
44.95
52.12
59.80
66.08
69.48
69.58
66.93
62.48
57.01
50.79
44.02
37.06
30.64
25.58
22.32
20.66
19.84
19.06
17.89
16.42
14.97
13.78
12.77
11.52
9.42
5.89
0.62
-6.33
-14.44
-22.83
-30.27
-35.47
-37.66
-36.80
-33.75
-29.79
-26.02
-22.78
-19.76
-16.39
-12.42
-8.30
-4.93
-3.25
-3.62
-5.73
-8.72
-11.63
-13.76
-15.00
-15.59
-15.78
-15.64
-15.09
-13.93
-12.06
-9.64
-7.05
-4.89
-3.75
-4.02
-5.77
-8.48
-11.25
-13.08
-13.32
-11.99
-9.81
-7.83
-6.90
-7.17
-8.00
-8.26
-6.91
-3.59
1.12
5.98
9.57
10.86
9.51
6.07
1.62
-2.72
-6.21
-8.65
-10.32
-11.67
-12.96
-14.01
-14.31
-13.39
-11.26
-8.64
-6.76
-6.76
-9.11
-13.07
-17.00
-19.02
-17.84
-13.29
-6.57
0.38
5.60
7.95
7.49
5.30
2.76
0.88
-0.02
-0.36
-0.77
-1.58
-2.60
-3.31
-3.23
-2.21
-0.55
1.34
3.18
4.97
6.91
9.00
10.83
11.73
11.15
9.04
5.90
2.67
0.18
-1.20
-1.82
-2.38
-3.50
-5.38
-7.82
-10.40
-12.79
-14.97
-17.18
-19.67
-22.47
-25.33
-27.95
-30.15
-31.91
-33.43
-34.93
-36.53
-38.11
-39.31
-39.77
-39.29
-37.87
-35.72
-33.13
-30.37
-27.47
-24.24
-20.42
-15.89
-10.84
-5.70
-1.05
2.71
5.54
7.69
9.48
10.86
11.53
11.01
9.19
6.43
3.57
1.64
1.29
2.59
4.96
7.72
10.37
12.82
15.23
17.67
19.93
21.70
22.81
23.49
24.27
25.62
27.75
30.39
32.98
35.00
36.21
36.77
37.04
37.33
37.71
37.92
37.63
36.67
35.21
33.66
32.80
33.26
35.47
39.30
43.92
47.99
49.96
48.56
43.10
33.69
21.09
6.69
-7.79
-20.43
-29.48
-33.63
-32.45
-26.69
-18.00
-8.52
-0.23
5.69
9.03
10.48
11.06
11.59
12.32
13.05
13.25
12.48
10.57
7.69
4.17
0.49
-2.78
-5.03
-5.81
-5.05
-3.22
-1.34
-0.48
-1.28
-3.68
-6.87
-9.86
-11.99
-13.22
-13.91
-14.48
-15.12
-15.71
-16.00
-15.86
-15.51
-15.30
-15.59
-16.58
-18.27
-20.47
-22.79
-24.75
-25.88
-26.00
-25.22
-24.04
-23.02
-22.58
-22.69
-22.86
-22.47
-20.98
-18.30
-14.65
-10.57
-6.61
-3.19
-0.39
2.01
4.27
6.69
9.32
11.94
14.17
15.88
17.12
17.97
18.39
17.99
16.43
13.54
9.72
5.85
2.85
1.11
0.15
-0.87
-2.56
