1626694862.00
64.000000
-0.00
-0.00
-0.00
-0.00
-0.00
-0.00
-0.00
-0.00
-0.00
-0.00
0.00
0.01
0.01
-0.00
-0.03
-0.05
-0.05
0.00
0.13
0.36
0.66
1.01
1.37
1.72
2.06
2.40
2.79
3.24
3.80
4.42
5.06
5.66
6.20
6.68
7.15
7.68
8.31
9.14
10.09
11.04
11.88
12.56
13.14
13.76
14.65
15.96
17.91
20.32
22.90
25.38
27.58
29.57
31.68
34.32
37.81
42.54
48.15
54.10
59.83
64.97
69.58
74.14
79.34
85.71
93.76
103.00
112.62
121.73
129.77
136.75
143.30
150.75
157.77
166.64
177.95
191.79
206.97
220.57
228.25
225.36
208.53
176.87
132.76
80.05
23.07
-34.94
-92.44
-149.16
-205.23
-260.37
-313.74
-363.87
-409.83
-450.91
-486.50
-515.74
-537.23
-549.22
-549.96
-538.37
-514.21
-478.67
-433.88
-382.45
-327.02
-269.84
-212.63
-156.66
-102.95
-52.37
-5.90
35.58
71.43
101.35
125.50
144.38
158.69
169.15
176.37
180.75
182.57
182.07
179.51
175.23
169.65
163.18
156.15
148.81
141.30
133.69
126.02
118.33
110.69
103.16
95.80
88.68
81.83
75.25
68.95
62.95
57.25
51.86
46.78
42.03
37.59
33.45
29.61
26.07
22.81
19.83
17.11
14.67
12.48
10.54
8.83
7.35
6.07
4.97
4.05
3.27
2.62
2.09
1.65
1.30
1.01
0.79
0.61
0.48
0.38
0.30
0.25
0.22
0.20
0.20
0.21
0.23
0.25
0.28
0.32
0.36
0.40
0.44
0.49
0.54
0.59
0.64
0.69
0.75
0.82
0.89
0.96
1.05
1.14
1.24
1.36
1.49
1.63
1.79
1.98
2.18
2.40
2.65
2.93
3.23
3.55
3.91
4.31
4.75
5.24
5.76
6.32
6.88
7.46
8.03
8.62
9.26
9.97
10.78
11.66
12.61
13.60
14.61
15.63
16.68
17.79
18.97
20.22
21.45
22.55
23.36
23.71
23.46
22.54
20.96
18.74
15.95
12.59
8.64
4.11
-0.93
-6.27
-11.58
-16.48
-20.58
-23.65
-25.72
-27.04
-27.97
-28.88
-29.90
-30.92
-31.65
-31.75
-31.08
-29.80
-28.40
-27.45
-27.43
-28.43
-30.10
-31.82
-32.98
-33.20
-32.60
-31.63
-30.90
-30.97
-32.29
-35.14
-39.48
-44.66
-49.14
-50.74
-47.29
-37.58
-22.29
-3.92
13.97
28.10
36.74
39.98
39.36
36.79
33.68
30.61
27.55
24.48
21.58
19.25
17.78
16.99
16.36
15.24
13.12
10.07
6.68
3.73
1.80
0.95
0.55
-0.46
-3.00
-7.66
-14.24
-21.70
-28.42
-32.63
-33.11
-29.50
-22.39
-13.14
-3.34
5.63
13.02
18.65
22.81
25.96
28.45
30.53
32.32
33.87
35.20
36.29
37.02
37.18
36.57
35.15
33.14
30.98
29.16
28.03
27.68
27.82
28.01
27.77
26.83
25.16
22.94
20.48
18.07
15.92
14.11
12.57
11.19
9.72
8.00
5.87
3.31
0.44
-2.52
-5.34
-7.92
-10.33
-12.83
-15.69
-19.07
-22.90
-26.85
-30.49
-33.50
-35.87
-37.89
-40.14
-43.24
-47.62
-53.30
-59.76
-66.00
-70.67
-72.50
-70.65
-65.02
-56.29
-45.67
-34.48
-23.81
-14.32
-6.19
0.64
6.39
11.30
15.63
19.63
23.47
27.19
30.64
33.57
35.75
37.05
37.58
37.59
37.44
37.43
37.73
38.39
39.29
40.23
40.94
41.12
40.43
38.64
35.69
31.79
27.42
23.25
19.88
17.63
16.39
15.70
14.92
13.59
11.56
9.04
6.42
4.03
1.98
0.10
-1.94
-4.41
-7.42
-10.90
-14.63
-18.36
-21.96
-25.36
-28.67
-32.06
-35.85
-40.33
-45.76
-52.10
-58.88
-65.17
-69.69
-71.22
-69.01
-63.06
-54.14
-43.53
-32.60
-22.43
-13.56
-6.07
0.26
5.77
10.76
15.42
19.85
24.00
27.70
30.71
32.84
34.03
34.42
34.30
34.02
33.93
34.14
34.62
35.15
35.48
35.40
34.81
33.74
32.25
30.39
28.18
25.59
22.65
19.43
16.16
13.09
10.40
8.12
6.12
4.15
1.97
-0.54
-3.38
-6.44
-9.55
-12.57
-15.46
-18.27
-21.19
-24.38
-28.07
-32.41
-37.46
-43.18
-49.20
-54.88
-59.24
-61.23
-60.09
-55.56
-48.12
-38.78
-28.76
-19.11
-10.45
-2.98
3.37
8.80
13.46
17.49
20.94
23.87
26.24
27.98
29.00
29.34
29.13
28.65
28.17
27.86
27.75
27.78
27.84
27.87
27.85
27.77
27.57
27.14
26.34
25.04
23.18
20.77
17.79
14.30
10.35
6.09
1.70
-2.58
-6.57
-10.22
-13.61
-16.89
-20.24
-23.76
-27.49
-31.37
-35.37
-39.50
-43.85
-48.63
-54.18
-60.89
-68.99
-78.30
-88.07
-96.96
-103.46
-106.35
-105.16
-100.42
-93.34
-85.45
-77.99
-71.66
-66.65
-62.79
-59.86
-57.71
-56.17
-54.96
-53.64
-51.70
-48.71
-44.40
-38.62
-31.22
-21.99
-10.67
2.87
18.52
35.81
54.03
72.24
89.44
104.65
117.04
126.00
131.28
133.08
131.98
128.79
124.26
118.92
112.97
106.45
99.34
91.67
83.64
75.57
67.75
60.44
53.71
47.44
41.35
35.07
28.31
21.04
13.49
6.11
-0.63
-6.48
-11.50
-16.14
-21.00
-26.72
-33.68
-41.84
-50.62
-58.95
-65.40
-68.58
-67.51
-62.04
-52.89
-41.50
-29.55
-18.39
-8.78
-0.80
5.90
11.74
17.00
21.77
25.99
29.60
32.56
34.88
36.51
37.43
37.64
37.25
36.57
35.91
35.55
35.55
35.74
35.85
35.64
35.05
34.16
33.13
32.06
30.95
29.69
28.18
26.36
24.25
21.89
19.36
16.72
14.12
11.77
9.88
8.58
7.76
7.03
5.88
3.82
0.64
-3.53
-8.20
-12.78
-16.75
-19.89
-22.37
-24.65
-27.37
-31.17
-36.41
-43.04
-50.45
-57.50
-62.83
-65.14
-63.68
-58.42
-50.11
-39.97
-29.29
-19.14
-10.12
-2.47
3.79
8.74
12.54
15.37
17.47
19.10
20.41
21.48
22.24
22.71
22.93
23.06
23.27
23.65
24.19
24.81
25.37
25.80
26.02
25.94
25.48
24.52
23.02
20.98
18.54
15.86
13.14
10.54
8.16
5.99
3.86
1.52
-1.27
-4.63
-8.39
-12.22
-15.69
-18.52
-20.72
-22.62
-24.78
-27.81
-32.15
-37.97
-45.05
-52.80
-60.23
-66.14
-69.31
-68.89
-64.63
-57.08
-47.34
-36.79
-26.56
-17.36
-9.33
-2.28
4.05
9.85
15.13
19.83
23.89
27.30
30.05
32.15
33.58
34.39
34.69
34.68
34.59
34.64
34.93
35.41
35.95
36.35
36.46
36.17
35.46
34.33
32.82
30.98
28.89
26.65
24.40
22.25
20.22
18.24
16.15
13.78
11.09
8.16
5.22
2.54
0.27
-1.60
-3.31
-5.21
-7.62
-10.71
-14.45
-18.60
-22.80
-26.69
-30.09
-33.00
-35.65
-38.45
-41.85
-46.26
-51.85
-58.45
-65.43
-71.74
-76.10
-77.36
-74.79
-68.40
-58.92
-47.55
-35.68
-24.45
-14.59
-6.33
0.49
6.26
11.43
16.39
21.30
26.12
30.62
34.49
37.44
39.36
40.30
40.46
40.12
39.58
39.11
38.87
38.92
39.23
39.65
40.01
40.11
39.83
39.07
37.80
36.02
33.77
31.17
28.42
25.78
23.44
21.49
19.81
18.20
16.41
14.32
11.98
9.55
7.18
4.94
2.71
0.31
-2.44
-5.62
-9.20
-13.00
-16.84
-20.51
-23.84
-26.72
-29.13
-31.18
-33.14
-35.48
-38.71
-43.29
-49.27
-56.16
-62.88
-67.96
-70.01
-68.15
-62.35
-53.40
-42.61
-31.37
-20.78
-11.46
-3.61
2.84
8.07
12.29
15.79
18.86
21.76
24.59
27.23
29.42
30.85
31.41
31.22
30.60
29.94
29.56
29.60
29.99
30.61
31.25
31.66
31.62
30.97
29.61
27.65
25.32
22.93
20.76
18.94
17.41
16.01
14.48
12.64
10.38
7.68
4.62
1.32
-2.06
-5.41
-8.66
-11.86
-15.10
-18.44
-21.85
-25.22
-28.45
-31.58
-34.86
-38.75
-43.75
-50.02
-57.21
-64.34
-70.01
-72.83
-71.89
-67.07
-58.96
-48.71
-37.58
-26.64
-16.62
-7.86
-0.45
5.76
11.04
15.74
20.14
24.37
28.32
31.68
34.11
35.40
35.62
35.13
34.42
33.92
33.85
34.23
34.93
35.79
36.60
37.20
37.43
37.15
36.23
34.70
32.63
30.26
27.79
25.39
23.16
21.10
19.15
17.21
15.16
12.94
10.53
8.00
5.52
3.24
1.22
-0.66
-2.65
-5.10
-8.22
-12.04
-16.30
-20.63
-24.66
-28.21
-31.34
-34.33
-37.53
-41.32
-46.02
-51.78
-58.54
-65.82
-72.66
-77.76
-79.81
-77.95
-72.10
-63.04
-52.10
-40.69
-29.90
-20.25
-11.82
-4.44
2.09
7.93
13.23
18.14
22.80
27.20
31.18
34.47
36.82
38.16
38.70
38.79
38.88
39.24
39.97
40.95
41.97
42.83
43.39
43.59
43.34
42.58
41.25
39.38
37.12
34.75
32.52
30.54
28.71
26.73
24.23
20.98
17.01
12.60
8.21
4.27
1.02
-1.50
-3.53
-5.39
-7.45
-9.99
-13.16
-16.93
-21.07
-25.30
-29.26
-32.77
-35.88
-38.93
-42.44
-46.96
-52.77
-59.66
-66.88
-73.25
-77.42
-78.28
-75.29
-68.63
-59.09
-47.84
-36.04
-24.64
-14.20
-5.00
2.92
9.62
15.23
19.91
23.91
27.46
30.75
33.78
36.43
38.49
39.79
40.34
40.30
39.93
39.49
39.10
38.78
38.44
37.96
37.25
36.26
34.99
33.39
31.43
29.09
26.38
23.40
20.31
17.26
14.32
11.51
8.77
6.02
3.21
0.32
-2.64
-5.60
-8.52
-11.37
-14.11
-16.77
-19.38
-22.08
-25.05
-28.54
-32.79
-37.95
-43.93
-50.33
-56.37
-61.06
-63.32
-62.41
-58.08
-50.74
-41.38
-31.19
-21.27
-12.38
-4.82
1.51
6.92
11.82
16.54
21.20
25.68
29.72
33.00
35.28
36.51
36.84
36.49
35.69
34.61
33.40
32.19
31.14
30.33
29.67
28.90
27.69
25.79
23.18
20.09
16.86
13.76
10.91
8.20
5.45
2.49
-0.73
-4.16
-7.68
-11.19
-14.64
-18.02
-21.45
-25.13
-29.31
-34.28
-40.18
-46.96
-54.11
-60.73
-65.61
-67.58
-65.84
-60.28
-51.53
-40.80
-29.45
-18.67
-9.16
-1.15
5.49
11.09
15.93
20.22
24.04
27.32
29.98
31.95
33.24
33.98
34.37
34.64
34.87
35.05
35.03
34.67
33.90
32.80
31.54
30.31
29.20
28.13
26.93
25.39
23.41
21.01
18.31
15.42
12.28
8.69
4.40
-0.72
-6.58
-12.78
-18.77
-24.05
-28.32
-31.55
-33.98
-36.00
-38.08
-40.79
-44.66
-50.14
-57.43
-66.18
-75.47
-83.75
-89.30
-90.63
-87.01
-78.71
-66.92
-53.32
-39.59
-26.95
-15.96
-6.61
1.41
8.53
15.06
21.17
26.90
32.17
36.84
40.72
43.64
45.51
46.40
46.50
46.16
45.76
45.62
45.90
46.58
47.47
48.28
48.71
48.51
47.60
46.03
43.96
41.57
39.00
36.29
33.46
30.56
27.68
24.99
22.62
20.59
18.84
17.19
15.46
13.55
11.43
9.13
6.69
4.11
1.31
-1.82
-5.39
-9.43
-13.81
-18.32
-22.68
-26.71
-30.38
-33.81
-37.32
-41.32
-46.23
-52.40
-59.87
-68.27
-76.60
-83.44
-87.26
-86.89
-82.01
-73.20
-61.73
-49.13
-36.74
-25.42
-15.52
-7.02
0.35
6.97
13.22
19.38
25.51
31.46
36.85
41.31
44.59
46.68
47.76
48.17
48.22
48.20
48.32
48.75
49.50
50.46
51.39
51.94
51.80
50.84
49.05
46.60
43.69
40.53
37.28
34.03
30.84
27.66
24.43
21.05
17.53
14.00
10.71
7.79
5.22
2.74
-0.04
-3.38
-7.32
-11.58
-15.77
-19.56
-22.88
-25.95
-29.13
-32.86
-37.49
-43.19
-49.91
-57.20
-64.20
-69.66
-72.28
-71.05
-65.65
-56.61
-45.16
-32.85
-21.08
-10.75
-2.11
5.04
11.11
16.43
21.11
25.11
28.33
30.77
32.49
33.66
34.41
34.85
35.04
35.07
35.01
35.01
35.16
35.52
36.06
36.68
37.23
37.50
37.25
36.21
34.19
31.19
27.42
23.34
19.44
16.11
13.42
11.13
8.77
5.90
2.33
-1.84
-6.26
-10.54
-14.45
-17.91
-21.08
-24.17
-27.43
-31.15
-35.58
-40.89
-47.02
-53.47
-59.28
-63.17
-63.99
-61.03
-54.36
-44.80
-33.59
-22.02
-11.15
-1.57
6.52
13.22
18.74
23.31
27.14
30.37
33.09
35.33
37.06
38.23
38.77
38.74
38.27
37.60
36.92
36.42
36.13
35.98
35.83
35.52
34.93
34.01
32.73
31.12
29.18
26.95
24.48
21.85
19.11
16.34
13.54
10.72
7.87
4.96
1.94
-1.22
-4.54
-8.05
-11.74
-15.60
-19.56
-23.52
-27.28
-30.69
-33.71
-36.47
-39.34
-42.81
-47.38
-53.34
-60.46
-67.93
-74.38
-78.24
-78.21
-73.70
-65.13
-53.74
-41.19
-29.01
-18.15
-8.91
-1.14
5.49
11.25
16.31
20.80
24.84
28.51
31.79
34.52
36.48
37.57
37.90
37.84
37.77
38.00
38.59
39.41
40.27
40.99
41.46
41.61
41.31
40.42
38.84
36.57
33.82
30.88
28.00
25.29
22.66
19.93
16.96
13.75
10.49
7.45
4.90
2.95
1.53
0.39
-0.82
-2.45
-4.74
-7.77
-11.39
-15.30
-19.13
-22.59
-25.55
-28.18
-30.84
-34.05
-38.27
-43.81
-50.53
-57.79
-64.46
-69.14
-70.55
-68.03
-61.68
-52.45
-41.75
-30.95
-20.98
-12.24
-4.62
2.17
8.40
14.16
19.45
24.20
28.36
31.89
34.73
36.78
37.95
38.27
37.92
37.20
36.46
35.98
35.88
36.09
36.43
36.65
36.51
35.86
34.64
32.88
30.71
28.27
25.75
23.27
20.87
18.54
16.17
13.62
10.84
7.85
4.77
1.74
-1.11
-3.80
-6.43
-9.17
-12.15
-15.35
-18.63
-21.76
-24.58
-27.11
-29.66
-32.72
-36.79
-42.10
-48.38
-54.86
-60.37
-63.65
-63.77
-60.38
-53.81
-44.90
-34.79
-24.54
-15.02
-6.74
0.10
5.54
9.80
13.19
16.02
18.49
20.66
22.48
23.79
24.50
24.64
24.39
24.04
23.90
24.15
24.83
25.79
26.79
27.57
27.92
27.73
26.95
25.55
23.52
20.91
17.86
14.59
11.42
8.60
6.22
4.16
2.11
-0.28
-3.25
-6.91
-11.11
-15.55
-19.84
-23.62
-26.64
-28.88
-30.59
-32.29
-34.67
-38.35
-43.69
-50.44
-57.73
-64.12
-68.07
-68.36
-64.50
-56.93
-46.83
-35.69
-24.90
-15.36
-7.41
-0.97
4.33
8.91
13.09
17.06
20.74
23.96
26.47
28.15
29.02
29.31
29.32
29.32
29.51
29.94
30.58
31.30
31.91
32.23
32.09
31.40
30.18
28.53
26.59
24.48
22.27
19.95
17.51
14.97
12.43
9.99
7.72
5.59
3.47
1.16
-1.53
-4.65
-8.14
-11.81
-15.48
-18.98
-22.24
-25.27
-28.16
-31.14
-34.53
-38.75
-44.03
-50.20
-56.55
-61.79
-64.52
-63.68
-58.97
-51.02
-41.06
-30.50
-20.42
-11.43
-3.61
3.15
9.03
14.11
18.43
21.97
24.78
26.93
28.47
29.48
30.06
30.32
30.37
30.37
30.38
30.48
30.70
31.00
31.32
31.51
31.42
30.90
29.93
28.54
26.83
24.88
22.75
20.47
18.12
15.73
13.35
10.94
8.45
5.80
2.93
-0.16
-3.44
-6.83
-10.26
-13.59
-16.72
-19.60
-22.32
-25.16
-28.54
-32.91
-38.50
-45.07
-51.82
-57.52
-60.84
-60.82
-57.22
-50.52
-41.81
-32.30
-22.94
-14.25
-6.38
0.69
6.94
12.30
16.73
20.30
23.21
25.67
27.75
29.40
30.46
30.78
30.35
29.33
27.97
26.57
25.40
24.62
24.28
24.28
24.40
24.31
23.66
22.21
19.98
17.18
14.18
11.31
8.78
6.56
4.44
2.14
-0.58
-3.80
-7.43
-11.23
-14.91
-18.24
-21.11
-23.66
-26.23
-29.37
-33.59
-39.15
-45.78
-52.59
-58.25
-61.36
-60.90
-56.61
-49.00
-39.15
-28.37
-17.78
-8.18
0.03
6.70
11.92
15.89
18.90
21.33
23.51
25.61
27.61
29.31
30.46
30.95
30.93
30.69
30.60
30.89
31.49
32.15
32.52
32.37
31.70
30.66
29.48
28.31
27.20
26.10
24.97
23.78
22.49
20.99
19.15
16.80
13.88
10.48
6.78
2.98
-0.81
-4.50
-8.17
-11.81
-15.40
-18.86
-22.15
-25.32
-28.51
-31.94
-35.80
-40.32
-45.63
-51.72
-58.22
-64.35
-69.00
-70.94
-69.33
-64.01
-55.67
-45.51
-34.88
-24.78
-15.69
-7.63
-0.40
6.16
12.08
17.35
22.00
26.07
29.60
32.55
34.77
36.16
36.70
36.57
36.14
35.80
35.86
36.43
37.36
38.35
39.04
39.13
38.48
37.14
35.28
33.12
30.82
28.48
26.09
23.61
21.02
18.26
15.37
12.38
9.42
6.64
4.17
2.09
0.33
-1.28
-3.04
-5.17
-7.82
-10.95
-14.38
-17.84
-21.11
-24.08
-26.84
-29.70
-33.10
-37.48
-42.93
-49.04
-54.88
-59.16
-60.69
-58.79
-53.53
-45.72
-36.53
-27.15
-18.43
-10.79
-4.26
1.33
6.20
10.55
14.53
18.20
21.53
24.39
26.62
28.12
28.91
29.16
29.12
28.99
28.91
28.84
28.74
28.56
28.27
27.89
27.42
26.74
25.69
24.08
21.84
19.09
16.07
13.14
10.58
8.46
6.66
4.94
2.99
0.66
-2.06
-5.02
-8.03
-10.90
-13.54
-15.96
-18.31
-20.85
-23.94
-27.99
-33.25
-39.67
-46.68
-53.23
-58.01
-59.87
-58.21
-53.19
-45.63
-36.69
-27.43
-18.60
-10.55
-3.38
2.96
8.52
13.43
17.79
21.74
25.31
28.40
30.82
32.41
33.14
33.15
32.72
32.11
31.56
31.16
30.97
31.02
31.28
31.67
31.95
31.85
31.14
29.79
27.98
26.00
24.10
22.34
20.56
18.53
16.01
12.95
9.54
6.04
2.74
-0.18
-2.73
-5.07
-7.49
-10.22
-13.36
-16.77
-20.23
-23.49
-26.41
-29.11
-31.82
-34.92
-38.75
-43.56
-49.41
-56.01
-62.66
-68.28
-71.59
-71.52
-67.61
-60.22
-50.42
-39.62
-29.07
-19.49
-11.07
-3.67
2.90
8.73
13.82
18.21
21.98
25.34
28.42
31.22
33.61
35.42
36.58
37.16
37.37
37.44
37.53
37.72
37.98
38.25
38.45
38.52
38.39
37.99
37.23
36.04
34.38
32.22
29.61
26.63
23.39
20.02
16.61
13.29
10.18
7.39
5.00
2.95
1.06
-0.95
-3.39
-6.42
-10.01
-13.94
-17.88
-21.52
-24.65
-27.25
-29.54
-31.97
-35.11
-39.43
-45.09
-51.68
-58.18
-63.22
-65.48
-64.16
-59.18
-51.23
-41.45
-31.08
-21.10
-12.11
-4.35
2.22
7.75
12.43
16.46
19.98
23.07
25.70
27.76
29.13
29.76
29.74
29.30
28.73
28.29
28.09
28.10
28.20
28.31
28.34
28.24
27.88
27.12
25.80
23.86
21.39
18.63
15.85
13.27
10.93
8.77
6.61
4.27
1.60
-1.47
-4.92
-8.64
-12.41
-15.94
-19.04
-21.67
-24.03
-26.47
-29.45
-33.39
-38.52
-44.76
-51.59
-58.05
-62.88
-64.86
-63.19
-57.78
-49.36
-39.18
-28.60
-18.68
-9.93
-2.40
4.08
9.76
14.74
19.10
22.89
26.16
28.94
31.16
32.72
33.52
33.60
33.19
32.65
32.34
32.50
33.19
34.24
35.34
36.14
36.33
35.75
34.43
32.58
30.48
28.36
26.34
24.38
22.33
20.05
17.49
14.69
11.80
8.96
6.29
3.79
1.38
-1.09
-3.84
-7.08
-10.91
-15.26
-19.92
-24.49
-28.61
-32.09
-35.00
-37.77
-41.01
-45.29
-50.87
-57.39
-63.87
-68.90
-71.06
-69.37
-63.66
-54.57
-43.36
-31.48
-20.15
-10.15
-1.77
5.08
10.61
15.16
19.01
22.47
25.77
29.04
32.24
35.16
37.50
38.99
39.54
39.31
38.61
37.83
37.32
37.22
37.45
37.75
37.77
37.20
35.87
33.80
31.12
28.02
24.65
21.11
17.46
13.79
10.23
6.99
4.26
2.12
0.46
-0.96
-2.49
-4.44
-6.99
-10.05
-13.39
-16.70
-19.71
-22.30
-24.52
-26.59
-28.86
-31.72
-35.54
-40.45
-46.14
-51.87
-56.43
-58.59
-57.49
-52.92
-45.50
-36.33
-26.61
-17.25
-8.79
-1.36
5.04
10.44
14.86
18.35
21.07
23.26
25.19
26.97
28.60
29.94
30.80
31.07
30.80
30.16
29.43
28.87
28.61
28.60
28.63
28.42
27.77
26.58
24.89
22.79
20.38
17.81
15.20
12.72
10.41
8.16
5.66
2.53
-1.49
-6.29
-11.41
-16.24
-20.25
-23.25
-25.47
-27.40
-29.64
-32.64
-36.66
-41.74
-47.66
-53.85
-59.36
-63.01
-63.69
-60.77
-54.35
-45.26
-34.79
-24.22
-14.50
-6.09
0.97
6.86
11.84
16.16
20.01
23.55
26.82
29.71
32.01
33.50
34.07
33.81
32.98
31.94
31.00
30.35
30.05
30.03
30.16
30.27
30.17
29.72
28.82
27.54
26.01
24.43
22.91
21.43
19.79
17.72
14.98
11.54
7.59
3.51
-0.29
-3.55
-6.20
-8.41
-10.46
-12.62
-15.09
-17.89
-20.91
-23.96
-26.89
-29.69
-32.53
-35.81
-39.97
-45.34
-51.87
-58.95
-65.42
-69.84
-70.91
-67.94
-61.11
-51.41
-40.26
-29.03
-18.67
-9.55
-1.64
5.25
11.31
16.65
21.34
25.50
29.23
32.64
35.66
38.14
39.92
40.90
41.19
40.98
40.58
40.21
40.01
39.95
39.91
39.71
39.20
38.27
36.90
35.14
33.06
30.80
28.44
26.06
23.65
21.19
18.61
15.89
13.11
10.36
7.72
5.17
2.61
-0.18
-3.33
-6.87
-10.64
-14.32
-17.64
-20.44
-22.78
-24.94
-27.34
-30.40
-34.50
-39.82
-46.25
-53.25
-59.89
-65.01
-67.47
-66.48
-61.87
-54.14
-44.28
-33.51
-22.89
-13.16
-4.71
2.38
8.20
12.93
16.75
19.81
22.19
23.95
25.17
25.97
26.53
27.02
27.48
27.89
28.14
28.16
28.03
27.93
28.05
28.50
29.11
29.52
29.28
28.04
25.68
22.40
18.61
14.80
11.39
8.55
6.19
4.03
1.69
-1.06
-4.30
-7.87
-11.51
-15.02
-18.28
-21.35
-24.32
-27.34
-30.56
-34.19
-38.51
-43.75
-49.89
-56.45
-62.36
-66.25
-66.83
-63.44
-56.23
-46.18
-34.69
-23.11
-12.43
-3.09
4.83
11.49
17.08
21.75
25.68
29.02
31.89
34.37
36.42
37.94
38.86
39.18
39.02
38.62
38.28
38.17
38.39
38.83
39.27
39.46
39.17
38.27
36.74
34.71
32.38
30.02
27.82
25.88
24.08
22.18
19.90
17.05
13.70
10.12
6.66
3.63
1.06
-1.22
-3.57
-6.30
-9.56
-13.35
-17.52
-21.83
-26.06
-30.08
-33.83
-37.47
-41.26
-45.65
-51.02
-57.43
-64.41
-70.84
-75.24
-76.23
-73.02
-65.81
-55.63
-44.01
-32.42
-21.83
-12.60
-4.64
2.31
8.49
14.03
19.04
23.71
28.17
32.48
36.52
40.02
42.66
44.27
44.88
44.75
44.18
43.45
42.73
42.10
41.54
41.00
40.42
39.66
38.62
37.20
35.41
33.33
31.08
28.71
26.19
23.43
20.33
16.94
13.40
10.01
6.99
4.50
2.42
0.49
-1.64
-4.23
-7.36
-10.91
-14.60
-18.12
-21.24
-23.90
-26.26
-28.68
-31.63
-35.59
-40.88
-47.42
-54.68
-61.61
-66.92
-69.37
-68.21
-63.38
-55.55
-45.83
-35.48
-25.49
-16.45
-8.55
-1.74
4.16
9.28
13.75
17.69
21.18
24.29
27.01
29.27
31.01
32.19
32.84
33.05
32.91
32.51
31.97
31.37
30.86
30.50
30.25
29.88
29.09
27.57
25.22
22.22
18.96
15.88
13.25
11.03
8.91
6.51
3.56
0.10
-3.66
-7.41
-10.95
-14.25
-17.39
-20.52
-23.71
-27.11
-30.95
-35.57
-41.28
-48.07
-55.34
-61.92
-66.34
-67.31
-64.20
-57.25
-47.46
-36.19
-24.74
-14.04
-4.60
3.44
10.16
15.73
20.39
24.43
28.09
31.51
34.62
37.19
38.98
39.88
40.04
39.80
39.61
39.76
40.27
40.91
41.37
41.38
40.88
39.93
38.63
37.05
35.14
32.83
30.15
27.22
24.25
21.41
18.77
16.22
13.63
10.88
8.01
5.17
2.46
-0.10
-2.70
-5.62
-9.10
-13.18
-17.66
-22.18
-26.34
-29.93
-32.94
-35.64
-38.49
-42.05
-46.77
-52.76
-59.61
-66.32
-71.50
-73.77
-72.21
-66.70
-57.93
-47.19
-35.87
-25.07
-15.45
-7.21
-0.23
5.72
10.94
15.73
20.30
24.74
28.97
32.77
35.85
38.02
39.27
39.85
40.12
40.43
40.94
41.62
42.19
42.34
41.78
40.40
38.25
35.57
32.69
29.96
27.70
26.09
25.10
24.53
24.01
23.16
21.72
19.65
17.09
14.30
11.49
8.75
6.02
3.13
-0.06
-3.59
-7.45
-11.49
-15.57
-19.53
-23.26
-26.76
-30.21
-33.96
-38.47
-44.03
-50.55
-57.35
-63.21
-66.70
-66.69
-62.75
-55.34
-45.59
-34.95
-24.64
-15.39
-7.40
-0.50
5.58
11.03
15.91
20.19
23.80
26.74
29.02
30.65
31.67
32.10
32.09
31.85
31.63
31.66
31.97
32.46
32.88
32.98
32.61
31.74
30.43
28.72
26.62
24.08
21.09
17.72
14.18
10.75
7.65
4.98
2.68
0.57
-1.59
-3.97
-6.68
-9.66
-12.80
-15.94
-18.97
-21.92
-24.96
-28.45
-32.78
-38.22
-44.70
-51.67
-58.07
-62.60
-64.01
-61.63
-55.52
-46.53
-35.97
-25.18
-15.18
-6.48
0.88
7.14
12.61
17.51
21.98
26.00
29.54
32.45
34.59
35.85
36.22
35.85
35.00
34.03
33.27
32.91
33.00
33.38
33.84
34.13
34.04
33.50
32.51
31.13
29.53
27.87
26.33
24.99
23.85
22.74
21.48
19.86
17.78
15.29
12.52
9.65
6.85
4.22
1.74
-0.68
-3.20
-6.02
-9.26
-12.94
-16.93
-21.03
-25.01
-28.71
-32.03
-34.98
-37.71
-40.57
-43.99
-48.39
-53.82
-59.76
-65.06
-68.25
-68.06
-63.96
-56.34
-46.39
-35.58
-25.13
-15.73
-7.55
-0.41
5.91
11.52
16.48
20.84
24.72
28.25
31.48
34.35
36.66
38.22
38.92
38.82
38.20
37.38
36.64
36.11
35.66
35.11
34.24
32.94
31.27
29.37
27.38
25.40
23.40
21.29
19.02
16.53
13.92
11.28
8.72
6.29
4.05
2.02
0.25
-1.23
-2.54
-3.88
-5.52
-7.67
-10.34
-13.31
-16.21
-18.71
-20.63
-22.16
-23.73
-25.92
-29.30
-34.12
-40.25
-47.07
-53.56
-58.52
-60.85
-59.90
-55.61
-48.57
-39.76
-30.25
-20.98
-12.50
-5.09
1.23
6.56
11.05
14.93
18.37
21.51
24.30
26.61
28.23
29.02
29.03
28.50
27.80
27.30
27.20
27.46
27.88
28.14
27.95
27.18
25.85
24.10
22.11
19.95
17.65
15.18
12.53
9.76
7.04
4.53
2.31
0.36
-1.49
-3.43
-5.61
-8.09
-10.78
-13.60
-16.43
-19.23
-21.95
-24.63
-27.32
-30.21
-33.56
-37.73
-42.92
-49.00
-55.32
-60.80
-64.14
-64.31
-60.86
-54.13
-45.03
-34.79
-24.52
-15.03
-6.72
0.35
6.33
11.43
15.89
19.89
23.49
26.64
29.19
31.02
32.09
32.55
32.66
32.66
32.74
32.92
33.15
33.38
33.57
33.72
33.74
33.50
32.84
31.63
29.89
27.79
25.54
23.31
21.24
19.32
17.50
15.68
13.66
11.30
8.50
5.32
2.04
-1.00
-3.47
-5.31
-6.74
-8.22
-10.26
-13.19
-16.96
-21.22
-25.40
-29.00
-31.78
-33.90
-35.88
-38.40
-42.10
-47.29
-53.82
-61.00
-67.65
-72.46
-74.18
-72.11
-66.18
-57.05
-45.88
-34.04
-22.74
-12.79
-4.54
2.12
7.59
12.40
17.01
21.66
26.29
30.57
34.08
36.49
37.75
38.07
37.85
37.51
37.32
37.32
37.49
37.72
37.96
38.16
38.26
38.07
37.35
35.89
33.64
30.79
27.74
24.93
22.70
21.13
20.05
19.16
18.15
16.82
15.13
13.10
10.81
8.30
5.60
2.73
-0.26
-3.35
-6.49
-9.66
-12.86
-16.06
-19.19
-22.20
-25.01
-27.61
-30.08
-32.62
-35.59
-39.40
-44.40
-50.66
-57.78
-64.85
-70.55
-73.53
-72.81
-68.12
-60.00
-49.54
-38.11
-26.89
-16.74
-8.06
-0.92
4.82
9.44
13.23
16.54
19.59
22.44
25.04
27.20
28.77
29.69
30.09
30.24
30.42
30.77
31.26
31.71
31.89
31.71
31.19
30.45
29.54
28.42
26.95
25.00
22.55
19.76
16.86
14.08
11.53
9.20
7.00
4.81
2.52
0.01
-2.83
-5.99
-9.35
-12.67
-15.70
-18.32
-20.65
-23.01
-25.86
-29.57
-34.30
-39.92
-45.97
-51.73
-56.26
-58.60
-57.99
-54.12
-47.30
-38.34
-28.35
-18.41
-9.30
-1.42
5.16
10.54
14.90
18.47
21.41
23.88
25.94
27.55
28.62
29.12
29.11
28.77
28.35
28.04
27.99
28.22
28.70
29.30
29.86
30.14
29.84
28.69
26.54
23.43
19.66
15.67
11.88
8.59
5.90
3.69
1.78
0.00
-1.72
-3.40
-5.09
-6.91
-9.01
-11.51
-14.39
-17.49
-20.60
-23.50
-26.15
-28.63
-31.25
-34.44
-38.69
-44.28
-51.14
-58.56
-65.32
-69.90
-70.97
-67.88
-60.91
-51.15
-40.06
-29.02
-18.94
-10.22
-2.82
3.51
9.07
14.12
18.83
23.28
27.38
30.97
33.86
35.93
37.24
37.93
38.22
38.28
38.20
38.06
37.97
38.04
38.34
38.83
39.29
39.44
39.00
37.83
35.97
33.66
31.20
28.91
26.95
25.30
23.76
21.98
19.63
16.54
12.80
8.75
4.84
1.48
-1.22
-3.41
-5.53
-8.00
-11.05
-14.65
-18.56
-22.47
-26.19
-29.71
-33.24
-37.09
-41.62
-47.14
-53.66
-60.84
-67.82
-73.35
-76.08
-74.92
-69.53
-60.42
-48.82
-36.27
-24.15
-13.40
-4.37
2.99
9.01
14.11
18.66
22.97
27.23
31.47
35.59
39.34
42.46
44.65
45.78
45.89
45.19
44.11
43.09
42.50
42.48
42.88
43.37
43.50
42.96
41.60
39.53
37.01
34.35
31.79
29.47
27.35
25.26
23.00
20.41
17.44
14.22
11.00
8.01
5.39
3.16
1.20
-0.67
-2.64
-4.88
-7.54
-10.67
-14.18
-17.88
-21.47
-24.77
-27.80
-30.90
-34.60
-39.41
-45.47
-52.35
-59.09
-64.36
-66.93
-66.01
-61.53
-54.02
-44.49
-34.04
-23.63
-13.93
-5.30
2.09
8.25
13.25
17.27
20.48
23.05
25.07
26.59
27.64
28.30
28.73
29.14
29.71
30.47
31.29
31.92
32.08
31.65
30.67
29.37
28.07
26.93
25.97
24.94
23.52
21.46
18.81
15.85
12.95
10.45
8.37
6.52
4.54
2.12
-0.85
-4.35
-8.19
-12.22
-16.37
-20.63
-25.09
-29.82
-34.93
-40.46
-46.37
-52.46
-58.33
-63.28
-66.51
-67.20
-64.86
-59.42
-51.38
-41.68
-31.41
-21.60
-12.90
-5.58
0.48
5.64
10.26
14.63
18.79
22.60
25.82
28.23
29.77
30.54
30.79
30.77
30.64
30.47
30.25
30.04
29.98
30.19
30.73
31.47
32.11
32.34
31.92
30.91
29.54
28.11
26.78
25.47
23.91
21.78
18.98
15.66
12.20
9.02
6.38
4.27
2.46
0.62
-1.59
-4.36
-7.76
-11.70
-16.01
-20.50
-24.96
-29.27
-33.44
-37.60
-42.07
-47.25
-53.44
-60.56
-67.99
-74.54
-78.74
-79.31
-75.64
-67.99
-57.47
-45.55
-33.64
-22.72
-13.20
-5.06
1.89
7.92
13.27
18.16
22.72
27.03
31.02
34.53
37.30
39.13
40.01
40.12
39.80
39.44
39.29
39.38
39.52
39.47
39.08
38.36
37.48
36.55
35.55
34.33
32.74
30.79
28.65
26.61
24.81
23.19
21.53
19.65
17.54
15.39
13.49
11.98
10.79
9.68
8.39
6.73
4.68
2.26
-0.52
-3.71
-7.37
-11.49
-15.88
-20.25
-24.35
-28.07
-31.62
-35.46
-40.18
-46.22
-53.53
-61.47
-68.75
-73.89
-75.59
-73.15
-66.73
-57.17
-45.77
-33.83
-22.46
-12.33
-3.75
3.32
9.14
14.16
18.78
23.27
27.66
31.75
35.21
37.75
39.26
39.83
39.69
39.12
38.41
37.81
37.48
37.50
37.81
38.24
38.57
38.55
38.04
36.95
35.29
33.13
30.56
27.68
24.61
21.47
18.33
15.27
12.34
9.60
7.04
4.64
2.31
-0.11
-2.79
-5.80
-9.13
-12.67
-16.26
-19.75
-23.09
-26.33
-29.62
-33.14
-37.14
-41.73
-46.83
-52.01
-56.50
-59.38
-59.74
-57.06
-51.38
-43.31
-33.80
-23.88
-14.36
-5.76
1.70
7.99
13.11
17.11
20.07
22.14
23.50
24.40
25.05
25.57
26.05
26.46
26.81
27.12
27.43
27.85
28.44
29.21
30.02
30.70
31.03
30.90
30.28
29.24
27.90
26.30
24.47
22.36
19.93
17.21
14.28
11.28
8.43
5.93
3.89
2.24
0.73
-1.02
-3.35
-6.47
-10.32
-14.64
-19.07
-23.27
-27.00
-30.19
-32.94
-35.53
-38.53
-42.54
-48.05
-55.04
-62.76
-69.78
-74.41
-75.28
-71.83
-64.53
-54.57
-43.48
-32.55
-22.59
-13.87
-6.33
0.24
6.03
11.18
15.81
20.01
23.82
27.25
30.20
32.49
34.02
34.75
34.83
34.49
34.04
33.71
33.60
33.72
33.99
34.31
34.60
34.80
34.84
34.63
34.14
33.30
32.12
30.67
29.09
27.50
25.97
24.45
22.82
20.93
18.67
16.05
13.22
10.32
7.42
4.46
1.27
-2.32
-6.36
-10.74
-15.20
-19.43
-23.23
-26.55
-29.55
-32.43
-35.54
-39.22
-43.85
-49.67
-56.60
-64.07
-70.89
-75.54
-76.62
-73.35
-65.91
-55.40
-43.41
-31.49
-20.70
-11.49
-3.87
2.37
7.51
11.81
15.62
19.26
22.95
26.68
30.15
32.93
34.67
35.32
35.12
34.58
34.19
34.27
34.91
35.99
37.31
38.59
39.57
39.99
39.65
38.47
36.53
34.05
31.34
28.66
26.16
23.81
21.52
19.15
16.66
14.06
11.46
8.96
6.61
4.38
2.17
-0.18
-2.81
-5.81
-9.13
-12.64
-16.14
-19.45
-22.53
-25.50
-28.69
-32.52
-37.35
-43.27
-49.92
-56.47
-61.77
-64.68
-64.39
-60.73
-54.15
-45.54
-35.92
-26.19
-16.97
-8.65
-1.42
4.62
9.54
13.50
16.73
19.49
21.88
23.91
25.47
26.43
26.78
26.63
26.22
25.80
25.64
25.84
26.35
27.00
27.53
27.74
27.50
26.77
25.53
23.78
21.50
18.71
15.56
12.25
9.05
6.07
3.31
0.60
-2.26
-5.40
-8.78
-12.24
-15.57
-18.63
-21.41
-24.07
-26.89
-30.28
-34.67
-40.27
-46.93
-54.02
-60.39
-64.73
-65.90
-63.40
-57.43
-48.87
-38.89
-28.65
-19.00
-10.37
-2.88
3.62
9.30
14.39
19.05
23.33
27.19
30.51
33.12
34.91
35.86
36.10
35.91
35.57
35.32
35.24
35.27
35.22
34.93
34.32
33.38
32.15
30.66
28.92
26.92
24.70
22.31
19.83
17.31
14.80
12.26
9.73
7.23
4.76
2.24
-0.47
-3.57
-7.20
-11.31
-15.73
-20.16
-24.33
-28.10
-31.56
-34.99
-38.79
-43.44
-49.33
-56.58
-64.83
-73.22
-80.41
-84.94
-85.67
-82.07
-74.52
-64.04
-52.05
-39.88
-28.54
-18.57
-10.12
-3.03
3.06
8.57
13.92
19.36
24.95
30.53
35.81
40.48
44.28
47.10
48.90
49.84
50.19
50.34
50.73
51.71
53.37
55.46
57.48
58.82
59.00
57.84
55.52
52.45
49.09
45.79
42.68
39.66
36.54
33.14
29.40
25.43
21.37
17.36
13.48
9.66
5.82
1.86
-2.28
-6.66
-11.29
-16.19
-21.35
-26.69
-32.01
-37.08
-41.70
-45.76
-49.42
-53.07
-57.25
-62.39
-68.60
-75.45
-81.93
-86.69
-88.45
-86.37
-80.31
-70.82
-58.91
-45.68
-32.09
-18.80
-6.28
5.10
15.03
23.27
29.82
34.90
38.90
42.21
45.03
47.33
48.91
49.61
49.48
48.82
48.11
47.77
48.02
48.76
49.63
50.14
49.87
48.60
46.43
43.70
40.81
38.08
35.61
33.25
30.76
27.98
24.93
21.79
18.72
15.79
12.88
9.80
6.39
2.69
-1.13
-4.89
-8.50
-12.04
-15.63
-19.35
-23.11
-26.73
-30.03
-33.06
-36.10
-39.67
-44.28
-50.17
-57.07
-64.10
-69.96
-73.24
-72.86
-68.42
-60.28
-49.48
-37.38
-25.27
-14.15
-4.53
3.50
10.13
15.64
20.33
24.37
27.81
30.62
32.73
34.08
34.74
34.84
34.61
34.28
34.03
33.96
34.04
34.17
34.21
34.03
33.61
32.98
32.17
31.13
29.73
27.80
25.22
22.08
18.72
15.59
13.11
11.44
10.36
9.41
8.04
5.87
2.85
-0.73
-4.47
-8.02
-11.25
-14.33
-17.56
-21.33
-25.95
-31.54
-38.02
-45.02
-51.83
-57.54
-61.12
-61.72
-58.94
-52.92
-44.32
-34.18
-23.60
-13.52
-4.60
2.93
9.15
14.38
18.99
23.22
27.02
30.10
32.14
32.93
32.57
31.48
30.22
29.32
29.11
29.68
30.93
32.59
34.33
35.78
36.54
36.32
34.96
32.55
29.32
25.65
21.89
18.31
15.07
12.24
9.80
7.72
5.91
4.31
2.82
1.30
-0.49
-2.79
-5.81
-9.62
-14.11
-19.01
-24.03
-28.90
-33.51
-37.80
-41.82
-45.70
-49.69
-54.19
-59.56
-65.81
-72.32
-77.83
-80.66
-79.45
-73.65
-63.83
-51.49
-38.40
-26.03
-15.14
-5.81
2.27
9.39
15.69
21.14
25.76
29.62
32.95
35.89
38.48
40.60
42.09
42.85
42.93
42.55
42.01
41.57
41.40
41.49
41.72
41.85
41.60
40.75
39.17
36.91
34.16
31.23
28.43
25.93
23.73
21.66
19.45
16.93
14.04
10.88
7.65
4.56
1.72
-0.88
-3.35
-5.92
-8.85
-12.34
-16.45
-21.00
-25.61
-29.85
-33.47
-36.52
-39.44
-42.87
-47.42
-53.38
-60.54
-68.10
-74.87
-79.45
-80.70
-77.97
-71.31
-61.48
-49.72
-37.37
-25.59
-15.09
-6.07
1.64
8.40
14.56
20.29
25.54
30.13
33.81
36.49
38.20
39.14
39.48
39.34
38.83
38.04
37.18
36.51
36.21
36.32
36.63
36.84
36.62
35.81
34.45
32.69
30.71
28.66
26.56
24.36
22.02
19.50
16.79
13.98
11.19
8.56
6.20
4.08
2.02
-0.29
-3.16
-6.77
-11.06
-15.74
-20.36
-24.54
-28.03
-30.92
-33.55
-36.42
-40.08
-44.84
-50.67
-57.02
-62.90
-67.05
-68.31
-65.96
-59.91
-50.79
-39.69
-27.84
-16.39
-6.11
2.57
9.57
15.08
19.41
22.93
25.92
28.46
30.45
31.72
32.16
31.87
31.11
30.28
29.64
29.29
29.12
28.95
28.67
28.34
28.11
28.11
28.31
28.44
28.07
26.90
24.79
21.98
18.84
15.78
13.02
10.52
8.11
5.56
2.73
-0.41
-3.83
-7.43
-11.09
-14.65
-17.96
-20.94
-23.61
-26.26
-29.34
-33.40
-38.86
-45.82
-53.85
-61.96
-68.79
-72.90
-73.24
-69.43
-61.89
-51.64
-39.99
-28.17
-17.07
-7.20
1.23
8.26
14.09
18.96
23.11
26.66
29.60
31.80
33.15
33.67
33.51
32.92
32.18
31.49
31.00
30.78
30.92
31.45
32.26
33.13
33.72
33.69
32.84
31.25
29.14
26.77
24.33
21.86
19.26
16.47
13.49
10.44
7.46
4.66
2.02
-0.60
-3.37
-6.44
-9.90
-13.73
-17.80
-21.93
-25.85
-29.34
-32.35
-35.06
-37.89
-41.49
-46.42
-53.00
-60.92
-69.22
-76.38
-80.72
-80.88
-76.31
-67.43
-55.47
-42.08
-28.81
-16.75
-6.44
2.08
9.06
14.87
19.90
24.48
28.85
33.06
36.98
40.27
42.58
43.68
43.59
42.62
41.29
40.11
39.46
39.46
39.94
40.56
40.92
40.68
39.63
37.73
35.09
31.92
28.54
25.24
22.27
19.72
17.53
15.46
13.20
10.52
7.35
3.81
0.17
-3.30
-6.48
-9.46
-12.46
-15.72
-19.34
-23.19
-27.00
-30.48
-33.46
-36.00
-38.39
-41.11
-44.69
-49.58
-55.87
-63.07
-70.07
-75.28
-77.14
-74.64
-67.74
-57.41
-45.26
-32.90
-21.46
-11.43
-2.77
4.72
11.17
16.63
21.16
24.95
28.32
31.51
34.55
37.21
39.15
40.16
40.29
39.94
39.62
39.73
40.41
41.46
42.50
43.12
43.05
42.20
40.60
38.34
35.58
32.51
29.32
26.18
23.16
20.25
17.36
14.40
11.35
8.23
5.11
1.98
-1.20
-4.45
-7.81
-11.19
-14.48
-17.57
-20.45
-23.19
-25.96
-29.04
-32.78
-37.51
-43.41
-50.31
-57.48
-63.72
-67.56
-67.75
-63.78
-56.02
-45.68
-34.30
-23.25
-13.37
-4.90
2.30
8.42
13.53
17.56
20.55
22.62
24.12
25.35
26.49
27.51
28.28
28.77
29.07
29.40
29.96
30.77
31.69
32.49
32.96
32.97
32.46
31.33
29.51
26.92
23.69
20.15
16.70
13.66
11.08
8.71
6.15
3.08
-0.55
-4.56
-8.62
-12.41
-15.75
-18.66
-21.30
-23.92
-26.84
-30.36
-34.77
-40.21
-46.50
-53.09
-58.99
-62.98
-63.91
-61.09
-54.52
-44.95
-33.59
-21.82
-10.75
-1.05
7.06
13.71
19.08
23.33
26.61
28.97
30.56
31.52
32.00
32.12
31.95
31.57
31.09
30.67
30.43
30.45
30.70
31.06
31.37
31.49
31.29
30.69
29.62
28.00
25.79
22.99
19.68
16.00
12.14
8.32
4.73
1.51
-1.34
-3.95
-6.60
-9.58
-13.08
-17.11
-21.43
-25.70
-29.61
-32.97
-35.94
-38.87
-42.32
-46.85
-52.76
-59.88
-67.44
-74.11
-78.40
-79.01
-75.39
-67.84
-57.44
-45.65
-33.82
-22.88
-13.18
-4.73
2.68
9.33
15.46
21.26
26.82
32.11
36.91
40.93
43.93
45.78
46.61
46.68
46.33
45.87
45.51
45.42
45.62
46.04
46.45
46.49
45.78
44.10
41.46
38.17
34.69
31.48
28.81
26.66
24.76
22.77
20.41
17.59
14.47
11.33
8.39
5.67
2.99
-0.00
-3.62
-7.96
-12.82
-17.80
-22.47
-26.52
-29.95
-33.03
-36.27
-40.29
-45.58
-52.31
-60.11
-68.01
-74.55
-78.17
-77.74
-72.92
-64.32
-53.28
-41.32
-29.71
-19.19
-9.95
-1.85
5.34
11.83
17.77
23.28
28.40
33.08
37.15
40.34
42.45
43.40
43.38
42.73
41.90
41.28
41.08
41.32
41.83
42.33
42.51
42.09
40.93
39.03
36.52
33.66
30.66
27.68
24.72
21.70
18.55
15.28
12.02
8.92
6.13
3.57
1.05
-1.67
-4.74
-8.08
-11.49
-14.73
-17.66
-20.35
-23.09
-26.22
-30.09
-34.94
-40.81
-47.45
-54.19
-60.00
-63.70
-64.24
-61.11
-54.53
-45.33
-34.71
-23.82
-13.53
-4.29
3.68
10.37
15.84
20.22
23.68
26.43
28.61
30.29
31.41
31.90
31.79
31.16
30.22
29.19
28.26
27.59
27.30
27.48
28.08
28.93
29.68
29.90
29.20
27.34
24.35
20.54
16.39
12.36
8.78
5.67
2.84
-0.05
-3.30
-6.99
-11.00
-15.02
-18.81
-22.22
-25.26
-28.10
-30.97
-34.19
-38.10
-43.04
-49.13
-56.10
-63.12
-68.95
-72.21
-71.81
-67.34
-59.16
-48.32
-36.19
-24.09
-13.02
-3.52
4.33
10.87
16.56
21.88
27.03
31.89
36.07
39.14
40.80
41.11
40.42
39.24
38.03
37.13
36.68
36.69
37.05
37.60
38.08
38.22
37.79
36.65
34.84
32.50
29.90
27.25
24.68
22.20
19.72
17.10
14.26
11.20
8.00
4.77
1.52
-1.88
-5.65
-9.99
-14.96
-20.31
-25.62
-30.41
-34.39
-37.54
-40.21
-42.94
-46.35
-50.94
-56.91
-63.96
-71.26
-77.48
-81.15
-81.07
-76.72
-68.49
-57.51
-45.26
-33.03
-21.66
-11.42
-2.30
5.85
13.12
19.56
25.21
30.19
34.55
38.30
41.33
43.54
44.95
45.76
46.31
46.88
47.66
48.58
49.42
49.94
49.92
49.27
48.02
46.27
44.16
41.84
39.45
37.09
34.76
32.41
29.94
27.31
24.48
21.53
18.52
15.54
12.64
9.85
7.17
4.56
1.90
-0.95
-4.16
-7.83
-11.91
-16.19
-20.31
-23.92
-26.90
-29.43
-32.10
-35.66
-40.79
-47.70
-55.90
-64.18
-70.96
-74.69
-74.38
-69.89
-61.82
-51.36
-39.78
-28.14
-17.21
-7.44
0.97
8.02
13.83
18.64
22.72
26.29
29.41
32.01
33.96
35.21
35.83
36.01
35.99
35.97
36.09
36.38
36.80
37.24
37.53
37.48
36.91
35.74
33.97
31.69
29.00
25.97
22.69
19.25
15.85
12.71
10.05
7.95
6.28
4.73
2.83
0.25
-3.14
-7.14
-11.30
-15.08
-18.16
-20.46
-22.29
-24.12
-26.52
-29.91
-34.44
-39.99
-45.99
-51.61
-55.79
-57.57
-56.28
-51.82
-44.66
-35.66
-25.86
-16.23
-7.43
0.15
6.42
11.50
15.60
18.95
21.70
23.92
25.63
26.80
27.52
27.91
28.16
28.42
28.75
29.10
29.36
29.44
29.33
29.06
28.69
28.19
27.45
26.30
24.59
22.30
19.57
16.68
13.88
11.33
8.97
6.60
3.94
0.80
-2.84
-6.85
-11.01
-15.05
-18.81
-22.20
-25.34
-28.43
-31.81
-35.91
-41.03
-47.32
-54.47
-61.72
-67.85
-71.52
-71.64
-67.72
-60.03
-49.58
-37.69
-25.79
-14.92
-5.71
1.73
7.69
12.61
17.01
21.21
25.29
29.09
32.36
34.89
36.63
37.69
38.29
38.61
38.83
39.04
39.33
39.67
39.97
40.03
39.66
38.71
37.20
35.24
32.99
30.52
27.85
24.98
21.90
18.67
15.39
12.15
9.05
6.16
3.53
1.18
-1.04
-3.34
-6.01
-9.28
-13.15
-17.40
-21.64
-25.53
-28.90
-31.86
-34.73
-37.99
-42.11
-47.38
-53.82
-61.01
-68.03
-73.64
-76.53
-75.74
-70.99
-62.80
-52.27
-40.73
-29.28
-18.59
-8.90
-0.19
7.62
14.53
20.55
25.75
30.23
34.12
37.45
40.12
42.00
43.02
43.30
43.11
42.81
42.67
42.87
43.37
44.00
44.44
44.42
43.70
42.22
40.10
37.58
34.94
32.34
29.76
27.08
24.12
20.82
17.25
13.62
10.17
7.05
4.26
1.65
-1.03
-4.04
-7.55
-11.56
-15.83
-20.03
-23.80
-26.95
-29.57
-32.02
-34.82
-38.51
-43.54
-49.98
-57.52
-65.21
-71.69
-75.38
-75.06
-70.27
-61.53
-50.17
-37.84
-25.95
-15.32
-6.21
1.49
7.98
13.37
17.76
21.24
23.97
26.10
27.71
28.81
29.38
29.46
29.20
28.81
28.50
28.38
28.45
28.65
28.84
28.86
28.58
27.84
26.55
24.69
22.35
19.68
16.86
14.04
11.24
8.43
5.51
2.39
-0.99
-4.60
-8.27
-11.79
-14.90
-17.46
-19.54
-21.44
-23.65
-26.67
-30.86
-36.26
-42.45
-48.61
-53.63
-56.38
-56.03
-52.30
-45.57
-36.73
-26.96
-17.35
-8.67
-1.28
4.81
9.79
13.87
17.28
20.16
22.61
24.68
26.34
27.51
28.08
28.04
27.45
26.53
25.54
24.75
24.35
24.40
24.82
25.35
25.62
25.21
23.79
21.26
17.78
13.78
9.83
6.34
3.46
0.98
-1.53
-4.50
-8.13
-12.37
-16.88
-21.34
-25.53
-29.42
-33.17
-37.08
-41.43
-46.48
-52.34
-58.78
-65.22
-70.63
-73.81
-73.67
-69.67
-61.98
-51.50
-39.50
-27.27
-15.77
-5.54
3.28
10.77
17.08
22.39
26.86
30.60
33.70
36.17
38.00
39.19
39.79
39.94
39.85
39.68
39.56
39.47
39.34
39.08
38.64
38.02
37.17
36.04
34.50
32.41
29.72
26.56
23.14
19.77
16.67
13.86
11.20
8.38
5.08
1.13
-3.46
-8.49
-13.60
-18.45
-22.77
-26.46
-29.66
-32.64
-35.81
-39.65
-44.63
-51.00
-58.59
-66.66
-73.93
-78.86
-80.07
-76.86
-69.40
-58.69
-46.20
-33.34
-21.20
-10.31
-0.84
7.34
14.40
20.47
25.69
30.11
33.82
36.88
39.33
41.21
42.58
43.47
43.93
44.03
43.86
43.53
43.14
42.73
42.27
41.67
40.77
39.46
37.69
35.43
32.77
29.80
26.70
23.59
20.55
17.53
14.45
11.16
7.52
3.49
-0.87
-5.36
-9.69
-13.53
-16.64
-19.00
-20.86
-22.79
-25.46
-29.50
-35.24
-42.49
-50.53
-58.21
-64.10
-66.92
-65.82
-60.65
-51.99
-41.03
-29.14
-17.55
-7.10
1.87
9.35
15.52
20.55
24.57
27.66
29.95
31.58
32.75
33.67
34.47
35.14
35.64
35.83
35.69
35.27
34.76
34.37
34.24
34.34
34.37
33.92
32.55
30.00
26.36
22.07
17.69
13.76
10.48
7.67
4.88
1.64
-2.34
-7.01
-12.06
-17.09
-21.83
-26.15
-30.11
-33.94
-37.98
-42.65
-48.26
-54.78
-61.69
-67.91
-72.03
-72.81
-69.58
-62.45
-52.31
-40.44
-28.12
-16.38
-5.82
3.32
11.06
17.65
23.41
28.61
33.35
37.51
40.85
43.14
44.35
44.72
44.58
44.21
43.81
43.47
43.26
43.30
43.63
44.15
44.54
44.36
43.27
41.18
38.32
35.08
31.87
28.85
26.02
23.21
20.32
17.33
14.33
11.43
8.68
6.04
3.38
0.55
-2.60
-6.15
-10.06
-14.21
-18.43
-22.53
-26.36
-29.95
-33.44
-37.14
-41.46
-46.76
-53.24
-60.69
-68.42
-75.21
-79.60
-80.32
-76.70
-68.98
-58.19
-45.87
-33.51
-22.11
-12.07
-3.21
4.79
12.24
19.18
25.44
30.82
35.16
38.44
40.77
42.33
43.27
43.65
43.57
43.16
42.64
42.34
42.52
43.28
44.44
45.57
46.15
45.78
44.34
41.99
39.08
35.94
32.76
29.56
26.31
22.96
19.56
16.24
13.12
10.26
7.64
5.10
2.43
-0.57
-4.00
-7.79
-11.78
-15.74
-19.42
-22.67
-25.48
-28.01
-30.56
-33.60
-37.58
-42.86
-49.34
-56.44
-63.04
-67.79
-69.46
-67.38
-61.61
-52.87
-42.29
-31.06
-20.17
-10.25
-1.65
5.53
11.36
16.03
19.80
22.91
25.53
27.69
29.33
30.38
30.80
30.71
30.30
29.82
29.42
29.14
28.97
28.85
28.75
28.62
28.33
27.69
26.44
24.39
21.58
18.25
14.81
11.63
8.84
6.31
3.67
0.59
-3.09
-7.20
-11.35
-15.14
-18.29
-20.83
-23.04
-25.42
-28.45
-32.57
-37.94
-44.37
-51.25
-57.56
-62.07
-63.64
-61.59
-55.90
-47.27
-36.88
-26.01
-15.74
-6.66
1.06
7.61
13.28
18.30
22.78
26.66
29.84
32.18
33.66
34.35
34.43
34.17
33.82
33.60
33.58
33.77
34.07
34.38
34.61
34.66
34.41
33.78
32.68
31.07
29.02
26.63
24.06
21.40
18.63
15.75
12.72
9.65
6.70
4.05
1.74
-0.34
-2.43
-4.84
-7.74
-11.17
-14.99
-18.97
-22.85
-26.48
-29.80
-32.97
-36.37
-40.48
-45.76
-52.26
-59.44
-66.17
-70.98
-72.56
-70.17
-63.94
-54.73
-43.81
-32.45
-21.59
-11.80
-3.24
4.14
10.46
15.91
20.65
24.83
28.55
31.86
34.72
37.05
38.68
39.54
39.58
38.94
37.92
36.90
36.25
36.11
36.37
36.72
36.75
36.15
34.85
32.93
30.63
28.19
25.74
23.33
20.88
18.29
15.50
12.52
9.45
6.46
3.69
1.20
-1.07
-3.31
-5.78
-8.69
-12.09
-15.84
-19.66
-23.22
-26.33
-28.98
-31.44
-34.18
-37.72
-42.49
-48.62
-55.79
-63.16
-69.48
-73.33
-73.60
-69.84
-62.43
-52.43
-41.21
-29.94
-19.43
-10.00
-1.72
5.40
11.37
16.19
19.96
22.91
25.32
27.42
29.34
31.06
32.50
33.59
34.25
34.42
34.12
33.46
32.65
31.91
31.37
30.94
30.37
29.29
27.46
24.86
21.68
18.28
15.02
12.09
9.48
7.03
4.51
1.74
-1.36
-4.74
-8.24
-11.68
-14.86
-17.66
-20.07
-22.29
-24.73
-27.94
-32.43
-38.35
-45.29
-52.24
-57.81
-60.68
-60.05
-55.90
-48.86
-40.03
-30.50
-21.15
-12.49
-4.72
2.16
8.28
13.76
18.71
23.15
26.99
30.08
32.34
33.74
34.40
34.51
34.31
33.97
33.60
33.30
33.11
33.08
33.16
33.23
33.12
32.63
31.63
30.05
27.91
25.26
22.17
18.74
15.15
11.65
8.49
5.77
3.42
1.19
-1.29
-4.25
-7.77
-11.70
-15.80
-19.82
-23.60
-27.12
-30.40
-33.58
-36.92
-40.80
-45.59
-51.43
-58.00
-64.37
-69.23
-71.25
-69.62
-64.30
-56.02
-45.93
-35.22
-24.80
-15.18
-6.60
0.87
7.24
12.63
17.28
21.51
25.59
29.59
33.28
36.25
38.08
38.59
37.94
36.60
35.20
34.24
34.00
34.41
35.18
35.95
36.39
36.30
35.56
34.19
32.25
29.92
27.43
24.98
22.73
20.70
18.79
16.85
14.74
12.42
9.96
7.49
5.11
2.77
0.33
-2.51
-5.98
-10.17
-14.92
-19.86
-24.51
-28.59
-32.12
-35.48
-39.26
-44.03
-50.07
-57.20
-64.71
-71.44
-76.08
-77.48
-75.05
-68.94
-59.93
-49.30
-38.29
-27.90
-18.65
-10.65
-3.85
1.91
6.81
11.00
14.72
18.19
21.49
24.57
27.22
29.24
30.55
31.26
31.58
31.73
31.83
31.87
31.80
31.61
31.35
31.11
30.86
30.49
29.78
28.51
26.60
24.07
21.09
17.84
14.50
11.22
8.10
5.22
2.61
0.22
-2.04
-4.25
-6.45
-8.61
-10.67
-12.59
-14.43
-16.35
-18.56
-21.30
-24.80
-29.22
-34.58
-40.65
-46.80
-52.10
-55.45
-55.97
-53.24
-47.51
-39.52
-30.32
-20.90
-11.97
-3.94
3.08
9.13
14.31
18.67
22.25
25.02
26.96
28.05
28.41
28.26
27.89
27.58
27.49
27.60
27.75
27.76
27.55
27.13
26.63
26.15
25.69
25.08
24.02
22.27
19.72
16.53
13.02
9.56
6.45
3.81
1.55
-0.53
-2.68
-5.03
-7.61
-10.36
-13.19
-16.06
-18.93
-21.82
-24.75
-27.78
-31.09
-35.02
-39.97
-46.21
-53.52
-61.08
-67.52
-71.34
-71.43
-67.43
-59.88
-49.93
-38.85
-27.70
-17.11
-7.32
1.56
9.45
16.26
21.98
26.72
30.66
33.96
36.66
38.69
39.91
40.30
39.94
39.12
38.18
37.48
37.27
37.66
38.60
39.82
40.93
41.52
41.28
40.10
38.13
35.66
32.98
30.29
27.65
25.00
22.26
19.35
16.31
13.25
10.29
7.52
4.92
2.32
-0.53
-3.88
-7.78
-12.07
-16.42
-20.51
-24.17
-27.44
-30.55
-33.75
-37.30
-41.47
-46.48
-52.40
-58.95
-65.35
-70.33
-72.57
-71.06
-65.58
-56.83
-46.10
-34.80
-24.02
-14.33
-5.85
1.54
7.98
13.63
18.64
23.20
27.50
31.57
35.30
38.48
40.85
42.35
43.03
43.08
42.73
42.18
41.57
41.03
40.62
40.32
39.97
39.30
38.01
35.96
33.22
30.11
27.04
24.34
22.10
20.19
18.41
16.55
14.55
12.41
10.17
7.83
5.30
2.47
-0.71
-4.21
-7.90
-11.59
-15.08
-18.28
-21.23
-24.17
-27.46
-31.48
-36.43
-42.21
-48.29
-53.78
-57.63
-58.85
-56.82
-51.48
-43.35
-33.41
-22.86
-12.79
-3.93
3.40
9.29
14.02
17.92
21.21
23.92
25.96
27.22
27.63
27.33
26.54
25.63
24.92
24.57
24.57
24.75
24.93
25.02
25.01
24.95
24.86
24.63
24.03
22.85
20.97
18.43
15.44
12.24
9.08
6.10
3.33
0.75
-1.77
-4.36
-7.26
-10.60
-14.44
-18.61
-22.76
-26.47
-29.47
-31.80
-33.91
-36.50
-40.29
-45.69
-52.49
-59.84
-66.34
-70.51
-71.14
-67.76
-60.65
-50.81
-39.54
-28.13
-17.50
-8.17
-0.23
6.47
12.12
16.94
21.10
24.71
27.80
30.35
32.26
33.46
33.96
33.91
33.55
33.18
33.04
33.22
33.70
34.37
35.08
35.67
35.95
35.69
34.71
32.94
30.51
27.71
24.97
22.59
20.68
19.06
17.42
15.46
13.07
10.33
7.52
4.84
2.35
-0.12
-2.85
-6.09
-9.89
-14.14
-18.54
-22.73
-26.48
-29.69
-32.53
-35.37
-38.80
-43.49
-49.88
-57.94
-66.90
-75.29
-81.30
-83.34
-80.60
-73.32
-62.64
-50.15
-37.34
-25.28
-14.47
-5.06
3.05
10.05
16.21
21.83
27.15
32.26
37.00
41.00
43.90
45.51
45.92
45.51
44.75
44.08
43.77
43.90
44.39
45.00
45.41
45.26
44.19
42.07
39.03
35.44
31.84
28.70
26.25
24.38
22.76
20.96
18.69
15.95
12.92
9.89
7.09
4.53
2.04
-0.63
-3.69
-7.24
-11.18
-15.32
-19.41
-23.30
-26.84
-30.06
-33.10
-36.32
-40.22
-45.26
-51.61
-58.87
-66.01
-71.60
-74.21
-72.88
-67.49
-58.67
-47.57
-35.45
-23.37
-12.12
-2.21
6.04
12.49
17.27
20.70
23.24
25.37
27.35
29.25
30.94
32.21
32.93
33.06
32.72
32.08
31.36
30.75
30.34
30.16
30.10
29.97
29.52
28.56
26.97
24.77
22.10
19.21
16.25
13.28
10.22
6.85
3.05
-1.13
-5.44
-9.52
-13.07
-16.03
-18.56
-21.08
-24.04
-27.90
-32.98
-39.34
-46.66
-54.13
-60.53
-64.49
-64.87
-61.27
-54.03
-44.16
-32.97
-21.65
-11.05
-1.68
6.22
12.63
17.66
21.58
24.74
27.49
29.99
32.22
34.01
35.16
35.62
35.46
34.85
33.99
33.07
32.24
31.68
31.48
31.63
31.95
32.10
31.70
30.42
28.09
24.77
20.70
16.27
11.85
7.79
4.21
1.04
-2.07
-5.50
-9.56
-14.24
-19.24
-24.06
-28.28
-31.72
-34.62
-37.48
-40.91
-45.48
-51.45
-58.73
-66.77
-74.56
-80.78
-84.02
-83.24
-77.98
-68.62
-56.23
-42.30
-28.37
-15.64
-4.80
4.03
11.15
17.11
22.41
27.36
31.97
36.03
39.27
41.54
42.89
43.50
43.67
43.63
43.57
43.60
43.79
44.08
44.38
44.49
44.20
43.38
42.01
40.16
37.93
35.38
32.44
29.05
25.22
21.08
16.88
12.90
9.28
5.93
2.60
-1.07
-5.28
-10.01
-15.02
-19.94
-24.45
-28.37
-31.73
-34.77
-37.92
-41.74
-46.75
-53.27
-61.12
-69.52
-77.08
-82.13
-83.28
-79.84
-72.06
-61.07
-48.38
-35.46
-23.37
-12.60
-3.18
5.11
12.46
19.02
24.78
29.71
33.75
36.85
39.08
40.51
41.29
41.60
41.62
41.49
41.33
41.29
41.49
42.04
42.95
44.02
44.87
45.00
43.98
41.63
38.13
33.97
29.71
25.76
22.19
18.74
14.97
10.58
5.48
-0.10
-5.77
-11.14
-16.01
-20.38
-24.48
-28.67
-33.30
-38.73
-45.18
-52.64
-60.72
-68.61
-75.17
-79.21
-79.82
-76.72
-70.35
-61.71
-52.03
-42.48
-33.87
-26.69
-21.14
-17.24
-14.92
-14.05
-14.40
-15.77
-17.99
-20.97
-24.63
-28.85
-33.30
-37.52
-40.97
-43.11
-43.55
-42.02
-38.36
-32.52
-24.51
-14.52
-2.85
10.02
23.53
37.08
50.04
61.78
71.63
78.97
83.32
84.49
82.71
78.49
72.63
65.86
58.73
51.47
43.95
35.83
26.66
16.12
4.24
-8.46
-20.90
-31.59
-39.01
-42.08
-40.46
-34.75
-26.17
-16.21
-6.16
3.18
11.53
19.00
25.80
32.11
37.96
43.28
47.91
51.66
54.40
56.07
56.74
56.58
55.91
55.10
54.48
54.26
54.45
54.86
55.22
55.20
54.62
53.36
51.47
48.99
45.95
42.40
38.37
33.94
29.21
24.30
19.30
14.32
9.48
4.88
0.58
-3.52
-7.64
-12.07
-17.08
-22.76
-28.91
-35.16
-41.02
-46.20
-50.69
-54.84
-59.32
-64.82
-71.84
-80.25
-89.19
-97.12
-102.16
-102.64
-97.54
-86.89
-71.68
-53.71
-35.05
-17.57
-2.54
9.56
18.99
26.44
32.76
38.59
44.21
49.51
54.18
57.89
60.50
62.04
62.78
62.99
62.91
62.65
62.23
61.64
60.87
60.02
59.22
58.46
57.60
56.35
54.39
51.55
47.94
43.88
39.86
36.28
33.30
30.80
28.43
25.74
22.43
18.44
13.99
9.47
5.27
1.57
-1.71
-4.93
-8.55
-12.91
-18.05
-23.66
-29.22
-34.22
-38.40
-41.84
-45.01
-48.55
-53.09
-59.07
-66.54
-75.08
-83.77
-91.25
-95.98
-96.63
-92.49
-83.75
-71.46
-57.20
-42.63
-29.00
-16.95
-6.56
2.44
10.42
17.65
24.23
30.15
35.37
39.75
43.23
45.72
47.23
47.82
47.68
47.08
46.34
45.76
45.53
45.65
45.94
46.06
45.66
44.50
42.54
39.91
36.83
33.48
29.89
26.05
21.99
17.84
13.86
10.27
7.17
4.42
1.71
-1.29
-4.76
-8.65
-12.79
-16.92
-20.89
-24.67
-28.40
-32.26
-36.53
-41.49
-47.40
-54.34
-61.98
-69.54
-75.78
-79.30
-78.96
-74.25
-65.46
-53.58
-39.97
-25.97
-12.65
-0.68
9.60
18.13
25.01
30.47
34.71
37.86
39.99
41.11
41.34
40.97
40.45
40.19
40.41
41.02
41.69
42.12
42.14
41.84
41.42
40.96
40.38
39.38
37.67
35.13
31.88
28.24
24.58
21.10
17.78
14.45
10.90
7.04
3.00
-0.90
-4.35
-7.22
-9.62
-11.95
-14.64
-18.03
-22.17
-26.74
-31.25
-35.24
-38.47
-41.09
-43.66
-46.99
-51.89
-58.78
-67.39
-76.62
-84.70
-89.73
-90.21
-85.61
-76.41
-63.96
-49.87
-35.60
-22.11
-9.88
0.97
10.43
18.57
25.49
31.39
36.49
40.95
44.82
47.99
50.27
51.49
51.68
51.08
50.05
48.99
48.16
47.58
47.12
46.54
45.61
44.20
42.35
40.19
37.93
35.73
33.71
31.84
30.02
28.06
25.75
22.98
19.75
16.22
12.62
9.14
5.94
3.03
0.38
-2.10
-4.57
-7.28
-10.49
-14.45
-19.18
-24.43
-29.68
-34.41
-38.32
-41.53
-44.61
-48.36
-53.52
-60.39
-68.63
-77.26
-84.73
-89.39
-89.86
-85.51
-76.61
-64.33
-50.32
-36.23
-23.34
-12.27
-3.13
4.37
10.63
16.05
20.95
25.52
29.78
33.57
36.62
38.64
39.52
39.39
38.61
37.57
36.63
35.93
35.45
35.08
34.77
34.50
34.30
34.13
33.79
32.99
31.44
29.01
25.83
22.26
18.74
15.55
12.73
10.04
7.15
3.78
-0.15
-4.52
-9.04
-13.41
-17.42
-20.96
-24.06
-26.84
-29.52
-32.33
-35.62
-39.80
-45.15
-51.68
-58.88
-65.71
-70.72
-72.52
-70.18
-63.61
-53.61
-41.59
-29.10
-17.40
-7.15
1.53
8.89
15.24
20.78
25.48
29.24
31.96
33.71
34.68
35.12
35.26
35.23
35.05
34.74
34.37
34.07
34.01
34.24
34.67
35.12
35.28
34.94
33.96
32.35
30.20
27.60
24.71
21.67
18.58
15.52
12.46
9.34
6.12
2.87
-0.23
-3.01
-5.40
-7.60
-9.99
-12.98
-16.77
-21.25
-26.05
-30.73
-35.00
-38.83
-42.46
-46.26
-50.61
-55.81
-61.99
-68.97
-76.10
-82.21
-85.89
-85.79
-81.16
-72.19
-59.93
-46.01
-32.09
-19.33
-8.30
1.04
9.03
16.07
22.42
28.22
33.45
38.03
41.87
44.85
46.91
48.05
48.34
47.99
47.20
46.26
45.35
44.62
44.14
43.85
43.66
43.36
42.74
41.55
39.64
36.98
33.75
30.29
27.06
24.36
22.25
20.51
18.71
16.48
13.63
10.28
6.73
3.36
0.36
-2.33
-4.98
-7.97
-11.59
-15.91
-20.73
-25.68
-30.34
-34.43
-37.93
-41.05
-44.18
-47.79
-52.29
-57.94
-64.66
-71.92
-78.64
-83.39
-84.73
-81.74
-74.32
-63.34
-50.28
-36.76
-24.07
-12.87
-3.24
5.07
12.40
18.99
24.89
30.02
34.24
37.42
39.51
40.58
40.79
40.37
39.53
38.45
37.30
36.28
35.59
35.31
35.37
35.50
35.34
34.53
32.91
30.55
27.69
24.61
21.55
18.62
15.81
13.07
10.29
7.34
4.11
0.53
-3.42
-7.62
-11.89
-16.02
-19.83
-23.27
-26.44
-29.60
-33.06
-37.20
-42.24
-48.21
-54.80
-61.29
-66.61
-69.58
-69.15
-64.87
-56.98
-46.40
-34.44
-22.38
-11.18
-1.31
7.17
14.41
20.63
25.99
30.56
34.31
37.17
39.08
39.97
39.92
39.15
37.99
36.85
36.04
35.72
35.82
36.14
36.40
36.37
35.90
34.93
33.52
31.73
29.63
27.27
24.67
21.83
18.76
15.46
11.98
8.39
4.82
1.36
-1.90
-4.98
-7.99
-11.14
-14.63
-18.59
-22.95
-27.52
-32.00
-36.16
-39.96
-43.65
-47.76
-52.95
-59.67
-67.87
-76.72
-84.72
-90.06
-91.20
-87.40
-78.98
-67.16
-53.66
-40.09
-27.54
-16.49
-6.91
1.53
9.26
16.57
23.64
30.43
36.73
42.15
46.35
49.08
50.37
50.53
50.08
49.57
49.39
49.65
50.16
50.53
50.37
49.44
47.75
45.44
42.73
39.76
36.59
33.30
30.09
27.28
25.16
23.88
23.35
23.22
23.06
22.53
21.47
19.93
18.12
16.22
14.38
12.63
10.94
9.24
7.48
5.59
3.58
1.45
-0.80
-3.15
-5.60
-8.17
-10.87
-13.73
-16.79
-20.12
-23.71
-27.56
-31.57
-35.61
-39.57
-43.49
-47.55
-52.11
-57.53
-63.98
-71.17
-78.22
-83.77
-86.38
-85.00
-79.35
-70.03
-58.28
-45.58
-33.25
-22.16
-12.70
-4.90
1.48
6.79
11.41
15.66
19.65
23.35
26.64
29.42
31.75
33.75
35.55
37.11
38.25
38.79
38.74
38.31
37.85
37.65
37.70
37.62
36.85
34.90
31.73
27.72
23.61
20.13
17.68
16.18
15.16
13.99
12.19
9.52
6.06
2.08
-2.13
-6.33
-10.40
-14.35
-18.31
-22.57
-27.48
-33.35
-40.27
-47.87
-55.24
-61.09
-64.11
-63.32
-58.43
-49.89
-38.82
-26.59
-14.51
-3.59
5.66
13.17
19.25
24.37
28.93
33.10
36.77
39.61
41.31
41.72
41.05
39.71
38.21
36.98
36.24
36.01
36.16
36.52
36.86
36.99
36.71
35.85
34.33
32.17
29.45
26.37
23.09
19.76
16.45
13.19
10.04
7.05
4.23
1.53
-1.24
-4.36
-8.05
-12.35
-17.09
-21.91
-26.52
-30.80
-34.86
-39.00
-43.60
-49.03
-55.52
-63.09
-71.37
-79.56
-86.32
-90.15
-89.76
-84.56
-74.90
-61.98
-47.48
-32.99
-19.69
-8.09
1.74
10.03
17.11
23.27
28.74
33.72
38.34
42.56
46.26
49.22
51.19
52.06
51.88
50.92
49.56
48.17
47.03
46.20
45.65
45.22
44.71
43.90
42.63
40.82
38.47
35.67
32.56
29.23
25.75
22.13
18.43
14.77
11.28
8.03
4.88
1.59
-2.19
-6.65
-11.69
-16.97
-22.03
-26.51
-30.34
-33.77
-37.30
-41.58
-47.15
-54.31
-62.86
-72.00
-80.38
-86.38
-88.54
-86.04
-78.99
-68.38
-55.72
-42.62
-30.27
-19.30
-9.78
-1.45
6.05
13.02
19.56
25.64
31.09
35.74
39.42
42.07
43.70
44.39
44.27
43.48
42.24
40.77
39.34
38.14
37.22
36.49
35.76
34.76
33.24
31.06
28.17
24.71
20.95
17.22
13.78
10.72
7.87
4.89
1.47
-2.54
-6.97
-11.43
-15.51
-19.02
-22.11
-25.22
-28.92
-33.69
-39.71
-46.75
-54.18
-61.07
-66.29
-68.78
-67.79
-63.05
-54.92
-44.24
-32.18
-19.92
-8.43
1.70
10.23
17.23
22.89
27.39
30.82
33.18
34.44
34.67
34.15
33.27
32.44
31.89
31.65
31.48
31.11
30.34
29.15
27.72
26.26
24.97
23.84
22.68
21.18
18.97
15.75
11.43
6.16
0.30
-5.67
-11.31
-16.38
-20.88
-25.03
-29.14
-33.57
-38.60
-44.37
-50.73
-57.18
-62.77
-66.30
-66.55
-62.76
-54.94
-43.92
-31.09
-17.92
-5.59
5.33
14.75
22.83
29.73
35.46
39.81
42.58
43.63
43.07
41.20
38.52
35.56
32.68
30.07
27.69
25.44
23.30
21.38
19.94
19.17
19.02
19.10
18.76
17.28
14.21
9.56
3.78
-2.44
-8.40
-13.74
-18.49
-23.07
-28.00
-33.72
-40.39
-47.71
-55.02
-61.30
-65.45
-66.56
-64.08
-58.12
-49.33
-38.75
-27.48
-16.38
-5.93
3.76
12.77
21.12
28.73
35.40
40.88
44.98
47.64
48.99
49.20
48.53
47.27
45.75
44.36
43.52
43.56
44.59
46.34
48.23
49.47
49.32
47.39
43.77
38.99
33.82
28.88
24.46
20.47
16.57
12.42
7.87
2.93
-2.26
-7.53
-12.77
-17.90
-22.85
-27.63
-32.44
-37.70
-43.93
-51.46
-60.07
-68.73
-75.80
-79.46
-78.38
-72.28
-61.96
-49.00
-35.13
-21.76
-9.61
1.06
10.29
18.10
24.43
29.26
32.72
35.18
37.09
38.81
40.43
41.79
42.66
42.93
42.76
42.48
42.38
42.54
42.77
42.68
41.94
40.40
38.16
35.44
32.43
29.22
25.77
22.07
18.13
14.08
9.98
5.88
1.74
-2.48
-6.69
-10.77
-14.61
-18.31
-22.26
-27.08
-33.34
-41.19
-50.13
-58.96
-66.10
-70.03
-69.84
-65.42
-57.45
-47.11
-35.68
-24.23
-13.45
-3.72
4.83
12.22
18.49
23.70
27.85
30.93
32.92
33.89
33.99
33.52
32.79
32.07
31.46
30.97
30.52
30.03
29.48
28.80
27.90
26.68
25.02
22.88
20.27
17.21
13.70
9.72
5.30
0.54
-4.33
-9.03
-13.31
-17.09
-20.60
-24.22
-28.48
-33.81
-40.33
-47.70
-55.09
-61.29
-64.97
-65.10
-61.30
-53.95
-44.08
-33.00
-21.87
-11.53
-2.32
5.73
12.71
18.74
23.85
28.07
31.40
33.88
35.55
36.50
36.84
36.75
36.40
35.92
35.40
34.83
34.20
33.56
32.94
32.33
31.58
30.40
28.52
25.78
22.26
18.33
14.41
10.87
7.76
4.89
1.86
-1.71
-5.98
-10.84
-15.92
-20.83
-25.23
-29.02
-32.37
-35.67
-39.44
-44.16
-50.15
-57.31
-65.07
-72.30
-77.57
-79.50
-77.23
-70.71
-60.75
-48.72
-36.05
-23.86
-12.71
-2.74
6.16
14.10
21.14
27.31
32.61
37.08
40.67
43.33
44.99
45.69
45.61
45.08
44.41
43.81
43.38
43.09
42.90
42.79
42.73
42.62
42.24
41.30
39.61
37.15
34.15
30.96
27.90
25.11
22.54
19.97
17.20
14.12
10.81
7.43
4.25
1.49
-0.74
-2.40
-3.67
-4.85
-6.37
-8.63
-11.87
-15.98
-20.63
-25.35
-29.75
-33.75
-37.59
-41.74
-46.73
-52.90
-60.20
-68.07
-75.43
-80.87
-83.00
-80.88
-74.31
-64.02
-51.37
-37.93
-25.00
-13.32
-3.11
5.72
13.34
19.90
25.49
30.19
34.10
37.30
39.77
41.47
42.38
42.56
42.20
41.56
40.91
40.45
40.33
40.59
41.19
41.96
42.60
42.79
42.18
40.64
38.24
35.30
32.21
29.29
26.66
24.16
21.55
18.56
15.17
11.59
8.16
5.16
2.66
0.44
-1.87
-4.62
-8.01
-11.93
-16.10
-20.13
-23.75
-26.87
-29.63
-32.32
-35.36
-39.16
-43.97
-49.76
-56.05
-61.91
-66.12
-67.52
-65.39
-59.67
-51.00
-40.48
-29.30
-18.42
-8.48
0.24
7.67
13.79
18.62
22.23
24.74
26.34
27.24
27.68
27.88
28.07
28.39
28.92
29.57
30.20
30.69
31.02
31.31
31.67
32.06
32.20
31.63
29.90
26.84
22.75
18.19
13.87
10.24
7.31
4.73
1.98
-1.31
-5.27
-9.62
-13.99
-18.03
-21.55
-24.56
-27.24
-29.83
-32.65
-36.10
-40.57
-46.30
-53.07
-60.12
-66.10
-69.53
-69.21
-64.70
-56.46
-45.63
-33.67
-21.86
-11.11
-1.86
5.73
11.79
16.58
20.46
23.74
26.60
29.01
30.78
31.74
31.90
31.49
30.92
30.55
30.56
30.92
31.44
31.86
32.00
31.76
31.12
30.11
28.78
27.19
25.37
23.27
20.84
18.00
14.79
11.33
7.89
4.69
1.83
-0.77
-3.35
-6.23
-9.67
-13.81
-18.58
-23.77
-29.10
-34.23
-38.92
-43.05
-46.74
-50.33
-54.34
-59.25
-65.17
-71.66
-77.59
-81.53
-82.10
-78.53
-70.96
-60.27
-47.88
-35.16
-23.18
-12.49
-3.28
4.54
11.15
16.79
21.65
25.93
29.67
32.86
35.37
37.11
38.08
38.36
38.17
37.73
37.26
36.95
36.88
37.03
37.25
37.32
36.99
36.07
34.52
32.45
30.16
27.92
25.97
24.35
22.94
21.51
19.83
17.78
15.39
12.78
10.08
7.29
4.32
0.92
-3.07
-7.66
-12.71
-17.88
-22.82
-27.26
-31.18
-34.77
-38.48
-42.89
-48.42
-55.17
-62.71
-70.07
-75.94
-79.03
-78.43
-73.82
-65.60
-54.72
-42.37
-29.75
-17.85
-7.33
1.46
8.51
14.04
18.35
21.77
24.49
26.59
28.04
28.91
29.31
29.45
29.59
29.89
30.40
31.07
31.78
32.40
32.83
32.94
32.63
31.79
30.33
28.25
25.62
22.65
19.57
16.59
13.82
11.20
8.51
5.54
2.12
-1.68
-5.63
-9.42
-12.84
-15.83
-18.60
-21.47
-24.90
-29.26
-34.73
-41.15
-47.86
-53.74
-57.50
-57.98
-54.61
-47.54
-37.65
-26.21
-14.55
-3.65
5.90
13.90
20.36
25.40
29.16
31.75
33.33
33.99
33.90
33.22
32.16
30.94
29.77
28.79
28.05
27.53
27.19
27.02
27.04
27.25
27.57
27.81
27.67
26.84
25.12
22.52
19.33
15.91
12.65
9.76
7.18
4.64
1.81
-1.56
-5.48
-9.78
-14.13
-18.29
-22.07
-25.49
-28.68
-31.92
-35.61
-40.28
-46.36
-53.98
-62.62
-71.01
-77.38
-79.98
-77.75
-70.75
-60.15
-47.72
-35.18
-23.65
-13.52
-4.64
3.29
10.48
16.98
22.80
27.96
32.49
36.33
39.31
41.25
42.10
42.01
41.33
40.50
39.80
39.35
39.11
39.04
39.10
39.28
39.51
39.59
39.23
38.15
36.25
33.60
30.41
26.94
23.40
19.88
16.47
13.17
10.00
6.86
3.68
0.31
-3.30
-7.14
-11.11
-15.07
-18.89
-22.48
-25.88
-29.21
-32.77
-36.94
-42.18
-48.78
-56.64
-65.12
-72.96
-78.61
-80.63
-78.28
-71.73
-62.05
-50.81
-39.50
-29.15
-20.07
-12.03
-4.60
2.59
9.63
16.36
22.48
27.77
32.08
35.45
38.00
39.90
41.32
42.37
43.07
43.37
43.17
42.37
40.94
38.97
36.64
34.14
31.65
29.27
27.03
24.94
23.05
21.43
20.09
18.94
17.77
16.20
13.92
10.81
6.99
2.83
-1.19
-4.69
-7.55
-9.95
-12.28
-14.97
-18.43
-22.89
-28.49
-35.18
-42.72
-50.60
-58.03
-63.94
-67.28
-67.20
-63.35
-56.02
-45.96
-34.31
-22.21
-10.64
-0.27
8.53
15.68
21.30
25.60
28.75
30.88
32.04
32.35
32.01
31.34
30.68
30.26
30.15
30.23
30.31
30.24
30.00
29.69
29.43
29.17
28.74
27.84
26.26
23.91
20.96
17.73
14.54
11.63
9.02
6.57
4.03
1.15
-2.22
-6.04
-10.13
-14.20
-18.03
-21.48
-24.66
-27.76
-31.13
-35.14
-40.19
-46.49
-53.91
-61.83
-69.05
-74.06
-75.46
-72.45
-65.16
-54.58
-42.20
-29.43
-17.31
-6.32
3.44
12.06
19.68
26.35
32.17
37.19
41.46
44.94
47.54
49.22
50.03
50.15
49.83
49.32
48.76
48.18
47.55
46.88
46.14
45.36
44.50
43.44
42.03
40.09
37.55
34.43
30.89
27.11
23.26
19.50
15.96
12.79
10.13
8.03
6.39
4.91
3.16
0.77
-2.48
-6.49
-10.93
-15.42
-19.64
-23.53
-27.19
-30.89
-34.89
-39.46
-44.91
-51.47
-59.12
-67.35
-75.04
-80.59
-82.41
-79.52
-71.98
-60.90
-48.01
-34.98
-22.93
-12.19
-2.58
6.22
14.35
21.67
27.93
32.93
36.66
39.24
40.88
41.78
42.10
42.04
41.81
41.60
41.62
41.91
42.48
43.25
44.10
44.82
45.17
44.96
44.05
42.54
40.64
38.64
36.67
34.68
32.45
29.70
26.38
22.63
18.73
14.96
11.43
7.99
4.40
0.45
-3.88
-8.43
-12.92
-17.08
-20.83
-24.22
-27.52
-31.03
-35.15
-40.18
-46.16
-52.82
-59.39
-64.71
-67.55
-66.92
-62.41
-54.32
-43.53
-31.27
-18.80
-7.21
2.75
10.64
16.35
20.12
22.38
23.69
24.52
25.13
25.59
25.82
25.82
25.67
25.54
25.56
25.74
26.02
26.27
26.46
26.60
26.74
26.81
26.56
25.62
23.70
20.68
16.78
12.43
8.10
4.09
0.42
-3.08
-6.67
-10.42
-14.13
-17.40
-19.82
-21.23
-21.85
-22.31
-23.41
-25.90
-30.24
-36.40
-43.87
-51.63
-58.42
-62.88
-63.92
-61.01
-54.33
-44.69
-33.29
-21.34
-9.80
0.69
9.80
17.42
23.55
28.36
32.14
35.26
37.95
40.28
42.09
43.13
43.20
42.34
40.85
39.07
37.35
35.83
34.49
33.18
31.75
30.11
28.28
26.38
24.53
22.81
21.25
19.76
18.21
16.47
14.42
11.96
9.02
5.53
1.47
-3.09
-7.99
-12.90
-17.46
-21.33
-24.36
-26.63
-28.47
-30.33
-32.62
-35.63
-39.46
-44.15
-49.73
-56.23
-63.48
-70.91
-77.39
-81.50
-81.86
-77.71
-69.28
-57.71
-44.61
-31.53
-19.47
-8.83
0.50
8.77
16.24
23.02
29.09
34.35
38.62
41.76
43.70
44.58
44.72
44.52
44.38
44.50
44.88
45.35
45.72
45.85
45.65
45.08
44.07
42.55
40.53
38.10
35.45
32.80
30.21
27.63
24.83
21.61
17.85
13.67
9.34
5.18
1.42
-2.00
-5.30
-8.79
-12.65
-16.81
-21.07
-25.16
-28.97
-32.55
-36.09
-39.77
-43.80
-48.42
-53.89
-60.41
-67.79
-75.30
-81.56
-84.97
-84.23
-78.89
-69.54
-57.52
-44.47
-31.70
-20.03
-9.76
-0.85
6.84
13.51
19.38
24.67
29.52
33.88
37.55
40.23
41.74
42.17
41.85
41.29
40.94
41.04
41.52
42.11
42.38
41.99
40.83
38.97
36.65
34.12
31.55
29.00
26.45
23.89
21.34
18.82
16.26
13.60
10.77
7.79
4.83
2.07
-0.38
-2.57
-4.71
-7.02
-9.63
-12.46
-15.30
-17.94
-20.27
-22.47
-24.91
-28.07
-32.38
-37.99
-44.63
-51.54
-57.60
-61.54
-62.41
-59.77
-53.87
-45.45
-35.48
-24.87
-14.35
-4.46
4.40
11.91
17.82
22.07
24.82
26.43
27.37
28.05
28.73
29.44
30.08
30.50
30.59
30.40
30.12
30.01
30.29
31.02
31.99
32.87
33.24
32.79
31.43
29.25
26.50
23.43
20.24
17.02
13.77
10.42
6.83
2.94
-1.29
-5.78
-10.35
-14.74
-18.76
-22.35
-25.63
-28.92
-32.60
-37.12
-42.71
-49.30
-56.35
-62.88
-67.60
-69.29
-67.14
-61.05
-51.67
-40.18
-27.95
-16.20
-5.71
3.21
10.58
16.61
21.54
25.48
28.42
30.23
30.79
30.18
28.64
26.66
24.79
23.48
22.90
23.01
23.60
24.46
25.43
26.40
27.26
27.82
27.83
27.08
25.44
22.98
19.85
16.27
12.43
8.45
4.46
0.53
-3.30
-7.03
-10.75
-14.61
-18.75
-23.23
-27.99
-32.83
-37.46
-41.68
-45.43
-48.90
-52.53
-56.92
-62.57
-69.60
-77.50
-85.12
-90.87
-93.19
-91.10
-84.48
-74.11
-61.38
-47.84
-34.77
-22.92
-12.57
-3.59
4.29
11.39
17.98
24.17
29.94
35.13
39.52
42.96
45.38
46.88
47.64
47.90
47.87
47.71
47.58
47.56
47.72
48.04
48.45
48.74
48.69
48.12
46.90
44.99
42.43
39.28
35.63
31.57
27.27
22.91
18.68
14.65
10.77
6.83
2.57
-2.15
-7.30
-12.70
-18.05
-23.13
-27.83
-32.21
-36.44
-40.84
-45.80
-51.68
-58.60
-66.17
-73.42
-78.97
-81.38
-79.70
-73.80
-64.40
-52.76
-40.24
-27.95
-16.52
-6.22
2.91
10.90
17.83
23.83
29.10
33.83
38.15
42.01
45.30
47.81
49.44
50.19
50.20
49.68
48.87
47.99
47.18
46.48
45.80
45.07
44.12
42.88
41.33
39.55
37.59
35.49
33.25
30.78
28.04
24.99
21.66
18.13
14.53
10.99
7.61
4.41
1.31
-1.85
-5.28
-9.16
-13.44
-17.94
-22.32
-26.30
-29.80
-33.01
-36.41
-40.64
-46.20
-53.26
-61.42
-69.66
-76.56
-80.67
-80.92
-76.92
-69.07
-58.34
-46.02
-33.33
-21.20
-10.23
-0.64
7.58
14.63
20.68
25.91
30.33
33.88
36.46
38.08
38.92
39.26
39.39
39.48
39.54
39.47
39.22
38.83
38.42
38.14
37.97
37.69
36.96
35.49
33.11
29.89
26.09
22.05
18.14
14.64
11.71
9.34
7.33
5.27
2.72
-0.64
-4.81
-9.45
-14.07
-18.23
-21.84
-25.28
-29.17
-34.15
-40.57
-48.31
-56.77
-64.97
-71.77
-76.04
-76.92
-73.98
-67.33
-57.60
-45.79
-33.01
-20.32
-8.52
1.87
10.66
17.89
23.77
28.63
32.69
36.08
38.76
40.61
41.58
41.82
41.66
41.51
41.67
42.23
43.00
43.70
44.04
43.89
43.31
42.44
41.43
40.27
38.82
36.83
34.11
30.65
26.70
22.68
18.99
15.89
13.33
11.01
8.54
5.56
1.93
-2.31
-6.95
-11.80
-16.72
-21.63
-26.49
-31.22
-35.86
-40.54
-45.58
-51.44
-58.49
-66.66
-75.29
-83.08
-88.39
-89.87
-86.85
-79.57
-69.01
-56.55
-43.45
-30.67
-18.80
-8.14
1.23
9.36
16.39
22.56
28.11
33.16
37.72
41.67
44.88
47.32
49.10
50.40
51.45
52.38
53.23
53.96
54.47
54.61
54.23
53.22
51.54
49.24
46.47
43.44
40.41
37.58
34.99
32.55
30.08
27.40
24.42
21.26
18.10
15.14
12.41
9.74
6.83
3.38
-0.76
-5.58
-10.87
-16.39
-21.95
-27.43
-32.76
-37.99
-43.20
-48.64
-54.65
-61.46
-68.97
-76.51
-82.83
-86.40
-85.98
-81.07
-72.14
-60.45
-47.56
-34.75
-22.81
-12.04
-2.46
5.89
12.96
18.76
23.44
27.34
30.80
33.98
36.79
38.97
40.33
40.88
40.85
40.60
40.39
40.29
40.25
40.09
39.75
39.21
38.44
37.34
35.74
33.43
30.33
26.61
22.60
18.78
15.45
12.68
10.26
7.79
4.91
1.44
-2.55
-6.84
-11.09
-15.05
-18.60
-21.84
-25.07
-28.76
-33.45
-39.48
-46.81
-54.79
-62.19
-67.54
-69.50
-67.37
-61.28
-52.12
-41.10
-29.46
-18.14
-7.74
1.42
9.24
15.75
21.11
25.60
29.43
32.68
35.23
36.89
37.56
37.36
36.70
36.03
35.70
35.82
36.28
36.87
37.41
37.81
37.93
37.66
36.85
35.41
33.35
30.80
27.92
24.81
21.49
17.93
14.15
10.21
6.23
2.32
-1.54
-5.45
-9.54
-13.81
-18.18
-22.43
-26.40
-30.03
-33.41
-36.71
-40.15
-44.01
-48.54
-54.02
-60.50
-67.69
-74.75
-80.44
-83.39
-82.54
-77.55
-68.82
-57.45
-44.75
-31.97
-19.97
-9.29
-0.08
7.70
14.28
19.96
25.06
29.81
34.19
38.02
41.03
43.04
44.06
44.35
44.32
44.35
44.70
45.38
46.32
47.33
48.22
48.84
49.00
48.54
47.35
45.46
43.04
40.40
37.81
35.44
33.23
30.96
28.35
25.17
21.36
17.05
12.54
8.09
3.96
0.21
-3.28
-6.74
-10.43
-14.50
-18.89
-23.37
-27.64
-31.52
-35.06
-38.60
-42.68
-47.86
-54.52
-62.62
-71.48
-79.87
-86.21
-89.03
-87.43
-81.38
-71.65
-59.56
-46.50
-33.61
-21.63
-10.99
-1.83
5.87
12.28
17.73
22.55
26.96
30.92
34.18
36.43
37.57
37.78
37.50
37.24
37.31
37.72
38.24
38.57
38.50
38.04
37.35
36.55
35.66
34.48
32.80
30.46
27.52
24.24
20.93
17.77
14.72
11.56
7.98
3.76
-1.10
-6.35
-11.58
-16.43
-20.71
-24.49
-28.11
-32.00
-36.54
-41.91
-48.06
-54.65
-61.11
-66.69
-70.48
-71.58
-69.33
-63.56
-54.68
-43.64
-31.65
-19.85
-9.02
0.46
8.56
15.40
21.18
26.05
30.15
33.57
36.31
38.35
39.65
40.29
40.48
40.52
40.67
41.06
41.62
42.15
42.46
42.41
42.05
41.44
40.59
39.45
37.86
35.69
32.92
29.67
26.10
22.36
18.51
14.49
10.26
5.88
1.56
-2.41
-5.80
-8.67
-11.29
-14.11
-17.50
-21.54
-26.01
-30.49
-34.61
-38.25
-41.70
-45.53
-50.42
-56.81
-64.74
-73.59
-82.22
-89.09
-92.71
-92.02
-86.77
-77.54
-65.57
-52.27
-38.89
-26.22
-14.62
-4.22
4.98
13.02
20.00
26.14
31.70
36.90
41.73
46.05
49.53
51.93
53.21
53.56
53.37
53.04
52.95
53.25
53.87
54.51
54.78
54.29
52.83
50.44
47.47
44.37
41.54
39.16
37.08
35.02
32.65
29.83
26.65
23.33
20.07
16.91
13.75
10.39
6.68
2.62
-1.69
-6.11
-10.54
-14.99
-19.48
-24.02
-28.57
-33.12
-37.76
-42.75
-48.47
-55.22
-62.90
-70.85
-77.92
-82.66
-83.89
-80.95
-74.04
-63.97
-51.96
-39.25
-26.88
-15.54
-5.67
2.58
9.27
14.69
19.25
23.33
27.18
30.77
33.84
36.09
37.28
37.48
37.00
36.33
35.97
36.26
37.31
38.98
40.95
42.77
44.00
44.28
43.40
41.35
38.31
34.58
30.49
26.33
22.33
18.62
15.26
12.29
9.65
7.19
4.70
1.96
-1.18
-4.69
-8.37
-11.98
-15.32
-18.40
-21.43
-24.77
-28.82
-33.86
-39.92
-46.67
-53.33
-58.86
-62.15
-62.36
-59.22
-53.01
-44.51
-34.69
-24.46
-14.51
-5.34
2.75
9.62
15.29
19.89
23.60
26.50
28.59
29.80
30.14
29.83
29.23
28.73
28.55
28.66
28.88
29.04
29.04
28.95
28.87
28.84
28.79
28.54
27.90
26.72
24.95
22.60
19.72
16.40
12.79
9.03
5.38
2.05
-0.84
-3.30
-5.55
-7.91
-10.69
-14.06
-17.99
-22.25
-26.53
-30.61
-34.44
-38.20
-42.27
-47.11
-53.07
-60.24
-68.17
-75.88
-81.93
-84.86
-83.60
-77.88
-68.33
-56.23
-43.14
-30.40
-18.89
-8.97
-0.60
6.42
12.43
17.71
22.54
27.01
31.10
34.60
37.30
39.07
39.99
40.28
40.30
40.32
40.50
40.83
41.21
41.49
41.52
41.21
40.41
39.04
37.01
34.34
31.21
27.88
24.65
21.75
19.27
17.09
15.00
12.81
10.41
7.83
5.20
2.60
0.06
-2.49
-5.25
-8.39
-12.05
-16.18
-20.55
-24.81
-28.58
-31.62
-33.98
-36.09
-38.62
-42.34
-47.81
-55.08
-63.58
-72.07
-78.99
-82.81
-82.54
-77.95
-69.56
-58.53
-46.17
-33.71
-22.04
-11.70
-2.94
4.24
10.05
14.82
18.94
22.76
26.40
29.74
32.48
34.37
35.28
35.35
34.91
34.34
33.92
33.78
33.86
34.01
34.05
33.78
33.06
31.76
29.80
27.18
24.01
20.51
16.94
13.48
10.23
7.16
4.15
1.13
-1.89
-4.83
-7.71
-10.58
-13.63
-17.06
-20.88
-24.94
-28.95
-32.62
-35.88
-38.87
-41.98
-45.64
-50.22
-55.92
-62.61
-69.80
-76.60
-81.82
-84.28
-83.12
-78.09
-69.69
-58.95
-47.12
-35.31
-24.26
-14.25
-5.23
2.98
10.54
17.38
23.27
27.90
31.02
32.61
33.00
32.80
32.63
32.99
33.99
35.41
36.81
37.78
38.15
38.03
37.70
37.43
37.27
37.01
36.24
34.56
31.72
27.81
23.12
18.06
12.96
7.99
3.21
-1.39
-5.83
-10.16
-14.42
-18.66
-22.88
-26.96
-30.70
-33.82
-36.21
-38.07
-40.01
-42.94
-47.73
-54.78
-63.62
-72.89
-80.66
-85.01
-84.69
-79.51
-70.25
-58.28
-45.09
-31.79
-19.15
-7.62
2.41
10.65
16.96
21.48
24.64
26.93
28.80
30.41
31.77
32.77
33.43
33.85
34.31
35.08
36.39
38.42
41.19
44.52
48.06
51.22
53.40
54.14
53.34
51.27
48.51
45.58
42.84
40.29
37.70
34.75
31.24
27.23
22.98
18.85
15.07
11.67
8.46
5.07
1.12
-3.64
-9.28
-15.58
-22.15
-28.51
-34.28
-39.35
-43.95
-48.71
-54.40
-61.72
-70.86
-81.26
-91.57
-99.92
-104.45
-103.82
-97.60
-86.37
-71.57
-55.06
-38.62
-23.59
-10.60
0.38
9.88
18.54
26.89
35.14
43.14
50.50
56.83
61.88
65.54
67.82
68.84
68.82
68.09
67.12
66.44
66.41
67.21
68.64
70.29
71.62
72.12
71.44
69.51
66.45
62.54
58.14
53.53
48.87
44.19
39.40
34.41
29.27
24.19
19.53
15.63
12.61
10.29
8.25
5.95
3.03
-0.66
-5.02
-9.84
-14.89
-20.03
-25.18
-30.34
-35.61
-41.21
-47.54
-55.03
-63.80
-73.33
-82.36
-89.05
-91.55
-88.71
-80.46
-67.91
-52.91
-37.44
-23.01
-10.32
0.62
10.27
19.14
27.49
35.34
42.43
48.43
53.05
56.15
57.75
58.03
57.31
55.97
54.39
52.98
52.07
51.85
52.35
53.35
54.40
54.93
54.42
52.63
49.66
45.94
42.01
38.31
34.98
31.90
28.78
25.38
21.67
17.84
14.15
10.82
7.84
5.00
1.93
-1.71
-6.08
-11.11
-16.45
-21.69
-26.42
-30.47
-33.89
-37.01
-40.27
-44.12
-48.85
-54.49
-60.65
-66.56
-71.09
-73.04
-71.43
-65.89
-56.76
-45.07
-32.18
-19.41
-7.68
2.55
11.29
18.72
25.02
30.29
34.57
37.90
40.31
41.90
42.74
42.94
42.59
41.81
40.75
39.54
38.29
37.10
36.06
35.22
34.59
34.05
33.33
32.15
30.31
27.79
24.79
21.61
18.55
15.69
12.95
10.10
6.94
3.36
-0.67
-5.10
-9.84
-14.77
-19.71
-24.39
-28.58
-32.15
-35.21
-38.13
-41.46
-45.68
-51.04
-57.35
-63.97
-69.89
-73.92
-74.98
-72.41
-66.08
-56.49
-44.64
-31.78
-19.06
-7.36
2.85
11.51
18.74
24.83
29.95
34.21
37.62
40.18
41.90
42.86
43.15
42.86
42.06
40.85
39.43
38.08
37.11
36.69
36.70
36.80
36.48
35.37
33.35
30.66
27.62
24.51
21.33
17.90
14.03
9.71
5.21
0.89
-2.94
-6.24
-9.22
-12.14
-15.23
-18.52
-21.89
-25.22
-28.45
-31.60
-34.69
-37.82
-41.07
-44.66
-48.92
-54.26
-60.99
-69.08
-78.02
-86.75
-93.88
-98.01
-98.16
-94.02
-86.01
-75.17
-62.79
-50.06
-37.88
-26.70
-16.66
-7.65
0.57
8.33
15.88
23.34
30.55
37.11
42.46
46.21
48.26
48.94
48.88
48.79
49.21
50.33
52.03
53.99
55.87
57.38
58.33
58.57
57.93
56.30
53.66
50.17
46.19
42.13
38.35
35.00
31.98
28.98
25.60
21.55
16.73
11.26
5.48
-0.27
-5.70
-10.68
-15.25
-19.54
-23.61
-27.42
-30.81
-33.68
-36.11
-38.52
-41.61
-46.21
-52.91
-61.71
-71.85
-81.87
-89.92
-94.30
-93.92
-88.55
-78.83
-65.97
-51.46
-36.70
-22.80
-10.51
-0.14
8.36
15.40
21.58
27.50
33.50
39.56
45.34
50.32
54.07
56.42
57.50
57.60
57.10
56.34
55.60
55.09
54.96
55.22
55.75
56.22
56.19
55.31
53.40
50.55
47.10
43.45
39.94
36.72
33.71
30.68
27.34
23.51
19.18
14.59
10.07
5.95
2.33
-1.02
-4.57
-8.81
-14.02
-20.06
-26.43
-32.47
-37.68
-41.92
-45.44
-48.75
-52.44
-57.00
-62.66
-69.31
-76.39
-82.90
-87.50
-88.85
-86.05
-78.92
-68.12
-54.99
-41.03
-27.58
-15.42
-4.80
4.44
12.59
19.88
26.36
31.89
36.24
39.26
40.98
41.67
41.75
41.67
41.72
42.01
42.50
43.13
43.83
44.61
45.41
46.09
46.37
46.02
44.84
42.84
40.20
37.12
33.78
30.26
26.56
22.63
18.49
14.21
9.91
5.76
1.85
-1.79
-5.21
-8.46
-11.61
-14.67
-17.64
-20.51
-23.33
-26.20
-29.38
-33.21
-37.99
-43.87
-50.65
-57.61
-63.60
-67.27
-67.49
-63.67
-56.00
-45.39
-33.17
-20.66
-8.99
1.12
9.33
15.62
20.22
23.50
25.91
27.89
29.67
31.32
32.74
33.78
34.35
34.52
34.41
34.24
34.17
34.28
34.55
34.86
35.02
34.83
34.16
32.98
31.36
29.36
27.08
24.52
21.65
18.46
15.00
11.41
7.82
4.33
0.96
-2.39
-5.84
-9.50
-13.47
-17.72
-22.17
-26.67
-31.06
-35.20
-39.04
-42.73
-46.57
-51.01
-56.51
-63.26
-70.93
-78.58
-84.75
-87.85
-86.69
-80.83
-70.87
-58.11
-44.20
-30.58
-18.19
-7.42
1.79
9.68
16.53
22.53
27.81
32.39
36.28
39.45
41.93
43.73
44.89
45.51
45.65
45.44
45.06
44.74
44.68
44.93
45.37
45.62
45.27
44.02
41.86
39.05
36.02
33.13
30.56
28.22
25.87
23.24
20.16
16.63
12.81
8.95
5.29
1.95
-1.13
-4.21
-7.59
-11.55
-16.16
-21.22
-26.35
-31.11
-35.24
-38.73
-41.88
-45.18
-49.20
-54.46
-61.17
-69.08
-77.37
-84.69
-89.46
-90.32
-86.54
-78.29
-66.52
-52.64
-38.10
-24.05
-11.22
0.02
9.55
17.44
23.88
29.17
33.65
37.61
41.16
44.27
46.83
48.76
50.10
50.95
51.47
51.78
51.93
51.97
51.85
51.51
50.74
49.31
47.00
43.77
39.81
35.53
31.45
27.95
25.17
22.94
20.92
18.76
16.20
13.18
9.84
6.42
3.10
-0.04
-3.12
-6.34
-9.90
-13.88
-18.13
-22.41
-26.41
-30.03
-33.31
-36.59
-40.28
-44.86
-50.64
-57.68
-65.54
-73.28
-79.56
-82.97
-82.44
-77.62
-68.96
-57.51
-44.63
-31.55
-19.21
-8.16
1.34
9.24
15.69
20.92
25.24
28.91
32.02
34.56
36.46
37.77
38.71
39.59
40.65
41.95
43.31
44.50
45.32
45.76
45.92
45.86
45.51
44.60
42.85
40.07
36.36
32.08
27.70
23.65
20.15
17.18
14.49
11.77
8.71
5.12
0.99
-3.54
-8.18
-12.63
-16.59
-20.04
-23.16
-26.44
-30.40
-35.47
-41.75
-48.82
-55.84
-61.68
-65.13
-65.31
-61.81
-54.84
-45.17
-33.90
-22.22
-11.23
-1.67
6.08
12.04
16.53
20.02
22.95
25.61
28.07
30.27
32.03
33.25
33.89
33.99
33.63
32.88
31.79
30.41
28.84
27.23
25.72
24.36
23.07
21.70
20.02
17.88
15.26
12.28
9.20
6.28
3.63
1.19
-1.28
-4.12
-7.53
-11.54
-15.93
-20.39
-24.62
-28.44
-31.88
-35.13
-38.47
-42.20
-46.57
-51.70
-57.50
-63.53
-68.98
-72.73
-73.69
-71.09
-64.81
-55.44
-44.06
-31.98
-20.26
-9.62
-0.36
7.51
14.12
19.70
24.53
28.88
32.98
36.87
40.41
43.32
45.35
46.40
46.63
46.36
45.94
45.62
45.42
45.22
44.80
43.98
42.63
40.72
38.26
35.38
32.25
29.11
26.15
23.50
21.16
19.04
17.01
14.89
12.55
9.86
6.73
3.15
-0.83
-5.09
-9.50
-13.99
-18.47
-22.89
-27.15
-31.10
-34.60
-37.66
-40.50
-43.57
-47.47
-52.71
-59.39
-67.03
-74.48
-80.14
-82.43
-80.32
-73.66
-63.25
-50.59
-37.30
-24.70
-13.54
-3.98
4.15
11.17
17.39
22.97
28.03
32.60
36.62
39.94
42.38
43.81
44.22
43.75
42.66
41.30
39.97
38.93
38.30
38.10
38.21
38.41
38.42
37.96
36.90
35.26
33.27
31.21
29.35
27.76
26.33
24.77
22.80
20.23
17.07
13.49
9.70
5.94
2.32
-1.14
-4.51
-7.90
-11.45
-15.23
-19.22
-23.25
-27.09
-30.49
-33.31
-35.70
-38.05
-40.92
-44.90
-50.33
-57.04
-64.34
-71.03
-75.73
-77.23
-74.83
-68.55
-59.06
-47.47
-35.01
-22.81
-11.71
-2.16
5.72
12.12
17.42
21.98
26.03
29.53
32.29
34.10
34.96
35.11
34.96
34.86
34.94
35.10
35.09
34.76
34.15
33.49
32.96
32.63
32.28
31.55
30.15
27.99
25.24
22.26
19.36
16.72
14.35
12.15
10.01
7.89
5.75
3.46
0.88
-2.16
-5.67
-9.43
-13.10
-16.36
-19.05
-21.31
-23.52
-26.15
-29.63
-34.21
-39.88
-46.33
-52.92
-58.66
-62.41
-63.11
-60.13
-53.56
-44.18
-33.25
-22.11
-11.81
-2.87
4.66
11.01
16.45
21.12
24.99
27.92
29.80
30.60
30.42
29.48
28.16
26.85
25.94
25.68
26.08
26.97
27.99
28.81
29.12
28.79
27.81
26.22
24.12
21.61
18.78
15.75
12.64
9.63
6.79
4.22
1.89
-0.29
-2.46
-4.83
-7.64
-11.02
-15.02
-19.50
-24.24
-28.90
-33.23
-37.01
-40.19
-42.92
-45.52
-48.51
-52.43
-57.61
-63.94
-70.64
-76.43
-79.82
-79.61
-75.30
-67.25
-56.48
-44.27
-31.80
-19.94
-9.21
0.16
8.10
14.73
20.29
25.10
29.41
33.31
36.69
39.32
41.03
41.78
41.74
41.20
40.47
39.84
39.55
39.74
40.42
41.42
42.46
43.17
43.24
42.54
41.14
39.27
37.14
34.94
32.72
30.49
28.24
25.97
23.65
21.22
18.58
15.70
12.63
9.54
6.70
4.29
2.36
0.77
-0.78
-2.58
-4.77
-7.28
-9.88
-12.30
-14.42
-16.37
-18.44
-20.94
-24.03
-27.66
-31.55
-35.42
-38.99
-42.19
-45.09
-47.90
-50.97
-54.70
-59.43
-65.29
-71.94
-78.48
-83.63
-86.04
-84.77
-79.54
-70.87
-59.81
-47.57
-35.18
-23.39
-12.63
-3.11
5.08
12.02
17.92
23.12
27.90
32.37
36.41
39.74
42.08
43.31
43.56
43.08
42.23
41.33
40.64
40.38
40.69
41.52
42.60
43.48
43.62
42.63
40.42
37.25
33.58
29.87
26.44
23.37
20.57
17.87
15.08
12.08
8.82
5.33
1.75
-1.76
-5.04
-8.02
-10.73
-13.33
-16.01
-18.95
-22.21
-25.73
-29.40
-33.15
-37.06
-41.41
-46.53
-52.57
-59.30
-65.98
-71.45
-74.42
-73.85
-69.29
-61.03
-50.01
-37.55
-25.00
-13.43
-3.52
4.56
10.92
15.90
19.85
23.05
25.74
28.04
30.00
31.63
32.86
33.61
33.82
33.56
33.01
32.49
32.33
32.72
33.66
34.94
36.16
36.91
36.80
35.64
33.39
30.21
26.42
22.39
18.50
14.99
11.90
9.09
6.26
3.19
-0.23
-3.88
-7.49
-10.74
-13.45
-15.64
-17.64
-19.90
-22.99
-27.35
-33.14
-40.19
-47.84
-55.09
-60.73
-63.66
-63.16
-59.03
-51.66
-41.83
-30.56
-18.84
-7.60
2.40
10.63
16.88
21.29
24.32
26.49
28.22
29.66
30.72
31.20
31.03
30.34
29.43
28.62
28.10
27.92
27.97
28.07
28.07
27.82
27.18
26.05
24.34
22.02
19.18
15.99
12.65
9.36
6.27
3.46
0.86
-1.68
-4.41
-7.61
-11.47
-15.97
-20.88
-25.73
-30.02
-33.41
-35.91
-37.93
-40.22
-43.58
-48.62
-55.39
-63.28
-71.04
-77.11
-80.00
-78.77
-73.29
-64.16
-52.50
-39.60
-26.53
-14.10
-2.78
7.22
15.85
23.22
29.55
35.08
39.98
44.28
47.82
50.34
51.70
51.92
51.32
50.35
49.49
49.05
49.06
49.27
49.33
48.90
47.85
46.25
44.30
42.19
39.97
37.60
34.96
32.08
29.01
25.89
22.77
19.55
16.13
12.41
8.45
4.43
0.57
-3.11
-6.79
-10.80
-15.48
-20.89
-26.79
-32.70
-38.14
-42.82
-46.87
-50.70
-54.89
-59.82
-65.51
-71.49
-76.90
-80.70
-81.89
-79.81
-74.21
-65.32
-53.78
-40.61
-26.92
-13.82
-2.11
7.81
16.02
22.88
28.88
34.41
39.59
44.28
48.17
50.99
52.66
53.30
53.20
52.76
52.29
51.97
51.80
51.59
51.08
49.99
48.15
45.61
42.62
39.56
36.79
34.56
32.88
31.56
30.35
28.97
27.24
25.09
22.52
19.57
16.24
12.53
8.47
4.16
-0.23
-4.48
-8.42
-12.00
-15.35
-18.67
-22.18
-25.96
-30.02
-34.38
-39.21
-44.81
-51.34
-58.59
-65.70
-71.30
-73.87
-72.35
-66.52
-57.14
-45.54
-33.24
-21.40
-10.65
-1.18
7.08
14.24
20.34
25.40
29.49
32.70
35.17
37.01
38.33
39.21
39.76
40.10
40.33
40.50
40.61
40.65
40.58
40.38
39.99
39.32
38.27
36.68
34.48
31.63
28.18
24.21
19.84
15.24
10.55
5.94
1.53
-2.58
-6.37
-9.85
-13.03
-15.98
-18.72
-21.31
-23.87
-26.58
-29.68
-33.45
-38.20
-44.09
-51.01
-58.44
-65.36
-70.48
-72.50
-70.58
-64.60
-55.20
-43.53
-30.88
-18.36
-6.77
3.44
12.05
19.04
24.54
28.82
32.20
34.89
36.97
38.37
39.02
39.03
38.67
38.33
38.32
38.71
39.35
39.95
40.30
40.32
40.08
39.68
39.10
38.26
36.93
34.89
32.06
28.53
24.56
20.48
16.58
13.05
9.92
7.08
4.30
1.35
-1.96
-5.74
-9.96
-14.54
-19.33
-24.22
-29.08
-33.79
-38.26
-42.52
-46.79
-51.49
-57.14
-64.00
-71.78
-79.50
-85.59
-88.46
-86.99
-80.94
-71.06
-58.68
-45.27
-31.99
-19.54
-8.21
1.87
10.63
17.98
23.93
28.64
32.43
35.67
38.61
41.29
43.56
45.20
46.04
46.11
45.58
44.79
44.09
43.69
43.67
43.85
43.94
43.61
42.61
40.89
38.58
35.87
32.97
29.95
26.81
23.54
20.14
16.73
13.43
10.37
7.57
4.98
2.46
-0.15
-3.01
-6.27
-10.02
-14.28
-18.89
-23.60
-28.10
-32.21
-35.94
-39.61
-43.75
-48.95
-55.57
-63.49
-71.96
-79.61
-84.81
-86.15
-82.89
-75.24
-64.23
-51.31
-37.88
-24.96
-13.05
-2.36
7.11
15.37
22.49
28.61
33.88
38.42
42.14
44.82
46.24
46.35
45.50
44.30
43.48
43.57
44.68
46.48
48.42
49.90
50.49
50.02
48.50
46.01
42.73
38.81
34.46
29.90
25.38
21.12
17.30
14.02
11.32
9.11
7.22
5.39
3.39
0.98
-1.97
-5.54
-9.71
-14.36
-19.23
-23.97
-28.28
-32.08
-35.63
-39.48
-44.27
-50.26
-57.19
-64.08
-69.56
-72.28
-71.31
-66.42
-58.03
-47.10
-34.81
-22.29
-10.47
-0.05
8.66
15.62
21.02
25.18
28.43
31.05
33.17
34.77
35.83
36.29
36.22
35.75
35.11
34.46
33.96
33.64
33.49
33.50
33.60
33.71
33.62
33.10
31.88
29.84
27.03
23.67
20.13
16.72
13.60
10.72
7.90
4.86
1.34
-2.75
-7.37
-12.33
-17.30
-21.97
-26.07
-29.52
-32.48
-35.35
-38.71
-43.18
-49.17
-56.68
-65.10
-73.25
-79.60
-82.65
-81.39
-75.62
-66.01
-53.83
-40.58
-27.55
-15.61
-5.12
3.86
11.45
17.84
23.19
27.68
31.46
34.59
37.05
38.74
39.63
39.79
39.55
39.31
39.49
40.30
41.66
43.23
44.53
45.17
44.88
43.66
41.68
39.22
36.53
33.76
30.96
28.10
25.08
21.83
18.32
14.58
10.71
6.86
3.15
-0.38
-3.85
-7.41
-11.24
-15.43
-19.93
-24.55
-29.05
-33.28
-37.19
-40.93
-44.82
-49.25
-54.63
-61.14
-68.52
-75.96
-82.10
-85.40
-84.61
-79.22
-69.63
-57.05
-43.07
-29.17
-16.40
-5.23
4.31
12.49
19.63
26.00
31.72
36.81
41.10
44.40
46.57
47.66
47.87
47.51
46.89
46.21
45.57
44.99
44.49
44.09
43.75
43.36
42.67
41.44
39.48
36.81
33.63
30.17
26.71
23.40
20.30
17.35
14.47
11.56
8.48
5.12
1.35
-2.86
-7.40
-12.07
-16.57
-20.65
-24.22
-27.33
-30.25
-33.38
-37.14
-41.89
-47.75
-54.51
-61.48
-67.54
-71.40
-71.86
-68.25
-60.66
-49.96
-37.48
-24.65
-12.58
-1.94
7.12
14.68
20.97
26.23
30.61
34.22
37.09
39.23
40.56
41.04
40.69
39.66
38.18
36.58
35.17
34.20
33.81
33.93
34.33
34.63
34.40
33.25
31.04
27.85
24.02
19.99
16.11
12.52
9.14
5.75
2.10
-1.93
-6.32
-10.89
-15.44
-19.78
-23.80
-27.49
-30.91
-34.30
-38.03
-42.58
-48.36
-55.38
-63.07
-70.21
-75.22
-76.58
-73.42
-65.85
-54.87
-42.02
-28.87
-16.53
-5.53
4.07
12.45
19.77
26.03
31.17
35.17
38.09
40.15
41.55
42.51
43.15
43.49
43.59
43.50
43.32
43.11
42.91
42.71
42.41
41.89
41.03
39.71
37.90
35.60
32.84
29.69
26.20
22.45
18.56
14.62
10.78
7.11
3.65
0.31
-3.03
-6.51
-10.21
-14.12
-18.21
-22.43
-26.76
-31.27
-35.96
-40.85
-45.96
-51.39
-57.34
-63.98
-71.13
-78.11
-83.64
-86.23
-84.67
-78.53
-68.34
-55.41
-41.32
-27.43
-14.58
-3.13
6.87
15.47
22.77
28.85
33.87
37.96
41.25
43.78
45.53
46.49
46.70
46.31
45.55
44.67
43.86
43.26
42.86
42.58
42.29
41.86
41.17
40.10
38.55
36.41
33.58
30.10
26.18
22.15
18.39
15.11
12.32
9.79
7.19
4.21
0.67
-3.44
-8.08
-13.09
-18.26
-23.28
-27.82
-31.65
-34.83
-37.73
-40.99
-45.23
-50.77
-57.31
-63.94
-69.30
-71.97
-70.96
-65.95
-57.40
-46.40
-34.25
-22.20
-11.12
-1.44
6.77
13.66
19.46
24.40
28.60
32.13
34.97
37.01
38.22
38.63
38.41
37.77
36.94
36.08
35.22
34.41
33.62
32.88
32.18
31.40
30.37
28.85
26.66
23.80
20.48
16.99
13.57
10.31
7.07
3.62
-0.20
-4.39
-8.71
-12.79
-16.34
-19.22
-21.65
-24.04
-26.93
-30.82
-35.96
-42.26
-49.18
-55.77
-60.84
-63.23
-62.11
-57.27
-49.17
-38.81
-27.43
-16.17
-5.83
3.19
10.78
17.01
21.95
25.73
28.44
30.25
31.33
31.87
32.01
31.93
31.78
31.70
31.79
32.06
32.42
32.69
32.68
32.26
31.45
30.34
29.02
27.54
25.84
23.84
21.46
18.68
15.57
12.21
8.71
5.12
1.49
-2.14
-5.73
-9.21
-12.60
-15.93
-19.31
-22.85
-26.60
-30.52
-34.50
-38.44
-42.36
-46.45
-51.04
-56.50
-62.93
-69.90
-76.38
-80.96
-82.30
-79.60
-72.87
-62.89
-50.87
-38.06
-25.44
-13.64
-3.07
6.10
13.79
20.10
25.26
29.56
33.26
36.43
39.02
40.93
42.15
42.79
43.04
43.07
43.00
42.89
42.78
42.75
42.82
42.94
42.90
42.46
41.40
39.66
37.38
34.81
32.25
29.84
27.61
25.40
23.06
20.48
17.62
14.52
11.27
7.94
4.58
1.24
-2.04
-5.18
-8.06
-10.57
-12.67
-14.45
-16.19
-18.28
-21.17
-25.30
-30.85
-37.63
-44.99
-51.87
-57.00
-59.26
-58.03
-53.39
-46.13
-37.39
-28.39
-20.00
-12.69
-6.57
-1.53
2.58
5.88
8.52
10.65
12.43
13.99
15.40
16.67
17.74
18.58
19.18
19.60
19.92
20.23
20.64
21.25
22.08
22.99
23.67
23.71
22.73
20.61
17.55
14.05
10.61
7.56
4.89
2.26
-0.69
-4.27
-8.49
-13.10
-17.75
-22.11
-26.01
-29.46
-32.68
-36.01
-39.90
-44.65
-50.33
-56.53
-62.38
-66.69
-68.25
-66.24
-60.48
-51.54
-40.50
-28.64
-17.14
-6.79
2.05
9.40
15.43
20.40
24.46
27.69
30.10
31.66
32.38
32.33
31.70
30.77
29.88
29.37
29.48
30.31
31.79
33.67
35.62
37.25
38.21
38.23
37.13
34.92
31.73
27.84
23.61
19.43
15.63
12.36
9.58
7.03
4.37
1.26
-2.51
-6.91
-11.74
-16.70
-21.45
-25.80
-29.67
-33.14
-36.45
-39.95
-44.11
-49.32
-55.76
-63.06
-70.28
-76.01
-78.75
-77.50
-71.99
-62.84
-51.23
-38.53
-25.83
-13.89
-3.10
6.38
14.49
21.31
27.05
32.02
36.48
40.52
44.00
46.71
48.51
49.45
49.75
49.71
49.52
49.23
48.87
48.42
47.93
47.47
46.96
46.22
45.01
43.11
40.50
37.38
34.07
30.92
28.08
25.60
23.36
21.25
19.20
17.22
15.31
13.43
11.48
9.27
6.64
3.47
-0.30
-4.56
-9.13
-13.71
-18.04
-21.95
-25.56
-29.21
-33.46
-38.81
-45.50
-53.27
-61.34
-68.50
-73.38
-74.87
-72.41
-66.17
-56.95
-45.91
-34.23
-22.85
-12.33
-2.94
5.27
12.34
18.39
23.59
28.08
31.89
34.93
37.01
38.01
37.93
37.03
35.70
34.24
32.88
31.67
30.60
29.63
28.77
27.99
27.19
26.21
24.78
22.75
20.09
16.97
13.70
10.65
8.00
5.81
3.81
1.66
-1.04
-4.46
-8.46
-12.65
-16.52
-19.70
-22.22
-24.49
-27.19
-31.00
-36.29
-42.98
-50.48
-57.86
-64.02
-67.89
-68.67
-65.92
-59.68
-50.53
-39.46
-27.67
-16.24
-5.96
2.90
10.38
16.78
22.30
27.01
30.78
33.40
34.79
35.01
34.37
33.26
32.12
31.20
30.63
30.36
30.28
30.33
30.51
30.84
31.29
31.67
31.60
30.67
28.59
25.33
21.23
16.84
12.74
9.29
6.56
4.26
1.91
-0.92
-4.52
-8.90
-13.85
-19.05
-24.20
-29.15
-33.80
-38.25
-42.64
-47.23
-52.30
-58.11
-64.66
-71.51
-77.73
-82.01
-83.08
-80.13
-73.15
-62.94
-50.81
-38.18
-26.13
-15.26
-5.70
2.71
10.22
17.01
23.13
28.48
32.85
36.02
37.80
38.21
37.48
36.08
34.60
33.56
33.32
33.95
35.31
37.09
38.98
40.70
42.05
42.92
43.25
43.01
42.22
40.94
39.21
37.08
34.58
31.73
28.62
25.32
21.93
18.47
14.80
10.73
6.00
0.53
-5.55
-11.86
-17.89
-23.15
-27.41
-30.75
-33.59
-36.58
-40.42
-45.67
-52.47
-60.36
-68.26
-74.64
-77.94
-77.07
-71.77
-62.66
-51.03
-38.33
-25.74
-14.01
-3.47
5.79
13.74
20.36
25.69
29.87
33.16
35.82
38.04
39.77
40.97
41.54
41.51
41.04
40.39
39.78
39.36
39.12
38.91
38.50
37.61
36.00
33.59
30.45
26.82
23.02
19.34
15.95
12.78
9.68
6.38
2.70
-1.40
-5.81
-10.34
-14.77
-19.01
-23.08
-27.16
-31.56
-36.57
-42.37
-48.78
-55.20
-60.61
-63.79
-63.69
-59.83
-52.46
-42.44
-31.08
-19.65
-9.11
0.05
7.71
14.02
19.22
23.50
27.01
29.78
31.79
33.01
33.46
33.22
32.48
31.52
30.55
29.72
29.06
28.54
28.07
27.60
27.04
26.29
25.21
23.64
21.49
18.70
15.36
11.62
7.59
3.39
-0.96
-5.44
-10.03
-14.66
-19.21
-23.59
-27.74
-31.73
-35.77
-40.21
-45.47
-51.81
-59.07
-66.53
-72.96
-76.92
-77.18
-73.21
-65.28
-54.41
-41.94
-29.19
-17.13
-6.29
3.16
11.32
18.36
24.46
29.66
33.92
37.17
39.35
40.55
40.98
40.92
40.59
40.12
39.55
38.94
38.35
37.94
37.80
37.92
38.08
37.97
37.26
35.72
33.26
30.02
26.26
22.36
18.66
15.34
12.37
9.45
6.14
2.06
-2.96
-8.82
-15.13
-21.42
-27.27
-32.43
-36.97
-41.16
-45.52
-50.58
-56.72
-63.89
-71.40
-78.01
-82.21
-82.68
-78.77
-70.64
-59.18
-45.68
-31.42
-17.42
-4.40
7.21
17.13
25.18
31.38
35.91
39.09
41.28
42.73
43.58
43.85
43.55
42.84
41.94
41.15
40.72
40.75
41.18
41.85
42.52
42.98
43.03
42.46
41.12
38.89
35.85
32.21
28.34
24.62
21.26
18.25
15.30
12.06
8.20
3.70
-1.26
-6.26
-10.93
-15.06
-18.73
-22.30
-26.24
-31.04
-36.97
-43.96
-51.56
-58.88
-64.77
-68.00
-67.66
-63.35
-55.38
-44.63
-32.34
-19.74
-7.83
2.81
11.91
19.51
25.73
30.78
34.80
37.88
39.99
41.07
41.05
40.02
38.25
36.16
34.25
32.91
32.32
32.33
32.57
32.57
31.93
30.47
28.26
25.51
22.47
19.33
16.09
12.69
8.98
4.92
0.55
-3.92
-8.26
-12.26
-15.85
-19.12
-22.35
-25.91
-30.23
-35.64
-42.21
-49.61
-57.04
-63.28
-66.99
-67.06
-63.00
-55.08
-44.30
-32.04
-19.69
-8.29
1.62
9.92
16.75
22.33
26.88
30.53
33.38
35.52
36.98
37.78
37.99
37.72
37.17
36.56
36.09
35.87
35.84
35.90
35.92
35.81
35.52
34.95
33.91
32.16
29.55
26.12
22.11
17.97
14.08
10.65
7.57
4.49
1.02
-3.08
-7.79
-12.87
-17.91
-22.60
-26.77
-30.50
-34.08
-37.94
-42.49
-48.04
-54.64
-61.96
-69.25
-75.31
-78.88
-78.83
-74.65
-66.56
-55.47
-42.73
-29.71
-17.48
-6.59
2.85
10.98
18.05
24.22
29.56
34.05
37.66
40.37
42.27
43.50
44.21
44.58
44.70
44.65
44.47
44.17
43.80
43.40
42.96
42.39
41.59
40.38
38.66
36.38
33.59
30.39
26.94
23.35
19.74
16.19
12.73
9.35
5.98
2.54
-1.07
-4.86
-8.78
-12.67
-16.36
-19.74
-22.82
-25.70
-28.64
-31.89
-35.75
-40.52
-46.40
-53.28
-60.61
-67.32
-72.02
-73.32
-70.34
-63.01
-52.13
-39.10
-25.51
-12.65
-1.34
8.09
15.65
21.49
25.84
28.86
30.76
31.75
32.04
31.81
31.23
30.46
29.64
28.94
28.47
28.37
28.66
29.28
30.04
30.69
30.96
30.62
29.51
27.61
25.01
21.89
18.50
15.08
11.80
8.72
5.73
2.66
-0.67
-4.30
-8.08
-11.71
-14.87
-17.41
-19.41
-21.24
-23.43
-26.49
-30.85
-36.66
-43.69
-51.30
-58.40
-63.67
-65.87
-64.19
-58.55
-49.63
-38.67
-27.05
-15.98
-6.20
1.99
8.64
14.01
18.37
21.96
24.92
27.31
29.11
30.32
30.92
31.01
30.75
30.32
29.85
29.36
28.85
28.28
27.68
27.09
26.55
26.02
25.33
24.28
22.63
20.25
17.14
13.46
9.52
5.69
2.30
-0.48
-2.71
-4.66
-6.69
-9.17
-12.24
-15.84
-19.70
-23.45
-26.80
-29.67
-32.23
-34.89
-38.15
-42.46
-48.13
-55.13
-63.02
-70.88
-77.42
-81.22
-81.16
-76.76
-68.34
-56.94
-44.03
-30.99
-18.83
-8.03
1.31
9.37
16.37
22.51
27.94
32.75
36.93
40.37
42.93
44.47
45.01
44.69
43.80
42.68
41.61
40.76
40.17
39.74
39.33
38.76
37.91
36.72
35.17
33.27
31.04
28.48
25.66
22.69
19.77
17.08
14.74
12.75
10.94
9.04
6.78
3.96
0.53
-3.49
-7.98
-12.73
-17.50
-22.02
-26.08
-29.56
-32.55
-35.40
-38.62
-42.80
-48.33
-55.13
-62.54
-69.31
-73.91
-75.00
-71.85
-64.56
-54.05
-41.69
-28.84
-16.55
-5.43
4.29
12.57
19.43
24.95
29.30
32.68
35.31
37.38
38.90
39.80
40.00
39.52
38.48
37.11
35.64
34.27
33.12
32.27
31.70
31.34
31.02
30.44
29.37
27.61
25.17
22.23
19.07
15.92
12.90
9.94
6.87
3.53
-0.14
-4.10
-8.12
-12.01
-15.56
-18.69
-21.45
-24.04
-26.83
-30.27
-34.81
-40.67
-47.59
-54.80
-61.06
-64.98
-65.45
-62.00
-54.92
-45.11
-33.76
-22.05
-10.86
-0.78
7.90
15.13
21.04
25.82
29.73
32.91
35.41
37.15
38.05
38.15
37.64
36.84
36.10
35.69
35.66
35.95
36.33
36.57
36.46
35.90
34.82
33.27
31.30
28.99
26.42
23.63
20.63
17.43
14.06
10.59
7.12
3.76
0.54
-2.59
-5.79
-9.27
-13.19
-17.52
-22.12
-26.69
-30.94
-34.70
-37.99
-41.02
-44.21
-48.07
-53.01
-59.17
-66.22
-73.23
-78.91
-81.90
-81.22
-76.57
-68.37
-57.63
-45.52
-33.15
-21.30
-10.42
-0.70
7.85
15.32
21.83
27.50
32.42
36.60
40.05
42.76
44.78
46.18
47.03
47.38
47.35
47.07
46.74
46.57
46.68
46.97
47.15
46.83
45.68
43.56
40.61
37.19
33.75
30.65
28.02
25.76
23.63
21.41
18.90
16.09
13.01
9.69
6.12
2.24
-2.00
-6.60
-11.43
-16.31
-21.01
-25.37
-29.32
-32.95
-36.48
-40.30
-44.80
-50.30
-56.78
-63.80
-70.44
-75.46
-77.62
-76.04
-70.52
-61.59
-50.28
-37.87
-25.50
-13.95
-3.68
5.17
12.60
18.68
23.52
27.27
30.09
32.13
33.53
34.36
34.70
34.63
34.28
33.80
33.38
33.16
33.21
33.55
34.11
34.78
35.37
35.65
35.38
34.35
32.43
29.66
26.21
22.35
18.42
14.65
11.15
7.91
4.75
1.51
-1.98
-5.71
-9.59
-13.40
-16.95
-20.16
-23.21
-26.57
-30.79
-36.32
-43.13
-50.57
-57.45
-62.32
-63.98
-61.81
-55.95
-47.20
-36.70
-25.61
-14.84
-4.99
3.71
11.24
17.74
23.38
28.31
32.53
35.94
38.34
39.64
39.92
39.45
38.63
37.80
37.20
36.90
36.81
36.84
36.89
36.90
36.80
36.52
35.91
34.81
33.11
30.79
27.93
24.69
21.26
17.84
14.56
11.52
8.67
5.86
2.87
-0.52
-4.44
-8.82
-13.47
-18.11
-22.50
-26.55
-30.36
-34.22
-38.51
-43.63
-49.76
-56.77
-64.05
-70.60
-75.22
-76.88
-75.02
-69.73
-61.70
-51.96
-41.59
-31.48
-22.18
-13.94
-6.77
-0.45
5.28
10.72
16.03
21.21
26.11
30.44
33.95
36.53
38.27
39.42
40.34
41.28
42.31
43.32
44.00
44.02
43.18
41.42
38.93
36.05
33.12
30.43
28.09
26.08
24.27
22.53
20.76
18.90
16.91
14.77
12.43
9.84
6.95
3.74
0.23
-3.48
-7.29
-11.04
-14.60
-17.87
-20.81
-23.54
-26.38
-29.77
-34.18
-39.91
-46.91
-54.68
-62.23
-68.37
-71.95
-72.21
-68.96
-62.62
-54.05
-44.21
-33.98
-24.02
-14.72
-6.31
1.07
7.39
12.74
17.25
21.07
24.30
26.91
28.82
30.00
30.52
30.59
30.48
30.42
30.59
31.02
31.72
32.61
33.56
34.31
34.59
34.11
32.74
30.51
27.70
24.59
21.43
18.35
15.33
12.30
9.18
5.94
2.56
-0.98
-4.70
-8.56
-12.51
-16.47
-20.38
-24.39
-28.79
-33.97
-40.09
-46.93
-53.69
-59.16
-62.08
-61.64
-57.70
-50.82
-41.98
-32.22
-22.37
-13.00
-4.38
3.28
9.86
15.32
19.67
23.04
25.55
27.33
28.42
28.94
29.06
28.96
28.83
28.73
28.66
28.56
28.39
28.15
27.86
27.52
27.05
26.35
25.37
24.12
22.67
21.04
19.18
16.97
14.34
11.33
8.12
4.91
1.81
-1.29
-4.60
-8.36
-12.62
-17.17
-21.63
-25.62
-28.96
-31.78
-34.49
-37.62
-41.63
-46.77
-52.95
-59.75
-66.40
-71.88
-75.15
-75.33
-71.97
-65.20
-55.72
-44.62
-33.07
-22.05
-12.15
-3.48
4.12
10.99
17.35
23.25
28.59
33.14
36.75
39.34
41.02
41.98
42.45
42.62
42.67
42.73
42.92
43.28
43.78
44.23
44.40
44.01
42.92
41.13
38.77
36.08
33.24
30.36
27.48
24.56
21.60
18.62
15.66
12.74
9.85
6.89
3.70
0.11
-3.94
-8.41
-13.11
-17.73
-21.96
-25.61
-28.62
-31.20
-33.67
-36.44
-39.93
-44.40
-49.87
-55.97
-61.84
-66.29
-68.08
-66.35
-60.97
-52.57
-42.31
-31.52
-21.22
-11.98
-3.97
2.91
8.78
13.76
17.98
21.59
24.77
27.62
30.11
32.14
33.54
34.20
34.15
33.51
32.51
31.44
30.54
29.94
29.68
29.60
29.40
28.78
27.51
25.53
22.96
20.07
17.19
14.55
12.31
10.41
8.66
6.75
4.40
1.39
-2.30
-6.49
-10.82
-14.91
-18.42
-21.26
-23.61
-25.97
-29.00
-33.25
-38.86
-45.42
-51.86
-56.77
-58.86
-57.38
-52.34
-44.49
-34.99
-25.00
-15.39
-6.65
1.07
7.75
13.42
18.13
21.94
24.93
27.18
28.77
29.84
30.49
30.90
31.19
31.46
31.73
31.97
32.18
32.36
32.52
32.61
32.50
32.03
31.02
29.43
27.33
24.93
22.41
19.91
17.46
14.99
12.37
9.49
6.29
2.73
-1.22
-5.54
-10.16
-14.96
-19.74
-24.34
-28.64
-32.57
-36.22
-39.72
-43.32
-47.25
-51.76
-56.96
-62.64
-68.24
-72.83
-75.27
-74.62
-70.41
-62.87
-52.87
-41.60
-30.26
-19.75
-10.53
-2.64
4.10
9.97
15.22
20.00
24.40
28.38
31.84
34.65
36.69
37.95
38.53
38.61
38.42
38.16
38.03
38.13
38.49
39.03
39.56
39.83
39.61
38.83
37.54
35.94
34.21
32.45
30.60
28.49
26.03
23.17
20.09
16.96
13.96
11.12
8.38
5.58
2.54
-0.84
-4.61
-8.70
-12.93
-17.06
-20.89
-24.27
-27.27
-30.18
-33.49
-37.77
-43.40
-50.39
-58.17
-65.63
-71.36
-74.10
-73.07
-68.26
-60.38
-50.58
-40.08
-29.82
-20.35
-11.87
-4.43
2.00
7.45
11.99
15.78
19.03
21.91
24.57
27.03
29.19
30.93
32.11
32.71
32.78
32.51
32.14
31.89
31.87
32.02
32.13
31.87
30.94
29.23
26.74
23.72
20.43
17.15
14.00
11.00
8.09
5.18
2.26
-0.69
-3.65
-6.66
-9.82
-13.20
-16.79
-20.47
-24.02
-27.20
-29.88
-32.17
-34.42
-37.13
-40.78
-45.64
-51.58
-58.06
-64.17
-68.88
-71.24
-70.59
-66.72
-59.85
-50.54
-39.62
-28.02
-16.64
-6.22
2.77
10.18
16.12
20.87
24.67
27.64
29.79
31.07
31.53
31.40
31.13
31.22
32.07
33.82
36.23
38.86
41.18
42.82
43.61
43.63
43.03
41.93
40.34
38.24
35.57
32.41
28.94
25.40
21.98
18.75
15.67
12.61
9.46
6.12
2.61
-1.03
-4.79
-8.63
-12.56
-16.63
-20.82
-25.16
-29.63
-34.28
-39.21
-44.65
-50.90
-58.21
-66.53
-75.29
-83.35
-89.23
-91.50
-89.32
-82.67
-72.42
-59.91
-46.56
-33.44
-21.16
-9.93
0.23
9.32
17.38
24.50
30.80
36.41
41.39
45.61
48.91
51.11
52.22
52.45
52.21
51.91
51.88
52.22
52.85
53.59
54.23
54.55
54.38
53.59
52.06
49.80
46.91
43.67
40.37
37.30
34.61
32.22
29.93
27.50
24.78
21.75
18.46
14.97
11.24
7.20
2.80
-1.90
-6.72
-11.40
-15.75
-19.79
-23.70
-27.89
-32.82
-38.92
-46.42
-55.21
-64.72
-73.87
-81.21
-85.31
-85.12
-80.35
-71.53
-59.81
-46.64
-33.31
-20.72
-9.38
0.55
9.05
16.22
22.16
27.02
31.00
34.30
37.05
39.37
41.24
42.60
43.41
43.65
43.38
42.83
42.24
41.86
41.83
42.13
42.58
42.86
42.57
41.41
39.18
35.95
32.01
27.80
23.75
20.12
16.97
14.07
11.11
7.79
4.03
-0.04
-4.15
-8.04
-11.55
-14.77
-17.93
-21.37
-25.46
-30.46
-36.48
-43.39
-50.74
-57.70
-63.13
-65.85
-65.00
-60.32
-52.30
-42.02
-30.77
-19.67
-9.44
-0.39
7.38
13.90
19.16
23.21
26.17
28.26
29.71
30.71
31.35
31.66
31.66
31.44
31.14
30.89
30.80
30.87
31.07
31.30
31.42
31.26
30.60
29.25
27.08
24.17
20.75
17.20
13.88
10.99
8.47
6.05
3.32
-0.06
-4.27
-9.22
-14.62
-20.07
-25.20
-29.80
-33.86
-37.68
-41.66
-46.32
-52.04
-58.88
-66.41
-73.68
-79.39
-82.16
-81.00
-75.60
-66.41
-54.55
-41.37
-28.17
-15.90
-5.06
4.23
12.10
18.82
24.60
29.64
34.02
37.78
40.93
43.46
45.41
46.81
47.65
47.96
47.82
47.39
46.92
46.60
46.53
46.56
46.37
45.61
44.06
41.69
38.67
35.27
31.68
27.97
24.10
20.05
15.87
11.71
7.73
4.02
0.54
-2.93
-6.59
-10.56
-14.79
-19.08
-23.18
-26.96
-30.42
-33.76
-37.22
-41.12
-45.74
-51.35
-58.01
-65.54
-73.29
-80.15
-84.73
-85.81
-82.68
-75.44
-64.94
-52.45
-39.24
-26.27
-14.08
-2.85
7.45
16.90
25.62
33.69
41.09
47.62
52.93
56.63
58.47
58.63
57.60
56.05
54.58
53.46
52.62
51.86
51.02
50.08
49.14
48.30
47.47
46.47
45.05
43.12
40.68
37.87
34.82
31.64
28.41
25.14
21.87
18.58
15.19
11.58
7.58
3.09
-1.85
-7.09
-12.37
-17.37
-21.88
-25.79
-29.24
-32.61
-36.42
-41.22
-47.27
-54.39
-61.79
-68.26
-72.42
-73.09
-69.73
-62.50
-52.24
-40.19
-27.60
-15.48
-4.49
5.06
13.09
19.66
24.89
28.97
32.09
34.43
36.06
36.99
37.22
36.78
35.79
34.50
33.16
31.97
31.04
30.36
29.86
29.45
28.98
28.21
26.84
24.57
21.27
17.00
12.13
7.16
2.53
-1.51
-5.04
-8.32
-11.69
-15.37
-19.35
-23.41
-27.24
-30.62
-33.50
-36.11
-38.90
-42.48
-47.35
-53.67
-61.05
-68.56
-74.82
-78.40
-78.20
-73.78
-65.47
-54.24
-41.41
-28.25
-15.78
-4.66
4.84
12.76
19.35
24.98
29.96
34.45
38.39
41.59
43.85
45.14
45.61
45.59
45.40
45.22
45.11
45.01
44.94
44.96
45.18
45.61
46.06
46.18
45.57
43.95
41.29
37.84
33.99
30.13
26.52
23.22
20.17
17.22
14.28
11.31
8.34
5.37
2.34
-0.85
-4.31
-8.12
-12.25
-16.53
-20.77
-24.83
-28.75
-32.75
-37.18
-42.42
-48.74
-56.10
-64.11
-71.95
-78.47
-82.38
-82.57
-78.44
-70.14
-58.57
-45.14
-31.34
-18.39
-6.97
2.75
11.00
18.11
24.39
30.06
35.22
39.88
43.97
47.42
50.12
52.01
53.08
53.38
53.07
52.38
51.56
50.85
50.36
50.05
49.70
49.00
47.73
45.76
43.18
40.18
36.97
33.75
30.61
27.60
24.74
21.96
19.18
16.23
13.06
9.67
6.18
2.73
-0.62
-3.93
-7.38
-11.11
-15.12
-19.27
-23.32
-27.09
-30.52
-33.68
-36.79
-40.17
-44.23
-49.33
-55.66
-62.96
-70.34
-76.42
-79.63
-78.73
-73.33
-63.95
-51.95
-38.96
-26.39
-15.19
-5.66
2.27
8.95
14.69
19.75
24.23
28.12
31.27
33.53
34.81
35.17
34.84
34.15
33.41
32.82
32.43
32.19
32.06
32.01
32.01
32.03
31.91
31.48
30.53
28.95
26.72
23.98
20.96
17.81
14.63
11.33
7.74
3.72
-0.77
-5.59
-10.45
-15.03
-19.11
-22.65
-25.82
-28.92
-32.31
-36.31
-41.11
-46.82
-53.32
-60.23
-66.86
-72.18
-75.04
-74.47
-69.97
-61.81
-50.94
-38.70
-26.47
-15.24
-5.46
2.90
10.10
16.38
21.78
26.21
29.54
31.75
33.01
33.62
33.94
34.20
34.49
34.78
34.99
35.12
35.19
35.26
35.28
35.15
34.64
33.61
31.96
29.77
27.24
24.59
21.98
19.45
16.90
14.19
11.22
7.98
4.58
1.13
-2.29
-5.73
-9.32
-13.19
-17.42
-21.95
-26.60
-31.20
-35.56
-39.59
-43.30
-46.79
-50.35
-54.36
-59.24
-65.23
-72.10
-79.04
-84.71
-87.60
-86.51
-80.97
-71.45
-59.13
-45.56
-32.14
-19.82
-9.01
0.29
8.29
15.26
21.42
26.94
31.90
36.28
39.97
42.83
44.78
45.90
46.38
46.57
46.74
47.08
47.63
48.26
48.84
49.16
49.05
48.33
46.90
44.81
42.20
39.28
36.22
33.10
29.85
26.37
22.59
18.55
14.42
10.45
6.83
3.65
0.85
-1.75
-4.34
-7.06
-9.95
-12.96
-15.95
-18.84
-21.62
-24.42
-27.50
-31.17
-35.76
-41.52
-48.52
-56.42
-64.39
-71.17
-75.25
-75.43
-71.16
-62.84
-51.67
-39.25
-27.05
-16.05
-6.62
1.30
7.91
13.40
17.88
21.44
24.25
26.49
28.32
29.79
30.83
31.30
31.15
30.41
29.28
28.07
27.05
26.41
26.17
26.20
26.19
25.79
24.70
22.75
20.01
16.75
13.37
10.23
7.51
5.19
3.03
0.70
-2.08
-5.40
-9.18
-13.19
-17.17
-20.94
-24.48
-27.95
-31.71
-36.19
-41.72
-48.39
-55.78
-62.98
-68.71
-71.69
-71.02
-66.46
-58.49
-48.06
-36.33
-24.35
-12.85
-2.33
6.98
14.94
21.54
26.83
30.86
33.75
35.55
36.39
36.41
35.86
35.02
34.18
33.56
33.28
33.33
33.64
34.04
34.37
34.46
34.08
33.04
31.19
28.49
25.03
21.08
16.97
13.04
9.49
6.28
3.16
-0.17
-3.95
-8.27
-12.99
-17.89
-22.74
-27.40
-31.86
-36.20
-40.60
-45.32
-50.75
-57.18
-64.66
-72.75
-80.38
-86.07
-88.34
-86.24
-79.67
-69.46
-56.98
-43.67
-30.64
-18.48
-7.37
2.77
12.00
20.36
27.84
34.37
39.90
44.34
47.63
49.76
50.87
51.17
50.99
50.60
50.23
49.97
49.85
49.88
49.98
50.03
49.83
49.14
47.77
45.66
42.92
39.81
36.59
33.39
30.20
26.86
23.26
19.41
15.50
11.81
8.56
5.73
3.09
0.19
-3.32
-7.58
-12.38
-17.34
-22.06
-26.29
-30.08
-33.71
-37.59
-42.16
-47.84
-54.89
-63.30
-72.58
-81.71
-89.20
-93.45
-93.26
-88.17
-78.69
-66.09
-51.99
-37.88
-24.82
-13.26
-3.22
5.57
13.42
20.58
27.15
33.09
38.26
42.49
45.66
47.80
49.05
49.70
50.00
50.15
50.23
50.28
50.30
50.32
50.31
50.16
49.61
48.38
46.26
43.27
39.69
35.92
32.26
28.83
25.51
22.09
18.40
14.46
10.43
6.48
2.66
-1.09
-4.90
-8.86
-12.89
-16.88
-20.70
-24.40
-28.23
-32.60
-37.92
-44.39
-51.86
-59.65
-66.65
-71.51
-73.04
-70.52
-63.97
-54.14
-42.25
-29.64
-17.41
-6.28
3.47
11.79
18.76
24.50
29.09
32.61
35.15
36.84
37.87
38.45
38.78
39.01
39.22
39.41
39.55
39.65
39.72
39.74
39.67
39.37
38.67
37.38
35.35
32.51
28.88
24.57
19.85
15.02
10.35
5.98
1.83
-2.31
-6.69
-11.44
-16.42
-21.36
-25.91
-29.92
-33.52
-37.11
-41.21
-46.33
-52.71
-60.21
-68.17
-75.49
-80.79
-82.78
-80.64
-74.31
-64.47
-52.33
-39.23
-26.25
-14.08
-3.07
6.68
15.12
22.32
28.43
33.72
38.43
42.69
46.40
49.31
51.20
52.02
52.01
51.59
51.17
51.07
51.35
51.92
52.51
52.84
52.60
51.62
49.80
47.23
44.13
40.80
37.49
34.30
31.16
27.86
24.22
20.21
16.01
11.90
8.10
4.65
1.29
-2.34
-6.56
-11.45
-16.85
-22.36
-27.58
-32.26
-36.41
-40.29
-44.30
-48.94
-54.64
-61.63
-69.72
-78.11
-85.47
-90.16
-90.79
-86.64
-78.03
-66.06
-52.29
-38.16
-24.70
-12.45
-1.57
7.95
16.17
23.22
29.31
34.66
39.45
43.66
47.14
49.69
51.16
51.62
51.30
50.54
49.66
48.88
48.35
48.09
48.04
48.07
47.97
47.48
46.36
44.44
41.73
38.39
34.67
30.83
27.00
23.21
19.38
15.46
11.53
7.76
4.33
1.31
-1.42
-4.10
-7.02
-10.29
-13.89
-17.64
-21.31
-24.78
-28.07
-31.39
-35.06
-39.48
-45.01
-51.77
-59.50
-67.44
-74.37
-78.87
-79.68
-76.12
-68.32
-57.16
-43.99
-30.25
-17.11
-5.31
4.81
13.22
20.06
25.53
29.83
33.12
35.49
37.06
37.89
38.15
38.06
37.80
37.54
37.28
36.94
36.43
35.72
34.98
34.39
34.10
34.00
33.70
32.68
30.50
27.08
22.75
18.14
13.89
10.39
7.58
5.05
2.30
-1.06
-5.12
-9.71
-14.56
-19.36
-23.93
-28.18
-32.10
-35.87
-39.77
-44.23
-49.62
-56.08
-63.24
-70.20
-75.67
-78.29
-77.10
-71.75
-62.73
-51.11
-38.27
-25.54
-13.87
-3.72
4.93
12.39
19.06
25.22
30.91
35.95
40.07
43.00
44.69
45.26
45.00
44.29
43.47
42.79
42.40
42.30
42.38
42.39
42.03
41.02
39.23
36.73
33.80
30.76
27.88
25.24
22.76
20.25
17.54
14.59
11.44
8.23
5.00
1.72
-1.73
-5.50
-9.65
-14.12
-18.73
-23.29
-27.63
-31.69
-35.49
-39.14
-42.83
-46.81
-51.46
-57.15
-64.09
-72.09
-80.36
-87.49
-91.84
-92.01
-87.40
-78.44
-66.43
-52.98
-39.54
-26.97
-15.53
-5.15
4.31
12.89
20.54
27.19
32.90
37.77
41.83
45.03
47.24
48.38
48.52
47.95
47.12
46.52
46.50
47.21
48.52
50.03
51.15
51.36
50.29
47.94
44.69
41.18
38.00
35.50
33.60
31.91
29.94
27.36
24.14
20.53
16.85
13.32
9.99
6.68
3.16
-0.77
-5.16
-9.95
-14.95
-19.96
-24.79
-29.27
-33.38
-37.26
-41.26
-45.88
-51.61
-58.62
-66.56
-74.41
-80.68
-83.85
-82.78
-77.20
-67.72
-55.57
-42.19
-28.81
-16.28
-5.05
4.62
12.69
19.19
24.33
28.45
31.84
34.67
36.87
38.30
38.77
38.33
37.21
35.81
34.46
33.41
32.76
32.47
32.45
32.52
32.44
31.88
30.58
28.42
25.50
22.16
18.78
15.70
13.01
10.56
8.05
5.18
1.80
-2.01
-6.03
-9.99
-13.68
-17.03
-20.18
-23.45
-27.31
-32.22
-38.47
-45.94
-53.93
-61.21
-66.30
-67.90
-65.31
-58.61
-48.71
-36.90
-24.56
-12.79
-2.26
6.72
14.18
20.29
25.31
29.45
32.84
35.50
37.39
38.43
38.64
38.09
37.01
35.68
34.38
33.35
32.73
32.54
32.69
33.02
33.25
33.03
31.99
29.88
26.63
22.46
17.84
13.32
9.29
5.86
2.74
-0.56
-4.46
-9.12
-14.33
-19.64
-24.57
-28.89
-32.64
-36.13
-39.82
-44.20
-49.61
-56.19
-63.68
-71.35
-78.03
-82.29
-82.93
-79.32
-71.65
-60.86
-48.29
-35.25
-22.68
-11.10
-0.68
8.54
16.55
23.36
29.07
33.79
37.68
40.83
43.25
44.91
45.83
46.07
45.76
45.02
43.96
42.71
41.43
40.29
39.41
38.78
38.11
36.98
34.96
31.87
27.89
23.49
19.23
15.53
12.50
9.87
7.19
4.03
0.16
-4.36
-9.27
-14.20
-18.92
-23.28
-27.36
-31.34
-35.46
-40.03
-45.38
-51.77
-59.21
-67.22
-74.76
-80.38
-82.56
-80.29
-73.45
-62.85
-49.97
-36.50
-23.77
-12.53
-2.88
5.45
12.86
19.66
25.92
31.53
36.34
40.18
43.02
44.90
45.96
46.32
46.12
45.49
44.60
43.62
42.68
41.85
41.06
40.08
38.63
36.45
33.47
29.84
25.81
21.70
17.72
13.92
10.21
6.47
2.58
-1.49
-5.65
-9.82
-13.91
-17.91
-21.91
-26.13
-30.91
-36.56
-43.22
-50.62
-57.96
-64.09
-67.65
-67.63
-63.62
-55.96
-45.62
-33.88
-21.98
-10.89
-1.21
6.86
13.41
18.69
22.98
26.50
29.31
31.37
32.60
32.99
32.69
31.94
31.02
30.14
29.42
28.87
28.43
28.01
27.48
26.69
25.49
23.80
21.60
18.96
15.96
12.66
9.04
5.07
0.76
-3.83
-8.56
-13.22
-17.65
-21.75
-25.53
-29.19
-33.06
-37.61
-43.30
-50.34
-58.47
-66.77
-73.83
-78.07
-78.25
-73.91
-65.53
-54.29
-41.63
-28.81
-16.66
-5.53
4.50
13.43
21.24
27.88
33.36
37.75
41.15
43.66
45.32
46.16
46.26
45.88
45.34
44.96
44.93
45.22
45.65
45.94
45.92
45.53
44.74
43.52
41.71
39.19
35.88
31.94
27.66
23.41
19.47
15.91
12.65
9.55
6.40
3.05
-0.65
-4.85
-9.59
-14.76
-20.11
-25.31
-30.08
-34.35
-38.34
-42.53
-47.54
-53.85
-61.55
-70.17
-78.62
-85.37
-88.86
-87.93
-82.24
-72.31
-59.37
-44.93
-30.41
-16.80
-4.61
6.03
15.31
23.45
30.65
37.01
42.51
47.06
50.57
53.05
54.61
55.47
55.84
55.91
55.75
55.39
54.82
54.09
53.25
52.33
51.33
50.09
48.47
46.30
43.57
40.34
36.76
33.02
29.23
25.44
21.69
18.05
14.60
11.41
8.45
5.54
2.48
-1.00
-4.96
-9.36
-14.03
-18.73
-23.30
-27.64
-31.84
-36.11
-40.80
-46.30
-52.81
-60.19
-67.76
-74.34
-78.53
-79.13
-75.53
-67.93
-57.25
-44.80
-31.94
-19.70
-8.72
0.78
8.81
15.60
21.35
26.29
30.50
34.00
36.69
38.52
39.56
40.00
40.12
40.11
40.01
39.72
39.13
38.26
37.29
36.48
35.98
35.68
35.21
34.08
31.95
28.82
25.01
21.04
17.34
14.12
11.26
8.43
5.26
1.50
-2.86
-7.66
-12.58
-17.36
-21.78
-25.84
-29.68
-33.68
-38.27
-43.88
-50.71
-58.49
-66.41
-73.25
-77.57
-78.18
-74.47
-66.64
-55.58
-42.64
-29.20
-16.38
-4.87
5.07
13.50
20.62
26.62
31.66
35.80
39.02
41.30
42.68
43.28
43.29
42.92
42.33
41.68
41.08
40.68
40.59
40.89
41.47
42.03
42.21
41.63
40.16
37.93
35.32
32.72
30.42
28.45
26.56
24.46
21.84
18.57
14.74
10.59
6.42
2.49
-1.12
-4.50
-7.86
-11.51
-15.68
-20.46
-25.79
-31.52
-37.49
-43.57
-49.72
-55.98
-62.56
-69.63
-77.31
-85.35
-93.01
-99.04
-102.00
-100.76
-94.88
-84.87
-71.91
-57.49
-42.88
-28.94
-16.08
-4.48
5.73
14.51
21.95
28.27
33.83
38.83
43.28
46.99
49.69
51.33
52.08
52.32
52.45
52.69
53.10
53.57
53.96
54.19
54.20
53.92
53.23
52.00
50.10
47.52
44.32
40.63
36.67
32.64
28.74
25.11
21.75
18.59
15.44
12.16
8.75
5.33
2.14
-0.66
-3.09
-5.39
-7.96
-11.15
-15.10
-19.69
-24.62
-29.53
-34.18
-38.49
-42.54
-46.48
-50.52
-54.97
-60.13
-66.21
-73.10
-80.12
-86.05
-89.36
-88.69
-83.35
-73.59
-60.53
-45.81
-31.07
-17.56
-5.97
3.60
11.40
17.87
23.42
28.35
32.77
36.69
39.99
42.59
44.47
45.67
46.29
46.40
46.06
45.34
44.36
43.26
42.18
41.25
40.43
39.56
38.40
36.70
34.32
31.25
27.66
23.78
19.93
16.31
13.04
10.06
7.21
4.24
0.93
-2.81
-6.93
-11.23
-15.46
-19.37
-22.83
-25.86
-28.65
-31.56
-35.05
-39.62
-45.50
-52.54
-59.98
-66.49
-70.57
-70.96
-67.07
-59.21
-48.42
-36.07
-23.44
-11.48
-0.77
8.42
15.97
21.86
26.22
29.28
31.36
32.70
33.40
33.45
32.79
31.49
29.80
28.16
27.02
26.70
27.28
28.50
29.92
30.95
31.11
30.16
28.12
25.22
21.77
18.06
14.24
10.41
6.66
3.09
-0.15
-2.96
-5.41
-7.67
-10.06
-12.79
-15.98
-19.58
-23.45
-27.47
-31.54
-35.63
-39.69
-43.67
-47.56
-51.45
-55.61
-60.48
-66.46
-73.60
-81.40
-88.67
-93.78
-95.17
-91.78
-83.54
-71.34
-56.71
-41.38
-26.78
-13.77
-2.67
6.62
14.38
20.97
26.71
31.84
36.43
40.46
43.76
46.19
47.65
48.18
47.94
47.18
46.21
45.35
44.85
44.86
45.33
45.99
46.44
46.27
45.21
43.27
40.68
37.86
35.24
33.06
31.38
30.01
28.65
27.00
24.91
22.37
19.55
16.64
13.72
10.75
7.56
3.91
-0.33
-5.15
-10.39
-15.81
-21.19
-26.45
-31.67
-37.06
-42.94
-49.63
-57.33
-65.88
-74.66
-82.49
-87.85
-89.33
-86.07
-78.18
-66.70
-53.27
-39.64
-27.13
-16.39
-7.45
0.10
6.81
13.16
19.48
25.92
32.38
38.61
44.21
48.78
51.96
53.60
53.74
52.63
50.68
48.37
46.16
44.38
43.15
42.36
41.78
41.11
40.11
38.64
36.65
34.26
31.59
28.81
26.08
23.37
20.52
17.21
13.10
8.01
2.03
-4.43
-10.74
-16.27
-20.59
-23.62
-25.65
-27.26
-29.21
-32.20
-36.80
-43.13
-50.79
-58.80
-65.75
-70.13
-70.75
-67.04
-59.23
-48.22
-35.32
-21.88
-9.04
2.46
12.26
20.26
26.50
31.05
33.96
35.27
35.14
33.87
31.96
29.98
28.49
27.88
28.23
29.42
31.12
32.96
34.60
35.80
36.43
36.42
35.76
34.42
32.41
29.74
26.53
22.96
19.26
15.69
12.36
9.25
6.19
2.91
-0.81
-5.06
-9.70
-14.46
-19.00
-23.11
-26.83
-30.45
-34.48
-39.47
-45.79
-53.49
-62.18
-71.01
-78.80
-84.24
-86.16
-83.80
-77.06
-66.52
-53.38
-39.09
-25.01
-12.16
-1.01
8.41
16.41
23.37
29.55
35.01
39.58
43.07
45.38
46.63
47.12
47.24
47.30
47.47
47.76
48.09
48.47
48.90
49.37
49.69
49.54
48.54
46.43
43.27
39.41
35.34
31.51
28.15
25.16
22.26
19.13
15.64
11.86
8.02
4.34
0.90
-2.47
-6.07
-10.22
-15.01
-20.30
-25.75
-30.94
-35.60
-39.73
-43.62
-47.83
-52.93
-59.36
-67.15
-75.71
-83.82
-89.86
-92.26
-89.99
-82.93
-71.84
-58.13
-43.33
-28.78
-15.34
-3.50
6.53
14.77
21.37
26.66
31.01
34.81
38.21
41.15
43.38
44.70
45.08
44.74
44.12
43.66
43.69
44.30
45.33
46.48
47.41
47.88
47.73
46.90
45.41
43.30
40.63
37.52
34.13
30.66
27.22
23.86
20.45
16.81
12.75
8.24
3.40
-1.53
-6.22
-10.41
-13.98
-16.92
-19.32
-21.41
-23.46
-25.89
-29.16
-33.77
-40.04
-47.93
-56.83
-65.57
-72.56
-76.19
-75.35
-69.78
-60.19
-48.02
-34.86
-22.04
-10.31
0.10
9.25
17.21
23.92
29.25
33.14
35.68
37.13
37.82
38.06
38.10
38.13
38.31
38.75
39.48
40.42
41.36
42.04
42.22
41.70
40.44
38.52
36.19
33.78
31.65
29.98
28.70
27.48
25.84
23.40
20.05
16.01
11.63
7.28
3.14
-0.81
-4.66
-8.44
-12.13
-15.70
-19.30
-23.33
-28.38
-35.01
-43.36
-52.97
-62.66
-70.79
-75.72
-76.30
-72.23
-64.09
-53.13
-40.79
-28.29
-16.39
-5.49
4.26
12.76
19.83
25.36
29.36
32.01
33.59
34.38
34.58
34.36
33.88
33.36
33.00
32.96
33.25
33.73
34.20
34.44
34.31
33.73
32.69
31.14
29.09
26.58
23.70
20.61
17.49
14.52
11.82
9.41
7.25
5.16
2.93
0.30
-2.91
-6.78
-11.27
-16.24
-21.47
-26.74
-31.82
-36.56
-40.95
-45.23
-49.89
-55.48
-62.31
-70.14
-78.04
-84.55
-88.12
-87.60
-82.66
-73.81
-62.22
-49.19
-35.87
-23.08
-11.27
-0.71
8.46
16.26
22.80
28.34
33.13
37.28
40.71
43.21
44.60
44.92
44.45
43.68
43.05
42.84
43.07
43.53
43.93
43.98
43.49
42.40
40.75
38.61
36.11
33.34
30.40
27.37
24.32
21.30
18.38
15.54
12.77
9.97
7.04
3.95
0.69
-2.73
-6.33
-10.17
-14.31
-18.71
-23.25
-27.67
-31.82
-35.66
-39.40
-43.49
-48.51
-54.93
-62.85
-71.81
-80.71
-88.00
-92.06
-91.67
-86.39
-76.73
-64.00
-49.88
-35.98
-23.41
-12.69
-3.79
3.64
10.02
15.72
20.93
25.74
30.13
34.01
37.22
39.64
41.17
41.85
41.86
41.47
41.01
40.72
40.69
40.86
40.99
40.78
39.90
38.12
35.39
31.89
27.96
24.08
20.63
17.79
15.40
13.06
10.25
6.53
1.78
-3.80
-9.81
-15.77
-21.37
-26.55
-31.47
-36.45
-41.77
-47.64
-54.05
-60.71
-67.02
-72.01
-74.58
-73.77
-69.07
-60.66
-49.35
-36.42
-23.22
-10.83
0.13
9.52
17.52
24.48
30.69
36.22
40.90
44.39
46.43
46.96
46.26
44.85
43.34
42.22
41.72
41.87
42.51
43.47
44.54
45.51
46.14
46.11
45.10
42.93
39.62
35.39
30.67
25.92
21.52
17.64
14.34
11.49
8.89
6.25
3.22
-0.53
-5.22
-10.83
-17.06
-23.38
-29.17
-33.93
-37.43
-39.73
-41.25
-42.63
-44.64
-48.00
-53.15
-60.02
-67.87
-75.36
-80.79
-82.67
-80.13
-73.18
-62.71
-50.09
-36.78
-23.90
-12.14
-1.73
7.37
15.34
22.35
28.55
34.01
38.65
42.32
44.80
45.98
45.93
44.95
43.51
42.16
41.36
41.35
42.15
43.52
45.05
46.26
46.76
46.28
44.84
42.69
40.20
37.72
35.42
33.26
31.08
28.72
26.07
23.17
20.09
16.91
13.66
10.27
6.63
2.58
-1.99
-7.11
-12.68
-18.45
-24.07
-29.23
-33.79
-37.92
-42.12
-47.05
-53.24
-60.80
-69.19
-77.27
-83.60
-86.83
-86.17
-81.50
-73.36
-62.68
-50.53
-37.93
-25.74
-14.66
-5.06
3.00
9.79
15.83
21.57
27.22
32.63
37.41
41.15
43.61
44.88
45.23
45.07
44.74
44.47
44.36
44.43
44.68
45.03
45.37
45.51
45.20
44.22
42.43
39.85
36.72
33.31
29.88
26.51
23.13
19.50
15.42
10.86
5.96
1.06
-3.52
-7.53
-10.93
-13.85
-16.56
-19.42
-22.85
-27.30
-33.05
-40.08
-47.91
-55.53
-61.59
-64.74
-64.04
-59.29
-51.06
-40.44
-28.74
-17.12
-6.44
2.84
10.54
16.69
21.49
25.15
27.84
29.64
30.52
30.43
29.42
27.73
25.71
23.77
22.21
21.20
20.77
20.88
21.48
22.41
23.34
23.83
23.38
21.66
18.64
14.63
10.18
5.87
2.15
-0.77
-2.93
-4.58
-6.07
-7.84
-10.29
-13.66
-17.93
-22.71
-27.45
-31.57
-34.74
-37.03
-38.88
-40.97
-43.94
-48.21
-53.83
-60.49
-67.47
-73.78
-78.22
-79.68
-77.31
-70.86
-60.81
-48.24
-34.66
-21.49
-9.70
0.34
8.88
16.43
23.52
30.37
36.80
42.35
46.51
48.97
49.74
49.15
47.68
45.82
43.97
42.35
41.02
39.96
39.08
38.24
37.34
36.27
34.95
33.34
31.46
29.37
27.20
25.07
23.00
20.89
18.51
15.58
11.99
7.89
3.65
-0.21
-3.35
-5.77
-7.79
-9.91
-12.53
-15.83
-19.67
-23.75
-27.84
-31.91
-36.13
-40.83
-46.33
-52.82
-60.28
-68.34
-76.31
-83.11
-87.51
-88.37
-84.96
-77.27
-66.03
-52.54
-38.34
-24.82
-12.92
-3.06
4.85
11.21
16.47
21.05
25.09
28.56
31.27
33.03
33.80
33.69
32.98
32.06
31.29
30.97
31.25
32.11
33.32
34.51
35.27
35.23
34.23
32.32
29.71
26.67
23.34
19.73
15.76
11.39
6.72
1.94
-2.71
-7.09
-11.18
-15.08
-18.94
-22.93
-27.26
-32.19
-37.91
-44.38
-51.13
-57.17
-61.18
-61.91
-58.65
-51.51
-41.46
-29.93
-18.32
-7.55
2.05
10.60
18.33
25.26
31.12
35.49
38.03
38.70
37.84
36.04
33.93
31.93
30.23
28.74
27.34
25.91
24.50
23.28
22.39
21.81
21.31
20.47
18.81
16.08
12.28
7.77
3.03
-1.45
-5.43
-9.00
-12.44
-16.24
-20.84
-26.61
-33.61
-41.50
-49.42
-56.04
-59.81
-59.50
-54.63
-45.64
-33.83
-20.88
-8.24
3.08
12.71
20.61
26.87
31.53
34.61
36.22
36.58
35.97
34.67
32.86
30.73
28.46
26.27
24.34
22.72
21.34
19.99
18.51
16.77
14.73
12.33
9.49
6.13
2.25
-1.99
-6.28
-10.31
-13.95
-17.40
-21.16
-25.79
-31.70
-38.77
-46.26
-52.86
-57.07
-57.61
-53.85
-46.03
-35.15
-22.67
-10.12
1.33
11.04
18.88
25.04
29.79
33.28
35.51
36.41
36.01
34.53
32.35
29.88
27.40
25.02
22.75
20.66
18.91
17.72
17.16
17.04
16.87
16.03
14.00
10.57
5.96
0.68
-4.66
-9.56
-13.78
-17.39
-20.67
-24.02
-27.86
-32.59
-38.56
-45.97
-54.73
-64.19
-73.14
-79.88
-82.75
-80.57
-73.17
-61.40
-46.88
-31.41
-16.50
-3.08
8.51
18.27
26.37
32.91
37.95
41.49
43.60
44.49
44.52
44.10
43.58
43.10
42.62
41.95
40.92
39.52
37.95
36.45
35.26
34.37
33.56
32.49
30.83
28.43
25.35
21.90
18.48
15.42
12.76
10.12
6.79
2.06
-4.58
-13.12
-23.13
-33.97
-45.02
-55.78
-65.71
-74.01
-79.53
-81.07
-77.74
-69.51
-57.33
-42.84
-27.94
-14.10
-2.12
7.88
16.21
23.31
29.56
35.21
40.35
44.90
48.64
51.29
52.66
52.74
51.82
50.36
48.84
47.57
46.57
45.64
44.44
42.71
40.36
37.49
34.36
31.27
28.44
25.91
23.47
20.70
17.07
12.18
5.93
-1.39
-9.19
-16.79
-23.71
-29.87
-35.62
-41.54
-48.19
-55.78
-63.97
-71.78
-77.84
-80.73
-79.41
-73.59
-63.83
-51.37
-37.79
-24.61
-12.91
-3.17
4.65
10.96
16.28
21.00
25.29
29.07
32.15
34.37
35.73
36.34
36.37
35.85
34.72
32.89
30.35
27.30
24.11
21.07
18.23
15.31
11.73
6.89
0.46
-7.48
-16.37
-25.28
-33.30
-39.81
-44.66
-48.15
-50.83
-53.11
-55.12
-56.65
-57.32
-56.76
-54.75
-51.09
-45.43
-37.23
-25.80
-10.70
8.04
29.69
53.02
76.57
99.11
119.82
138.31
154.49
168.37
179.95
189.17
195.97
200.17
201.42
199.01
191.89
178.88
159.06
132.39
100.11
64.74
29.46
-2.65
-29.56
-50.60
-66.20
-77.27
-84.55
-88.35
-88.83
-86.36
-81.92
-76.89
-72.64
-69.97
-68.89
-68.84
-69.14
-69.38
-69.59
-70.06
-71.02
-72.47
-74.08
-75.38
-76.03
-76.06
-75.89
-76.22
-77.69
-80.51
-84.17
-87.50
-88.96
-87.16
-81.33
-71.62
-59.01
-44.97
-30.88
-17.74
-5.99
4.30
13.22
20.76
26.81
31.24
34.02
35.35
35.60
35.14
34.30
33.24
32.02
30.68
29.33
28.15
27.34
26.98
27.00
27.16
27.07
26.30
24.58
21.84
18.29
14.34
10.48
7.08
4.22
1.66
-1.03
-4.29
-8.26
-12.76
-17.38
-21.65
-25.36
-28.57
-31.67
-35.10
-39.30
-44.56
-50.89
-58.04
-65.27
-71.49
-75.31
-75.49
-71.30
-62.82
-50.95
-37.19
-23.10
-9.98
1.42
10.95
18.81
25.38
31.00
35.81
39.79
42.83
44.83
45.83
46.06
45.82
45.44
45.12
44.88
44.68
44.43
44.18
43.94
43.77
43.52
42.96
41.81
39.90
37.24
34.07
30.67
27.32
24.12
21.05
17.99
14.82
11.49
7.97
4.26
0.30
-3.92
-8.40
-12.99
-17.46
-21.57
-25.18
-28.34
-31.36
-34.75
-39.01
-44.52
-51.33
-59.06
-66.76
-73.13
-76.69
-76.23
-71.26
-62.12
-49.98
-36.44
-22.96
-10.62
0.13
9.25
16.88
23.15
28.15
31.92
34.59
36.38
37.49
38.10
38.36
38.34
38.08
37.63
37.02
36.30
35.55
34.88
34.39
34.12
33.99
33.74
33.09
31.80
29.85
27.38
24.67
21.92
19.14
16.21
12.92
9.15
4.94
0.51
-3.87
-7.95
-11.62
-14.91
-17.96
-20.98
-24.19
-27.85
-32.20
-37.44
-43.54
-50.08
-56.20
-60.65
-62.16
-59.77
-53.30
-43.36
-31.27
-18.57
-6.64
3.65
12.02
18.59
23.64
27.30
29.60
30.55
30.26
29.10
27.62
26.37
25.64
25.38
25.33
25.15
24.71
24.17
23.76
23.65
23.73
23.62
22.90
21.30
18.89
15.95
12.82
9.67
6.40
2.73
-1.53
-6.34
-11.33
-15.94
-19.68
-22.41
-24.37
-26.19
-28.56
-32.05
-36.94
-43.06
-49.81
-56.18
-60.93
-62.82
-60.93
-55.01
-45.52
-33.63
-20.78
-8.33
2.73
11.99
19.46
25.42
30.15
33.81
36.45
37.99
38.43
37.89
36.65
35.18
33.89
33.05
32.64
32.48
32.32
32.06
31.74
31.53
31.48
31.48
31.16
30.14
28.18
25.31
21.86
18.25
14.76
11.47
8.19
4.68
0.75
-3.56
-8.09
-12.54
-16.69
-20.43
-23.78
-26.87
-29.91
-33.14
-36.84
-41.26
-46.60
-52.88
-59.84
-66.80
-72.71
-76.32
-76.46
-72.44
-64.33
-52.89
-39.43
-25.42
-12.14
-0.43
9.30
17.09
23.21
28.05
31.99
35.27
37.97
40.04
41.42
42.11
42.26
42.08
41.73
41.30
40.78
40.17
39.53
39.00
38.64
38.45
38.28
37.88
37.03
35.56
33.46
30.75
27.53
23.98
20.24
16.51
12.94
9.66
6.69
3.89
1.09
-1.99
-5.56
-9.71
-14.31
-19.03
-23.41
-27.12
-30.09
-32.61
-35.27
-38.76
-43.61
-49.92
-57.24
-64.57
-70.57
-73.86
-73.41
-68.84
-60.51
-49.44
-36.98
-24.46
-12.90
-2.89
5.42
12.12
17.47
21.74
25.16
27.90
30.06
31.71
32.87
33.54
33.73
33.46
32.87
32.16
31.59
31.41
31.76
32.57
33.57
34.32
34.38
33.44
31.43
28.56
25.17
21.66
18.32
15.31
12.59
10.05
7.48
4.69
1.56
-1.92
-5.61
-9.29
-12.71
-15.68
-18.24
-20.58
-23.07
-26.16
-30.20
-35.30
-41.17
-47.13
-52.15
-55.08
-55.04
-51.58
-44.92
-35.79
-25.25
-14.36
-4.03
5.08
12.63
18.51
22.82
25.83
27.80
29.00
29.56
29.55
29.05
28.16
27.08
26.03
25.12
24.41
23.86
23.43
23.07
22.70
22.19
21.36
20.00
18.04
15.54
12.68
9.66
6.61
3.46
0.02
-3.89
-8.33
-13.10
-17.90
-22.33
-26.17
-29.44
-32.39
-35.48
-39.22
-43.98
-49.85
-56.46
-62.92
-67.99
-70.33
-68.98
-63.62
-54.72
-43.41
-31.06
-18.93
-7.89
1.55
9.26
15.35
20.00
23.50
26.11
28.04
29.40
30.24
30.62
30.63
30.45
30.26
30.19
30.26
30.40
30.49
30.48
30.35
30.10
29.74
29.10
28.00
26.26
23.81
20.74
17.31
13.77
10.33
7.05
3.82
0.46
-3.20
-7.22
-11.57
-16.11
-20.66
-25.02
-29.01
-32.60
-35.88
-39.14
-42.84
-47.46
-53.36
-60.49
-68.29
-75.58
-80.91
-82.87
-80.55
-73.82
-63.37
-50.43
-36.42
-22.61
-9.93
1.07
10.21
17.61
23.58
28.54
32.81
36.54
39.68
42.04
43.53
44.19
44.24
43.96
43.55
43.14
42.72
42.25
41.71
41.05
40.25
39.23
37.90
36.27
34.40
32.42
30.43
28.42
26.31
23.94
21.22
18.14
14.83
11.44
8.05
4.69
1.26
-2.38
-6.35
-10.72
-15.40
-20.22
-24.90
-29.23
-33.11
-36.69
-40.30
-44.44
-49.56
-55.87
-63.14
-70.61
-77.08
-81.17
-81.69
-77.94
-70.03
-58.80
-45.62
-31.98
-19.14
-7.88
1.50
9.09
15.23
20.27
24.52
28.14
31.16
33.55
35.30
36.48
37.18
37.50
37.47
37.04
36.20
35.14
34.17
33.69
33.92
34.71
35.55
35.73
34.72
32.37
28.94
25.00
21.06
17.42
14.03
10.67
7.07
3.11
-1.11
-5.41
-9.56
-13.47
-17.16
-20.77
-24.56
-28.79
-33.76
-39.65
-46.37
-53.42
-59.82
-64.27
-65.52
-62.73
-55.82
-45.51
-33.07
-19.95
-7.37
3.84
13.32
21.06
27.21
31.99
35.61
38.26
40.08
41.22
41.82
42.08
42.16
42.21
42.25
42.21
41.91
41.25
40.28
39.17
38.14
37.29
36.54
35.60
34.14
31.90
28.85
25.16
21.17
17.16
13.37
9.82
6.39
2.87
-0.97
-5.27
-10.02
-15.05
-20.09
-24.89
-29.25
-33.10
-36.55
-39.83
-43.38
-47.71
-53.28
-60.22
-68.09
-75.82
-81.81
-84.41
-82.45
-75.63
-64.60
-50.77
-35.81
-21.17
-7.85
3.69
13.43
21.51
28.18
33.64
38.07
41.64
44.46
46.60
48.09
48.91
49.07
48.66
47.90
47.06
46.37
45.96
45.75
45.62
45.38
44.91
44.15
43.09
41.71
39.99
37.93
35.56
32.92
30.10
27.16
24.12
20.95
17.60
14.05
10.31
6.41
2.42
-1.53
-5.30
-8.80
-11.99
-14.99
-17.91
-20.98
-24.42
-28.44
-33.32
-39.35
-46.67
-55.11
-63.93
-71.85
-77.30
-78.85
-75.72
-68.04
-56.86
-43.72
-30.21
-17.50
-6.18
3.62
12.00
19.09
24.98
29.71
33.37
36.11
38.06
39.41
40.26
40.69
40.73
40.41
39.75
38.86
37.85
36.92
36.27
36.00
36.03
36.10
35.79
34.79
32.94
30.36
27.33
24.19
21.21
18.47
15.93
13.40
10.60
7.32
3.46
-0.91
-5.51
-10.00
-14.07
-17.59
-20.65
-23.48
-26.38
-29.62
-33.45
-38.08
-43.62
-49.93
-56.48
-62.25
-65.98
-66.42
-62.87
-55.33
-44.60
-31.99
-18.98
-6.83
3.59
11.92
18.24
22.92
26.43
29.19
31.40
33.07
34.10
34.44
34.15
33.45
32.58
31.77
31.09
30.58
30.16
29.82
29.51
29.17
28.70
27.94
26.78
25.11
22.93
20.32
17.42
14.42
11.51
8.76
6.11
3.37
0.27
-3.43
-7.70
-12.33
-16.98
-21.32
-25.22
-28.74
-32.13
-35.71
-39.75
-44.52
-50.18
-56.77
-64.04
-71.24
-77.17
-80.36
-79.51
-74.01
-64.14
-51.10
-36.60
-22.35
-9.63
0.91
9.28
15.87
21.24
25.82
29.83
33.20
35.68
37.02
37.16
36.34
35.08
33.98
33.49
33.75
34.56
35.53
36.17
36.14
35.23
33.39
30.74
27.66
24.86
23.29
23.73
26.29
30.05
33.14
33.48
29.74
22.14
12.48
3.23
-3.63
-7.57
-9.61
-11.52
-14.67
-19.30
-24.59
-29.36
-32.98
-35.74
-38.63
-42.68
-48.39
-55.52
-63.30
-70.85
-77.35
-82.13
-84.53
-83.90
-79.73
-71.90
-60.84
-47.53
-33.24
-19.23
-6.52
4.31
13.10
20.06
25.67
30.44
34.80
38.91
42.60
45.52
47.27
47.64
46.84
45.39
44.04
43.43
43.86
45.20
46.90
48.27
48.70
47.89
45.89
43.06
39.90
36.85
34.08
31.37
28.25
24.13
18.70
12.14
5.11
-1.52
-7.04
-11.26
-14.49
-17.31
-20.21
-23.30
-26.44
-29.35
-31.93
-34.20
-36.24
-38.06
-39.65
-41.22
-43.36
-47.03
-53.02
-61.45
-71.25
-80.34
-86.22
-86.88
-81.46
-70.52
-55.57
-38.54
-21.15
-4.65
10.12
22.69
32.92
40.95
47.18
52.13
56.29
60.12
64.01
68.38
73.58
79.87
87.32
95.82
105.14
115.00
125.06
134.87
143.82
151.36
157.16
161.33
164.11
165.55
165.01
161.16
152.48
137.87
117.21
91.41
62.13
31.29
0.61
-28.62
-55.53
-79.57
-100.20
-116.84
-128.92
-136.03
-138.29
-136.49
-132.16
-127.15
-123.18
-121.32
-121.77
-123.99
-127.00
-129.73
-131.20
-130.56
-127.20
-120.74
-111.23
-99.07
-84.98
-69.97
-55.10
-41.32
-29.26
-19.16
-10.83
-3.85
2.12
7.24
11.43
14.49
16.40
17.40
17.95
18.57
19.64
21.25
23.23
25.31
27.20
28.74
29.86
30.53
30.68
30.23
29.07
27.10
24.30
20.82
16.94
12.98
9.19
5.65
2.22
-1.40
-5.41
-9.88
-14.65
-19.42
-23.97
-28.20
-32.18
-36.10
-40.12
-44.29
-48.68
-53.42
-58.79
-65.14
-72.55
-80.62
-88.25
-93.86
-95.86
-93.17
-85.67
-74.22
-60.37
-45.79
-31.73
-18.87
-7.30
3.14
12.57
20.97
28.17
33.98
38.38
41.54
43.74
45.31
46.44
47.23
47.72
48.02
48.28
48.70
49.41
50.39
51.45
52.32
52.70
52.36
51.20
49.24
46.63
43.60
40.37
37.11
33.86
30.60
27.20
23.61
19.79
15.80
11.72
7.57
3.29
-1.20
-5.99
-11.06
-16.29
-21.52
-26.57
-31.35
-35.88
-40.38
-45.21
-50.80
-57.50
-65.36
-73.92
-82.18
-88.63
-91.71
-90.16
-83.55
-72.38
-58.07
-42.41
-27.10
-13.32
-1.48
8.54
17.17
24.75
31.40
37.03
41.50
44.76
46.95
48.30
49.03
49.34
49.35
49.19
49.04
49.09
49.46
50.11
50.83
51.24
51.01
49.90
47.89
45.10
41.76
38.12
34.38
30.71
27.16
23.74
20.37
16.97
13.45
9.76
5.84
1.69
-2.72
-7.35
-12.08
-16.74
-21.12
-25.17
-28.96
-32.90
-37.50
-43.29
-50.41
-58.52
-66.66
-73.46
-77.48
-77.65
-73.48
-65.25
-53.82
-40.41
-26.33
-12.70
-0.33
10.31
19.11
26.21
31.86
36.34
39.86
42.54
44.45
45.68
46.37
46.71
46.89
47.00
47.06
47.05
46.96
46.83
46.70
46.53
46.15
45.25
43.51
40.73
37.00
32.65
28.17
23.97
20.27
16.96
13.69
10.04
5.67
0.51
-5.25
-11.22
-17.00
-22.31
-27.08
-31.48
-35.85
-40.60
-46.16
-52.81
-60.56
-69.02
-77.30
-84.08
-87.88
-87.49
-82.30
-72.61
-59.51
-44.60
-29.55
-15.63
-3.53
6.66
15.23
22.61
29.15
34.97
40.02
44.19
47.33
49.40
50.46
50.67
50.26
49.55
48.88
48.52
48.63
49.12
49.72
50.07
49.85
48.86
47.07
44.57
41.51
38.07
34.43
30.79
27.31
24.05
20.97
17.90
14.68
11.22
7.54
3.75
-0.09
-4.01
-8.17
-12.77
-17.90
-23.48
-29.21
-34.71
-39.69
-44.24
-48.86
-54.33
-61.34
-69.94
-79.25
-87.39
-92.05
-91.30
-84.41
-72.18
-56.68
-40.53
-25.96
-14.23
-5.46
1.23
7.24
14.13
23.09
34.56
47.99
61.83
73.87
81.84
84.06
80.00
70.53
57.60
43.73
31.22
21.49
14.89
10.88
8.68
7.88
8.83
12.43
19.67
30.96
45.79
62.84
80.39
96.89
111.24
122.94
132.02
138.85
144.02
147.98
150.87
152.32
151.51
147.44
139.29
126.69
109.74
88.84
64.63
37.94
9.77
-18.77
-46.58
-72.90
-97.51
-120.50
-141.83
-160.77
-175.64
-184.18
-184.52
-176.03
-159.94
-139.06
-116.77
-95.97
-78.30
-64.03
-52.55
-43.07
-35.05
-28.29
-22.71
-18.09
-14.07
-10.28
-6.55
-2.98
0.14
2.54
4.14
5.15
5.99
7.04
8.54
10.40
12.28
13.67
14.11
13.32
11.36
8.56
5.40
2.36
-0.28
-2.55
-4.70
-7.15
-10.19
-13.90
-18.08
-22.38
-26.46
-30.10
-33.31
-36.30
-39.38
-42.92
-47.29
-52.76
-59.32
-66.50
-73.26
-78.19
-79.81
-77.07
-69.80
-58.74
-45.28
-31.06
-17.41
-5.21
5.21
13.86
20.96
26.77
31.50
35.25
38.01
39.65
40.11
39.49
38.12
36.50
35.11
34.26
34.01
34.22
34.69
35.29
35.91
36.48
36.81
36.66
35.77
33.96
31.29
27.96
24.32
20.69
17.28
14.10
11.01
7.80
4.26
0.28
-4.16
-8.95
-13.92
-18.87
-23.57
-27.82
-31.53
-34.76
-37.86
-41.38
-45.99
-52.17
-59.97
-68.77
-77.32
-83.97
-87.13
-85.71
-79.48
-69.09
-55.81
-41.18
-26.58
-13.00
-0.99
9.27
17.86
25.05
31.15
36.48
41.20
45.28
48.53
50.73
51.77
51.74
50.99
49.98
49.11
48.61
48.56
48.84
49.28
49.62
49.59
48.92
47.42
45.12
42.22
39.05
35.95
33.11
30.48
27.86
25.01
21.79
18.23
14.46
10.59
6.67
2.60
-1.77
-6.52
-11.62
-16.87
-21.95
-26.60
-30.66
-34.22
-37.60
-41.30
-45.82
-51.56
-58.58
-66.46
-74.29
-80.73
-84.36
-84.09
-79.39
-70.58
-58.66
-45.06
-31.24
-18.36
-7.11
2.29
9.95
16.17
21.30
25.63
29.38
32.60
35.29
37.35
38.68
39.27
39.17
38.58
37.79
37.09
36.76
36.91
37.47
38.20
38.70
38.57
37.47
35.29
32.10
28.21
24.06
20.03
16.37
13.09
9.94
6.56
2.64
-1.89
-6.82
-11.73
-16.15
-19.81
-22.73
-25.26
-27.95
-31.43
-36.16
-42.30
-49.59
-57.22
-63.95
-68.28
-68.91
-65.08
-56.88
-45.24
-31.67
-17.73
-4.71
6.66
16.17
23.97
30.32
35.49
39.60
42.70
44.80
45.90
46.07
45.52
44.50
43.30
42.16
41.21
40.44
39.81
39.28
38.86
38.56
38.31
37.92
37.07
35.45
32.95
29.65
25.89
22.06
18.42
15.02
11.70
8.23
4.45
0.34
-4.00
-8.44
-12.85
-17.17
-21.33
-25.28
-28.97
-32.47
-35.95
-39.73
-44.22
-49.78
-56.52
-64.17
-71.93
-78.58
-82.67
-82.94
-78.70
-70.08
-58.03
-43.99
-29.45
-15.56
-2.93
8.27
18.13
26.73
34.05
40.00
44.52
47.71
49.82
51.11
51.83
52.02
51.72
50.98
50.07
49.44
49.53
50.53
52.24
54.05
55.21
55.07
53.46
50.63
47.13
43.51
40.06
36.71
33.15
29.08
24.46
19.52
14.71
10.46
6.97
4.11
1.53
-1.18
-4.29
-7.88
-11.79
-15.81
-19.73
-23.47
-27.11
-30.85
-34.94
-39.65
-45.15
-51.42
-58.10
-64.49
-69.57
-72.18
-71.40
-66.81
-58.66
-47.85
-35.68
-23.47
-12.25
-2.58
5.42
11.92
17.20
21.44
24.77
27.20
28.72
29.41
29.44
29.06
28.57
28.16
27.87
27.66
27.45
27.18
26.93
26.77
26.74
26.67
26.29
25.21
23.23
20.35
16.91
13.37
10.17
7.52
5.33
3.33
1.09
-1.68
-5.12
-9.14
-13.41
-17.55
-21.20
-24.21
-26.66
-28.87
-31.36
-34.65
-39.12
-44.84
-51.40
-57.91
-63.11
-65.73
-64.78
-59.94
-51.61
-40.86
-29.09
-17.62
-7.38
1.22
8.21
13.88
18.60
22.67
26.18
29.08
31.19
32.39
32.67
32.20
31.31
30.32
29.50
29.01
28.87
29.07
29.53
30.14
30.73
31.08
30.94
30.11
28.49
26.17
23.30
20.11
16.83
13.63
10.61
7.80
5.20
2.77
0.44
-1.91
-4.49
-7.52
-11.12
-15.28
-19.73
-24.11
-28.06
-31.37
-34.12
-36.60
-39.26
-42.59
-46.99
-52.58
-59.10
-65.77
-71.39
-74.57
-74.15
-69.61
-61.27
-50.21
-37.86
-25.57
-14.28
-4.41
4.04
11.28
17.57
23.11
28.02
32.35
36.04
39.02
41.24
42.73
43.58
43.93
43.89
43.55
42.92
42.02
40.95
39.78
38.56
37.25
35.74
33.95
31.91
29.74
27.58
25.49
23.35
20.92
17.99
14.52
10.70
6.83
3.24
0.06
-2.79
-5.51
-8.39
-11.58
-15.12
-18.91
-22.79
-26.59
-30.20
-33.60
-36.96
-40.59
-44.93
-50.35
-56.88
-64.06
-70.91
-76.07
-78.24
-76.54
-70.85
-61.78
-50.53
-38.46
-26.78
-16.26
-7.23
0.34
6.65
11.97
16.47
20.22
23.12
25.06
25.90
25.70
24.74
