1626687051.00
64.000000
-0.00
-0.00
-0.00
-0.00
-0.00
-0.00
-0.00
-0.00
-0.00
-0.00
0.00
0.01
0.01
-0.00
-0.03
-0.05
-0.05
0.00
0.13
0.36
0.66
1.01
1.37
1.72
2.06
2.40
2.79
3.24
3.80
4.42
5.06
5.66
6.20
6.68
7.15
7.68
8.31
9.14
10.09
11.04
11.88
12.56
13.14
13.76
14.65
15.96
17.91
20.32
22.90
25.38
27.58
29.57
31.68
34.32
37.81
42.54
48.15
54.10
59.83
64.97
69.58
74.14
79.34
85.71
93.76
103.00
112.62
121.73
129.77
136.75
143.30
150.75
157.77
166.64
177.95
191.79
206.97
220.57
228.25
225.36
208.53
176.87
132.76
80.05
23.07
-34.94
-92.44
-149.16
-205.23
-260.37
-313.74
-363.87
-409.83
-450.91
-486.50
-515.74
-537.23
-549.22
-549.96
-538.37
-514.21
-478.67
-433.88
-382.45
-327.02
-269.84
-212.63
-156.66
-102.95
-52.37
-5.90
35.58
71.43
101.35
125.50
144.38
158.69
169.15
176.37
180.75
182.57
182.07
179.51
175.23
169.65
163.18
156.15
148.81
141.30
133.69
126.02
118.33
110.69
103.16
95.80
88.68
81.83
75.25
68.95
62.95
57.25
51.86
46.78
42.03
37.59
33.45
29.61
26.07
22.81
19.83
17.11
14.67
12.48
10.54
8.83
7.35
6.07
4.97
4.05
3.27
2.62
2.09
1.65
1.30
1.01
0.79
0.61
0.47
0.37
0.29
0.23
0.20
0.17
0.16
0.16
0.18
0.20
0.22
0.25
0.29
0.33
0.37
0.42
0.46
0.51
0.56
0.61
0.66
0.72
0.78
0.85
0.92
1.00
1.08
1.18
1.29
1.41
1.55
1.70
1.87
2.06
2.27
2.51
2.77
3.05
3.37
3.72
4.10
4.51
4.96
5.45
5.97
6.53
7.13
7.78
8.47
9.22
10.02
10.87
11.73
12.60
13.47
14.38
15.33
16.38
17.52
18.76
20.04
21.29
22.43
23.34
23.92
24.08
23.74
22.82
21.24
18.93
15.86
12.01
7.51
2.57
-2.52
-7.45
-11.94
-15.81
-19.02
-21.62
-23.72
-25.39
-26.61
-27.30
-27.34
-26.68
-25.46
-24.01
-22.71
-21.92
-21.80
-22.21
-22.80
-23.10
-22.82
-21.92
-20.79
-19.95
-19.94
-20.97
-22.83
-24.95
-26.66
-27.52
-27.46
-26.83
-26.27
-26.38
-27.72
-30.68
-35.35
-41.17
-46.71
-49.77
-48.01
-39.97
-25.94
-8.09
10.13
25.36
35.64
40.80
42.08
41.23
39.55
37.53
35.09
32.01
28.45
25.00
22.34
20.97
20.92
21.85
23.17
24.76
26.46
28.21
30.03
31.91
33.69
35.02
35.48
34.77
32.82
29.87
26.40
22.94
19.91
17.45
15.56
14.06
12.79
11.63
10.46
9.23
7.98
6.78
5.72
4.84
4.05
3.14
1.85
-0.00
-2.40
-5.11
-7.75
-10.00
-11.73
-13.08
-14.39
-16.01
-18.17
-20.88
-23.89
-26.80
-29.26
-31.08
-32.31
-33.17
-34.02
-35.21
-36.94
-39.24
-41.89
-44.50
-46.49
-47.26
-46.30
-43.35
-38.48
-32.17
-25.13
-18.14
-11.82
-6.52
-2.24
1.23
4.21
6.93
9.49
11.86
13.90
15.50
16.57
17.13
17.30
17.24
17.13
17.12
17.27
17.53
17.87
18.18
18.38
18.39
18.14
17.59
16.74
15.67
14.47
13.23
11.98
10.63
9.11
7.33
5.32
3.21
1.18
-0.65
-2.30
-3.86
-5.49
-7.22
-9.03
-10.80
-12.51
-14.18
-15.98
-18.09
-20.64
-23.66
-27.08
-30.64
-34.04
-36.75
-38.23
-37.99
-35.78
-31.72
-26.35
-20.39
-14.56
-9.33
-4.87
-1.02
2.49
5.91
9.34
12.74
15.90
18.60
20.65
21.95
22.58
22.70
22.53
22.20
21.78
21.30
20.78
20.32
20.05
20.09
20.36
20.68
20.73
20.29
19.33
18.00
16.61
15.38
14.36
13.47
12.51
11.40
10.20
9.04
8.12
7.47
7.01
6.53
5.87
4.96
3.82
2.63
1.52
0.58
-0.19
-0.87
-1.62
-2.60
-3.88
-5.44
-7.13
-8.74
-10.09
-11.13
-11.93
-12.76
-13.90
-15.56
-17.73
-20.11
-22.18
-23.26
-22.76
-20.37
-16.23
-10.82
-4.91
0.80
5.81
9.92
13.19
15.82
18.03
20.01
21.92
23.86
25.81
27.62
29.08
29.97
30.24
29.98
29.48
29.07
29.02
29.44
30.27
31.32
32.31
33.01
33.24
32.96
32.26
31.32
30.32
29.37
28.48
27.54
26.42
25.05
23.44
21.65
19.78
17.94
16.20
14.58
13.12
11.82
10.63
9.43
8.08
6.39
4.32
1.89
-0.75
-3.46
-6.22
-9.14
-12.35
-15.86
-19.37
-22.35
-24.19
-24.44
-23.05
-20.37
-17.01
-13.63
-10.70
-8.45
-6.87
-5.89
-5.35
-5.23
-5.52
-6.21
-7.24
-8.41
-9.47
-10.17
-10.40
-10.19
-9.71
-9.18
-8.65
-8.08
-7.35
-6.39
-5.37
-4.59
-4.44
-5.17
-6.70
-8.77
-11.01
-13.11
-14.99
-16.69
-18.36
-20.08
-21.88
-23.72
-25.60
-27.52
-29.48
-31.46
-33.33
-34.97
-36.27
-37.20
-37.81
-38.30
-38.92
-39.87
-41.28
-43.02
-44.67
-45.64
-45.31
-43.27
-39.49
-34.30
-28.32
-22.21
-16.49
-11.46
-7.19
-3.61
-0.56
2.10
4.50
6.69
8.65
10.34
11.64
12.46
12.78
12.67
12.31
11.91
11.67
11.65
11.81
11.98
11.99
11.72
11.14
10.32
9.39
8.44
7.54
6.74
6.11
5.70
5.54
5.56
5.57
5.33
4.62
3.37
1.72
-0.06
-1.66
-2.92
-3.86
-4.69
-5.70
-7.11
-8.96
-11.08
-13.19
-15.02
-16.36
-17.23
-17.79
-18.29
-19.08
-20.40
-22.41
-25.05
-27.96
-30.54
-32.00
-31.59
-28.91
-24.15
-17.99
-11.47
-5.54
-0.80
2.70
5.22
7.21
8.98
10.72
12.43
14.11
15.77
17.38
18.87
20.03
20.68
20.74
20.33
19.75
19.35
19.33
19.71
20.31
20.91
21.36
21.63
21.74
21.73
21.61
21.38
21.11
20.89
20.85
21.04
21.36
21.61
21.62
21.34
20.92
20.62
20.64
21.03
21.65
22.27
22.72
22.96
23.06
23.10
23.12
23.05
22.82
22.41
21.87
21.32
20.84
20.42
19.93
19.19
17.99
16.23
13.89
10.98
7.64
4.05
0.56
-2.44
-4.46
-5.14
-4.25
-1.87
1.66
5.79
9.87
13.32
15.78
17.19
17.79
17.90
17.84
17.78
17.70
17.54
17.26
16.92
16.69
16.70
16.94
17.24
17.34
17.03
16.28
15.31
14.43
13.95
13.93
14.19
14.41
14.28
13.70
12.77
11.75
10.85
10.16
9.58
8.84
7.67
5.90
3.50
0.59
-2.65
-6.03
-9.46
-12.89
-16.36
-19.86
-23.36
-26.82
-30.25
-33.68
-37.19
-40.70
-44.00
-46.64
-48.14
-48.16
-46.64
-43.83
-40.24
-36.41
-32.79
-29.63
-27.01
-24.95
-23.43
-22.43
-21.91
-21.72
-21.65
-21.44
-20.86
-19.81
-18.29
-16.43
-14.44
-12.55
-10.88
-9.54
-8.54
-7.84
-7.41
-7.20
-7.24
-7.62
-8.46
-9.81
-11.63
-13.76
-15.97
-18.07
-19.99
-21.80
-23.67
-25.69
-27.82
-29.88
-31.65
-32.97
-33.86
-34.51
-35.27
-36.49
-38.40
-41.01
-44.01
-46.80
-48.60
-48.68
-46.53
-42.16
-36.06
-29.12
-22.31
-16.39
-11.72
-8.21
-5.50
-3.14
-0.83
1.58
4.08
6.52
8.78
10.71
12.26
13.41
14.23
14.86
15.43
16.07
16.84
17.74
18.71
19.68
20.50
21.03
21.12
20.67
19.67
18.26
16.62
15.01
13.58
12.33
11.14
9.77
7.98
5.63
2.76
-0.44
-3.68
-6.66
-9.22
-11.36
-13.27
-15.20
-17.43
-20.20
-23.62
-27.66
-32.10
-36.49
-40.17
-42.42
-42.63
-40.53
-36.31
-30.59
-24.19
-17.90
-12.22
-7.28
-2.91
1.24
5.46
9.89
14.52
19.11
23.36
26.95
29.64
31.34
32.15
32.33
32.19
32.02
32.00
32.20
32.58
33.03
33.39
33.49
33.17
32.33
30.95
29.21
27.33
25.61
24.25
23.26
22.44
21.51
20.23
18.54
16.58
14.70
13.20
12.22
11.69
11.29
10.67
9.61
8.11
6.39
4.72
3.28
2.06
0.86
-0.64
-2.69
-5.41
-8.79
-12.61
-16.50
-19.91
-22.19
-22.71
-21.01
-16.99
-11.02
-3.84
3.62
10.53
16.33
20.84
24.20
26.72
28.70
30.35
31.70
32.72
33.32
33.47
33.22
32.69
32.03
31.42
30.97
30.74
30.74
30.91
31.15
31.33
31.27
30.84
29.91
28.46
26.50
24.14
21.54
18.88
16.32
13.97
11.83
9.80
7.70
5.33
2.58
-0.53
-3.78
-6.90
-9.63
-11.92
-13.98
-16.22
-19.06
-22.74
-27.20
-32.01
-36.53
-40.08
-42.12
-42.36
-40.75
-37.48
-32.95
-27.65
-22.15
-17.00
-12.62
-9.24
-6.82
-5.18
-4.06
-3.30
-2.80
-2.56
-2.54
-2.62
-2.64
-2.38
-1.71
-0.60
0.82
2.33
3.71
4.76
5.40
5.60
5.42
4.93
4.16
3.09
1.72
0.04
-1.83
-3.68
-5.30
-6.53
-7.38
-8.06
-8.89
-10.11
-11.82
-13.86
-15.93
-17.72
-19.03
-19.90
-20.58
-21.46
-22.92
-25.27
-28.58
-32.59
-36.78
-40.35
-42.47
-42.48
-40.13
-35.64
-29.63
-22.87
-16.10
-9.82
-4.30
0.37
4.30
7.66
10.72
13.73
16.89
20.20
23.50
26.47
28.81
30.31
30.95
30.84
30.27
29.53
28.83
28.27
27.83
27.44
26.98
26.39
25.62
24.67
23.51
22.12
20.53
18.79
17.04
15.41
13.96
12.66
11.38
9.97
8.36
6.60
4.80
3.15
1.72
0.53
-0.50
-1.48
-2.57
-3.88
-5.44
-7.20
-9.03
-10.76
-12.26
-13.51
-14.66
-16.00
-17.87
-20.52
-24.02
-28.11
-32.21
-35.54
-37.31
-36.92
-34.20
-29.44
-23.35
-16.76
-10.46
-4.96
-0.44
3.18
6.15
8.72
11.17
13.67
16.35
19.15
21.95
24.52
26.64
28.18
29.11
29.53
29.61
29.58
29.68
30.11
30.93
32.06
33.30
34.33
34.90
34.91
34.44
33.71
32.98
32.40
32.01
31.72
31.37
30.84
30.02
28.88
27.43
25.77
24.00
22.24
20.58
19.02
17.53
16.01
14.42
12.78
11.12
9.50
7.89
6.22
4.37
2.19
-0.41
-3.49
-6.98
-10.64
-14.03
-16.59
-17.81
-17.40
-15.44
-12.37
-8.80
-5.31
-2.33
-0.00
1.66
2.71
3.16
3.04
2.39
1.34
0.10
-1.09
-2.09
-2.86
-3.45
-3.95
-4.38
-4.71
-4.92
-5.02
-5.08
-5.26
-5.63
-6.23
-7.01
-7.91
-8.96
-10.21
-11.75
-13.58
-15.56
-17.44
-18.99
-20.13
-20.99
-21.82
-22.87
-24.25
-25.86
-27.42
-28.65
-29.43
-29.80
-30.04
-30.47
-31.33
-32.77
-34.78
-37.25
-39.95
-42.53
-44.54
-45.44
-44.76
-42.30
-38.14
-32.72
-26.63
-20.50
-14.80
-9.80
-5.61
-2.17
0.69
3.17
5.48
7.68
9.69
11.35
12.52
13.19
13.54
13.86
14.37
15.11
15.89
16.45
16.61
16.39
15.97
15.58
15.31
15.03
14.53
13.60
12.22
10.57
8.97
7.70
6.85
6.32
5.86
5.23
4.32
3.21
2.03
0.92
-0.04
-0.90
-1.75
-2.68
-3.81
-5.18
-6.81
-8.64
-10.58
-12.53
-14.47
-16.42
-18.52
-20.88
-23.56
-26.50
-29.55
-32.50
-35.00
-36.72
-37.20
-36.08
-33.12
-28.41
-22.42
-15.88
-9.59
-4.15
0.16
3.44
6.02
8.28
10.48
12.67
14.79
16.70
18.27
19.46
20.24
20.67
20.83
20.87
20.91
21.08
21.39
21.82
22.29
22.72
23.05
23.23
23.22
22.97
22.46
21.69
20.72
19.72
18.83
18.21
17.94
17.98
18.25
18.57
18.76
18.66
18.24
17.63
17.10
16.90
17.18
17.84
18.63
19.22
19.40
19.17
18.71
18.18
17.68
17.09
16.26
15.00
13.24
11.00
8.31
5.19
1.67
-2.07
-5.61
-8.34
-9.60
-9.04
-6.72
-3.16
0.80
4.40
7.16
9.00
10.13
10.85
11.35
11.66
11.68
11.30
10.50
9.37
8.08
6.81
5.69
4.75
3.99
3.38
2.92
2.61
2.46
2.39
2.29
1.97
1.32
0.28
-1.08
-2.69
-4.49
-6.48
-8.65
-10.95
-13.25
-15.39
-17.25
-18.85
-20.36
-21.98
-23.85
-25.91
-27.97
-29.80
-31.25
-32.26
-33.00
-33.73
-34.73
-36.23
-38.30
-40.84
-43.53
-45.92
-47.47
-47.64
-46.12
-42.91
-38.34
-32.98
-27.44
-22.21
-17.57
-13.56
-10.18
-7.36
-5.10
-3.34
-2.01
-0.93
0.10
1.21
2.40
3.57
4.62
5.51
6.30
7.14
8.11
9.15
10.08
10.64
10.67
10.15
9.24
8.19
7.23
6.44
5.81
5.24
4.62
3.92
3.16
2.38
1.57
0.75
-0.10
-0.96
-1.82
-2.73
-3.79
-5.14
-6.88
-9.05
-11.52
-14.08
-16.57
-18.88
-21.12
-23.53
-26.38
-29.90
-34.09
-38.60
-42.80
-45.85
-46.97
-45.69
-42.02
-36.46
-29.83
-22.96
-16.54
-10.90
-6.13
-2.10
1.43
4.66
7.79
10.93
14.01
16.90
19.35
21.20
22.43
23.21
23.80
24.43
25.22
26.16
27.20
28.23
29.16
29.87
30.23
30.15
29.65
28.86
28.03
27.38
26.99
26.82
26.66
26.36
25.81
25.13
24.50
24.04
23.80
23.68
23.48
23.06
22.32
21.32
20.19
19.11
18.15
17.30
16.47
15.50
14.26
12.70
10.84
8.81
6.74
4.80
3.04
1.47
-0.01
-1.57
-3.42
-5.78
-8.79
-12.44
-16.44
-20.25
-23.15
-24.39
-23.45
-20.26
-15.20
-9.06
-2.77
2.87
7.38
10.68
13.00
14.72
16.19
17.58
18.90
20.01
20.77
21.11
21.13
21.00
20.87
20.85
20.89
20.88
20.77
20.58
20.41
20.37
20.48
20.63
20.66
20.31
19.43
17.97
16.01
13.75
11.42
9.19
7.11
5.12
3.08
0.88
-1.55
-4.20
-7.04
-9.98
-12.96
-15.90
-18.74
-21.48
-24.17
-26.97
-30.08
-33.73
-38.03
-42.93
-48.10
-52.99
-56.85
-58.91
-58.63
-55.86
-50.92
-44.50
-37.46
-30.56
-24.27
-18.80
-14.15
-10.18
-6.76
-3.83
-1.37
0.60
2.04
2.94
3.37
3.47
3.50
3.75
4.44
5.69
7.47
9.54
11.59
13.32
14.48
15.00
14.87
14.20
13.07
11.61
9.94
8.18
6.44
4.79
3.21
1.60
-0.12
-2.00
-4.04
-6.21
-8.51
-10.92
-13.44
-16.01
-18.56
-21.05
-23.50
-25.96
-28.57
-31.45
-34.77
-38.71
-43.39
-48.72
-54.31
-59.34
-62.78
-63.68
-61.48
-56.30
-48.82
-40.06
-31.08
-22.71
-15.40
-9.25
-4.11
0.40
4.67
9.05
13.65
18.34
22.76
26.50
29.29
31.13
32.29
33.17
34.13
35.36
36.79
38.28
39.65
40.84
41.93
43.05
44.28
45.61
46.98
48.22
49.11
49.30
48.35
45.90
41.83
36.47
30.56
25.06
20.73
17.87
16.26
15.30
14.40
13.23
11.79
10.25
8.73
7.16
5.36
3.11
0.37
-2.73
-5.90
-8.84
-11.41
-13.65
-15.74
-17.91
-20.33
-23.03
-26.01
-29.31
-33.05
-37.37
-42.29
-47.43
-52.03
-55.04
-55.45
-52.67
-46.70
-38.21
-28.21
-17.83
-7.94
0.88
8.42
14.71
19.95
24.44
28.49
32.33
36.06
39.63
42.87
45.51
47.36
48.38
48.70
48.59
48.40
48.39
48.70
49.30
50.01
50.58
50.73
50.29
49.18
47.45
45.29
42.85
40.34
37.86
35.43
32.97
30.36
27.55
24.56
21.52
18.64
16.06
13.83
11.81
9.77
7.47
4.76
1.67
-1.58
-4.74
-7.63
-10.26
-12.84
-15.68
-19.09
-23.31
-28.38
-34.10
-40.00
-45.35
-49.27
-50.91
-49.71
-45.57
-38.99
-30.90
-22.42
-14.56
-7.96
-2.87
0.79
3.24
4.66
5.22
5.00
4.14
2.86
1.47
0.31
-0.36
-0.39
0.19
1.22
2.51
3.85
5.06
5.98
6.45
6.35
5.61
4.28
2.54
0.62
-1.30
-3.11
-4.86
-6.63
-8.48
-10.39
-12.29
-14.15
-15.98
-17.90
-20.01
-22.37
-24.91
-27.53
-30.11
-32.61
-35.06
-37.59
-40.35
-43.57
-47.39
-51.90
-56.94
-61.97
-66.09
-68.24
-67.47
-63.34
-56.02
-46.33
-35.41
-24.40
-14.18
-5.21
2.41
8.85
14.40
19.39
23.97
28.17
31.87
34.82
36.84
37.88
38.09
37.75
37.22
36.77
36.57
36.69
37.08
37.66
38.28
38.70
38.70
38.04
36.59
34.40
31.69
28.78
26.00
23.58
21.57
19.88
18.28
16.52
14.42
11.91
9.12
6.29
3.74
1.69
0.14
-1.11
-2.42
-4.15
-6.53
-9.55
-13.02
-16.63
-20.14
-23.38
-26.34
-29.13
-31.94
-35.02
-38.66
-43.02
-48.03
-53.22
-57.72
-60.38
-60.19
-56.56
-49.67
-40.33
-29.80
-19.38
-9.98
-2.04
4.54
10.14
15.18
19.98
24.66
29.13
33.19
36.64
39.35
41.28
42.55
43.26
43.58
43.64
43.57
43.54
43.67
44.04
44.62
45.26
45.71
45.72
45.14
43.92
42.18
40.11
37.91
35.75
33.73
31.91
30.25
28.72
27.27
25.88
24.59
23.42
22.37
21.37
20.27
18.95
17.35
15.46
13.39
11.22
9.05
6.85
4.62
2.32
-0.03
-2.38
-4.75
-7.27
-10.19
-13.77
-18.18
-23.23
-28.38
-32.71
-35.23
-35.18
-32.29
-26.90
-19.85
-12.19
-4.85
1.52
6.63
10.43
13.03
14.57
15.20
15.08
14.32
13.06
11.45
9.69
8.05
6.82
6.22
6.30
6.88
7.64
8.25
8.49
8.30
7.74
6.84
5.61
3.98
1.94
-0.42
-2.94
-5.42
-7.73
-9.79
-11.66
-13.37
-14.98
-16.55
-18.13
-19.70
-21.22
-22.63
-23.88
-25.00
-26.06
-27.19
-28.49
-29.94
-31.44
-32.94
-34.46
-36.25
-38.63
-41.82
-45.71
-49.75
-53.03
-54.55
-53.54
-49.69
-43.35
-35.27
-26.45
-17.77
-9.90
-3.18
2.33
6.74
10.31
13.34
16.06
18.57
20.82
22.64
23.89
24.56
24.78
24.74
24.60
24.42
24.18
23.88
23.63
23.59
23.84
24.32
24.76
24.82
24.26
23.06
21.43
19.68
18.05
16.64
15.35
14.03
12.59
11.05
9.55
8.22
7.15
6.29
5.51
4.68
3.67
2.45
1.00
-0.66
-2.53
-4.58
-6.73
-8.87
-10.88
-12.73
-14.47
-16.22
-18.06
-19.99
-21.89
-23.61
-25.07
-26.39
-27.83
-29.76
-32.47
-36.01
-40.06
-43.96
-46.81
-47.73
-46.19
-42.17
-36.13
-28.91
-21.42
-14.39
-8.30
-3.27
0.82
4.19
7.17
10.04
12.94
15.90
18.79
21.37
23.42
24.91
25.93
26.76
27.63
28.67
29.85
31.02
32.06
32.96
33.84
34.84
36.01
37.24
38.25
38.77
38.68
38.07
37.20
36.33
35.63
35.02
34.31
33.27
31.76
29.81
27.59
25.31
23.15
21.21
19.48
17.85
16.19
14.32
12.14
9.61
6.82
3.96
1.27
-1.08
-3.04
-4.77
-6.53
-8.61
-11.22
-14.37
-17.92
-21.51
-24.68
-26.89
-27.67
-26.75
-24.09
-20.03
-15.15
-10.19
-5.79
-2.40
-0.12
1.15
1.64
1.58
1.08
0.21
-0.98
-2.41
-3.94
-5.36
-6.52
-7.27
-7.58
-7.49
-7.13
-6.65
-6.24
-6.04
-6.16
-6.62
-7.40
-8.45
-9.69
-11.09
-12.62
-14.27
-16.01
-17.75
-19.41
-20.91
-22.25
-23.43
-24.50
-25.42
-26.14
-26.62
-26.90
-27.10
-27.39
-27.91
-28.68
-29.64
-30.65
-31.67
-32.76
-34.12
-36.02
-38.63
-41.96
-45.71
-49.27
-51.90
-52.85
-51.63
-48.17
-42.82
-36.23
-29.19
-22.37
-16.25
-11.06
-6.82
-3.38
-0.50
2.08
4.58
7.08
9.59
11.95
13.99
15.55
16.51
16.88
16.77
16.36
15.90
15.61
15.59
15.83
16.17
16.42
16.37
15.91
15.05
13.89
12.61
11.40
10.47
9.92
9.78
9.92
10.13
10.12
9.68
8.78
7.57
6.34
5.34
4.68
4.28
3.84
3.03
1.69
-0.21
-2.52
-4.98
-7.40
-9.72
-12.01
-14.45
-17.28
-20.74
-25.01
-30.08
-35.71
-41.33
-46.14
-49.21
-49.80
-47.63
-42.94
-36.49
-29.25
-22.14
-15.73
-10.25
-5.60
-1.56
2.09
5.52
8.86
12.17
15.43
18.49
21.09
22.95
23.89
23.98
23.52
22.95
22.68
22.93
23.69
24.76
25.86
26.72
27.14
26.99
26.20
24.81
23.02
21.09
19.31
17.85
16.67
15.56
14.22
12.47
10.28
7.81
5.31
2.93
0.74
-1.33
-3.41
-5.56
-7.78
-10.00
-12.16
-14.22
-16.22
-18.30
-20.56
-23.16
-26.19
-29.73
-33.82
-38.39
-43.25
-47.90
-51.60
-53.54
-52.99
-49.64
-43.72
-35.95
-27.32
-18.80
-11.14
-4.66
0.66
5.13
9.17
13.14
17.29
21.62
25.92
29.86
33.08
35.40
36.75
37.25
37.11
36.53
35.69
34.71
33.68
32.68
31.76
30.93
30.11
29.21
28.12
26.80
25.28
23.68
22.15
20.85
19.80
18.92
18.10
17.13
15.87
14.18
12.03
9.39
6.30
2.90
-0.63
-4.04
-7.12
-9.71
-11.81
-13.58
-15.24
-17.06
-19.28
-22.01
-25.22
-28.63
-31.72
-33.83
-34.25
-32.46
-28.27
-21.94
-14.13
-5.73
2.39
9.61
15.64
20.56
24.62
28.08
31.10
33.65
35.64
37.04
37.92
38.48
38.90
39.29
39.65
39.93
40.09
40.16
40.20
40.21
40.07
39.58
38.55
36.92
34.78
32.34
29.78
27.22
24.67
22.09
19.49
16.94
14.53
12.24
9.97
7.55
4.88
1.95
-1.07
-3.97
-6.63
-9.08
-11.51
-14.17
-17.27
-20.87
-24.89
-29.09
-33.04
-36.19
-37.95
-37.82
-35.54
-31.25
-25.45
-18.89
-12.38
-6.57
-1.84
1.71
4.17
5.76
6.65
7.01
6.94
6.53
5.93
5.31
4.90
4.83
5.14
5.72
6.35
6.82
7.01
6.91
6.58
6.05
5.28
4.17
2.65
0.75
-1.44
-3.77
-6.14
-8.54
-11.03
-13.67
-16.42
-19.21
-21.87
-24.34
-26.60
-28.77
-30.96
-33.31
-35.93
-38.93
-42.43
-46.46
-50.84
-55.11
-58.50
-60.12
-59.21
-55.46
-49.09
-40.85
-31.78
-22.88
-14.90
-8.15
-2.60
2.08
6.24
10.14
13.80
17.11
19.85
21.85
23.10
23.71
23.93
23.97
24.02
24.15
24.41
24.80
25.24
25.66
25.90
25.81
25.24
24.12
22.44
20.33
17.96
15.51
13.12
10.88
8.77
6.75
4.76
2.74
0.69
-1.42
-3.65
-6.06
-8.68
-11.48
-14.34
-17.08
-19.63
-22.05
-24.59
-27.57
-31.23
-35.56
-40.26
-44.64
-47.95
-49.40
-48.46
-44.98
-39.19
-31.75
-23.49
-15.29
-7.77
-1.29
4.17
8.84
12.99
16.84
20.44
23.69
26.46
28.63
30.13
30.97
31.23
30.97
30.35
29.55
28.80
28.31
28.22
28.48
28.96
29.37
29.49
29.17
28.35
27.13
25.64
24.09
22.65
21.43
20.48
19.72
19.04
18.32
17.53
16.71
15.93
15.19
14.45
13.57
12.48
11.17
9.79
8.54
7.57
6.92
6.50
6.17
5.71
4.99
3.96
2.66
1.21
-0.23
-1.48
-2.47
-3.24
-4.02
-5.10
-6.88
-9.61
-13.34
-17.83
-22.48
-26.46
-28.90
-29.06
-26.65
-21.90
-15.52
-8.49
-1.71
4.21
9.07
12.95
16.05
18.56
20.55
22.06
23.13
23.87
24.38
24.75
25.00
25.10
25.08
25.00
24.98
25.17
25.60
26.20
26.76
27.03
26.82
26.04
24.83
23.39
21.90
20.46
19.04
17.49
15.65
13.48
11.06
8.52
6.02
3.66
1.43
-0.73
-2.88
-5.10
-7.41
-9.79
-12.18
-14.52
-16.77
-18.97
-21.23
-23.71
-26.60
-30.02
-34.04
-38.53
-43.20
-47.51
-50.80
-52.39
-51.79
-48.87
-43.93
-37.65
-30.89
-24.46
-18.90
-14.42
-10.92
-8.21
-6.05
-4.34
-3.08
-2.29
-1.96
-1.99
-2.18
-2.32
-2.21
-1.75
-0.92
0.16
1.31
2.34
3.10
3.57
3.77
3.79
3.68
3.44
2.92
1.98
0.54
-1.36
-3.54
-5.74
-7.75
-9.47
-10.98
-12.42
-13.91
-15.51
-17.15
-18.78
-20.38
-22.02
-23.79
-25.73
-27.81
-29.87
-31.77
-33.52
-35.29
-37.44
-40.34
-44.10
-48.43
-52.55
-55.43
-56.08
-53.89
-48.88
-41.70
-33.34
-24.81
-16.88
-9.95
-4.09
0.77
4.79
8.13
11.00
13.56
15.92
18.11
20.04
21.58
22.64
23.25
23.52
23.67
23.90
24.35
25.08
26.07
27.18
28.22
29.01
29.33
29.06
28.12
26.60
24.66
22.57
20.58
18.88
17.53
16.45
15.43
14.27
12.83
11.11
9.19
7.29
5.56
4.11
2.89
1.74
0.45
-1.20
-3.32
-5.90
-8.75
-11.66
-14.38
-16.79
-18.92
-20.93
-23.09
-25.73
-29.01
-32.86
-36.92
-40.49
-42.71
-42.80
-40.32
-35.32
-28.32
-20.19
-11.85
-4.04
2.82
8.65
13.54
17.69
21.30
24.53
27.47
30.17
32.58
34.63
36.21
37.26
37.85
38.16
38.44
38.87
39.56
40.45
41.41
42.28
42.97
43.40
43.55
43.32
42.59
41.26
39.30
36.83
34.05
31.18
28.42
25.84
23.40
21.04
18.72
16.43
14.22
12.13
10.13
8.14
6.06
3.83
1.47
-0.91
-3.22
-5.43
-7.64
-10.12
-13.14
-16.88
-21.29
-26.01
-30.39
-33.72
-35.37
-34.96
-32.53
-28.43
-23.27
-17.69
-12.26
-7.36
-3.17
0.22
2.80
4.57
5.55
5.74
5.19
4.05
2.54
0.97
-0.35
-1.15
-1.28
-0.82
0.07
1.11
2.10
2.87
3.37
3.52
3.22
2.37
0.91
-1.09
-3.43
-5.89
-8.28
-10.50
-12.58
-14.55
-16.44
-18.22
-19.86
-21.41
-22.92
-24.50
-26.22
-28.09
-30.03
-31.98
-33.88
-35.73
-37.59
-39.58
-41.88
-44.71
-48.18
-52.16
-56.21
-59.52
-61.16
-60.34
-56.72
-50.56
-42.56
-33.72
-24.88
-16.65
-9.20
-2.56
3.39
8.69
13.37
17.44
20.94
23.90
26.36
28.30
29.67
30.45
30.70
30.55
30.25
30.02
30.06
30.43
31.04
31.67
32.05
31.92
31.20
29.95
28.38
26.74
25.21
23.84
22.60
21.43
20.30
19.20
18.17
17.17
16.14
14.97
13.58
11.92
10.03
8.00
5.91
3.81
1.64
-0.68
-3.25
-6.11
-9.17
-12.31
-15.37
-18.26
-20.96
-23.55
-26.11
-28.75
-31.58
-34.75
-38.44
-42.76
-47.63
-52.63
-57.02
-59.84
-60.21
-57.63
-52.14
-44.34
-35.16
-25.63
-16.53
-8.33
-1.21
4.91
10.19
14.84
19.04
22.94
26.62
30.03
33.06
35.54
37.35
38.49
39.10
39.42
39.68
40.02
40.49
41.01
41.48
41.84
42.06
42.15
42.08
41.83
41.35
40.61
39.66
38.62
37.64
36.84
36.25
35.77
35.31
34.76
34.11
33.44
32.82
32.36
32.06
31.93
31.90
31.88
31.72
31.23
30.28
28.80
26.89
24.77
22.75
20.99
19.53
18.23
16.87
15.26
13.35
11.21
8.97
6.73
4.52
2.33
0.11
-2.18
-4.57
-7.19
-10.20
-13.82
-18.18
-23.16
-28.30
-32.81
-35.78
-36.45
-34.52
-30.20
-24.17
-17.35
-10.63
-4.68
0.13
3.73
6.20
7.69
8.41
8.52
8.08
7.16
5.80
4.12
2.32
0.65
-0.67
-1.55
-2.02
-2.19
-2.19
-2.13
-2.07
-2.10
-2.40
-3.16
-4.52
-6.47
-8.83
-11.34
-13.74
-15.89
-17.84
-19.68
-21.51
-23.38
-25.21
-26.89
-28.28
-29.26
-29.77
-29.85
-29.65
-29.38
-29.29
-29.56
-30.26
-31.29
-32.51
-33.79
-35.14
-36.65
-38.51
-40.84
-43.72
-47.12
-50.84
-54.50
-57.48
-59.07
-58.52
-55.38
-49.69
-41.97
-33.14
-24.20
-15.93
-8.77
-2.77
2.24
6.54
10.39
13.95
17.31
20.45
23.31
25.79
27.78
29.22
30.12
30.58
30.77
30.86
30.97
31.14
31.35
31.54
31.58
31.39
30.86
29.91
28.53
26.80
24.91
23.08
21.52
20.31
19.36
18.45
17.34
15.94
14.31
12.64
11.10
9.79
8.62
7.43
6.09
4.57
2.94
1.32
-0.24
-1.79
-3.40
-5.16
-7.12
-9.32
-11.76
-14.48
-17.49
-20.71
-23.98
-27.07
-29.77
-32.01
-33.99
-36.09
-38.78
-42.41
-46.96
-51.95
-56.42
-59.26
-59.50
-56.67
-50.97
-43.13
-34.24
-25.36
-17.28
-10.43
-4.83
-0.30
3.48
6.86
10.16
13.56
17.11
20.65
23.99
26.86
29.15
30.84
31.98
32.68
33.07
33.35
33.71
34.32
35.25
36.38
37.40
37.94
37.69
36.54
34.68
32.43
30.17
28.17
26.53
25.20
24.06
23.01
22.01
21.07
20.21
19.38
18.52
17.54
16.41
15.17
13.91
12.71
11.60
10.57
9.65
8.90
8.46
8.41
8.66
9.01
9.14
8.82
7.99
6.79
5.49
4.29
3.27
2.33
1.33
0.13
-1.30
-2.91
-4.62
-6.37
-8.15
-9.94
-11.74
-13.63
-15.80
-18.54
-22.08
-26.41
-31.06
-35.13
-37.54
-37.40
-34.33
-28.68
-21.30
-13.31
-5.72
0.83
6.06
10.01
12.90
15.00
16.59
17.86
18.95
19.84
20.44
20.64
20.39
19.74
18.85
17.89
17.02
16.36
15.99
15.93
16.22
16.82
17.58
18.28
18.60
18.36
17.50
16.14
14.55
12.93
11.44
10.07
8.72
7.26
5.58
3.70
1.65
-0.46
-2.55
-4.55
-6.47
-8.37
-10.37
-12.58
-15.08
-17.85
-20.80
-23.76
-26.55
-29.04
-31.22
-33.22
-35.32
-37.85
-41.07
-45.01
-49.40
-53.61
-56.79
-58.16
-57.21
-53.91
-48.65
-42.14
-35.14
-28.32
-22.14
-16.87
-12.64
-9.44
-7.18
-5.60
-4.35
-3.10
-1.64
0.08
1.93
3.73
5.36
6.85
8.30
9.81
11.46
13.18
14.89
16.47
17.82
18.87
19.51
19.64
19.16
18.06
16.47
14.62
12.82
11.26
10.04
9.09
8.24
7.32
6.19
4.80
3.18
1.44
-0.27
-1.87
-3.32
-4.71
-6.18
-7.94
-10.10
-12.68
-15.55
-18.49
-21.25
-23.71
-25.90
-27.99
-30.23
-32.91
-36.23
-40.19
-44.59
-48.95
-52.65
-54.95
-55.19
-53.04
-48.50
-42.07
-34.51
-26.72
-19.47
-13.18
-7.92
-3.45
0.57
4.48
8.44
12.43
16.33
19.98
23.24
26.04
28.35
30.18
31.55
32.49
33.08
33.43
33.66
33.89
34.15
34.38
34.41
34.11
33.36
32.19
30.70
29.06
27.44
25.94
24.61
23.43
22.37
21.35
20.28
19.09
17.78
16.37
14.99
13.75
12.73
11.90
11.15
10.28
9.15
7.71
5.98
4.07
2.12
0.22
-1.58
-3.32
-5.02
-6.76
-8.61
-10.60
-12.76
-15.09
-17.54
-20.07
-22.60
-25.09
-27.59
-30.24
-33.25
-36.79
-40.92
-45.35
-49.48
-52.44
-53.33
-51.53
-46.91
-39.88
-31.31
-22.23
-13.49
-5.68
0.96
6.46
10.99
14.82
18.21
21.42
24.60
27.75
30.73
33.29
35.18
36.31
36.78
36.84
36.81
37.00
37.52
38.34
39.28
40.05
40.37
40.08
39.15
37.69
35.93
34.12
32.46
31.03
29.80
28.67
27.49
26.15
24.57
22.75
20.72
18.57
16.36
14.15
11.96
9.77
7.53
5.16
2.61
-0.15
-3.09
-6.14
-9.18
-12.09
-14.84
-17.48
-20.17
-23.17
-26.67
-30.70
-35.05
-39.20
-42.42
-43.99
-43.41
-40.55
-35.74
-29.58
-22.80
-16.03
-9.74
-4.21
0.40
4.01
6.54
8.02
8.57
8.40
7.80
7.09
6.54
6.33
6.55
7.17
8.08
9.13
10.20
11.20
12.11
12.86
13.38
13.56
13.25
12.43
11.17
9.64
8.06
6.62
5.39
4.35
3.40
2.39
1.24
-0.09
-1.54
-3.05
-4.50
-5.84
-7.07
-8.20
-9.31
-10.47
-11.76
-13.25
-15.06
-17.20
-19.62
-22.17
-24.63
-26.89
-29.00
-31.28
-34.15
-38.00
-42.85
-48.27
-53.40
-57.18
-58.70
-57.46
-53.48
-47.25
-39.59
-31.37
-23.35
-16.04
-9.68
-4.26
0.40
4.58
8.55
12.52
16.53
20.50
24.18
27.30
29.62
31.10
31.84
32.12
32.25
32.49
32.97
33.68
34.48
35.19
35.63
35.64
35.17
34.27
33.03
31.56
29.93
28.18
26.34
24.48
22.70
21.07
19.67
18.46
17.32
16.13
14.81
13.36
11.88
10.48
9.21
8.08
7.04
6.06
5.11
4.20
3.30
2.33
1.14
-0.36
-2.22
-4.34
-6.58
-8.78
-10.87
-12.91
-14.94
-16.99
-19.04
-20.98
-22.78
-24.49
-26.22
-28.19
-30.57
-33.48
-37.04
-41.29
-46.09
-51.03
-55.39
-58.28
-58.85
-56.63
-51.63
-44.42
-35.89
-26.99
-18.46
-10.76
-4.04
1.80
6.97
11.74
16.29
20.68
24.80
28.46
31.43
33.57
34.85
35.42
35.44
35.13
34.65
34.19
33.93
34.03
34.63
35.69
37.03
38.33
39.23
39.53
39.15
38.24
37.06
35.83
34.68
33.59
32.48
31.25
29.86
28.37
26.93
25.67
24.74
24.12
23.67
23.12
22.15
20.57
18.37
15.77
13.14
10.85
9.05
7.69
6.54
5.29
3.73
1.81
-0.40
-2.72
-5.03
-7.24
-9.37
-11.47
-13.62
-15.98
-18.70
-21.93
-25.68
-29.73
-33.55
-36.38
-37.46
-36.24
-32.62
-27.01
-20.23
-13.24
-6.83
-1.49
2.69
5.85
8.24
10.03
11.31
12.06
12.26
12.00
11.44
10.78
10.24
9.92
9.81
9.83
9.86
9.86
9.84
9.84
9.87
9.83
9.60
8.98
7.87
6.28
4.30
2.13
-0.02
-2.01
-3.76
-5.37
-6.95
-8.68
-10.60
-12.61
-14.54
-16.19
-17.52
-18.61
-19.67
-20.92
-22.46
-24.28
-26.28
-28.32
-30.28
-32.07
-33.67
-35.14
-36.71
-38.64
-41.21
-44.52
-48.36
-52.22
-55.38
-57.10
-56.78
-54.21
-49.50
-43.12
-35.76
-28.16
-20.96
-14.56
-9.09
-4.38
-0.15
3.86
7.80
11.65
15.23
18.32
20.73
22.41
23.45
24.04
24.43
24.80
25.25
25.82
26.48
27.18
27.86
28.41
28.71
28.64
28.13
27.20
25.98
24.62
23.30
22.11
21.03
19.99
18.90
17.67
16.26
14.74
13.18
11.72
10.43
9.34
8.39
7.46
6.36
4.94
3.07
0.71
-2.05
-4.99
-7.81
-10.27
-12.30
-14.00
-15.67
-17.55
-19.77
-22.24
-24.72
-27.00
-29.04
-31.01
-33.23
-36.03
-39.59
-43.82
-48.41
-52.80
-56.25
-58.03
-57.55
-54.51
-49.01
-41.57
-32.97
-24.12
-15.78
-8.46
-2.33
2.72
7.01
10.89
14.64
18.41
22.17
25.81
29.12
31.91
34.06
35.48
36.16
36.17
35.67
34.93
34.25
33.89
33.92
34.20
34.44
34.32
33.64
32.42
30.84
29.16
27.60
26.25
25.09
24.08
23.13
22.19
21.21
20.19
19.13
18.09
17.16
16.41
15.88
15.54
15.27
14.99
14.61
14.10
13.45
12.67
11.82
10.96
10.15
9.41
8.68
7.85
6.85
5.64
4.31
2.97
1.69
0.43
-0.87
-2.33
-3.97
-5.71
-7.41
-8.92
-10.22
-11.43
-12.79
-14.62
-17.23
-20.77
-25.14
-29.91
-34.33
-37.43
-38.35
-36.61
-32.28
-26.02
-18.82
-11.70
-5.43
-0.33
3.63
6.74
9.30
11.60
13.73
15.71
17.47
18.86
19.78
20.14
19.99
19.43
18.65
17.84
17.22
16.95
17.09
17.62
18.39
19.11
19.54
19.55
19.10
18.33
17.34
16.20
14.88
13.36
11.63
9.80
7.98
6.21
4.46
2.60
0.51
-1.81
-4.19
-6.39
-8.19
-9.58
-10.78
-12.18
-14.11
-16.69
-19.77
-22.97
-25.94
-28.52
-30.81
-33.14
-35.86
-39.24
-43.29
-47.79
-52.25
-56.03
-58.46
-58.99
-57.30
-53.43
-47.76
-40.84
-33.35
-25.85
-18.82
-12.62
-7.44
-3.32
-0.15
2.31
4.32
6.07
7.60
8.85
9.76
10.36
10.84
11.46
12.41
13.75
15.35
16.98
18.42
19.55
20.33
20.78
20.93
20.76
20.23
19.31
18.01
16.42
14.69
13.00
11.47
10.18
9.11
8.18
7.25
6.20
4.93
3.45
1.84
0.19
-1.41
-2.92
-4.35
-5.76
-7.22
-8.82
-10.64
-12.72
-15.04
-17.53
-20.09
-22.62
-25.05
-27.39
-29.75
-32.29
-35.28
-38.97
-43.45
-48.51
-53.56
-57.65
-59.72
-59.00
-55.19
-48.70
-40.44
-31.46
-22.69
-14.68
-7.60
-1.43
3.93
8.61
12.75
16.49
20.00
23.30
26.32
28.84
30.70
31.87
32.45
32.71
32.91
33.24
33.76
34.42
35.17
35.88
36.41
36.62
36.33
35.49
34.15
32.49
30.75
29.12
27.63
26.24
24.85
23.39
21.90
20.49
19.29
18.37
17.76
17.37
17.05
16.65
16.04
15.14
14.00
12.71
11.48
10.46
9.69
9.12
8.53
7.69
6.45
4.77
2.75
0.57
-1.62
-3.75
-5.88
-8.12
-10.65
-13.62
-17.14
-21.29
-25.94
-30.77
-35.18
-38.43
-39.77
-38.72
-35.21
-29.66
-22.87
-15.76
-9.08
-3.33
1.37
5.15
8.26
10.89
13.10
14.81
15.86
16.17
15.84
15.20
14.70
14.80
15.79
17.77
20.58
23.90
27.34
30.55
33.20
35.09
36.09
36.13
35.26
33.59
31.32
28.72
26.01
23.38
20.84
18.31
15.66
12.81
9.82
6.79
3.83
0.96
-1.94
-5.00
-8.28
-11.75
-15.24
-18.60
-21.81
-24.97
-28.29
-31.96
-36.12
-40.80
-45.91
-51.23
-56.36
-60.68
-63.41
-63.77
-61.31
-56.12
-48.86
-40.64
-32.63
-25.66
-20.02
-15.50
-11.61
-7.94
-4.31
-0.86
2.13
4.43
6.06
7.22
8.21
9.33
10.67
12.20
13.77
15.25
16.54
17.61
18.44
18.94
19.00
18.50
17.44
15.94
14.26
12.64
11.26
10.11
9.04
7.84
6.38
4.67
2.83
1.02
-0.63
-2.11
-3.51
-5.01
-6.76
-8.91
-11.47
-14.37
-17.51
-20.68
-23.77
-26.67
-29.44
-32.25
-35.37
-39.12
-43.63
-48.80
-54.15
-58.89
-62.03
-62.67
-60.26
-54.81
-46.89
-37.51
-27.78
-18.66
-10.68
-3.96
1.76
6.87
11.72
16.50
21.21
25.66
29.64
32.93
35.41
37.07
38.04
38.45
38.50
38.38
38.24
38.24
38.39
38.68
38.97
39.11
38.93
38.35
37.37
36.03
34.47
32.82
31.20
29.72
28.42
27.28
26.22
25.11
23.82
22.33
20.66
18.96
17.34
15.92
14.73
13.73
12.86
12.03
11.17
10.20
9.02
7.58
5.86
3.94
1.91
-0.13
-2.16
-4.25
-6.55
-9.15
-12.08
-15.22
-18.32
-21.13
-23.46
-25.30
-26.84
-28.46
-30.59
-33.61
-37.60
-42.25
-46.87
-50.42
-51.93
-50.66
-46.43
-39.65
-31.19
-22.13
-13.44
-5.78
0.62
5.89
10.38
14.48
18.46
22.44
26.30
29.84
32.81
35.03
36.45
37.12
37.24
37.06
36.84
36.81
37.10
37.73
38.57
39.39
39.94
40.00
39.46
38.35
36.83
35.08
33.28
31.58
30.00
28.54
27.08
25.47
23.58
21.33
18.66
15.67
12.47
9.23
6.10
3.18
0.43
-2.27
-5.07
-8.08
-11.27
-14.46
-17.44
-20.08
-22.44
-24.73
-27.29
-30.40
-34.22
-38.68
-43.44
-47.97
-51.54
-53.42
-53.04
-50.18
-45.11
-38.51
-31.29
-24.27
-17.98
-12.59
-8.02
-4.08
-0.70
2.15
4.45
6.22
7.54
8.56
9.41
10.13
10.79
11.47
12.30
13.42
14.95
16.82
18.79
20.53
21.76
22.26
22.09
21.41
20.48
19.53
18.69
18.01
17.45
16.90
16.26
15.35
14.11
12.51
10.61
8.55
6.52
4.65
3.02
1.62
0.32
-1.04
-2.63
-4.50
-6.59
-8.67
-10.49
-11.88
-12.86
-13.67
-14.68
-16.18
-18.28
-20.84
-23.58
-26.21
-28.60
-30.87
-33.34
-36.39
-40.28
-44.95
-49.94
-54.42
-57.37
-57.94
-55.66
-50.67
-43.65
-35.61
-27.58
-20.28
-14.02
-8.74
-4.20
-0.07
3.86
7.75
11.66
15.61
19.50
23.15
26.30
28.70
30.29
31.16
31.59
31.84
32.09
32.37
32.60
32.68
32.56
32.31
31.96
31.53
30.95
30.15
29.10
27.90
26.69
25.62
24.74
24.00
23.26
22.47
21.65
20.91
20.40
20.20
20.28
20.55
20.83
20.98
20.93
20.63
20.10
19.40
18.59
17.74
16.92
16.14
15.42
14.79
14.29
13.98
13.85
13.82
13.78
13.61
13.24
12.67
11.96
11.14
10.18
9.07
7.76
6.25
4.57
2.79
0.95
-0.91
-2.78
-4.61
-6.36
-8.04
-9.80
-11.91
-14.72
-18.40
-22.83
-27.43
-31.34
-33.63
-33.68
-31.40
-27.20
-21.83
-16.10
-10.69
-5.99
-2.20
0.67
2.67
3.95
4.69
5.12
5.45
5.76
6.03
6.15
6.02
5.60
5.00
4.44
4.13
4.21
4.66
5.33
6.03
6.53
6.72
6.60
6.18
5.51
4.61
3.52
2.30
1.03
-0.17
-1.27
-2.28
-3.29
-4.39
-5.63
-6.99
-8.35
-9.62
-10.73
-11.72
-12.65
-13.58
-14.54
-15.50
-16.49
-17.54
-18.79
-20.34
-22.17
-24.17
-26.13
-27.87
-29.35
-30.70
-32.19
-34.10
-36.66
-39.90
-43.67
-47.64
-51.28
-54.03
-55.33
-54.70
-51.92
-47.13
-40.83
-33.85
-27.08
-21.25
-16.65
-13.12
-10.14
-7.20
-4.05
-0.76
2.32
4.83
6.63
7.82
8.71
9.53
10.41
11.31
12.14
12.88
13.60
14.43
15.45
16.57
17.59
18.22
18.26
17.68
16.62
15.38
14.27
13.51
13.11
12.94
12.76
12.35
11.59
10.54
9.35
8.23
7.29
6.50
5.76
4.97
4.09
3.14
2.21
1.31
0.42
-0.51
-1.52
-2.57
-3.62
-4.70
-5.85
-7.17
-8.72
-10.57
-12.71
-15.14
-17.84
-20.74
-23.69
-26.49
-28.94
-31.03
-32.95
-35.06
-37.75
-41.23
-45.38
-49.70
-53.45
-55.71
-55.74
-53.15
-48.07
-41.11
-33.19
-25.27
-18.09
-11.97
-6.91
-2.63
1.16
4.69
8.07
11.33
14.49
17.56
20.49
23.16
25.40
27.05
28.07
28.60
28.93
29.40
30.23
31.48
33.02
34.59
35.93
36.84
37.25
37.13
36.57
35.69
34.63
33.59
32.69
31.98
31.40
30.82
30.11
29.24
28.34
27.61
27.23
27.21
27.35
27.31
26.75
25.51
23.67
21.50
19.36
17.48
15.94
14.60
13.18
11.42
9.14
6.39
3.39
0.42
-2.26
-4.61
-6.79
-9.07
-11.76
-15.06
-19.06
-23.72
-28.85
-34.07
-38.77
-42.14
-43.33
-41.81
-37.56
-31.19
-23.79
-16.53
-10.31
-5.55
-2.16
0.20
1.92
3.22
4.19
4.84
5.17
5.28
5.25
5.16
5.03
4.84
4.63
4.45
4.39
4.53
4.85
5.30
5.69
5.78
5.37
4.30
2.63
0.57
-1.56
-3.50
-5.13
-6.58
-8.07
-9.79
-11.75
-13.72
-15.43
-16.70
-17.61
-18.41
-19.41
-20.78
-22.51
-24.45
-26.40
-28.28
-30.10
-31.95
-33.87
-35.91
-38.16
-40.81
-44.14
-48.34
-53.30
-58.44
-62.77
-65.12
-64.56
-60.76
-54.06
-45.42
-35.99
-26.82
-18.54
-11.38
-5.22
0.23
5.26
10.07
14.80
19.40
23.80
27.76
31.05
33.46
34.91
35.51
35.56
35.43
35.46
35.82
36.55
37.49
38.48
39.31
39.78
39.76
39.15
37.97
36.32
34.37
32.32
30.26
28.20
26.05
23.73
21.24
18.67
16.13
13.73
11.45
9.20
6.86
4.41
1.93
-0.48
-2.75
-4.93
-7.16
-9.55
-12.10
-14.69
-17.17
-19.44
-21.58
-23.79
-26.26
-29.16
-32.55
-36.50
-41.11
-46.45
-52.37
-58.35
-63.41
-66.36
-66.17
-62.36
-55.27
-45.91
-35.60
-25.50
-16.29
-8.10
-0.73
6.11
12.56
18.64
24.24
29.31
33.81
37.72
40.92
43.26
44.59
44.95
44.58
43.90
43.37
43.35
43.99
45.19
46.66
47.99
48.79
48.81
47.98
46.47
44.58
42.66
40.94
39.51
38.31
37.22
36.19
35.20
34.26
33.34
32.37
31.22
29.83
28.22
26.47
24.71
23.02
21.42
19.89
18.34
16.74
15.06
13.28
11.36
9.25
6.94
4.44
1.82
-0.82
-3.41
-5.90
-8.38
-11.06
-14.21
-18.10
-22.78
-28.03
-33.22
-37.47
-39.83
-39.60
-36.53
-30.91
-23.47
-15.20
-7.06
0.20
6.12
10.58
13.69
15.75
17.09
17.96
18.53
18.83
18.83
18.54
17.99
17.30
16.58
15.95
15.49
15.25
15.24
15.40
15.62
15.68
15.36
14.47
12.95
10.88
8.40
5.73
3.03
0.45
-1.96
-4.22
-6.42
-8.67
-11.05
-13.49
-15.83
-17.87
-19.49
-20.76
-21.91
-23.25
-25.00
-27.18
-29.63
-32.07
-34.29
-36.24
-38.09
-40.15
-42.78
-46.18
-50.27
-54.61
-58.42
-60.78
-60.79
-57.90
-52.06
-43.76
-33.97
-23.81
-14.29
-6.07
0.69
6.25
11.02
15.38
19.54
23.42
26.83
29.61
31.68
33.12
34.06
34.58
34.75
34.61
34.25
33.86
33.61
33.64
33.89
34.14
34.10
33.53
32.36
30.70
28.77
26.74
24.73
22.69
20.58
18.36
16.09
13.86
11.83
10.08
8.63
7.42
6.33
5.21
3.90
2.33
0.51
-1.45
-3.41
-5.25
-7.02
-8.85
-10.88
-13.21
-15.82
-18.61
-21.40
-24.09
-26.64
-29.05
-31.43
-33.94
-36.82
-40.36
-44.68
-49.66
-54.77
-59.15
-61.74
-61.69
-58.55
-52.50
-44.30
-35.01
-25.71
-17.20
-9.83
-3.54
2.01
7.20
12.31
17.42
22.43
27.12
31.23
34.48
36.74
37.96
38.31
38.09
37.66
37.32
37.26
37.49
37.93
38.42
38.78
38.85
38.51
37.73
36.53
35.01
33.33
31.63
30.05
28.68
27.54
26.62
25.85
25.15
24.42
23.60
22.74
21.97
21.44
21.22
21.27
21.42
21.46
21.26
20.86
20.41
20.08
19.97
20.02
20.11
20.02
19.57
18.62
17.10
14.99
12.38
9.41
6.31
3.27
0.43
-2.27
-5.03
-8.16
-11.93
-16.42
-21.41
-26.33
-30.37
-32.76
-32.91
-30.69
-26.44
-20.80
-14.55
-8.37
-2.78
1.91
5.50
7.91
9.17
9.43
8.97
8.11
7.11
6.12
5.22
4.39
3.61
2.91
2.35
1.97
1.79
1.75
1.77
1.73
1.52
1.08
0.37
-0.58
-1.71
-2.99
-4.38
-5.88
-7.48
-9.21
-11.06
-13.02
-15.11
-17.28
-19.47
-21.56
-23.42
-24.94
-26.15
-27.17
-28.22
-29.49
-31.06
-32.84
-34.59
-36.09
-37.17
-37.87
-38.44
-39.23
-40.62
-42.82
-45.75
-49.01
-51.87
-53.46
-52.98
-49.96
-44.51
-37.29
-29.35
-21.79
-15.43
-10.57
-7.01
-4.23
-1.70
0.91
3.64
6.34
8.81
10.93
12.71
14.18
15.36
16.22
16.78
17.12
17.40
17.85
18.61
19.65
20.79
21.79
22.45
22.72
22.65
22.33
21.79
20.98
19.87
18.46
16.87
15.20
13.52
11.78
9.94
8.00
6.10
4.49
3.34
2.68
2.36
2.10
1.64
0.86
-0.20
-1.44
-2.78
-4.19
-5.70
-7.43
-9.43
-11.76
-14.36
-17.17
-20.02
-22.70
-25.02
-26.86
-28.29
-29.58
-31.16
-33.48
-36.84
-41.14
-45.76
-49.70
-51.82
-51.27
-47.75
-41.71
-34.07
-25.96
-18.28
-11.57
-5.93
-1.23
2.75
6.27
9.53
12.73
15.96
19.21
22.28
24.87
26.68
27.58
27.66
27.24
26.72
26.48
26.69
27.32
28.15
28.94
29.41
29.41
28.85
27.76
26.27
24.58
22.94
21.61
20.74
20.37
20.40
20.64
20.89
21.01
20.94
20.73
20.46
20.23
20.13
20.19
20.41
20.76
21.15
21.49
21.68
21.63
21.31
20.76
20.07
19.36
18.75
18.28
17.88
17.35
16.46
15.08
13.22
11.04
8.75
6.53
4.40
2.33
0.19
-2.08
-4.54
-7.27
-10.38
-14.00
-18.10
-22.40
-26.21
-28.70
-29.15
-27.20
-23.08
-17.50
-11.43
-5.77
-1.15
2.23
4.45
5.78
6.55
7.02
7.34
7.56
7.66
7.56
7.20
6.56
5.71
4.74
3.77
2.88
2.13
1.54
1.09
0.77
0.52
0.20
-0.35
-1.27
-2.62
-4.33
-6.23
-8.10
-9.83
-11.43
-12.97
-14.52
-16.11
-17.66
-19.08
-20.32
-21.39
-22.35
-23.26
-24.15
-25.03
-25.96
-26.99
-28.21
-29.61
-31.13
-32.64
-34.08
-35.49
-37.05
-38.99
-41.51
-44.56
-47.86
-50.84
-52.83
-53.16
-51.44
-47.63
-42.10
-35.51
-28.62
-22.09
-16.36
-11.57
-7.63
-4.31
-1.41
1.26
3.77
6.07
8.08
9.66
10.79
11.54
12.10
12.68
13.45
14.47
15.69
16.97
18.23
19.38
20.41
21.30
21.98
22.31
22.15
21.41
20.13
18.52
16.87
15.40
14.23
13.31
12.45
11.49
10.30
8.88
7.25
5.47
3.52
1.44
-0.77
-3.02
-5.21
-7.28
-9.21
-11.15
-13.24
-15.61
-18.26
-21.03
-23.68
-26.01
-28.01
-29.85
-31.90
-34.56
-38.15
-42.68
-47.84
-52.94
-57.00
-59.07
-58.41
-54.75
-48.41
-40.19
-31.17
-22.37
-14.56
-8.07
-2.81
1.56
5.46
9.25
13.17
17.23
21.27
25.00
28.08
30.29
31.57
32.12
32.27
32.41
32.82
33.60
34.66
35.74
36.58
37.00
36.91
36.35
35.42
34.27
33.04
31.83
30.75
29.82
29.01
28.29
27.61
26.90
26.10
25.17
24.09
22.86
21.54
20.23
18.97
17.75
16.52
15.22
13.77
12.21
10.60
9.03
7.55
6.14
4.68
3.03
1.11
-1.04
-3.29
-5.44
-7.33
-8.95
-10.42
-11.97
-13.90
-16.43
-19.63
-23.44
-27.59
-31.64
-35.03
-37.08
-37.22
-35.08
-30.66
-24.35
-16.89
-9.13
-1.86
4.43
9.57
13.69
17.10
20.08
22.78
25.18
27.14
28.50
29.17
29.21
28.78
28.11
27.39
26.75
26.27
25.99
25.95
26.14
26.46
26.67
26.51
25.78
24.43
22.64
20.66
18.80
17.19
15.78
14.36
12.71
10.69
8.33
5.82
3.36
1.06
-1.09
-3.27
-5.63
-8.24
-11.01
-13.77
-16.36
-18.74
-20.98
-23.25
-25.67
-28.38
-31.49
-35.16
-39.45
-44.27
-49.22
-53.52
-56.24
-56.56
-54.13
-49.17
-42.37
-34.71
-26.99
-19.83
-13.49
-8.03
-3.40
0.56
3.99
7.03
9.76
12.17
14.20
15.81
17.05
18.02
18.87
19.72
20.61
21.54
22.51
23.55
24.63
25.67
26.49
26.93
26.87
26.30
25.29
23.94
22.36
20.64
18.96
17.44
16.19
15.13
14.05
12.67
10.80
8.43
5.73
2.98
0.40
-1.91
-4.02
-6.06
-8.17
-10.47
-12.98
-15.68
-18.48
-21.31
-24.12
-26.92
-29.78
-32.88
-36.39
-40.47
-45.12
-50.09
-54.82
-58.47
-60.10
-59.00
-54.89
-48.13
-39.56
-30.31
-21.36
-13.39
-6.64
-1.00
3.83
8.19
12.35
16.50
20.67
24.74
28.46
31.54
33.73
35.01
35.50
35.52
35.40
35.35
35.48
35.77
36.14
36.51
36.81
36.95
36.79
36.15
34.92
33.14
31.00
28.81
26.88
25.37
24.28
23.40
22.51
21.46
20.25
19.01
17.87
16.86
15.92
14.93
13.80
12.50
11.13
9.79
8.54
7.33
6.07
4.66
3.11
1.52
0.03
-1.27
-2.38
-3.47
-4.76
-6.40
-8.46
-10.79
-13.15
-15.26
-16.96
-18.28
-19.38
-20.61
-22.29
-24.70
-27.98
-32.05
-36.52
-40.66
-43.56
-44.32
-42.33
-37.60
-30.67
-22.52
-14.20
-6.59
-0.14
5.10
9.36
13.00
16.34
19.54
22.63
25.46
27.80
29.43
30.26
30.38
30.03
29.52
29.11
28.95
29.03
29.26
29.48
29.58
29.50
29.19
28.64
27.85
26.84
25.69
24.49
23.30
22.15
20.97
19.66
18.12
16.32
14.27
12.06
9.83
7.66
5.69
3.97
2.54
1.34
0.22
-1.02
-2.60
-4.61
-7.00
-9.58
-12.13
-14.49
-16.65
-18.78
-21.15
-24.05
-27.66
-31.98
-36.77
-41.64
-45.98
-49.11
-50.29
-49.03
-45.22
-39.27
-32.04
-24.61
-17.96
-12.62
-8.65
-5.75
-3.51
-1.65
-0.15
0.89
1.33
1.21
0.72
0.20
0.00
0.37
1.37
2.92
4.78
6.68
8.38
9.73
10.66
11.16
11.22
10.88
10.19
9.22
8.11
6.95
5.86
4.89
4.05
3.34
2.71
2.10
1.45
0.66
-0.31
-1.44
-2.64
-3.79
-4.86
-5.94
-7.20
-8.83
-10.90
-13.34
-15.89
-18.35
-20.58
-22.56
-24.45
-26.38
-28.54
-31.02
-33.91
-37.29
-41.18
-45.48
-49.89
-53.86
-56.61
-57.40
-55.73
-51.50
-45.17
-37.57
-29.64
-22.20
-15.66
-10.09
-5.24
-0.80
3.51
7.80
12.05
16.16
20.01
23.45
26.36
28.64
30.23
31.17
31.57
31.68
31.71
31.82
32.04
32.35
32.67
32.96
33.18
33.32
33.27
32.92
32.17
31.05
29.71
28.38
27.25
26.42
25.79
25.18
24.44
23.50
22.42
21.33
20.36
19.60
19.03
18.58
18.11
17.52
16.75
15.86
14.98
14.24
13.72
13.40
13.13
12.75
12.06
10.95
9.41
7.56
5.57
3.64
1.90
0.37
-1.12
-2.85
-5.14
-8.21
-12.05
-16.37
-20.57
-23.91
-25.66
-25.32
-22.76
-18.22
-12.33
-5.88
0.36
5.82
10.21
13.59
16.18
18.34
20.36
22.41
24.47
26.38
27.92
28.89
29.24
29.04
28.45
27.70
26.99
26.45
26.19
26.21
26.44
26.71
26.79
26.45
25.49
23.87
21.68
19.13
16.46
13.88
11.50
9.28
7.11
4.85
2.41
-0.15
-2.61
-4.77
-6.45
-7.76
-8.95
-10.35
-12.21
-14.58
-17.33
-20.26
-23.22
-26.19
-29.25
-32.54
-36.24
-40.43
-45.17
-50.27
-55.34
-59.72
-62.67
-63.53
-62.01
-58.24
-52.75
-46.23
-39.38
-32.74
-26.71
-21.57
-17.50
-14.58
-12.73
-11.68
-11.09
-10.62
-10.06
-9.33
-8.48
-7.52
-6.42
-5.08
-3.41
-1.45
0.63
2.59
4.18
5.31
5.99
6.32
6.43
6.44
6.39
6.38
6.43
6.51
6.47
6.04
4.92
2.89
-0.10
-3.87
-8.09
-12.39
-16.46
-20.07
-23.08
-25.40
-26.94
-27.67
-27.63
-27.05
-26.33
-26.01
-26.66
-28.65
-32.05
-36.45
-41.07
-44.86
-46.80
-46.14
-42.65
-36.68
-29.08
-20.91
-13.21
-6.63
-1.41
2.66
6.00
9.02
12.01
15.03
17.95
20.57
22.65
24.02
24.62
24.52
23.92
23.11
22.37
21.92
21.88
22.25
22.87
23.52
23.93
23.91
23.40
22.45
21.23
19.94
18.65
17.31
15.79
13.99
11.89
9.58
7.17
4.72
2.19
-0.53
-3.47
-6.54
-9.57
-12.39
-14.92
-17.26
-19.60
-22.18
-25.19
-28.75
-32.84
-37.21
-41.38
-44.59
-46.02
-45.01
-41.39
-35.53
-28.24
-20.50
-13.12
-6.54
-0.81
4.21
8.75
12.99
17.00
20.81
24.39
27.65
30.44
32.55
33.87
34.36
34.15
33.44
32.49
31.49
30.64
30.03
29.71
29.61
29.56
29.33
28.68
27.49
25.80
23.80
21.72
19.70
17.79
15.90
13.96
11.88
9.66
7.31
4.89
2.53
0.37
-1.36
-2.48
-2.98
-3.06
-3.10
-3.47
-4.40
-5.87
-7.63
-9.37
-10.92
-12.36
-13.97
-16.21
-19.45
-23.83
-29.16
-34.85
-40.04
-43.72
-45.05
-43.55
-39.27
-32.78
-24.95
-16.78
-9.13
-2.58
2.63
6.58
9.61
12.17
14.70
17.44
20.41
23.36
25.95
27.86
28.95
29.25
28.94
28.28
27.55
27.03
26.90
27.25
27.98
28.81
29.36
29.32
28.56
27.18
25.45
23.66
22.06
20.77
19.79
19.05
18.46
17.89
17.18
16.22
14.92
13.29
11.38
9.34
7.31
5.45
3.88
2.68
1.85
1.28
0.78
0.15
-0.72
-1.79
-2.94
-3.97
-4.76
-5.33
-5.89
-6.71
-8.12
-10.29
-13.27
-16.85
-20.59
-23.89
-26.10
-26.65
-25.15
-21.59
-16.32
-10.05
-3.62
2.21
6.95
10.49
12.99
14.73
15.91
16.58
16.70
16.21
15.11
13.57
11.85
10.18
8.75
7.67
7.01
6.79
6.95
7.35
7.77
7.95
7.66
6.82
5.44
3.68
1.77
-0.05
-1.60
-2.79
-3.71
-4.58
-5.67
-7.17
-9.05
-11.11
-12.99
-14.45
-15.40
-16.00
-16.50
-17.15
-18.09
-19.30
-20.69
-22.14
-23.59
-25.02
-26.47
-28.05
-29.96
-32.39
-35.40
-38.81
-42.10
-44.47
-45.09
-43.38
-39.23
-33.13
-25.90
-18.53
-11.78
-6.06
-1.40
2.40
5.62
8.49
11.10
13.46
15.54
17.33
18.79
19.92
20.69
21.09
21.21
21.17
21.17
21.35
21.77
22.33
22.82
23.03
22.85
22.31
21.52
20.63
19.68
18.64
17.46
16.14
14.80
13.54
12.45
11.48
10.55
9.56
8.50
7.45
6.51
5.73
5.02
4.25
3.29
2.04
0.54
-1.15
-2.90
-4.59
-6.13
-7.53
-8.85
-10.20
-11.73
-13.52
-15.57
-17.79
-20.02
-22.13
-24.06
-25.79
-27.41
-29.14
-31.16
-33.60
-36.42
-39.29
-41.62
-42.66
-41.76
-38.61
-33.36
-26.62
-19.23
-12.06
-5.77
-0.65
3.30
6.36
8.91
11.35
13.91
16.64
19.40
21.95
24.04
25.47
26.26
26.52
26.50
26.44
26.53
26.82
27.27
27.76
28.19
28.48
28.58
28.43
28.01
27.34
26.46
25.56
24.81
24.34
24.20
24.33
24.61
24.92
25.20
25.43
25.58
25.63
25.57
25.43
25.29
25.24
25.30
25.41
25.41
25.12
24.50
23.61
22.64
21.75
21.04
20.47
19.83
18.92
17.59
15.80
13.64
11.30
8.96
6.69
4.49
2.23
-0.21
-2.91
-5.85
-9.05
-12.49
-16.16
-19.88
-23.26
-25.63
-26.27
-24.71
-20.96
-15.63
-9.75
-4.36
-0.20
2.49
3.93
4.55
4.80
4.93
5.04
5.09
5.01
4.77
4.39
3.91
3.42
2.88
2.25
1.48
0.57
-0.32
-0.98
-1.25
-1.15
-0.94
-1.00
-1.63
-2.87
-4.50
-6.13
-7.43
-8.31
-8.92
-9.53
-10.38
-11.53
-12.89
-14.31
-15.67
-16.91
-18.06
-19.12
-20.09
-20.92
-21.61
-22.21
-22.84
-23.67
-24.80
-26.23
-27.81
-29.32
-30.61
-31.67
-32.75
-34.22
-36.44
-39.50
-43.07
-46.40
-48.54
-48.66
-46.35
-41.82
-35.86
-29.46
-23.53
-18.60
-14.73
-11.68
-9.08
-6.72
-4.56
-2.69
-1.22
-0.15
0.61
1.19
1.67
2.08
2.40
2.60
2.74
2.96
3.44
4.30
5.54
7.02
8.47
9.63
10.35
10.64
10.64
10.52
10.41
10.28
10.03
9.54
8.74
7.72
6.60
5.56
4.68
3.92
3.18
2.34
1.39
0.37
-0.69
-1.72
-2.73
-3.73
-4.76
-5.89
-7.17
-8.67
-10.42
-12.38
-14.44
-16.44
-18.29
-19.95
-21.52
-23.12
-24.81
-26.63
-28.61
-30.88
-33.70
-37.22
-41.28
-45.26
-48.18
-49.02
-47.14
-42.58
-36.02
-28.51
-21.08
-14.43
-8.83
-4.24
-0.43
2.88
5.90
8.82
11.66
14.36
16.77
18.67
19.96
20.65
20.90
20.97
21.05
21.26
21.63
22.15
22.78
23.48
24.17
24.74
25.09
25.12
24.82
24.30
23.76
23.35
23.20
23.29
23.52
23.76
23.89
23.87
23.70
23.46
23.23
23.08
22.99
22.83
22.48
21.85
21.04
20.24
19.73
19.65
19.93
20.29
20.35
19.83
18.71
17.19
15.64
14.35
13.49
12.97
12.55
11.93
10.89
9.30
7.23
4.82
2.28
-0.27
-2.83
-5.47
-8.39
-11.77
-15.82
-20.57
-25.89
-31.34
-36.23
-39.72
-41.07
-39.98
-36.69
-32.00
-26.91
-22.29
-18.59
-15.69
-13.03
-9.93
-5.87
-0.69
5.40
11.89
18.19
23.81
28.41
31.90
34.33
35.81
36.44
36.30
35.45
34.03
32.23
30.23
28.21
26.19
24.11
21.87
19.39
16.69
13.88
11.09
8.45
6.04
3.89
1.99
0.30
-1.30
-2.93
-4.70
-6.64
-8.66
-10.58
-12.28
-13.70
-14.95
-16.25
-17.78
-19.63
-21.71
-23.85
-25.89
-27.76
-29.52
-31.31
-33.30
-35.64
-38.43
-41.75
-45.61
-49.92
-54.35
-58.39
-61.33
-62.48
-61.37
-57.87
-52.28
-45.22
-37.48
-29.81
-22.75
-16.57
-11.32
-6.86
-3.02
0.36
3.35
5.95
8.12
9.77
10.91
11.59
11.97
12.32
12.87
13.81
15.21
16.99
18.96
20.87
22.48
23.59
24.12
24.08
23.59
22.78
21.83
20.82
19.81
18.78
17.69
16.53
15.30
14.02
12.70
11.41
10.23
9.24
8.44
7.73
6.87
5.60
3.81
1.59
-0.77
-2.94
-4.77
-6.32
-7.88
-9.77
-12.15
-15.02
-18.24
-21.60
-25.01
-28.45
-31.97
-35.65
-39.55
-43.77
-48.40
-53.51
-58.94
-64.27
-68.71
-71.32
-71.26
-68.07
-61.91
-53.42
-43.63
-33.60
-24.16
-15.80
-8.64
-2.52
2.86
7.83
12.62
17.34
21.95
26.29
30.17
33.39
35.82
37.45
38.40
38.88
39.19
39.63
40.37
41.47
42.81
44.19
45.37
46.13
46.36
46.05
45.31
44.33
43.26
42.24
41.30
40.36
39.33
38.11
36.68
35.14
33.61
32.23
31.04
29.97
28.86
27.50
25.80
23.78
21.65
19.65
18.02
16.87
16.16
15.71
15.26
14.61
13.66
12.41
11.01
9.65
8.46
7.45
6.45
5.24
3.61
1.49
-1.00
-3.68
-6.41
-9.12
-11.84
-14.70
-17.81
-21.33
-25.44
-30.34
-36.10
-42.46
-48.71
-53.72
-56.27
-55.45
-50.98
-43.38
-33.78
-23.54
-13.81
-5.31
1.78
7.63
12.54
16.74
20.34
23.29
25.51
26.95
27.65
27.71
27.32
26.68
25.95
25.31
24.87
24.69
24.81
25.16
25.61
25.97
26.01
25.53
24.41
22.64
20.36
17.81
15.24
12.88
10.83
9.04
7.40
5.72
3.86
1.74
-0.62
-3.08
-5.49
-7.69
-9.63
-11.38
-13.10
-15.01
-17.29
-19.99
-23.02
-26.22
-29.35
-32.27
-34.93
-37.49
-40.24
-43.61
-48.00
-53.56
-60.03
-66.60
-72.07
-75.11
-74.73
-70.56
-63.02
-53.20
-42.38
-31.72
-21.95
-13.30
-5.69
1.12
7.31
12.97
18.12
22.70
26.65
29.87
32.32
34.00
35.02
35.55
35.85
36.14
36.56
37.13
37.74
38.21
38.35
37.93
36.81
34.95
32.45
29.52
26.47
23.59
21.10
19.13
17.67
16.68
16.07
15.75
15.59
15.51
15.43
15.34
15.32
15.40
15.53
15.51
15.09
13.97
12.08
9.50
6.50
3.39
0.37
-2.51
-5.42
-8.61
-12.28
-16.59
-21.46
-26.66
-31.84
-36.70
-41.06
-44.96
-48.68
-52.64
-57.25
-62.76
-69.10
-75.73
-81.69
-85.70
-86.55
-83.45
-76.36
-65.96
-53.56
-40.63
-28.44
-17.76
-8.81
-1.35
5.08
11.00
16.82
22.72
28.64
34.32
39.36
43.39
46.20
47.80
48.48
48.69
48.81
49.16
49.80
50.67
51.64
52.58
53.38
53.93
54.10
53.78
52.89
51.44
49.51
47.29
44.95
42.68
40.63
38.85
37.32
35.94
34.58
33.14
31.60
30.02
28.52
27.18
25.96
24.80
23.62
22.38
21.11
19.83
18.57
17.31
16.06
14.86
13.79
12.97
12.47
12.28
12.29
12.31
12.14
11.69
10.96
10.08
9.17
8.31
7.46
6.51
5.36
3.98
2.47
0.97
-0.42
-1.72
-3.10
-4.77
-6.88
-9.47
-12.35
-15.29
-18.11
-20.75
-23.40
-26.32
-29.84
-34.15
-39.29
-45.13
-51.33
-57.28
-62.18
-65.07
-65.11
-61.86
-55.54
-46.98
-37.42
-28.08
-19.81
-12.90
-7.21
-2.35
2.01
6.02
9.69
12.91
15.54
17.52
18.83
19.49
19.52
19.01
18.09
16.97
15.94
15.25
15.07
15.35
15.87
16.30
16.34
15.77
14.60
13.04
11.39
10.01
9.15
8.89
9.08
9.42
9.57
9.29
8.56
7.53
6.47
5.56
4.79
4.02
3.04
1.73
0.09
-1.70
-3.48
-5.16
-6.79
-8.58
-10.75
-13.51
-16.88
-20.70
-24.70
-28.58
-32.12
-35.33
-38.48
-42.04
-46.54
-52.22
-58.89
-65.75
-71.58
-75.08
-75.23
-71.60
-64.47
-54.83
-44.22
-34.37
-26.89
-22.74
-21.94
-23.51
-25.76
-26.87
-25.53
-21.31
-14.73
-6.86
1.11
8.31
14.34
19.24
23.32
26.98
30.57
34.25
37.98
41.49
44.37
46.31
47.16
47.09
46.43
45.66
45.16
45.20
45.87
47.08
48.58
50.00
50.91
50.96
49.95
47.95
45.22
42.16
39.11
36.22
33.53
30.98
28.52
26.21
24.13
22.32
20.76
19.34
17.93
16.44
14.84
13.18
11.49
9.82
8.19
6.63
5.17
3.81
2.57
1.35
0.07
-1.37
-3.03
-4.85
-6.78
-8.76
-10.77
-12.81
-14.89
-16.98
-19.00
-20.90
-22.65
-24.29
-25.94
-27.71
-29.71
-31.96
-34.45
-37.04
-39.63
-42.10
-44.45
-46.81
-49.42
-52.63
-56.69
-61.74
-67.58
-73.64
-79.06
-82.81
-83.98
-82.07
-77.06
-69.43
-60.03
-49.77
-39.49
-29.76
-20.81
-12.52
-4.57
3.43
11.64
19.88
27.64
34.30
39.35
42.67
44.51
45.35
45.65
45.71
45.62
45.42
45.20
45.12
45.37
45.98
46.81
47.55
47.85
47.49
46.43
44.84
43.09
41.46
40.15
39.13
38.19
37.15
35.91
34.51
33.14
32.00
31.22
30.81
30.71
30.77
30.83
30.72
30.37
29.78
29.03
28.25
27.53
26.84
26.02
24.95
23.54
21.86
20.05
18.27
16.55
14.81
12.88
10.69
8.27
5.80
3.41
1.19
-0.92
-3.10
-5.53
-8.34
-11.58
-15.15
-18.89
-22.60
-26.09
-29.33
-32.41
-35.64
-39.44
-44.22
-50.16
-57.08
-64.24
-70.49
-74.54
-75.32
-72.35
-65.91
-56.94
-46.69
-36.41
-26.97
-18.80
-11.98
-6.37
-1.75
2.09
5.31
8.07
10.40
12.29
13.70
14.60
15.06
15.25
15.38
15.62
16.03
16.57
17.15
17.69
18.14
18.44
18.50
18.16
17.29
15.83
13.83
11.50
9.05
6.69
4.53
2.57
0.80
-0.83
-2.36
-3.82
-5.28
-6.82
-8.52
-10.44
-12.51
-14.60
-16.54
-18.24
-19.75
-21.25
-22.97
-25.11
-27.70
-30.64
-33.71
-36.77
-39.82
-42.97
-46.46
-50.55
-55.49
-61.40
-68.25
-75.66
-82.87
-88.73
-91.93
-91.41
-86.64
-77.93
-66.31
-53.20
-40.02
-27.80
-17.06
-7.82
0.20
7.41
14.19
20.78
27.21
33.28
38.69
43.06
46.18
48.08
49.08
49.62
50.13
50.86
51.83
52.86
53.73
54.28
54.45
54.25
53.71
52.80
51.50
49.84
47.90
45.86
43.89
42.04
40.25
38.38
36.28
33.92
31.38
28.86
26.52
24.48
22.70
21.03
19.29
17.33
15.08
12.63
10.10
7.63
5.28
2.99
0.62
-2.01
-4.98
-8.27
-11.71
-15.13
-18.37
-21.41
-24.36
-27.38
-30.66
-34.27
-38.14
-42.11
-45.97
-49.61
-53.05
-56.51
-60.33
-64.94
-70.65
-77.51
-85.07
-92.32
-97.80
-99.94
-97.55
-90.23
-78.58
-63.95
-48.12
-32.72
-18.86
-7.00
3.00
11.62
19.44
26.93
34.33
41.61
48.54
54.74
59.81
63.44
65.53
66.27
66.07
65.51
65.07
65.06
65.49
66.15
66.75
67.08
67.04
66.61
65.79
64.46
62.54
60.00
57.01
53.88
50.92
48.36
46.17
44.24
42.36
40.43
38.40
36.28
34.11
31.89
29.67
27.48
25.38
23.38
21.45
19.47
17.31
14.89
12.20
9.32
6.39
3.52
0.74
-2.08
-5.18
-8.81
-13.08
-17.86
-22.80
-27.44
-31.43
-34.74
-37.75
-41.06
-45.36
-51.08
-58.20
-66.16
-73.90
-80.06
-83.27
-82.47
-77.21
-67.83
-55.35
-41.29
-27.27
-14.62
-4.19
3.82
9.71
14.05
17.43
20.24
22.64
24.53
25.78
26.30
26.17
25.60
24.91
24.41
24.33
24.75
25.66
26.89
28.22
29.38
30.07
30.01
29.00
27.01
24.18
20.82
17.36
14.14
11.36
9.03
6.96
4.87
2.49
-0.34
-3.61
-7.13
-10.62
-13.76
-16.32
-18.32
-20.00
-21.71
-23.80
-26.41
-29.45
-32.67
-35.84
-38.84
-41.77
-44.86
-48.35
-52.45
-57.34
-63.17
-70.00
-77.63
-85.45
-92.30
-96.68
-97.09
-92.59
-83.10
-69.58
-53.67
-37.23
-21.83
-8.37
2.91
12.27
20.22
27.19
33.49
39.24
44.43
48.92
52.57
55.25
56.91
57.63
57.55
56.89
55.87
54.76
53.83
53.30
53.32
53.84
54.64
55.30
55.44
54.77
53.28
51.16
48.72
46.19
43.67
41.08
38.32
35.29
32.10
28.95
26.07
23.60
21.50
19.58
17.61
15.47
13.14
10.75
8.42
6.21
4.09
1.96
-0.28
-2.69
-5.29
-8.05
-10.94
-13.89
-16.84
-19.78
-22.73
-25.74
-28.92
-32.28
-35.76
-39.23
-42.53
-45.56
-48.34
-51.01
-53.82
-57.10
-61.17
-66.30
-72.46
-79.27
-85.80
-90.75
-92.67
-90.41
-83.50
-72.37
-58.21
-42.67
-27.35
-13.48
-1.69
7.98
15.92
22.72
29.00
35.18
41.35
47.34
52.72
57.06
60.02
61.54
61.80
61.18
60.11
59.00
58.16
57.76
57.82
58.21
58.67
58.90
58.69
57.95
56.72
55.20
53.59
52.02
50.49
48.84
46.91
44.61
41.95
39.14
36.43
34.02
32.02
30.37
28.90
27.44
25.89
24.26
22.57
20.89
19.17
17.34
15.35
13.16
10.83
8.47
6.21
4.10
2.10
0.11
-2.03
-4.44
-7.13
-10.03
-12.99
-15.91
-18.75
-21.61
-24.68
-28.17
-32.30
-37.20
-42.91
-49.25
-55.81
-61.85
-66.38
-68.38
-67.17
-62.61
-55.31
-46.35
-37.03
-28.37
-20.95
-14.86
-9.90
-5.82
-2.44
0.25
2.18
3.34
3.78
3.68
3.31
2.95
2.84
3.08
3.70
4.57
5.58
6.64
7.69
8.73
9.72
10.51
10.92
10.76
9.95
8.60
6.96
5.33
3.97
3.00
2.39
2.01
1.67
1.16
0.33
-0.89
-2.45
-4.20
-5.94
-7.48
-8.76
-9.87
-11.00
-12.41
-14.26
-16.64
-19.45
-22.54
-25.72
-28.83
-31.80
-34.66
-37.58
-40.86
-44.80
-49.57
-55.03
-60.64
-65.47
-68.53
-68.93
-66.27
-60.70
-52.90
-43.84
-34.50
-25.65
-17.71
-10.73
-4.56
1.01
6.15
10.91
15.25
19.17
22.64
25.67
28.17
30.02
31.10
31.42
31.15
30.62
30.24
30.28
30.84
31.78
32.84
33.75
34.29
34.35
33.91
33.00
31.69
30.09
28.27
26.33
24.41
22.60
21.01
19.66
18.52
17.48
16.37
15.05
13.43
11.54
9.48
7.42
5.53
3.95
2.72
1.75
0.90
-0.02
-1.18
-2.63
-4.33
-6.18
-8.09
-9.97
-11.81
-13.61
-15.43
-17.31
-19.32
-21.44
-23.67
-25.93
-28.14
-30.26
-32.25
-34.19
-36.21
-38.53
-41.34
-44.75
-48.66
-52.61
-55.85
-57.44
-56.58
-52.88
-46.57
-38.45
-29.61
-21.05
-13.43
-6.93
-1.38
3.55
8.16
12.64
17.09
21.54
25.99
30.36
34.46
38.02
40.76
42.52
43.33
43.49
43.39
43.41
43.74
44.28
44.75
44.81
44.27
43.18
41.78
40.35
39.04
37.82
36.51
34.90
32.95
30.77
28.59
26.60
24.92
23.53
22.36
21.29
20.24
19.10
17.75
16.07
14.04
11.72
9.29
7.00
4.97
3.22
1.66
0.06
-1.68
-3.63
-5.71
-7.83
-9.91
-11.95
-13.97
-16.01
-18.14
-20.47
-23.18
-26.46
-30.35
-34.59
-38.55
-41.39
-42.32
-40.95
-37.43
-32.40
-26.76
-21.28
-16.50
-12.64
-9.71
-7.64
-6.33
-5.61
-5.28
-5.16
-5.10
-5.14
-5.38
-5.92
-6.70
-7.52
-8.07
-8.14
-7.63
-6.68
-5.57
-4.54
-3.75
-3.25
-3.03
-3.07
-3.44
-4.13
-5.08
-6.13
-7.08
-7.72
-8.03
-8.11
-8.19
-8.51
-9.25
-10.40
-11.84
-13.30
-14.56
-15.51
-16.26
-17.02
-18.06
-19.55
-21.50
-23.74
-25.99
-28.08
-29.94
-31.67
-33.48
-35.64
-38.40
-41.95
-46.33
-51.21
-55.93
-59.49
-60.87
-59.32
-54.75
-47.71
-39.24
-30.43
-22.17
-14.87
-8.56
-3.06
1.84
6.33
10.55
14.61
18.54
22.32
25.78
28.69
30.83
32.07
32.50
32.39
32.06
31.84
31.89
32.24
32.79
33.37
33.78
33.88
33.55
32.74
31.50
29.99
28.45
27.11
26.08
25.32
24.63
23.79
22.63
21.17
19.47
17.68
15.88
14.10
12.33
10.62
8.99
7.51
6.16
4.84
3.40
1.69
-0.29
-2.47
-4.67
-6.74
-8.59
-10.32
-12.16
-14.35
-17.06
-20.26
-23.67
-26.93
-29.72
-31.91
-33.65
-35.36
-37.52
-40.54
-44.54
-49.17
-53.67
-57.00
-58.11
-56.27
-51.38
-43.92
-34.86
-25.27
-16.05
-7.71
-0.38
6.03
11.73
16.89
21.67
26.19
30.53
34.70
38.55
41.88
44.43
46.03
46.72
46.75
46.47
46.26
46.36
46.85
47.59
48.35
48.84
48.89
48.42
47.49
46.21
44.70
43.00
41.13
39.11
36.99
34.89
32.91
31.09
29.41
27.84
26.33
24.88
23.53
22.28
21.11
19.94
18.69
17.35
15.98
14.58
13.15
11.60
9.80
7.65
5.13
2.31
-0.63
-3.50
-6.19
-8.69
-11.11
-13.64
-16.51
-19.91
-24.00
-28.75
-33.98
-39.20
-43.65
-46.44
-46.76
-44.23
-39.06
-32.10
-24.49
-17.32
-11.29
-6.52
-2.82
0.14
2.55
4.44
5.72
6.35
6.37
5.95
5.27
4.50
3.78
3.21
2.90
2.88
3.17
3.69
4.39
5.16
5.87
6.35
6.42
5.91
4.76
3.04
0.96
-1.18
-3.14
-4.79
-6.13
-7.31
-8.56
-10.07
-11.93
-14.09
-16.32
-18.36
-20.00
-21.24
-22.21
-23.16
-24.31
-25.72
-27.29
-28.83
-30.18
-31.33
-32.40
-33.67
-35.40
-37.82
-40.99
-44.77
-48.81
-52.57
-55.38
-56.57
-55.65
-52.42
-47.10
-40.26
-32.67
-25.12
-18.21
-12.23
-7.21
-2.94
0.90
4.63
8.46
12.44
16.41
20.07
23.11
25.31
26.65
27.34
27.72
28.15
28.88
29.95
31.24
32.52
33.58
34.25
34.46
34.17
33.37
32.09
30.40
28.43
26.39
24.49
22.88
21.57
20.43
19.29
18.01
16.55
15.00
13.48
12.09
10.83
9.61
8.25
6.66
4.85
2.96
1.14
-0.46
-1.88
-3.28
-4.90
-6.92
-9.38
-12.21
-15.24
-18.34
-21.39
-24.35
-27.22
-29.99
-32.71
-35.52
-38.65
-42.34
-46.72
-51.61
-56.47
-60.36
-62.25
-61.26
-56.96
-49.56
-39.80
-28.82
-17.80
-7.64
1.23
8.79
15.34
21.26
26.83
32.11
37.01
41.35
44.98
47.83
49.89
51.16
51.70
51.59
51.01
50.23
49.60
49.40
49.72
50.42
51.13
51.43
51.02
49.85
48.05
45.93
43.70
41.44
39.11
36.61
33.90
31.04
28.15
25.34
22.61
19.95
17.31
14.73
12.34
10.21
8.38
6.76
5.15
3.31
1.10
-1.52
-4.43
-7.43
-10.28
-12.87
-15.21
-17.58
-20.37
-24.01
-28.75
-34.44
-40.46
-45.80
-49.36
-50.30
-48.26
-43.50
-36.78
-29.08
-21.34
-14.28
-8.37
-3.78
-0.44
1.86
3.43
4.52
5.32
5.87
6.09
5.85
5.12
3.98
2.66
1.44
0.59
0.26
0.44
0.97
1.61
2.09
2.19
1.73
0.71
-0.78
-2.55
-4.37
-6.10
-7.73
-9.37
-11.14
-13.12
-15.27
-17.44
-19.48
-21.31
-23.00
-24.67
-26.43
-28.33
-30.34
-32.35
-34.32
-36.25
-38.19
-40.29
-42.67
-45.51
-48.95
-53.03
-57.54
-61.93
-65.33
-66.75
-65.36
-60.83
-53.47
-44.17
-34.12
-24.42
-15.82
-8.54
-2.39
3.08
8.27
13.43
18.55
23.41
27.74
31.23
33.77
35.42
36.39
36.94
37.33
37.67
38.01
38.33
38.58
38.76
38.80
38.60
38.02
36.94
35.30
33.17
30.75
28.30
26.04
24.09
22.42
20.89
19.38
17.77
16.02
14.11
12.06
9.88
7.58
5.25
2.95
0.74
-1.36
-3.45
-5.70
-8.25
-11.23
-14.62
-18.26
-21.88
-25.23
-28.18
-30.76
-33.25
-36.06
-39.60
-44.12
-49.53
-55.41
-60.97
-65.24
-67.25
-66.31
-62.23
-55.36
-46.58
-36.93
-27.34
-18.39
-10.23
-2.75
4.26
10.94
17.29
23.22
28.59
33.28
37.17
40.18
42.26
43.47
43.94
43.92
43.68
43.49
43.58
44.05
44.88
45.90
46.82
47.35
47.28
46.55
45.32
43.81
42.30
40.91
39.64
38.40
37.06
35.59
34.01
32.40
30.86
29.48
28.34
27.44
26.78
26.33
25.96
25.53
24.87
23.86
22.50
20.92
19.36
17.99
16.84
15.72
14.29
12.18
9.21
5.50
1.42
-2.51
-5.93
-8.74
-11.15
-13.60
-16.51
-20.21
-24.78
-30.12
-35.88
-41.51
-46.20
-49.10
-49.42
-46.79
-41.41
-34.02
-25.72
-17.62
-10.47
-4.58
0.20
4.22
7.91
11.49
15.03
18.39
21.33
23.62
25.13
25.89
26.13
26.14
26.23
26.50
26.95
27.42
27.75
27.85
27.69
27.32
26.76
26.00
24.95
23.55
21.77
19.73
17.54
15.37
13.25
11.18
9.05
6.81
4.44
1.98
-0.48
-2.92
-5.41
-8.07
-11.04
-14.41
-18.14
-22.11
-26.10
-29.94
-33.56
-36.98
-40.40
-44.08
-48.27
-53.08
-58.37
-63.70
-68.35
-71.52
-72.46
-70.79
-66.52
-60.12
-52.34
-44.02
-35.90
-28.44
-21.83
-16.01
-10.78
-5.94
-1.36
3.00
7.02
10.57
13.54
15.96
17.99
19.89
21.84
23.93
26.07
28.13
29.94
31.43
32.58
33.39
33.83
33.80
33.23
32.13
30.63
28.93
27.22
25.56
23.90
22.10
20.05
17.76
15.39
13.13
11.12
9.37
7.74
6.03
4.11
1.93
-0.44
-2.88
-5.32
-7.69
-10.02
-12.31
-14.62
-17.03
-19.65
-22.54
-25.64
-28.80
-31.79
-34.46
-36.87
-39.29
-42.18
-45.96
-50.81
-56.50
-62.42
-67.58
-70.91
-71.47
-68.79
-62.99
-54.75
-45.19
-35.45
-26.41
-18.48
-11.60
-5.42
0.49
6.42
12.43
18.39
24.07
29.19
33.52
36.87
39.21
40.60
41.26
41.49
41.65
42.02
42.80
44.01
45.47
46.86
47.84
48.14
47.71
46.62
45.11
43.41
41.67
39.93
38.20
36.50
34.90
33.48
32.29
31.27
30.27
29.14
27.79
26.30
24.82
23.55
22.65
22.13
21.92
21.81
21.59
21.11
20.32
19.34
18.37
17.59
17.03
16.57
15.96
14.96
13.54
11.78
9.92
8.15
6.54
5.05
3.55
1.98
0.31
-1.42
-3.20
-5.09
-7.16
-9.42
-11.87
-14.45
-17.22
-20.40
-24.30
-29.14
-34.79
-40.67
-45.78
-49.03
-49.60
-47.22
-42.28
-35.59
-28.17
-20.89
-14.34
-8.74
-4.06
-0.11
3.35
6.52
9.49
12.18
14.40
15.96
16.78
16.92
16.62
16.15
15.70
15.38
15.19
15.12
15.15
15.29
15.47
15.55
15.37
14.76
13.71
12.31
10.78
9.34
8.06
6.88
5.65
4.18
2.41
0.38
-1.75
-3.77
-5.52
-6.91
-8.02
-9.01
-10.08
-11.39
-13.01
-15.00
-17.34
-20.00
-22.99
-26.26
-29.67
-33.02
-36.11
-38.86
-41.37
-43.97
-47.09
-51.06
-55.92
-61.18
-65.94
-69.12
-69.75
-67.39
-62.29
-55.25
-47.39
-39.72
-32.83
-26.82
-21.47
-16.43
-11.49
-6.65
-2.04
2.16
5.91
9.24
12.23
14.93
17.31
19.33
21.00
22.43
23.76
25.14
26.58
28.01
29.24
30.08
30.34
29.93
28.88
27.33
25.50
23.66
21.98
20.56
19.34
18.23
17.06
15.78
14.33
12.73
11.02
9.18
7.21
5.15
3.08
1.07
-0.78
-2.49
-4.15
-5.92
-7.98
-10.44
-13.29
-16.42
-19.65
-22.81
-25.77
-28.54
-31.17
-33.75
-36.41
-39.29
-42.62
-46.61
-51.30
-56.43
-61.23
-64.67
-65.71
-63.71
-58.71
-51.43
-42.89
-34.06
-25.57
-17.68
-10.43
-3.78
2.26
7.70
12.65
17.31
21.84
26.28
30.40
33.87
36.36
37.76
38.24
38.16
37.93
37.90
38.24
38.96
39.91
40.89
41.65
42.01
41.84
41.11
39.89
38.37
36.76
35.24
33.87
32.64
31.42
30.12
28.74
27.37
26.16
25.21
24.52
23.95
23.36
22.65
21.86
21.10
20.48
19.95
19.36
18.51
17.28
15.73
14.06
12.45
10.97
9.51
7.85
5.81
3.35
0.58
-2.29
-5.06
-7.64
-10.05
-12.41
-14.90
-17.74
-21.12
-25.21
-29.95
-35.04
-39.86
-43.51
-45.12
-44.07
-40.25
-34.14
-26.68
-18.96
-11.94
-6.19
-1.84
1.34
3.72
5.64
7.32
8.84
10.20
11.40
12.47
13.47
14.44
15.40
16.32
17.15
17.93
18.69
19.51
20.39
21.25
21.96
22.36
22.33
21.78
20.71
19.11
17.08
14.72
12.19
9.60
7.00
4.35
1.57
-1.35
-4.30
-7.13
-9.65
-11.83
-13.77
-15.70
-17.88
-20.44
-23.38
-26.51
-29.62
-32.51
-35.14
-37.63
-40.22
-43.21
-46.80
-50.99
-55.53
-59.93
-63.47
-65.41
-65.12
-62.31
-57.05
-49.88
-41.57
-32.97
-24.73
-17.21
-10.50
-4.51
0.89
5.71
9.91
13.39
16.10
18.07
19.45
20.41
21.12
21.74
22.35
23.03
23.84
24.80
25.93
27.16
28.34
29.28
29.79
29.78
29.24
28.26
26.97
25.48
23.86
22.18
20.54
19.05
17.79
16.77
15.87
14.87
13.57
11.83
9.62
7.04
4.23
1.31
-1.61
-4.48
-7.24
-9.88
-12.40
-14.81
-17.18
-19.56
-21.99
-24.52
-27.18
-30.00
-33.06
-36.52
-40.56
-45.39
-51.02
-57.17
-63.16
-67.97
-70.51
-69.92
-65.87
-58.72
-49.40
-39.14
-29.07
-19.95
-12.03
-5.17
1.00
6.80
12.43
17.87
23.01
27.69
31.79
35.21
37.90
39.81
40.95
41.40
41.39
41.24
41.27
41.73
42.64
43.84
45.01
45.80
45.99
45.52
44.51
43.17
41.71
40.26
38.86
37.46
35.97
34.35
32.58
30.75
28.95
27.24
25.67
24.22
22.90
21.72
20.75
20.05
19.62
19.39
19.22
18.97
18.59
18.07
17.45
16.80
16.12
15.37
14.47
13.33
11.87
10.03
7.82
5.27
2.52
-0.29
-3.00
-5.60
-8.19
-11.03
-14.44
-18.69
-23.87
-29.72
-35.63
-40.69
-43.87
-44.35
-41.80
-36.52
-29.37
-21.49
-13.97
-7.51
-2.34
1.73
5.11
8.17
11.15
14.08
16.87
19.32
21.24
22.50
23.05
22.97
22.43
21.69
21.02
20.61
20.54
20.75
21.12
21.49
21.72
21.66
21.16
20.12
18.51
16.43
14.08
11.67
9.32
7.04
4.69
2.18
-0.52
-3.30
-5.98
-8.43
-10.64
-12.74
-14.93
-17.37
-20.12
-23.17
-26.41
-29.74
-33.11
-36.53
-40.15
-44.14
-48.64
-53.64
-58.92
-63.94
-67.97
-70.15
-69.83
-66.67
-60.93
-53.31
-44.82
-36.42
-28.74
-21.99
-15.98
-10.35
-4.81
0.71
6.04
10.93
15.07
18.32
20.64
22.15
23.04
23.55
23.86
24.12
24.38
24.69
25.04
25.43
25.77
25.95
25.80
25.19
24.07
22.50
20.64
18.69
16.81
15.09
13.48
11.84
9.95
7.65
4.91
1.94
-0.92
-3.28
-4.87
-5.74
-6.21
-6.74
-7.82
-9.64
-12.15
-15.09
-18.09
-20.93
-23.53
-25.98
-28.54
-31.53
-35.26
-39.90
-45.34
-51.11
-56.36
-60.09
-61.40
-59.79
-55.33
-48.57
-40.41
-31.74
-23.28
-15.45
-8.40
-2.09
3.63
8.98
14.15
19.27
24.25
28.84
32.69
35.47
37.08
37.70
37.74
37.63
37.70
38.02
38.52
39.05
39.52
39.93
40.32
40.61
40.65
40.25
39.29
37.89
36.32
34.91
33.88
33.22
32.74
32.15
31.28
30.12
28.83
27.60
26.54
25.64
24.79
23.90
22.88
21.78
20.63
19.43
18.18
16.87
15.59
14.49
13.73
13.35
13.14
12.79
11.98
10.56
8.66
6.56
4.59
2.85
1.20
-0.63
-2.95
-5.93
-9.53
-13.57
-17.73
-21.58
-24.63
-26.25
-25.87
-23.10
-17.95
-10.90
-2.83
5.24
12.47
18.38
22.92
26.36
29.07
31.32
33.21
34.62
35.37
35.29
34.34
32.59
30.23
27.49
24.61
21.80
19.27
17.09
15.32
13.85
12.47
10.90
8.86
6.23
2.98
-0.78
-4.93
-9.40
-14.13
-19.04
-23.92
-28.50
-32.48
-35.65
-38.02
-39.73
-41.03
-42.14
-43.15
-44.04
-44.77
-45.35
-45.90
-46.60
-47.66
-49.22
-51.31
-53.88
-56.84
-60.05
-63.28
-66.10
-67.87
-67.81
-65.22
-59.77
-51.66
-41.68
-30.99
-20.77
-11.85
-4.61
1.02
5.31
8.58
10.97
12.57
13.42
13.64
13.47
13.11
12.69
12.23
11.64
10.84
9.81
8.62
7.38
6.17
5.03
3.91
2.69
1.33
-0.18
-1.72
-3.10
-4.13
-4.70
-4.83
-4.69
-4.54
-4.58
-4.93
-5.55
-6.38
-7.34
-8.43
-9.76
-11.44
-13.49
-15.86
-18.39
-20.93
-23.40
-25.83
-28.27
-30.71
-33.08
-35.25
-37.14
-38.84
-40.45
-42.05
-43.43
-44.08
-43.31
-40.48
-35.33
-28.10
-19.52
-10.49
-1.81
5.98
12.72
18.46
23.33
27.49
31.00
33.97
36.49
38.61
40.37
41.68
42.41
42.43
41.67
40.16
38.06
35.59
33.04
30.67
28.72
27.32
26.48
26.10
25.96
25.91
25.83
25.65
25.34
24.85
24.03
22.74
20.92
18.59
15.85
12.87
9.75
6.59
3.38
0.15
-3.00
-5.98
-8.74
-11.32
-13.84
-16.42
-19.01
-21.41
-23.31
-24.38
-24.42
-23.46
-21.73
-19.64
-17.66
-16.27
-15.80
-16.38
-17.82
-19.63
-21.08
-21.36
-19.89
-16.48
-11.46
-5.53
0.43
5.59
9.47
11.96
13.33
14.04
14.55
15.20
16.09
17.14
18.14
18.85
19.12
18.91
18.31
17.56
16.91
16.64
16.92
17.77
19.06
20.56
21.96
22.97
23.39
23.05
21.94
20.17
17.98
15.68
13.52
11.61
9.84
8.02
5.97
3.64
1.14
-1.30
-3.55
-5.58
-7.51
-9.50
-11.62
-13.85
-15.99
-17.91
-19.52
-20.84
-22.05
-23.39
-25.11
-27.43
-30.45
-34.01
-37.63
-40.54
-41.88
-40.97
-37.52
-31.86
-24.72
-17.04
-9.63
-2.97
2.74
7.54
11.53
14.83
17.56
19.85
21.80
23.48
24.83
25.69
25.90
25.41
24.36
23.02
21.69
20.60
19.86
19.45
19.29
19.27
19.27
19.20
18.95
18.45
17.64
16.56
15.32
14.06
12.95
12.04
11.33
10.67
9.91
8.95
7.77
6.39
4.85
3.11
1.13
-1.13
-3.57
-5.97
-8.10
-9.78
-11.09
-12.27
-13.71
-15.69
-18.30
-21.30
-24.16
-26.18
-26.69
-25.19
-21.51
-15.93
-9.07
-1.76
5.19
11.21
16.07
19.82
22.71
25.01
26.96
28.71
30.38
32.08
33.78
35.35
36.59
37.32
37.57
37.56
37.62
37.96
38.57
39.22
39.58
39.41
38.66
37.43
35.85
33.98
31.80
29.31
26.57
23.72
20.96
18.42
16.10
13.93
11.79
9.59
7.35
5.17
3.18
1.48
0.07
-1.21
-2.62
-4.44
-6.85
-9.90
-13.43
-17.15
-20.60
-23.36
-24.96
-25.05
-23.42
-20.09
-15.37
-9.82
-4.11
1.08
5.27
8.22
9.98
10.74
10.77
10.35
9.66
8.83
7.90
6.92
5.91
4.91
3.99
3.21
2.64
2.29
2.12
2.02
1.85
1.49
0.84
-0.13
-1.45
-3.08
-4.96
-6.99
-9.04
-11.03
-12.91
-14.73
-16.60
-18.64
-20.89
-23.30
-25.66
-27.81
-29.66
-31.33
-33.16
-35.59
-38.91
-43.10
-47.69
-51.87
-54.65
-55.25
-53.29
-48.96
-42.90
-35.99
-29.14
-23.05
-18.12
-14.49
-12.03
-10.48
-9.49
-8.72
-7.88
-6.87
-5.76
-4.72
-3.94
-3.55
-3.51
-3.68
-3.80
-3.65
-3.12
-2.25
-1.23
-0.27
0.37
0.51
0.10
-0.86
-2.24
-3.86
-5.51
-6.99
-8.22
-9.26
-10.26
-11.47
-13.02
-14.97
-17.20
-19.53
-21.77
-23.76
-25.50
-27.07
-28.72
-30.77
-33.54
-37.10
-41.11
-44.79
-47.13
-47.17
-44.47
-39.21
-32.19
-24.41
-16.84
-10.09
-4.43
0.14
3.70
6.41
8.45
10.11
11.70
13.43
15.34
17.27
18.92
20.00
20.40
20.21
19.72
19.25
19.07
19.28
19.82
20.50
21.08
21.35
21.17
20.50
19.40
18.05
16.62
15.27
14.05
12.88
11.63
10.14
8.35
6.32
4.24
2.32
0.63
-0.91
-2.49
-4.36
-6.65
-9.28
-12.01
-14.52
-16.64
-18.39
-20.03
-21.90
-24.38
-27.65
-31.69
-36.25
-40.83
-44.66
-46.91
-46.80
-43.92
-38.35
-30.72
-22.04
-13.38
-5.61
0.88
6.03
10.08
13.32
16.02
18.32
20.34
22.14
23.76
25.20
26.37
27.22
27.69
27.83
27.77
27.67
27.70
27.91
28.28
28.70
29.06
29.29
29.35
29.24
28.95
28.53
28.01
27.44
26.82
26.12
25.27
24.20
22.92
21.52
20.21
19.21
18.63
18.45
18.48
18.40
17.94
16.96
15.49
13.75
12.04
10.53
9.24
7.96
6.33
3.96
0.65
-3.56
-8.27
-12.82
-16.36
-18.10
-17.50
-14.43
-9.26
-2.77
4.12
10.57
16.02
20.19
23.10
24.93
25.93
26.34
26.31
25.96
25.33
24.44
23.35
22.15
20.97
19.93
19.07
18.42
17.98
17.77
17.79
17.99
18.23
18.25
17.80
16.73
15.03
12.85
10.44
8.02
5.79
3.84
2.09
0.38
-1.60
-4.11
-7.26
-10.89
-14.60
-17.90
-20.48
-22.32
-23.78
-25.45
-27.89
-31.41
-35.94
-41.03
-45.90
-49.72
-51.70
-51.34
-48.53
-43.58
-37.19
-30.24
-23.55
-17.72
-13.02
-9.43
-6.74
-4.78
-3.42
-2.68
-2.58
-3.09
-4.05
-5.16
-6.05
-6.45
-6.22
-5.42
-4.23
-2.88
-1.53
-0.31
0.74
1.54
1.98
1.90
1.18
-0.15
-1.94
-3.86
-5.58
-6.87
-7.70
-8.25
-8.86
-9.84
-11.44
-13.70
-16.53
-19.68
-22.88
-25.88
-28.57
-30.97
-33.34
-36.04
-39.49
-43.90
-49.12
-54.52
-59.09
-61.68
-61.44
-58.02
-51.79
-43.61
-34.55
-25.52
-17.09
-9.47
-2.64
3.54
9.18
14.36
19.12
23.47
27.34
30.57
33.00
34.49
35.07
34.92
34.39
33.81
33.40
33.25
33.26
33.32
33.25
32.96
32.38
31.47
30.27
28.80
27.15
25.37
23.51
21.55
19.41
17.05
14.43
11.60
8.66
5.69
2.79
-0.04
-2.81
-5.54
-8.26
-10.96
-13.65
-16.38
-19.16
-22.04
-25.04
-28.18
-31.57
-35.35
-39.73
-44.70
-49.94
-54.61
-57.58
-57.73
-54.41
-47.73
-38.58
-28.28
-18.15
-9.08
-1.37
5.08
10.61
15.52
20.00
24.16
28.00
31.56
34.79
37.62
39.94
41.63
42.67
43.12
43.14
42.96
42.75
42.70
42.84
43.14
43.41
43.45
43.03
42.05
40.53
38.65
36.69
34.93
33.50
32.39
31.39
30.21
28.67
26.73
24.59
22.56
20.92
19.77
18.99
18.32
17.51
16.38
14.90
13.12
11.13
9.01
6.82
4.60
2.31
-0.15
-3.02
-6.60
-11.11
-16.47
-22.20
-27.41
-31.03
-32.09
-30.10
-25.16
-18.03
-9.80
-1.64
5.56
11.37
15.76
19.01
21.48
23.42
24.94
25.99
26.49
26.40
25.79
24.80
23.64
22.51
21.55
20.85
20.44
20.29
20.37
20.53
20.64
20.46
19.79
18.51
16.65
14.36
11.88
9.42
7.09
4.88
2.64
0.23
-2.47
-5.48
-8.72
-12.10
-15.51
-18.88
-22.14
-25.26
-28.19
-30.91
-33.51
-36.14
-39.15
-42.85
-47.48
-52.93
-58.65
-63.76
-67.18
-68.05
-65.89
-60.78
-53.29
-44.27
-34.69
-25.42
-17.11
-10.12
-4.51
-0.10
3.40
6.31
8.81
10.99
12.83
14.24
15.23
15.83
16.19
16.46
16.77
17.21
17.81
18.60
19.58
20.76
22.04
23.26
24.12
24.27
23.52
21.85
19.52
16.95
14.55
12.60
11.17
10.07
9.04
7.79
6.12
3.95
1.35
-1.53
-4.47
-7.31
-9.93
-12.32
-14.59
-16.85
-19.16
-21.52
-23.86
-26.11
-28.24
-30.35
-32.65
-35.44
-39.00
-43.48
-48.66
-53.95
-58.43
-61.03
-60.89
-57.60
-51.42
-43.15
-33.91
-24.74
-16.42
-9.31
-3.37
1.64
6.06
10.21
14.31
18.40
22.39
26.05
29.13
31.47
33.01
33.88
34.24
34.30
34.21
34.10
34.08
34.19
34.42
34.64
34.63
34.19
33.22
31.80
30.14
28.48
26.98
25.64
24.40
23.18
21.97
20.84
19.83
18.90
17.91
16.73
15.35
13.87
12.53
11.55
10.94
10.56
10.10
9.33
8.17
6.78
5.42
4.35
3.66
3.26
2.89
2.23
1.06
-0.69
-2.88
-5.22
-7.38
-9.15
-10.50
-11.64
-12.91
-14.68
-17.21
-20.50
-24.25
-27.87
-30.57
-31.57
-30.32
-26.64
-20.83
-13.64
-5.98
1.20
7.22
11.78
14.95
17.05
18.54
19.79
20.98
22.08
22.94
23.37
23.27
22.69
21.82
20.92
20.19
19.80
19.77
20.08
20.68
21.43
22.19
22.72
22.83
22.36
21.29
19.75
17.99
16.24
14.67
13.31
12.06
10.77
9.32
7.70
5.99
4.28
2.63
0.98
-0.81
-2.84
-5.16
-7.67
-10.20
-12.58
-14.78
-16.87
-19.06
-21.57
-24.63
-28.36
-32.74
-37.58
-42.44
-46.66
-49.45
-50.12
-48.32
-44.16
-38.26
-31.53
-24.90
-19.04
-14.27
-10.55
-7.66
-5.34
-3.38
-1.71
-0.33
0.73
1.46
1.88
2.05
2.09
2.10
2.21
2.49
2.98
3.62
4.32
4.97
5.45
5.68
5.63
5.31
4.68
3.78
2.64
1.35
0.01
-1.26
-2.43
-3.51
-4.57
-5.63
-6.66
-7.60
-8.41
-9.14
-9.96
-11.10
-12.71
-14.83
-17.35
-20.05
-22.74
-25.32
-27.82
-30.34
-33.08
-36.23
-39.95
-44.27
-48.93
-53.37
-56.80
-58.29
-57.15
-53.18
-46.74
-38.66
-30.05
-21.86
-14.71
-8.78
-3.90
0.28
4.07
7.63
10.94
13.92
16.47
18.58
20.31
21.76
22.98
24.02
24.96
25.88
26.93
28.22
29.75
31.32
32.64
33.37
33.32
32.50
31.14
29.51
27.84
26.23
24.65
23.04
21.36
19.63
17.94
16.36
14.91
13.58
12.32
11.02
9.66
8.19
6.57
4.78
2.78
0.59
-1.75
-4.10
-6.39
-8.56
-10.67
-12.85
-15.24
-17.90
-20.78
-23.72
-26.52
-29.09
-31.46
-33.83
-36.47
-39.69
-43.62
-48.17
-52.92
-57.14
-59.94
-60.47
-58.17
-52.99
-45.42
-36.35
-26.87
-17.85
-9.87
-3.08
2.74
7.95
12.91
17.80
22.62
27.19
31.29
34.63
37.11
38.72
39.57
39.86
39.89
39.93
40.22
40.91
42.00
43.38
44.80
45.96
46.56
46.42
45.51
43.98
42.13
40.26
38.59
37.18
35.93
34.67
33.26
31.61
29.76
27.74
25.63
23.49
21.37
19.34
17.45
15.67
13.89
11.94
9.71
7.19
4.46
1.71
-0.97
-3.64
-6.51
-9.89
-14.01
-18.92
-24.38
-29.84
-34.58
-37.83
-38.96
-37.60
-33.85
-28.16
-21.28
-14.02
-7.10
-0.93
4.29
8.53
11.84
14.23
15.72
16.35
16.27
15.70
14.92
14.17
13.66
13.47
13.62
14.06
14.65
15.25
15.72
16.00
16.05
15.84
15.32
14.34
12.79
10.59
7.82
4.68
1.44
-1.64
-4.46
-7.05
-9.58
-12.21
-15.06
-18.15
-21.40
-24.70
-27.96
-31.08
-33.99
-36.66
-39.07
-41.31
-43.49
-45.84
-48.66
-52.17
-56.44
-61.17
-65.67
-68.94
-69.91
-67.85
-62.59
-54.65
-45.04
-34.94
-25.36
-16.91
-9.80
-3.92
1.03
5.44
9.62
13.77
17.83
21.57
24.68
26.93
28.33
29.12
29.65
30.17
30.74
31.32
31.82
32.27
32.77
33.40
34.11
34.68
34.79
34.26
33.06
31.37
29.45
27.51
25.68
23.96
22.31
20.67
19.00
17.29
15.54
13.75
11.90
9.99
8.05
6.13
4.32
2.70
1.32
0.16
-0.87
-1.85
-2.86
-3.92
-5.03
-6.19
-7.47
-8.91
-10.56
-12.36
-14.23
-16.09
-17.95
-19.92
-22.15
-24.71
-27.55
-30.45
-33.16
-35.54
-37.65
-39.89
-42.74
-46.62
-51.53
-56.95
-61.88
-65.07
-65.53
-62.76
-56.98
-48.89
-39.53
-29.89
-20.74
-12.51
-5.34
0.83
6.27
11.23
16.00
20.70
25.29
29.57
33.21
35.95
37.61
38.26
38.15
37.70
37.33
37.34
37.84
38.64
39.45
39.95
39.95
39.46
38.62
37.63
36.59
35.57
34.52
33.43
32.25
30.99
29.64
28.18
26.66
25.11
23.62
22.27
21.08
20.10
19.30
18.66
18.11
17.59
16.97
16.16
15.14
13.95
12.72
11.55
10.52
9.65
8.89
8.16
7.34
6.27
4.79
2.86
0.58
-1.79
-3.95
-5.69
-7.06
-8.32
-9.87
-12.07
-15.12
-19.02
-23.53
-28.17
-32.25
-34.97
-35.62
-33.73
-29.34
-22.95
-15.45
-7.84
-0.93
4.77
9.20
12.52
15.07
17.14
18.91
20.36
21.35
21.71
21.38
20.45
19.16
17.82
16.76
16.20
16.23
16.87
17.99
19.33
20.59
21.41
21.52
20.81
19.31
17.20
14.69
11.99
9.28
6.70
4.29
2.06
-0.07
-2.19
-4.35
-6.51
-8.57
-10.47
-12.20
-13.87
-15.65
-17.67
-19.97
-22.47
-25.01
-27.45
-29.75
-31.99
-34.41
-37.34
-41.03
-45.50
-50.40
-55.05
-58.51
-59.91
-58.71
-54.83
-48.66
-40.97
-32.64
-24.46
-17.01
-10.57
-5.15
-0.58
3.40
6.96
10.18
12.98
15.21
16.79
17.74
18.20
18.40
18.61
19.00
19.66
20.56
21.62
22.72
23.69
24.41
24.76
24.68
24.18
23.28
22.01
20.43
18.63
16.75
14.91
13.22
11.70
10.30
8.92
7.48
6.00
4.56
3.24
2.06
0.97
-0.20
-1.62
-3.39
-5.54
-7.97
-10.53
-13.14
-15.75
-18.37
-21.05
-23.75
-26.42
-28.98
-31.40
-33.81
-36.42
-39.50
-43.26
-47.71
-52.56
-57.24
-60.95
-62.88
-62.35
-59.03
-53.10
-45.09
-35.90
-26.45
-17.61
-9.94
-3.68
1.29
5.33
8.94
12.56
16.46
20.58
24.60
28.11
30.79
32.50
33.36
33.65
33.68
33.71
33.88
34.27
34.89
35.70
36.56
37.26
37.53
37.14
35.98
34.17
31.98
29.76
27.78
26.13
24.77
23.54
22.31
21.05
19.76
18.44
17.06
15.52
13.84
12.13
10.63
9.51
8.84
8.50
8.25
7.83
7.21
6.43
5.68
5.08
4.69
4.45
4.28
4.05
3.67
3.02
2.04
0.75
-0.75
-2.28
-3.71
-4.97
-6.14
-7.42
-9.10
-11.47
-14.72
-18.92
-23.80
-28.80
-33.05
-35.58
-35.59
-32.72
-27.23
-19.93
-11.96
-4.39
2.03
7.02
10.68
13.31
15.20
16.54
17.44
17.99
18.32
18.50
18.56
18.40
17.94
17.20
16.36
15.74
15.65
16.22
17.37
18.79
20.10
20.97
21.23
20.88
20.04
18.88
17.53
16.07
14.51
12.81
10.94
8.92
6.84
4.78
2.79
0.89
-0.98
-2.91
-4.90
-6.98
-9.11
-11.27
-13.48
-15.76
-18.17
-20.72
-23.46
-26.49
-29.90
-33.83
-38.32
-43.17
-47.91
-51.80
-53.99
-53.76
-50.85
-45.53
-38.59
-31.05
-23.92
-17.81
-12.93
-9.08
-5.89
-3.04
-0.40
1.92
3.77
5.03
5.72
6.08
6.38
6.89
7.72
8.81
9.98
11.06
11.97
12.72
13.40
14.01
14.49
14.66
14.33
13.45
12.13
10.62
9.18
7.93
6.82
5.66
4.21
2.35
0.13
-2.30
-4.74
-7.06
-9.24
-11.40
-13.69
-16.27
-19.18
-22.34
-25.53
-28.53
-31.18
-33.50
-35.75
-38.33
-41.71
-46.09
-51.24
-56.47
-60.69
-62.79
-61.98
-58.10
-51.58
-43.36
-34.49
-25.88
-18.09
-11.32
-5.51
-0.41
4.20
8.55
12.75
16.80
20.59
23.92
26.60
28.54
29.77
30.47
30.87
31.21
31.66
32.28
33.05
33.90
34.71
35.33
35.58
35.30
34.38
32.83
30.82
28.64
26.56
24.76
23.23
21.84
20.45
19.00
17.55
16.15
14.83
13.50
12.05
10.38
8.54
6.66
4.85
3.17
1.56
-0.15
-2.09
-4.37
-6.97
-9.84
-12.88
-15.98
-19.05
-22.04
-24.91
-27.72
-30.62
-33.86
-37.68
-42.23
-47.38
-52.71
-57.48
-60.81
-61.90
-60.22
-55.72
-48.78
-40.17
-30.75
-21.36
-12.61
-4.84
1.90
7.79
13.12
18.21
23.22
28.14
32.74
36.73
39.81
41.84
42.88
43.19
43.10
42.94
42.95
43.23
43.79
44.57
45.47
46.32
46.93
47.10
46.70
45.74
44.37
42.82
41.32
40.00
38.80
37.57
36.17
34.51
32.63
30.65
28.68
26.78
24.93
23.06
21.05
18.80
16.28
13.53
10.64
7.70
4.74
1.74
-1.43
-4.90
-8.76
-12.92
-17.09
-20.74
-23.27
-24.06
-22.76
-19.37
-14.28
-8.21
-1.94
3.90
9.00
13.31
16.92
19.88
22.07
23.31
23.46
22.52
20.76
18.57
16.37
14.48
13.03
12.00
11.30
10.80
10.42
10.07
9.68
9.10
8.16
6.67
4.48
1.60
-1.86
-5.60
-9.32
-12.75
-15.77
-18.45
-20.96
-23.56
-26.41
-29.54
-32.86
-36.21
-39.42
-42.45
-45.37
-48.34
-51.55
-55.10
-58.89
-62.64
-65.85
-67.90
-68.26
-66.52
-62.57
-56.62
-49.13
-40.73
-32.17
-24.13
-17.09
-11.26
-6.43
-2.14
2.17
6.92
12.16
17.59
22.72
27.02
30.21
32.20
33.16
33.29
32.87
32.08
31.06
29.83
28.39
26.70
24.82
22.83
20.88
19.10
17.45
15.83
14.10
12.18
10.13
8.09
6.22
4.56
3.08
1.63
0.07
-1.70
-3.76
-6.09
-8.65
-11.32
-13.94
-16.37
-18.54
-20.54
-22.62
-25.12
-28.28
-32.16
-36.43
-40.48
-43.45
-44.53
-43.17
-39.32
-33.45
-26.39
-19.10
-12.32
-6.44
-1.46
2.87
6.88
10.77
14.59
18.22
21.44
24.06
25.97
27.19
27.81
28.01
27.96
27.81
27.61
27.40
27.19
27.03
26.98
27.08
27.27
27.41
27.37
27.03
26.42
25.66
24.91
24.30
23.88
23.55
23.09
22.35
21.20
19.67
17.89
16.07
14.38
12.89
11.56
10.23
8.82
7.30
5.75
4.29
3.01
1.92
0.95
0.02
-0.91
-1.79
-2.52
-2.98
-3.08
-2.83
-2.30
-1.59
-0.82
-0.07
0.61
1.22
1.76
2.19
2.39
2.26
1.66
0.58
-0.89
-2.61
-4.37
-6.07
-7.66
-9.16
-10.57
-11.84
-12.84
-13.45
-13.63
-13.54
-13.50
-13.95
-15.29
-17.69
-20.91
-24.32
-27.01
-28.09
-26.98
-23.57
-18.33
-12.07
-5.76
-0.25
3.93
6.61
7.96
8.37
8.30
8.12
8.06
8.13
8.14
7.85
7.04
5.65
3.81
1.82
0.02
-1.28
-1.97
-2.00
-1.46
-0.50
0.69
1.92
2.99
3.74
4.12
4.23
4.26
4.45
4.91
5.59
6.25
6.60
6.36
5.41
3.79
1.71
-0.54
-2.68
-4.55
-6.12
-7.46
-8.68
-9.88
-11.03
-12.04
-12.76
-13.13
-13.19
-13.16
-13.38
-14.28
-16.24
-19.49
-23.93
-29.11
-34.25
-38.45
-40.91
-41.21
-39.38
-35.84
-31.31
-26.53
-22.09
-18.31
-15.22
-12.65
-10.31
-7.90
-5.24
-2.28
0.84
3.91
6.66
8.89
10.57
11.74
12.62
13.47
14.49
15.80
17.34
18.94
20.38
21.45
22.01
22.01
21.53
20.65
19.52
18.22
16.78
15.22
13.57
11.88
10.27
8.84
7.69
6.78
6.04
5.34
4.59
3.77
2.91
2.01
0.97
-0.40
-2.31
-4.87
-8.02
-11.50
-14.97
-18.14
-20.95
-23.51
-26.10
-29.04
-32.53
-36.65
-41.27
-46.20
-51.09
-55.48
-58.80
-60.39
-59.69
-56.42
-50.73
-43.27
-35.04
-27.08
-20.22
-14.81
-10.68
-7.30
-4.06
-0.49
3.60
8.06
12.56
16.68
20.07
22.51
23.94
24.44
24.20
23.46
22.55
21.77
21.34
21.37
21.76
22.26
22.58
22.44
21.74
20.56
19.12
17.71
16.51
15.55
14.70
13.73
12.47
10.82
8.87
6.80
4.76
2.87
1.08
-0.72
-2.67
-4.85
-7.19
-9.57
-11.86
-13.96
-15.95
-18.00
-20.38
-23.32
-27.00
-31.43
-36.47
-41.76
-46.75
-50.75
-53.01
-52.94
-50.29
-45.26
-38.50
-30.91
-23.37
-16.55
-10.73
-5.87
-1.73
1.99
5.47
8.78
11.84
14.52
16.66
18.18
19.08
19.46
19.52
19.51
19.64
20.09
20.94
22.19
23.78
25.60
27.52
29.37
31.03
32.36
33.31
33.82
33.91
33.59
32.87
31.73
30.19
28.23
25.90
23.27
20.43
17.45
14.43
11.54
8.91
6.76
5.19
4.21
3.67
3.29
2.73
1.75
0.24
-1.73
-3.96
-6.22
-8.35
-10.26
-12.01
-13.74
-15.66
-18.00
-20.98
-24.71
-29.10
-33.76
-37.94
-40.68
-41.04
-38.44
-32.88
-25.01
-15.89
-6.68
1.69
8.75
14.40
18.90
22.55
25.66
28.44
31.00
33.31
35.31
36.86
37.83
38.20
38.04
37.53
36.87
36.24
35.81
35.65
35.80
36.22
36.75
37.11
36.97
36.08
34.35
31.92
29.11
26.28
23.71
21.50
19.57
17.74
15.81
13.66
11.24
8.58
5.76
2.83
-0.14
-3.10
-5.97
-8.71
-11.30
-13.82
-16.45
-19.46
-23.16
-27.75
-33.21
-39.13
-44.77
-49.17
-51.35
-50.67
-47.01
-40.81
-33.00
-24.69
-16.87
-10.18
-4.84
-0.78
2.29
4.60
6.32
7.52
8.22
8.47
8.38
8.11
7.82
7.64
7.61
7.73
7.96
8.23
8.51
8.77
8.96
9.00
8.81
8.26
7.32
5.98
4.36
2.58
0.74
-1.09
-2.90
-4.70
-6.51
-8.28
-9.99
-11.66
-13.31
-15.09
-17.10
-19.41
-22.01
-24.79
-27.61
-30.33
-32.91
-35.41
-38.05
-41.12
-44.84
-49.28
-54.10
-58.61
-61.86
-62.79
-60.70
-55.39
-47.33
-37.52
-27.20
-17.51
-9.16
-2.39
3.04
7.58
11.70
15.69
19.64
23.44
26.93
29.92
32.25
33.84
34.69
34.85
34.55
34.07
33.75
33.85
34.40
35.23
36.00
36.36
36.12
35.26
33.96
32.41
30.73
28.95
27.05
25.02
22.91
20.85
18.93
17.16
15.50
13.76
11.83
9.63
7.17
4.57
1.92
-0.69
-3.26
-5.86
-8.57
-11.49
-14.67
-18.06
-21.57
-25.01
-28.20
-31.06
-33.66
-36.29
-39.31
-43.09
-47.81
-53.33
-59.12
-64.35
-68.03
-69.27
-67.54
-62.86
-55.76
-47.18
-38.20
-29.75
-22.44
-16.51
-11.87
-8.24
-5.24
-2.57
-0.03
2.34
4.30
5.51
5.72
4.88
3.19
1.01
-1.40
-3.91
-6.51
-9.20
-11.78
-13.83
-14.80
-14.20
-11.75
-7.34
-1.11
6.71
15.83
25.97
36.84
48.13
59.53
70.60
80.80
89.50
96.17
100.46
102.37
102.19
100.34
97.25
93.20
88.31
82.65
76.31
69.52
62.55
55.69
49.11
42.88
36.99
31.36
25.89
20.43
14.80
8.74
2.07
-5.15
-12.55
-19.36
-24.65
-27.58
-27.67
-24.98
-20.04
-13.67
-6.74
0.04
6.19
11.45
15.71
18.96
21.22
22.58
23.14
23.02
22.37
21.30
19.96
18.54
17.27
16.33
15.83
15.73
15.84
15.88
15.65
15.02
14.02
12.73
11.20
9.44
7.40
5.05
2.42
-0.35
-3.10
-5.70
-8.09
-10.26
-12.28
-14.24
-16.24
-18.41
-20.84
-23.57
-26.56
-29.69
-32.78
-35.67
-38.27
-40.65
-43.03
-45.76
-49.19
-53.52
-58.57
-63.82
-68.35
-71.13
-71.31
-68.50
-62.85
-55.02
-45.93
-36.51
-27.50
-19.38
-12.31
-6.24
-0.98
3.70
8.00
11.97
15.53
18.49
20.68
22.01
22.58
22.67
22.62
22.70
23.07
23.74
24.57
25.43
26.16
26.65
26.81
26.58
25.92
24.82
23.30
21.44
19.37
17.27
15.29
13.55
12.02
10.53
8.86
6.82
4.41
1.79
-0.74
-2.94
-4.75
-6.34
-7.98
-9.94
-12.36
-15.19
-18.25
-21.32
-24.25
-26.96
-29.45
-31.80
-34.22
-36.96
-40.33
-44.51
-49.46
-54.73
-59.50
-62.75
-63.48
-61.13
-55.69
-47.78
-38.42
-28.74
-19.63
-11.62
-4.77
1.13
6.41
11.40
16.24
20.97
25.51
29.68
33.29
36.13
38.05
38.99
39.04
38.45
37.62
36.89
36.56
36.68
37.08
37.47
37.57
37.22
36.40
35.22
33.82
32.31
30.73
29.11
27.51
26.01
24.71
23.62
22.71
21.88
21.05
20.22
19.40
18.64
17.95
17.30
16.64
15.93
15.15
14.29
13.35
12.30
11.13
9.86
8.58
7.38
6.31
5.35
4.35
3.15
1.64
-0.21
-2.30
-4.49
-6.62
-8.65
-10.64
-12.79
-15.34
-18.54
-22.49
-27.16
-32.21
-37.01
-40.73
-42.48
-41.59
-37.88
-31.72
-23.99
-15.76
-7.99
-1.31
4.11
8.39
11.80
14.63
17.03
19.11
20.86
22.18
22.99
23.18
22.79
21.96
20.92
19.96
19.28
18.96
18.95
19.16
19.48
19.79
19.99
19.91
19.39
18.34
16.79
14.93
13.03
11.27
9.69
8.13
6.35
4.17
1.56
-1.35
-4.30
-7.04
-9.43
-11.43
-13.15
-14.77
-16.52
-18.57
-21.04
-23.90
-27.03
-30.22
-33.27
-36.07
-38.71
-41.49
-44.79
-48.92
-53.85
-59.18
-64.07
-67.47
-68.44
-66.44
-61.46
-54.09
-45.22
-35.87
-26.87
-18.78
-11.79
-5.88
-0.84
3.61
7.68
11.50
15.05
18.20
20.75
22.50
23.42
23.62
23.38
23.04
22.93
23.28
24.12
25.31
26.64
27.79
28.49
28.53
27.81
26.37
24.39
22.17
20.01
18.19
16.84
15.88
15.11
14.23
13.05
11.45
9.55
7.55
5.67
4.04
2.65
1.39
0.09
-1.38
-3.07
-4.95
-6.92
-8.88
-10.79
-12.65
-14.52
-16.53
-18.78
-21.27
-23.97
-26.75
-29.44
-31.95
-34.27
-36.53
-38.99
-41.96
-45.64
-50.08
-54.95
-59.58
-63.00
-64.24
-62.60
-57.92
-50.63
-41.69
-32.21
-23.15
-15.15
-8.35
-2.64
2.26
6.62
10.63
14.41
18.01
21.38
24.44
27.03
29.05
30.43
31.26
31.71
31.98
32.23
32.55
32.96
33.39
33.78
34.04
34.09
33.83
33.20
32.20
30.96
29.64
28.45
27.54
26.95
26.60
26.29
25.84
25.18
24.36
23.52
22.83
22.35
22.00
21.60
21.01
20.17
19.16
18.14
17.25
16.54
15.98
15.44
14.75
13.73
12.23
10.14
7.48
4.38
1.08
-2.15
-5.10
-7.77
-10.35
-13.17
-16.60
-20.84
-25.75
-30.84
-35.35
-38.40
-39.29
-37.69
-33.70
-27.86
-20.93
-13.72
-6.94
-1.05
3.74
7.50
10.44
12.85
14.94
16.80
18.35
19.41
19.82
19.57
18.85
17.98
17.29
16.96
16.94
17.05
17.06
16.85
16.40
15.77
15.00
14.03
12.80
11.26
9.47
7.59
5.78
4.08
2.43
0.64
-1.45
-3.85
-6.47
-9.10
-11.54
-13.68
-15.53
-17.25
-19.04
-21.10
-23.47
-26.08
-28.76
-31.32
-33.67
-35.88
-38.16
-40.83
-44.17
-48.31
-53.04
-57.85
-61.91
-64.28
-64.21
-61.34
-55.83
-48.30
-39.65
-30.79
-22.42
-14.94
-8.44
-2.82
2.11
6.57
10.72
14.65
18.36
21.76
24.66
26.86
28.27
28.92
29.03
28.88
28.77
28.89
29.26
29.76
30.21
30.47
30.43
30.06
29.32
28.22
26.81
25.18
23.47
21.85
20.40
19.15
18.00
16.78
15.37
13.71
11.90
10.10
8.46
7.05
5.83
4.65
3.36
1.87
0.15
-1.71
-3.59
-5.42
-7.18
-8.93
-10.78
-12.80
-15.06
-17.54
-20.17
-22.84
-25.49
-28.08
-30.67
-33.36
-36.31
-39.69
-43.64
-48.14
-52.99
-57.68
-61.47
-63.49
-62.97
-59.49
-53.15
-44.63
-34.96
-25.33
-16.65
-9.37
-3.46
1.46
5.90
10.21
14.57
18.89
23.01
26.71
29.83
32.29
34.06
35.17
35.73
35.90
35.91
35.95
36.15
36.54
37.00
37.37
37.40
36.92
35.88
34.33
32.45
30.45
28.50
26.70
25.07
23.57
22.15
20.82
19.59
18.48
17.49
16.60
15.78
15.03
14.38
13.86
13.47
13.14
12.81
12.41
11.91
11.30
10.62
9.89
9.14
8.40
7.70
7.12
6.70
6.45
6.31
6.12
5.72
4.98
3.88
2.49
1.02
-0.32
-1.45
-2.42
-3.50
-5.05
-7.40
-10.71
-14.93
-19.74
-24.64
-28.96
-31.96
-32.96
-31.53
-27.62
-21.65
-14.39
-6.75
0.45
6.68
11.72
15.60
18.49
20.60
22.13
23.23
23.98
24.39
24.41
23.96
23.02
21.72
20.25
18.90
17.93
17.46
17.50
17.92
18.46
18.86
18.86
18.29
17.18
15.67
14.03
12.49
11.15
9.95
8.71
7.23
5.44
3.36
1.11
-1.14
-3.25
-5.11
-6.69
-8.00
-9.18
-10.46
-12.10
-14.25
-16.96
-20.03
-23.19
-26.17
-28.84
-31.28
-33.77
-36.65
-40.18
-44.43
-49.13
-53.68
-57.28
-59.04
-58.34
-54.99
-49.34
-42.17
-34.47
-27.13
-20.77
-15.58
-11.44
-8.02
-4.94
-1.92
1.11
4.06
6.66
8.65
9.84
10.26
10.15
9.84
9.70
9.93
10.61
11.68
13.03
14.56
16.12
17.55
18.59
19.03
18.80
17.99
16.88
15.76
14.83
14.07
13.30
12.32
11.03
9.47
7.81
6.19
4.69
3.23
1.70
-0.02
-1.93
-3.97
-6.03
-8.04
-9.97
-11.84
-13.69
-15.57
-17.56
-19.71
-22.08
-24.64
-27.33
-30.03
-32.67
-35.24
-37.86
-40.79
-44.21
-48.17
-52.35
-56.14
-58.70
-59.20
-57.11
-52.40
-45.53
-37.36
-28.82
-20.71
-13.52
-7.41
-2.26
2.19
6.27
10.26
14.33
18.50
22.59
26.33
29.43
31.74
33.25
34.13
34.63
34.97
35.26
35.57
35.90
36.19
36.34
36.21
35.64
34.51
32.78
30.58
28.13
25.70
23.52
21.74
20.36
19.24
18.19
17.05
15.70
14.17
12.56
10.96
9.44
7.99
6.61
5.26
3.98
2.78
1.66
0.59
-0.49
-1.63
-2.83
-4.02
-5.13
-6.08
-6.88
-7.54
-8.13
-8.71
-9.33
-10.07
-11.02
-12.23
-13.70
-15.33
-16.95
-18.38
-19.53
-20.45
-21.35
-22.54
-24.36
-27.01
-30.46
-34.31
-37.81
-40.01
-40.04
-37.44
-32.30
-25.26
-17.34
-9.55
-2.63
3.08
7.59
11.15
14.02
16.45
18.62
20.62
22.46
24.06
25.27
25.94
26.00
25.53
24.74
23.90
23.28
23.01
23.16
23.63
24.25
24.81
25.07
24.86
24.09
22.77
21.04
19.12
17.15
15.24
13.33
11.33
9.13
6.76
4.35
2.10
0.17
-1.43
-2.83
-4.29
-6.03
-8.17
-10.63
-13.23
-15.77
-18.11
-20.31
-22.55
-25.09
-28.23
-32.17
-36.89
-42.07
-47.08
-51.07
-53.20
-52.90
-50.04
-44.97
-38.39
-31.12
-23.88
-17.21
-11.35
-6.40
-2.28
1.11
3.87
6.10
7.87
9.25
10.33
11.23
12.04
12.87
13.74
14.62
15.47
16.26
17.00
17.75
18.62
19.61
20.64
21.49
21.88
21.55
20.42
18.63
16.49
14.40
12.63
11.23
10.05
8.80
7.24
5.27
2.98
0.57
-1.76
-3.94
-6.00
-8.13
-10.51
-13.28
-16.39
-19.70
-23.02
-26.21
-29.25
-32.26
-35.48
-39.20
-43.66
-48.91
-54.76
-60.61
-65.62
-68.77
-69.20
-66.45
-60.66
-52.50
-43.01
-33.28
-24.13
-16.00
-8.92
-2.68
2.98
8.31
13.45
18.43
23.21
27.67
31.61
34.79
37.05
38.34
38.79
38.70
38.47
38.44
38.76
39.39
40.12
40.68
40.85
40.55
39.81
38.75
37.52
36.26
35.05
33.88
32.72
31.52
30.22
28.81
27.34
25.86
24.40
22.95
21.50
19.99
18.38
16.69
14.93
13.11
11.24
9.33
7.38
5.39
3.34
1.19
-1.10
-3.53
-6.01
-8.43
-10.67
-12.71
-14.61
-16.55
-18.67
-21.09
-23.79
-26.69
-29.68
-32.63
-35.46
-38.18
-40.90
-43.86
-47.34
-51.51
-56.24
-60.97
-64.77
-66.58
-65.57
-61.38
-54.31
-45.15
-34.93
-24.63
-14.99
-6.41
0.96
7.16
12.34
16.72
20.55
24.10
27.57
31.01
34.30
37.24
39.53
41.04
41.77
41.94
41.86
41.86
42.12
42.66
43.34
43.92
44.20
44.04
43.44
42.51
41.40
40.29
39.24
38.20
37.03
35.53
33.58
31.17
28.42
25.47
22.48
19.54
16.69
14.00
11.50
9.21
7.05
4.86
2.43
-0.38
-3.59
-7.04
-10.50
-13.81
-16.94
-20.10
-23.62
-27.86
-32.95
-38.73
-44.65
-49.89
-53.54
-54.81
-53.31
-49.08
-42.70
-35.05
-27.07
-19.48
-12.67
-6.69
-1.40
3.26
7.28
10.46
12.62
13.68
13.81
13.33
12.70
12.26
12.20
12.57
13.28
14.26
15.41
16.66
17.95
19.17
20.15
20.74
20.82
20.33
19.31
17.90
16.25
14.51
12.80
11.20
9.74
8.40
7.09
5.67
4.04
2.15
0.04
-2.19
-4.45
-6.65
-8.82
-11.08
-13.58
-16.47
-19.79
-23.48
-27.31
-30.99
-34.26
-36.99
-39.31
-41.53
-44.10
-47.42
-51.74
-57.08
-63.14
-69.31
-74.68
-78.20
-78.88
-76.14
-69.97
-61.03
-50.41
-39.33
-28.78
-19.27
-10.88
-3.37
3.61
10.27
16.67
22.73
28.23
32.94
36.68
39.35
41.03
41.90
42.25
42.38
42.54
42.92
43.60
44.58
45.72
46.81
47.57
47.70
47.02
45.54
43.48
41.20
39.03
37.23
35.82
34.68
33.62
32.42
31.00
29.36
27.59
25.82
24.10
22.48
20.93
19.40
17.82
16.14
14.34
12.44
10.49
8.57
6.77
5.14
3.68
2.32
0.90
-0.71
-2.61
-4.80
-7.15
-9.53
-11.77
-13.81
-15.70
-17.60
-19.68
-22.10
-24.96
-28.22
-31.76
-35.43
-39.06
-42.58
-46.02
-49.59
-53.55
-58.20
-63.71
-69.91
-76.23
-81.75
-85.32
-85.86
-82.74
-75.97
-66.14
-54.27
-41.52
-28.82
-16.73
-5.47
4.98
14.63
23.44
31.21
37.76
43.01
47.02
49.96
52.04
53.37
54.03
54.11
53.81
53.44
53.36
53.85
54.90
56.30
57.58
58.33
58.27
57.36
55.77
53.84
51.86
49.93
48.05
46.02
43.67
40.96
37.95
34.80
31.67
28.61
25.55
22.37
19.03
15.55
12.12
8.89
5.95
3.25
0.61
-2.18
-5.29
-8.82
-12.70
-16.76
-20.80
-24.60
-28.08
-31.33
-34.64
-38.38
-42.94
-48.52
-55.06
-62.14
-68.97
-74.49
-77.51
-77.05
-72.60
-64.38
-53.29
-40.73
-28.15
-16.64
-6.75
1.54
8.52
14.47
19.50
23.53
26.41
28.12
28.82
28.82
28.49
28.12
27.94
28.04
28.48
29.24
30.28
31.52
32.78
33.87
34.55
34.60
33.87
32.33
30.11
27.45
24.66
22.02
19.68
17.66
15.82
14.01
12.09
10.03
7.81
5.43
2.91
0.21
-2.64
-5.58
-8.53
-11.44
-14.35
-17.34
-20.57
-24.18
-28.23
-32.67
-37.32
-41.92
-46.20
-50.02
-53.43
-56.74
-60.43
-65.05
-70.95
-78.12
-86.01
-93.50
-99.16
-101.54
-99.58
-92.92
-82.02
-68.04
-52.54
-37.05
-22.76
-10.31
0.22
9.18
17.13
24.60
31.89
39.05
45.80
51.71
56.36
59.50
61.15
61.58
61.23
60.57
60.00
59.75
59.89
60.38
61.07
61.73
62.03
61.63
60.28
57.91
54.71
51.10
47.56
44.48
41.96
39.86
37.89
35.72
33.21
30.41
27.50
24.74
22.25
20.06
18.11
16.29
14.55
12.90
11.33
9.80
8.19
6.30
3.91
0.96
-2.45
-6.04
-9.47
-12.49
-15.05
-17.37
-19.79
-22.68
-26.22
-30.37
-34.87
-39.33
-43.44
-47.04
-50.18
-53.11
-56.26
-60.06
-64.85
-70.71
-77.28
-83.70
-88.70
-90.83
-88.94
-82.45
-71.68
-57.75
-42.29
-26.96
-13.05
-1.28
8.27
15.96
22.33
27.90
33.00
37.76
42.11
45.91
48.99
51.33
52.94
54.01
54.74
55.39
56.22
57.45
59.22
61.52
64.20
66.91
69.22
70.69
71.06
70.30
68.55
66.09
63.22
60.09
56.78
53.23
49.41
45.35
41.16
36.98
32.91
29.01
25.24
21.53
17.84
14.24
10.80
7.65
4.76
2.02
-0.81
-3.93
-7.41
-11.17
-15.02
-18.76
-22.36
-25.97
-29.92
-34.62
-40.36
-47.21
-54.89
-62.69
-69.55
-74.22
-75.57
-72.90
-66.22
-56.27
-44.31
-31.77
-19.87
-9.36
-0.54
6.62
12.28
16.57
19.59
21.38
22.08
21.88
21.05
19.93
18.82
17.99
17.64
17.88
18.73
20.08
21.70
23.30
24.56
25.28
25.37
24.85
23.83
22.39
20.58
18.49
16.24
13.97
11.83
9.83
7.90
5.89
3.67
1.22
-1.39
-4.05
-6.73
-9.43
-12.18
-14.95
-17.69
-20.35
-22.95
-25.60
-28.45
-31.55
-34.83
-38.15
-41.36
-44.45
-47.61
-51.21
-55.61
-61.08
-67.54
-74.50
-81.11
-86.22
-88.69
-87.65
-82.71
-74.09
-62.54
-49.20
-35.30
-21.97
-9.98
0.30
8.86
16.04
22.29
27.99
33.39
38.46
43.03
46.81
49.61
51.32
52.00
51.81
50.98
49.85
48.75
47.97
47.69
47.86
48.24
48.43
48.06
46.90
44.97
42.53
39.94
37.55
35.55
33.96
32.61
31.29
29.79
28.00
25.93
23.68
21.35
19.06
16.83
14.64
12.52
10.51
8.71
7.16
5.86
4.68
3.44
1.97
0.20
-1.85
-4.05
-6.28
-8.49
-10.69
-12.94
-15.30
-17.79
-20.41
-23.11
-25.85
-28.58
-31.23
-33.78
-36.22
-38.69
-41.38
-44.56
-48.50
-53.29
-58.81
-64.55
-69.69
-73.22
-74.13
-71.82
-66.16
-57.61
-47.14
-35.87
-24.87
-14.91
-6.31
0.94
7.15
12.69
17.88
22.91
27.77
32.31
36.31
39.53
41.83
43.16
43.65
43.56
43.22
43.00
43.15
43.74
44.66
45.65
46.44
46.79
46.57
45.79
44.57
43.07
41.44
39.80
38.15
36.43
34.54
32.42
30.10
27.68
25.33
23.16
21.23
19.49
17.84
16.19
14.51
12.82
11.17
9.59
8.05
6.45
4.67
2.62
0.29
-2.23
-4.82
-7.32
-9.65
-11.79
-13.88
-16.17
-18.98
-22.60
-27.08
-32.16
-37.21
-41.40
-43.88
-44.05
-41.73
-37.19
-31.02
-23.98
-16.82
-10.16
-4.37
0.40
4.16
7.01
9.05
10.34
10.88
10.68
9.80
8.41
6.75
5.08
3.58
2.36
1.41
0.71
0.19
-0.21
-0.58
-1.03
-1.71
-2.70
-4.05
-5.70
-7.57
-9.53
-11.53
-13.54
-15.52
-17.49
-19.42
-21.30
-23.14
-24.94
-26.72
-28.47
-30.19
-31.89
-33.58
-35.21
-36.71
-38.02
-39.10
-40.05
-41.06
-42.38
-44.26
-46.84
-50.13
-53.87
-57.61
-60.62
-62.12
-61.42
-58.21
-52.65
-45.42
-37.45
-29.66
-22.62
-16.51
-11.10
-6.02
-0.99
4.03
8.83
13.08
16.52
19.05
20.74
21.82
22.53
23.01
23.29
23.38
23.28
23.06
22.85
22.74
22.74
22.73
22.50
21.88
20.77
19.20
17.36
15.42
13.51
11.67
9.87
8.08
6.25
4.41
2.55
0.67
-1.26
-3.27
-5.35
-7.47
-9.58
-11.67
-13.80
-16.06
-18.53
-21.20
-23.96
-26.64
-29.07
-31.19
-33.03
-34.69
-36.40
-38.41
-40.91
-43.97
-47.37
-50.55
-52.68
-52.95
-50.86
-46.41
-40.11
-32.76
-25.15
-17.84
-11.09
-5.00
0.49
5.42
9.90
14.07
18.05
21.86
25.40
28.48
30.89
32.55
33.54
34.04
34.30
34.49
34.78
35.19
35.76
36.38
36.94
37.25
37.16
36.55
35.45
33.97
32.32
30.75
29.45
28.49
27.77
27.11
26.30
25.29
24.14
23.07
22.29
21.90
21.84
21.89
21.78
21.33
20.43
19.14
17.58
15.93
14.34
12.88
11.52
10.11
8.49
6.54
4.28
1.75
-0.90
-3.62
-6.39
-9.32
-12.57
-16.30
-20.58
-25.30
-30.09
-34.30
-37.12
-37.74
-35.74
-31.17
-24.66
-17.19
-9.77
-3.15
2.33
6.69
10.17
13.00
15.26
16.95
18.03
18.49
18.42
17.99
17.37
16.71
16.09
15.51
14.97
14.55
14.30
14.31
14.57
14.97
15.32
15.38
14.97
14.03
12.66
11.06
9.43
7.90
6.41
4.78
2.82
0.43
-2.28
-5.06
-7.59
-9.67
-11.34
-12.87
-14.63
-16.94
-19.84
-23.15
-26.52
-29.63
-32.30
-34.59
-36.72
-39.00
-41.77
-45.28
-49.57
-54.34
-58.89
-62.20
-63.23
-61.23
-56.07
-48.31
-39.02
-29.42
-20.52
-12.84
-6.45
-1.05
3.75
8.27
12.60
16.66
20.24
23.11
25.12
26.31
26.85
27.01
27.09
27.34
27.90
28.77
29.82
30.85
31.64
32.05
32.00
31.52
30.64
29.40
27.82
25.97
24.00
22.06
20.27
18.61
16.95
15.13
13.08
10.88
8.76
7.00
5.75
4.98
4.45
3.80
2.66
0.89
-1.47
-4.12
-6.70
-8.92
-10.70
-12.23
-13.83
-15.85
-18.47
-21.65
-25.16
-28.71
-32.07
-35.12
-37.91
-40.65
-43.62
-47.15
-51.42
-56.35
-61.46
-65.89
-68.61
-68.70
-65.66
-59.58
-51.09
-41.23
-31.10
-21.58
-13.22
-6.16
-0.23
4.95
9.79
14.59
19.46
24.31
28.87
32.81
35.90
38.01
39.20
39.64
39.53
39.12
38.58
38.11
37.84
37.89
38.24
38.77
39.25
39.40
39.05
38.16
36.88
35.44
34.10
32.99
32.16
31.58
31.20
30.97
30.87
30.87
30.96
31.10
31.20
31.18
31.00
30.67
30.23
29.74
29.25
28.72
28.14
27.43
26.54
25.46
24.12
22.47
20.46
18.07
15.34
12.39
9.28
6.06
2.72
-0.79
-4.43
-8.08
-11.51
-14.54
-17.11
-19.34
-21.51
-24.02
-27.23
-31.39
-36.46
-42.09
-47.52
-51.75
-53.75
-52.77
-48.63
-41.79
-33.19
-24.03
-15.37
-7.90
-1.82
3.01
6.90
10.17
12.94
15.19
16.76
17.52
17.47
16.79
15.79
14.77
13.93
13.32
12.91
12.62
12.48
12.57
12.97
13.57
14.12
14.24
13.61
12.12
9.90
7.26
4.59
2.15
0.06
-1.74
-3.37
-5.03
-6.87
-9.00
-11.40
-13.93
-16.37
-18.46
-20.04
-21.15
-22.01
-22.98
-24.34
-26.24
-28.62
-31.27
-33.97
-36.60
-39.17
-41.85
-44.88
-48.50
-52.79
-57.57
-62.34
-66.29
-68.48
-68.11
-64.76
-58.58
-50.24
-40.78
-31.24
-22.43
-14.79
-8.40
-3.03
1.66
5.97
10.14
14.20
18.03
21.41
24.10
26.00
27.14
27.71
27.97
28.18
28.55
29.17
30.12
31.36
32.81
34.31
35.63
36.51
36.75
36.26
35.09
33.41
31.47
29.50
27.63
25.91
24.26
22.58
20.78
18.85
16.90
15.08
13.52
12.26
11.18
10.12
8.83
7.17
5.11
2.73
0.18
-2.38
-4.90
-7.40
-10.03
-12.96
-16.24
-19.85
-23.60
-27.27
-30.65
-33.66
-36.40
-39.10
-42.11
-45.80
-50.44
-56.08
-62.37
-68.53
-73.47
-76.00
-75.26
-70.92
-63.39
-53.62
-42.82
-32.08
-22.16
-13.40
-5.80
0.83
6.77
12.34
17.80
23.29
28.78
33.98
38.52
41.99
44.21
45.24
45.41
45.16
44.89
44.87
45.20
45.87
46.77
47.73
48.57
49.10
49.15
48.64
47.55
45.94
43.94
41.76
39.60
37.64
35.98
34.58
33.35
32.18
30.91
29.44
27.72
25.76
23.64
21.49
19.50
17.78
16.36
15.09
13.77
12.16
10.07
7.48
4.48
1.24
-2.06
-5.26
-8.30
-11.24
-14.28
-17.76
-22.05
-27.37
-33.65
-40.42
-46.81
-51.71
-54.10
-53.29
-49.17
-42.23
-33.45
-23.95
-14.72
-6.43
0.63
6.47
11.23
15.07
18.13
20.53
22.33
23.60
24.37
24.66
24.51
24.03
23.40
22.81
22.41
22.26
22.28
22.34
22.29
21.94
21.20
19.98
18.29
16.20
13.79
11.19
8.50
5.78
2.99
0.09
-2.95
-6.10
-9.29
-12.42
-15.46
-18.43
-21.39
-24.40
-27.48
-30.60
-33.66
-36.56
-39.20
-41.63
-44.02
-46.72
-50.09
-54.39
-59.47
-64.73
-69.12
-71.46
-70.81
-66.83
-59.81
-50.62
-40.38
-30.14
-20.69
-12.43
-5.48
0.29
5.17
9.47
13.49
17.35
21.00
24.26
26.87
28.68
29.70
30.12
30.23
30.32
30.60
31.15
31.97
32.90
33.78
34.34
34.35
33.62
32.12
29.93
27.27
24.37
21.45
18.63
15.98
13.52
11.22
9.03
6.86
4.61
2.20
-0.40
-3.10
-5.71
-8.06
-10.05
-11.77
-13.53
-15.71
-18.61
-22.33
-26.64
-31.10
-35.29
-38.96
-42.20
-45.41
-49.08
-53.67
-59.29
-65.72
-72.31
-78.05
-81.81
-82.50
-79.45
-72.62
-62.63
-50.69
-38.15
-26.22
-15.63
-6.59
1.10
7.82
14.00
19.93
25.73
31.41
36.78
41.61
45.61
48.54
50.31
50.98
50.81
50.14
49.32
48.62
48.19
48.03
48.06
48.09
47.93
47.42
46.46
45.08
43.40
41.54
39.65
37.80
36.01
34.26
32.51
30.76
29.02
27.31
25.67
24.17
22.86
21.75
20.82
19.94
18.95
17.69
16.07
14.13
12.00
9.83
7.73
5.75
3.88
2.07
0.25
-1.62
-3.63
-5.83
-8.28
-10.98
-13.85
-16.76
-19.57
-22.21
-24.74
-27.37
-30.43
-34.24
-39.02
-44.66
-50.70
-56.27
-60.29
-61.66
-59.60
-53.87
-44.90
-33.73
-21.71
-10.19
-0.17
7.92
14.20
19.11
23.24
26.99
30.47
33.58
35.99
37.45
37.88
37.40
36.30
34.91
33.54
32.41
31.63
31.26
31.20
31.34
31.45
31.25
30.51
29.02
26.76
23.85
20.55
17.18
14.00
11.13
8.49
5.86
3.01
-0.20
-3.72
-7.32
-10.74
-13.74
-16.32
-18.65
-21.03
-23.72
-26.84
-30.32
-33.94
-37.47
-40.76
-43.91
-47.18
-50.97
-55.64
-61.31
-67.78
-74.35
-80.00
-83.49
-83.77
-80.28
-73.12
-63.06
-51.30
-39.11
-27.53
-17.15
-8.17
-0.45
6.30
12.35
17.89
23.00
27.65
31.72
35.05
37.52
39.06
39.80
39.96
39.88
39.92
40.35
41.30
42.66
44.16
45.44
46.17
46.17
45.36
43.85
41.78
39.32
36.63
33.87
31.23
28.85
26.83
25.11
23.50
21.73
19.57
16.98
14.10
11.25
8.69
6.63
4.98
3.53
1.97
0.06
-2.35
-5.23
-8.47
-11.89
-15.31
-18.61
-21.77
-24.87
-28.10
-31.71
-35.87
-40.62
-45.83
-51.23
-56.50
-61.41
-65.88
-70.08
-74.37
-79.24
-85.10
-92.12
-99.99
-107.77
-114.06
-117.23
-115.94
-109.51
-98.25
-83.29
-66.33
-49.11
-33.02
-18.84
-6.69
3.80
13.23
22.18
31.00
39.67
47.92
55.27
61.33
65.83
68.77
70.30
70.70
70.34
69.63
68.96
68.66
68.87
69.51
70.25
70.68
70.45
69.39
67.55
65.15
62.45
59.68
57.01
54.51
52.19
50.05
48.05
46.10
44.13
42.08
39.97
37.88
35.97
34.35
33.07
31.99
30.86
29.44
27.60
25.40
23.07
20.89
19.02
17.40
15.84
14.08
11.96
9.43
6.63
3.73
0.87
-1.96
-4.89
-8.18
-12.00
-16.42
-21.29
-26.32
-31.20
-35.68
-39.74
-43.63
-47.76
-52.65
-58.72
-66.15
-74.69
-83.60
-91.60
-97.10
-98.52
-94.75
-85.50
-71.48
-54.21
-35.66
-17.77
-1.96
11.06
21.24
29.02
35.03
39.78
43.55
46.37
48.18
48.94
48.75
47.92
46.83
45.84
45.19
44.96
45.11
45.54
46.12
46.69
47.05
46.99
46.27
44.75
42.33
39.12
35.32
31.21
27.05
23.03
19.23
15.64
12.17
8.69
5.11
1.35
-2.60
-6.64
-10.68
-14.55
-18.17
-21.53
-24.78
-28.14
-31.86
-36.08
-40.77
-45.79
-50.88
-55.86
-60.60
-65.15
-69.73
-74.69
-80.51
-87.61
-96.24
-106.08
-116.13
-124.65
-129.52
-128.82
-121.53
-107.88
-89.37
-68.29
-47.02
-27.37
-10.30
4.03
16.02
26.22
35.16
43.18
50.48
57.09
62.85
67.49
70.71
72.33
72.41
71.33
69.73
68.32
67.68
68.03
69.20
70.70
71.88
72.19
71.36
69.41
66.59
63.23
59.63
56.00
52.48
49.16
46.09
43.22
40.41
37.50
34.34
30.92
27.37
23.89
20.65
17.73
15.09
12.59
10.06
7.38
4.51
1.47
-1.72
-5.05
-8.55
-12.28
-16.31
-20.58
-24.97
-29.28
-33.36
-37.18
-40.89
-44.77
-49.05
-53.87
-59.16
-64.73
-70.31
-75.76
-81.06
-86.43
-92.24
-98.95
-106.96
-116.27
-126.28
-135.58
-142.13
-143.70
-138.57
-126.17
-107.37
-84.29
-59.68
-36.12
-15.44
1.60
15.19
26.13
35.45
44.08
52.68
61.50
70.41
78.97
86.47
92.21
95.64
96.57
95.32
92.62
89.42
86.61
84.71
83.80
83.53
83.33
82.64
81.12
78.71
75.54
71.87
67.91
63.80
59.59
55.30
51.04
46.95
43.21
39.93
37.07
34.45
31.82
29.01
26.01
22.97
20.15
17.73
15.77
14.21
12.87
11.56
10.09
8.30
6.08
3.40
0.31
-3.01
-6.28
-9.29
-11.94
-14.37
-16.84
-19.74
-23.31
-27.56
-32.27
-37.06
-41.61
-45.74
-49.56
-53.39
-57.76
-63.20
-70.10
-78.40
-87.40
-95.68
-101.27
-102.16
-96.95
-85.35
-68.40
-48.14
-27.02
-7.20
9.87
23.62
34.19
42.09
47.94
52.30
55.56
57.88
59.32
59.80
59.35
58.12
56.37
54.42
52.59
51.10
50.09
49.60
49.63
50.03
50.49
50.55
49.71
47.68
44.42
40.19
35.47
30.70
26.16
21.93
17.91
13.91
9.79
5.46
0.93
-3.63
-7.99
-11.95
-15.42
-18.54
-21.63
-25.11
-29.29
-34.22
-39.65
-45.17
-50.34
-54.93
-59.05
-63.10
-67.65
-73.27
-80.32
-88.71
-97.79
-106.33
-112.60
-114.78
-111.51
-102.37
-88.04
-70.19
-50.96
-32.33
-15.62
-1.35
10.64
20.81
29.63
37.34
43.98
49.48
53.73
56.66
58.29
58.73
58.23
57.13
55.88
54.91
54.53
54.86
55.78
57.00
58.12
58.72
58.50
57.23
54.91
51.66
47.81
43.77
39.90
36.45
33.47
30.80
28.18
25.40
22.33
19.02
15.59
12.22
9.08
6.25
3.72
1.32
-1.21
-4.14
-7.59
-11.50
-15.60
-19.56
-23.14
-26.36
-29.50
-32.95
-37.04
-41.80
-46.98
-52.16
-56.92
-61.06
-64.72
-68.28
-72.31
-77.36
-83.83
-91.75
-100.69
-109.62
-116.97
-120.94
-119.93
-113.06
-100.51
-83.56
-64.17
-44.45
-26.09
-10.02
3.59
15.09
25.05
33.97
42.17
49.77
56.71
62.83
67.89
71.67
74.01
74.91
74.61
73.52
72.15
70.91
70.05
69.56
69.24
68.81
68.06
66.86
65.18
63.01
60.34
57.20
53.73
50.15
46.74
43.70
41.02
38.54
36.03
33.33
30.45
27.60
25.05
22.99
21.43
20.21
19.10
17.91
16.54
15.06
13.56
12.15
10.88
9.70
8.49
7.12
5.46
3.48
1.22
-1.21
-3.68
-6.02
-8.11
-9.88
-11.33
-12.60
-13.96
-15.65
-17.85
-20.54
-23.55
-26.61
-29.55
-32.35
-35.27
-38.70
-43.06
-48.62
-55.29
-62.49
-69.11
-73.75
-75.06
-72.19
-65.11
-54.65
-42.21
-29.37
-17.41
-7.05
1.49
8.41
14.05
18.73
22.68
26.04
28.85
31.13
32.82
33.89
34.32
34.13
33.42
32.36
31.21
30.21
29.51
29.13
28.91
28.62
27.98
26.80
24.94
22.39
19.24
15.72
12.10
8.70
5.76
3.30
1.17
-0.92
-3.20
-5.78
-8.57
-11.37
-14.01
-16.41
-18.62
-20.73
-22.85
-25.09
-27.53
-30.22
-33.15
-36.26
-39.41
-42.50
-45.55
-48.72
-52.35
-56.80
-62.21
-68.34
-74.46
-79.44
-82.06
-81.34
-76.88
-69.00
-58.63
-47.04
-35.45
-24.78
-15.46
-7.47
-0.58
5.59
11.36
16.89
22.19
27.08
31.30
34.56
36.71
37.77
37.97
37.60
37.02
36.48
36.15
36.08
36.27
36.64
37.01
37.14
36.76
35.72
34.05
31.99
29.86
27.95
26.38
25.05
23.76
22.28
20.51
18.47
16.28
14.10
12.00
10.01
8.12
6.38
4.84
3.57
2.57
1.76
0.96
-0.06
-1.46
-3.33
-5.62
-8.19
-10.87
-13.49
-15.94
-18.17
-20.24
-22.29
-24.52
-27.10
-30.08
-33.37
-36.79
-40.13
-43.26
-46.18
-48.99
-51.89
-55.17
-59.11
-63.90
-69.43
-75.17
-80.14
-83.09
-82.88
-78.89
-71.32
-61.08
-49.56
-38.11
-27.65
-18.58
-10.82
-4.08
1.99
7.66
13.12
18.43
23.58
28.41
32.64
35.93
38.06
38.98
38.93
38.31
37.65
37.31
37.48
38.10
38.93
39.70
40.12
40.04
39.47
38.52
37.40
36.33
35.48
34.86
34.40
33.97
33.42
32.69
31.81
30.85
29.90
28.94
27.96
26.95
25.91
24.93
24.08
23.40
22.81
22.15
21.27
20.10
18.69
17.16
15.65
14.19
12.74
11.25
9.69
8.06
6.38
4.59
2.54
0.05
-2.96
-6.43
-10.10
-13.66
-16.95
-19.97
-23.01
-26.41
-30.52
-35.50
-41.27
-47.44
-53.21
-57.54
-59.32
-57.76
-52.70
-44.78
-35.25
-25.54
-16.79
-9.58
-3.92
0.54
4.14
7.10
9.49
11.32
12.62
13.41
13.73
13.59
13.05
12.24
11.39
10.81
10.69
11.11
11.89
12.80
13.58
14.03
14.06
13.63
12.74
11.44
9.82
8.03
6.23
4.56
3.05
1.66
0.29
-1.17
-2.79
-4.60
-6.55
-8.58
-10.53
-12.28
-13.73
-14.87
-15.83
-16.83
-18.08
-19.76
-21.89
-24.36
-27.05
-29.80
-32.54
-35.28
-38.06
-40.98
-44.21
-47.90
-52.26
-57.28
-62.69
-67.81
-71.64
-73.14
-71.51
-66.51
-58.56
-48.61
-37.81
-27.29
-17.81
-9.77
-3.17
2.28
7.07
11.68
16.46
21.47
26.43
30.88
34.38
36.73
38.02
38.61
38.90
39.12
39.36
39.52
39.55
39.52
39.51
39.65
39.88
40.03
39.83
39.08
37.71
35.83
33.67
31.47
29.43
27.65
26.13
24.82
23.63
22.46
21.26
20.04
18.84
17.66
16.46
15.17
13.67
11.97
10.15
8.34
6.68
5.23
3.95
2.68
1.29
-0.35
-2.23
-4.28
-6.38
-8.38
-10.17
-11.77
-13.27
-14.84
-16.68
-18.98
-21.77
-24.98
-28.41
-31.80
-34.92
-37.69
-40.14
-42.55
-45.24
-48.57
-52.75
-57.68
-62.81
-67.25
-69.83
-69.53
-65.75
-58.58
-48.73
-37.40
-25.89
-15.26
-6.14
1.32
7.35
12.41
16.97
21.36
25.68
29.80
33.52
36.61
38.94
40.52
41.42
41.70
41.47
40.84
40.06
39.40
39.15
39.45
40.22
41.15
41.85
41.98
41.40
40.17
38.54
36.76
35.05
33.50
32.10
30.78
29.50
28.20
26.84
25.38
23.73
21.83
19.64
17.18
14.53
11.84
9.25
6.88
4.71
2.62
0.38
-2.21
-5.23
-8.59
-12.00
-15.16
-17.88
-20.23
-22.48
-25.03
-28.23
-32.27
-37.14
-42.55
-47.94
-52.57
-55.56
-56.13
-53.77
-48.53
-40.98
-32.13
-23.11
-14.85
-7.85
-2.17
2.43
6.29
9.63
12.50
14.79
16.38
17.24
17.50
17.39
17.20
17.16
17.36
17.82
18.52
19.40
20.44
21.56
22.64
23.47
23.83
23.56
22.65
21.29
19.77
18.38
17.28
16.45
15.71
14.80
13.53
11.86
9.94
7.98
6.22
4.77
3.59
2.51
1.28
-0.26
-2.17
-4.32
-6.47
-8.39
-9.99
-11.41
-12.92
-14.84
-17.34
-20.39
-23.76
-27.13
-30.25
-33.00
-35.37
-37.50
-39.63
-42.12
-45.37
-49.64
-54.83
-60.26
-64.76
-66.98
-65.88
-61.13
-53.28
-43.55
-33.32
-23.78
-15.57
-8.79
-3.18
1.64
6.04
10.28
14.53
18.86
23.20
27.33
30.96
33.75
35.50
36.24
36.20
35.74
35.19
34.77
34.52
34.43
34.46
34.60
34.81
34.96
34.82
34.18
32.98
31.33
29.48
27.68
26.03
24.48
22.90
21.23
19.52
17.92
16.56
15.47
14.60
13.85
13.10
12.31
11.43
10.47
9.46
8.47
7.65
7.15
7.08
7.41
8.00
8.57
8.80
8.39
7.25
5.49
3.46
1.62
0.35
-0.25
-0.41
-0.57
-1.13
-2.32
-4.09
-6.20
-8.41
-10.56
-12.74
-15.15
-18.04
-21.64
-26.00
-30.99
-36.12
-40.60
-43.48
-43.90
-41.42
-36.18
-28.89
-20.51
-11.99
-4.02
3.02
8.95
13.68
17.10
19.30
20.56
21.35
22.22
23.44
24.92
26.25
26.93
26.72
25.72
24.38
23.17
22.39
22.06
22.00
21.99
21.89
21.67
21.28
20.67
19.72
18.35
16.58
14.58
12.58
10.77
9.23
7.88
6.57
5.13
3.47
1.59
-0.42
-2.44
-4.33
-6.02
-7.52
-8.96
-10.50
-12.34
-14.61
-17.35
-20.44
-23.69
-26.87
-29.79
-32.42
-34.89
-37.47
-40.51
-44.29
-48.87
-53.99
-58.98
-62.91
-64.79
-63.92
-60.06
-53.60
-45.39
-36.52
-28.00
-20.47
-14.25
-9.24
-5.18
-1.72
1.45
4.55
7.64
10.62
13.32
15.52
17.14
18.26
19.10
19.92
20.89
22.07
23.36
24.65
25.81
26.76
27.42
27.67
27.40
26.59
25.31
23.74
22.09
20.49
19.00
17.58
16.19
14.80
13.41
12.03
10.67
9.34
8.04
6.80
5.66
4.65
3.71
2.76
1.66
0.28
-1.42
-3.41
-5.55
-7.68
-9.67
-11.52
-13.32
-15.24
-17.42
-19.91
-22.60
-25.30
-27.81
-30.02
-31.95
-33.76
-35.68
-37.90
-40.64
-44.05
-48.19
-52.97
-57.98
-62.49
-65.49
-65.98
-63.32
-57.56
-49.46
-40.21
-31.05
-22.86
-15.98
-10.26
-5.34
-0.85
3.51
7.90
12.42
17.08
21.74
26.08
29.75
32.39
33.93
34.56
34.69
34.74
35.04
35.68
36.57
37.45
38.12
38.40
38.23
37.61
36.63
35.42
34.11
32.76
31.44
30.13
28.81
27.48
26.16
24.92
23.85
23.00
22.38
21.89
21.38
20.71
19.82
18.79
17.79
17.01
16.56
16.40
16.39
16.42
16.44
16.51
16.66
16.89
17.04
16.92
16.38
15.39
14.09
12.70
11.43
10.36
9.43
8.42
7.11
5.35
3.14
0.58
-2.14
-4.84
-7.43
-9.91
-12.35
-14.87
-17.69
-21.06
-25.23
-30.30
-36.03
-41.75
-46.44
-48.97
-48.49
-44.80
-38.40
-30.40
-22.07
-14.47
-8.20
-3.34
0.42
3.47
6.18
8.75
11.25
13.63
15.73
17.35
18.24
18.27
17.52
16.24
14.86
13.80
13.35
13.50
14.04
14.58
14.76
14.34
13.25
11.60
9.59
7.42
5.26
3.23
1.39
-0.29
-1.85
-3.44
-5.19
-7.14
-9.29
-11.48
-13.48
-15.05
-16.08
-16.60
-16.81
-16.99
-17.44
-18.30
-19.54
-21.01
-22.58
-24.21
-25.98
-28.04
-30.45
-33.25
-36.40
-39.95
-44.00
-48.57
-53.44
-57.98
-61.22
-62.20
-60.26
-55.37
-48.11
-39.44
-30.35
-21.61
-13.70
-6.81
-0.96
3.99
8.23
12.01
15.54
18.95
22.23
25.23
27.74
29.61
30.77
31.28
31.37
31.28
31.31
31.61
32.22
33.04
33.81
34.31
34.33
33.87
33.01
31.89
30.64
29.29
27.89
26.46
25.13
23.96
23.01
22.13
21.10
19.68
17.78
15.51
13.14
11.02
9.33
8.05
6.95
5.74
4.16
2.11
-0.39
-3.16
-5.94
-8.55
-10.87
-12.95
-14.94
-17.08
-19.56
-22.48
-25.77
-29.27
-32.82
-36.25
-39.57
-42.89
-46.43
-50.41
-55.01
-60.22
-65.75
-71.02
-75.14
-77.20
-76.46
-72.66
-66.05
-57.41
-47.77
-38.06
-28.99
-20.90
-13.81
-7.54
-1.84
3.57
8.95
14.39
19.84
25.06
29.72
33.50
36.26
38.03
39.03
39.55
39.87
40.24
40.82
41.69
42.85
44.18
45.45
46.34
46.59
46.08
44.88
43.24
41.55
40.10
39.07
38.41
37.94
37.41
36.61
35.46
34.02
32.45
30.91
29.52
28.35
27.29
26.24
24.99
23.41
21.43
19.14
16.69
14.29
12.06
10.01
8.02
5.88
3.39
0.46
-2.87
-6.45
-10.07
-13.59
-16.95
-20.28
-23.80
-27.85
-32.73
-38.61
-45.31
-52.24
-58.40
-62.61
-63.86
-61.60
-55.96
-47.70
-37.97
-27.93
-18.48
-10.10
-2.90
3.25
8.53
13.06
16.82
19.68
21.54
22.43
22.57
22.33
22.06
22.00
22.18
22.53
22.91
23.28
23.64
24.01
24.36
24.55
24.35
23.60
22.26
20.41
18.25
16.00
13.85
11.86
9.99
8.09
5.99
3.61
0.98
-1.75
-4.35
-6.64
-8.60
-10.38
-12.25
-14.47
-17.24
-20.60
-24.45
-28.58
-32.80
-36.94
-40.90
-44.68
-48.38
-52.29
-56.79
-62.25
-68.79
-76.03
-83.00
-88.31
-90.53
-88.66
-82.57
-72.96
-61.16
-48.66
-36.67
-25.91
-16.53
-8.31
-0.82
6.36
13.58
20.94
28.35
35.46
41.80
46.99
50.89
53.62
55.59
57.32
59.26
61.67
64.49
67.38
69.74
70.99
70.70
68.84
65.75
62.05
58.33
55.01
52.19
49.75
47.53
45.42
43.39
41.45
39.55
37.53
35.28
32.79
30.17
27.64
25.39
23.51
21.97
20.58
19.19
17.66
15.96
14.13
12.32
10.64
9.14
7.77
6.39
4.83
2.92
0.60
-2.07
-4.92
-7.78
-10.50
-13.07
-15.60
-18.25
-21.17
-24.39
-27.85
-31.34
-34.65
-37.61
-40.19
-42.55
-45.01
-48.02
-52.01
-57.25
-63.63
-70.50
-76.79
-81.06
-82.03
-78.81
-71.28
-60.09
-46.51
-32.03
-17.99
-5.35
5.49
14.58
22.29
29.08
35.36
41.34
46.99
52.09
56.37
59.55
61.48
62.09
61.49
59.89
57.72
55.47
53.69
52.71
52.59
53.03
53.52
53.54
52.76
51.15
48.87
46.18
43.27
40.23
37.04
33.67
30.08
26.27
22.28
18.17
14.02
9.91
5.91
2.08
-1.58
-5.13
-8.64
-12.21
-15.91
-19.72
-23.57
-27.33
-30.89
-34.25
-37.53
-41.02
-45.06
-49.88
-55.45
-61.34
-66.73
-70.57
-71.75
-69.42
-63.18
-53.19
-40.20
-25.34
-9.87
5.07
18.68
30.62
40.95
50.00
58.20
65.92
73.30
80.28
86.65
92.16
96.66
100.22
103.09
105.69
108.61
112.61
118.68
127.62
139.49
152.91
164.92
171.48
168.79
154.61
129.11
94.76
55.30
14.52
-24.78
-60.89
-92.83
-119.79
-140.84
-155.13
-162.43
-163.40
-159.38
-151.95
-142.35
-131.36
-119.57
-107.74
-97.19
-89.52
-86.05
-87.04
-91.28
-96.44
-100.00
-100.27
-97.20
-92.29
-87.96
-86.46
-89.01
-95.39
-104.09
-112.90
-119.52
-122.21
-120.06
-112.99
-101.54
-86.70
-69.68
-51.86
-34.58
-19.02
-5.79
5.31
15.40
26.16
39.20
55.30
74.03
93.72
112.06
126.71
136.04
139.40
137.22
130.85
122.16
113.12
105.23
99.25
95.02
91.80
88.85
85.90
83.26
81.44
80.78
80.96
81.31
80.96
79.30
76.02
71.03
64.39
56.28
47.09
37.42
27.84
18.73
10.08
1.64
-6.87
-15.51
-24.07
-32.24
-39.79
-46.54
-52.28
-56.62
-59.11
-59.40
-57.50
-53.76
-48.60
-42.28
-34.77
-25.91
-15.84
-5.16
5.08
13.93
20.92
26.27
30.70
34.89
39.07
42.77
45.08
45.04
42.17
36.74
29.68
22.29
15.68
10.35
5.86
0.92
-6.27
-17.38
-33.29
-53.47
-75.78
-96.86
-113.10
-121.80
-122.04
-115.05
-103.74
-91.70
-81.89
-75.74
-72.95
-72.06
-71.33
-69.44
-65.81
-60.37
-53.55
-45.72
-37.01
-27.53
-17.66
-8.10
0.24
6.79
11.68
15.20
18.24
21.98
27.34
34.36
42.06
48.92
53.85
56.62
56.67
54.21
50.34
46.56
43.94
42.55
41.63
40.29
37.96
32.49
22.62
8.88
-6.75
-22.22
-36.60
-50.53
-64.90
-80.05
-98.00
-119.35
-142.41
-164.19
-182.25
-196.00
-207.41
-218.29
-213.11
-181.86
-125.93
-57.69
8.72
65.31
109.79
141.11
159.87
168.03
166.16
156.22
142.19
127.83
116.01
107.29
98.33
85.93
67.74
40.78
4.02
-40.17
-87.46
-131.29
-152.82
-142.35
-100.57
-38.86
23.94
67.52
88.02
88.14
75.44
58.80
42.97
29.25
18.71
10.45
3.72
-0.61
-2.09
-0.37
4.03
8.08
8.83
4.90
-3.50
-14.37
-24.60
-32.34
-37.03
-39.26
-41.07
-43.85
-47.59
-51.09
-52.40
-49.64
-42.67
-32.54
-21.09
-10.75
-3.28
0.80
1.98
1.58
1.24
1.89
3.89
6.95
10.25
12.92
14.45
14.68
13.94
12.87
12.11
12.18
13.32
15.46
18.29
21.38
24.39
27.15
29.69
32.10
34.37
36.42
38.02
38.99
39.24
38.81
37.84
36.48
34.83
32.87
30.55
27.85
24.79
21.50
18.17
15.01
12.13
9.56
7.21
4.94
2.57
-0.02
-2.94
-6.19
-9.73
-13.43
-17.12
-20.61
-23.81
-26.76
-29.67
-32.87
-36.73
-41.49
-47.10
-53.09
-58.57
-62.42
-63.57
-61.36
-55.81
-47.63
-38.01
-28.31
-19.58
-12.40
-6.79
-2.38
1.36
4.86
8.42
12.07
15.76
19.35
22.64
25.39
27.35
28.28
28.13
27.08
25.57
24.21
23.49
23.66
24.60
25.94
27.21
28.06
28.38
28.27
27.89
27.41
26.90
26.36
25.78
25.10
24.29
23.29
22.08
20.69
19.20
17.78
16.57
15.62
14.80
13.87
12.53
10.62
8.17
5.49
2.96
0.89
-0.70
-2.10
-3.80
-6.20
-9.39
-13.07
-16.68
-19.66
-21.76
-23.13
-24.25
-25.65
-27.85
-31.10
-35.49
-40.92
-47.00
-52.79
-56.79
-57.24
-52.84
-43.55
-30.90
-17.50
-6.05
1.79
6.00
7.86
9.05
10.75
13.13
15.67
17.65
18.82
19.42
19.91
20.49
20.99
21.00
20.25
18.86
17.35
16.39
16.50
17.73
19.67
21.59
22.79
22.84
21.76
19.98
18.06
16.50
15.45
14.79
14.16
13.21
11.71
9.66
7.24
4.70
2.34
0.31
-1.34
-2.74
-4.11
-5.71
-7.74
-10.20
-12.93
-15.65
-18.13
-20.33
-22.42
-24.72
-27.57
-31.16
-35.40
-39.86
-43.81
-46.31
-46.42
-43.47
-37.38
-28.73
-18.71
-8.72
0.05
6.95
11.95
15.46
18.05
20.15
21.99
23.64
25.04
26.19
27.06
27.62
27.83
27.68
27.20
26.50
25.80
25.31
25.23
25.69
26.61
27.77
28.76
29.20
28.82
27.61
25.81
23.79
21.86
20.18
18.72
17.39
16.12
14.90
13.73
12.61
11.46
10.19
8.73
7.04
5.16
3.17
1.19
-0.63
-2.16
-3.32
-4.18
-4.97
-5.94
-7.29
-9.08
-11.20
-13.44
-15.64
-17.74
-19.76
-21.77
-23.88
-26.20
-28.88
-32.12
-35.94
-40.04
-43.73
-46.03
-45.99
-43.06
-37.39
-29.71
-21.12
-12.69
-5.20
1.02
5.92
9.63
12.34
14.27
15.69
16.90
18.12
19.47
20.88
22.12
22.98
23.33
23.21
22.77
22.24
21.79
21.52
21.44
21.47
21.51
21.43
21.14
20.56
19.70
18.62
17.46
16.30
15.23
14.22
13.21
12.15
11.02
9.84
8.71
7.72
6.95
6.40
5.98
5.54
4.91
3.98
2.80
1.49
0.22
-0.94
-2.06
-3.30
-4.84
-6.70
-8.73
-10.70
-12.39
-13.82
-15.14
-16.69
-18.76
-21.53
-24.93
-28.68
-32.25
-34.95
-36.06
-34.96
-31.31
-25.22
-17.28
-8.49
-0.02
7.15
12.45
15.91
18.02
19.45
20.74
22.05
23.18
23.78
23.55
22.51
20.96
19.36
18.13
17.49
17.46
17.85
18.37
18.76
18.84
18.47
17.63
16.36
14.76
12.96
11.10
9.32
7.69
6.18
4.70
3.14
1.40
-0.56
-2.73
-5.09
-7.59
-10.17
-12.74
-15.22
-17.51
-19.56
-21.39
-23.06
-24.66
-26.32
-28.18
-30.39
-33.15
-36.53
-40.46
-44.59
-48.26
-50.65
-50.91
-48.54
-43.51
-36.39
-28.19
-20.05
-12.92
-7.30
-3.13
-0.06
2.40
4.60
6.68
8.64
10.43
12.04
13.46
14.62
15.39
15.63
15.39
14.88
14.47
14.54
15.21
16.34
17.58
18.54
18.98
18.87
18.35
17.60
16.80
16.04
15.40
14.90
14.52
14.18
13.71
12.93
11.73
10.13
8.30
6.48
4.88
3.61
2.63
1.84
1.01
-0.01
-1.36
-3.06
-5.04
-7.13
-9.17
-11.02
-12.68
-14.30
-16.05
-18.16
-20.80
-24.04
-27.89
-32.24
-36.74
-40.72
-43.29
-43.62
-41.41
-37.13
-31.84
-26.79
-22.76
-19.83
-17.45
-14.94
-11.91
-8.49
-5.09
-2.01
0.73
3.47
6.51
9.88
13.23
16.00
17.76
18.39
18.13
17.42
16.77
16.54
16.85
17.65
18.72
19.81
20.68
21.22
21.42
21.36
21.14
20.78
20.29
19.61
18.73
17.68
16.57
15.51
14.57
13.80
13.16
12.60
12.09
11.58
11.00
10.30
9.44
8.42
7.33
6.33
5.55
5.00
4.59
4.08
3.28
2.08
0.56
-1.06
-2.53
-3.76
-4.79
-5.83
-7.18
-9.07
-11.66
-14.92
-18.62
-22.27
-25.19
-26.59
-25.82
-22.59
-17.10
-10.00
-2.19
5.47
12.30
17.88
22.08
24.98
26.77
27.78
28.36
28.78
29.13
29.34
29.21
28.60
27.50
26.14
24.80
23.72
22.97
22.45
21.96
21.30
20.36
19.15
17.74
16.23
14.68
13.04
11.23
9.15
6.75
4.08
1.23
-1.68
-4.51
-7.20
-9.68
-11.95
-14.02
-15.95
-17.83
-19.70
-21.65
-23.70
-25.77
-27.80
-29.71
-31.55
-33.49
-35.86
-38.96
-42.92
-47.55
-52.21
-56.02
-58.00
-57.45
-54.15
-48.46
-41.17
-33.28
-25.71
-19.01
-13.44
-8.94
-5.26
-2.10
0.80
3.67
6.62
9.61
12.49
14.98
16.86
17.99
18.45
18.50
18.47
18.70
19.34
20.44
21.89
23.46
24.87
25.82
26.09
25.63
24.56
23.17
21.75
20.50
19.47
18.54
17.58
16.51
15.37
14.21
13.05
11.82
10.39
8.65
6.59
4.33
2.06
-0.04
-1.90
-3.59
-5.28
-7.14
-9.27
-11.70
-14.34
-17.08
-19.80
-22.42
-24.87
-27.12
-29.14
-31.05
-33.01
-35.35
-38.32
-42.03
-46.18
-50.03
-52.56
-52.75
-49.96
-44.21
-36.22
-27.16
-18.26
-10.42
-4.03
1.00
5.03
8.49
11.70
14.82
17.91
20.89
23.65
26.02
27.86
29.08
29.72
29.94
29.95
29.97
30.18
30.66
31.43
32.40
33.38
34.08
34.20
33.51
32.01
29.97
27.81
25.94
24.56
23.61
22.82
21.89
20.58
18.88
16.93
15.00
13.37
12.20
11.53
11.26
11.21
11.12
10.82
10.21
9.33
8.32
7.35
6.54
5.90
5.28
4.48
3.33
1.74
-0.14
-2.04
-3.65
-4.78
-5.45
-5.90
-6.52
-7.67
-9.66
-12.55
-16.18
-20.10
-23.57
-25.74
-25.85
-23.47
-18.71
-12.17
-4.79
2.42
8.68
13.55
17.00
19.28
20.79
21.92
22.90
23.78
24.45
24.74
24.53
23.85
22.88
21.87
21.04
20.49
20.22
20.08
19.95
19.68
19.16
18.32
17.14
15.68
14.03
12.33
10.68
9.12
7.56
5.90
4.07
2.06
-0.03
-2.08
-3.98
-5.73
-7.46
-9.35
-11.53
-14.05
-16.80
-19.61
-22.26
-24.60
-26.63
-28.44
-30.27
-32.43
-35.18
-38.69
-42.81
-47.08
-50.74
-52.97
-53.05
-50.65
-45.93
-39.48
-32.16
-24.80
-18.08
-12.38
-7.75
-4.05
-1.03
1.54
3.81
5.84
7.58
8.97
9.99
10.69
11.19
11.62
12.13
12.83
13.73
14.80
15.97
17.16
18.36
19.54
20.68
21.70
22.44
22.73
22.47
21.76
20.82
20.03
19.70
19.95
20.66
21.54
22.25
22.64
22.74
22.72
22.78
23.04
23.52
24.43
26.10
28.94
33.09
37.99
42.25
43.94
41.18
32.97
19.57
2.35
-16.84
-36.41
-55.38
-73.21
-89.26
-102.48
-111.47
-115.28
-114.11
-109.61
-104.24
-100.07
-97.68
-95.81
-92.12
-84.50
-72.27
-56.58
-39.72
-24.07
-11.08
-1.04
6.53
12.20
16.21
18.54
19.27
19.01
18.86
20.07
23.40
28.83
35.40
41.68
46.32
48.55
48.47
46.85
44.80
43.23
42.56
42.71
43.37
44.23
45.24
46.59
48.46
50.85
53.46
55.81
57.47
58.20
58.06
57.25
56.09
54.75
53.28
51.56
49.25
45.90
41.06
34.54
26.60
17.97
9.64
2.53
-2.77
-6.05
-7.36
-6.71
-4.03
0.69
7.17
14.65
21.94
27.77
31.28
32.38
31.83
30.90
30.94
32.90
37.05
42.96
49.86
57.12
64.58
72.67
82.14
93.52
106.84
121.49
136.53
151.00
164.11
175.10
182.96
186.40
184.13
175.50
161.06
142.70
123.20
105.32
90.93
80.63
73.88
69.62
66.88
65.21
64.68
65.66
68.39
72.73
78.13
83.60
88.16
91.07
92.21
92.04
91.44
91.26
91.82
92.71
92.82
90.78
85.51
76.59
64.44
49.79
33.29
14.96
-5.97
-30.75
-60.87
-97.93
-143.65
-199.57
-266.02
-340.64
-417.37
-486.86
-538.79
-565.40
-564.52
-540.46
-502.19
-459.80
-420.71
-388.15
-361.58
-338.76
-317.71
-297.32
-276.66
-253.97
-226.69
-192.74
-152.37
-109.08
-68.68
-37.18
-17.89
-9.93
-8.81
-8.66
-5.01
3.46
14.97
26.17
34.15
37.86
38.19
37.08
36.29
36.66
37.97
39.51
40.61
41.04
41.07
41.06
41.15
41.16
40.75
39.77
38.38
37.09
36.35
36.31
36.62
36.59
35.58
33.30
29.91
25.94
22.08
18.88
16.73
15.72
15.73
16.43
17.31
17.81
17.43
15.94
13.45
10.36
7.15
4.14
1.39
-1.29
-4.24
-7.73
-11.95
-16.94
-22.60
-28.68
-34.89
-40.89
-46.58
-52.16
-58.24
-65.57
-74.63
-85.13
-95.81
-104.66
-109.49
-108.73
-102.03
-90.44
-76.11
-61.47
-48.66
-38.77
-31.80
-26.83
-22.48
-17.26
-9.88
0.44
13.55
28.21
42.24
53.10
58.97
59.48
55.97
50.92
46.81
45.12
45.98
48.49
51.58
54.67
57.81
61.26
64.94
68.11
69.60
68.30
63.80
56.63
48.05
39.76
33.02
28.36
25.39
23.20
20.86
18.01
15.03
12.81
12.20
13.43
15.95
18.65
20.33
20.28
18.41
15.23
11.45
7.62
3.96
0.38
-3.29
-7.19
-11.34
-15.73
-20.42
-25.55
-31.13
-36.99
-42.69
-47.66
-51.57
-54.54
-57.10
-60.14
-64.41
-70.20
-77.26
-84.63
-90.53
-92.54
-88.14
-75.66
-55.25
-29.29
-1.95
22.32
40.50
52.12
58.89
63.43
67.71
72.14
75.93
77.94
77.80
76.20
74.60
74.16
75.10
76.76
78.21
78.97
79.20
79.57
80.95
84.23
89.48
95.84
101.90
106.48
109.04
109.71
109.06
107.87
107.80
109.81
113.68
118.25
122.14
124.31
124.16
121.64
117.28
113.55
112.37
114.22
118.35
123.82
130.22
137.78
146.96
158.01
172.34
189.44
206.41
219.28
225.31
224.30
218.21
210.08
189.94
155.40
112.68
72.70
43.14
25.60
17.90
16.82
19.65
24.49
32.09
43.20
56.97
70.99
82.52
89.31
89.67
82.09
67.82
49.19
27.78
3.45
-25.26
-59.84
-101.09
-149.33
-204.58
-266.51
-333.04
-400.41
-463.09
-514.29
-547.34
-557.83
-545.54
-514.51
-471.26
-422.02
-371.19
-321.30
-273.92
-230.62
-193.23
-163.28
-141.08
-125.26
-113.47
-103.70
-95.25
-88.54
-84.25
-82.38
-81.72
-80.38
-76.46
-68.69
-56.53
-40.24
-20.88
-0.53
17.94
31.52
38.21
37.88
32.46
25.08
18.68
14.87
13.54
13.37
12.88
11.18
8.07
3.72
-1.72
-8.37
-16.44
-25.71
-35.33
-43.90
-49.73
-51.38
-48.19
-40.45
-29.36
-16.49
-3.07
10.57
24.90
40.52
57.21
73.55
87.28
96.38
100.18
99.76
97.40
95.39
94.88
95.65
96.49
96.29
94.73
92.37
90.19
88.88
88.48
88.47
88.18
87.18
85.39
83.03
80.51
78.09
75.80
73.39
70.56
67.11
63.14
58.98
55.06
51.71
48.90
46.38
43.81
40.93
37.82
34.71
32.00
29.93
28.53
27.59
26.73
25.72
24.43
22.92
21.33
19.66
17.93
16.19
14.67
13.70
13.33
13.04
11.70
7.99
1.07
-8.91
-20.83
-33.12
-44.49
-54.35
-62.63
-69.24
-73.58
-74.47
-70.75
-61.97
-48.88
-33.34
-17.59
-3.53
7.90
16.71
23.48
28.98
33.61
37.37
40.04
41.36
41.32
40.26
38.74
37.35
36.54
36.49
37.09
38.08
39.17
40.14
40.94
41.63
42.24
42.78
43.04
42.70
41.46
39.20
36.07
32.56
29.26
26.59
24.68
23.13
21.36
18.80
15.26
11.02
6.72
3.03
0.34
-1.49
-3.03
-5.08
-8.32
-13.01
-18.86
-25.16
-31.03
-35.77
-39.15
-41.58
-43.95
-47.27
-52.48
-59.91
-69.21
-79.30
-88.42
-94.32
-94.62
-87.52
-72.65
-51.63
-27.92
-5.83
11.05
21.13
25.21
25.86
25.91
27.28
30.36
34.46
38.57
42.16
45.25
48.09
50.70
52.68
53.48
52.78
50.88
48.60
46.88
46.55
47.76
50.06
52.54
54.19
54.36
52.93
50.38
47.45
44.86
42.97
41.72
40.73
39.60
38.05
36.06
33.76
31.32
28.84
26.34
23.79
21.20
18.68
16.34
14.32
12.62
11.17
9.81
8.36
6.69
4.77
2.73
0.71
-1.16
-2.90
-4.62
-6.52
-8.81
-11.59
-14.84
-18.41
-22.09
-25.67
-29.03
-32.23
-35.42
-38.89
-42.93
-47.73
-53.26
-59.14
-64.54
-68.34
-69.33
-66.63
-60.03
-50.12
-38.22
-25.93
-14.68
-5.39
1.70
6.86
10.65
13.69
16.45
19.18
21.96
24.68
27.11
28.97
30.04
30.25
29.68
28.56
27.28
26.20
25.63
25.70
26.29
27.16
27.98
28.48
28.56
28.20
27.46
26.33
24.83
23.01
21.02
19.11
17.45
16.07
14.84
13.53
12.00
10.26
8.45
6.72
5.16
3.70
2.25
0.72
-0.89
-2.58
-4.34
-6.22
-8.24
-10.36
-12.44
-14.32
-15.91
-17.36
-18.94
-21.04
-24.02
-27.99
-32.78
-37.79
-42.11
-44.70
-44.65
-41.51
-35.50
-27.49
-18.71
-10.39
-3.37
2.04
5.99
8.83
10.90
12.36
13.23
13.46
13.07
12.18
11.02
9.89
9.07
8.77
9.06
9.89
11.10
12.51
13.91
15.18
16.22
16.93
17.15
16.73
15.61
13.86
11.76
9.65
7.88
6.61
5.78
5.15
4.39
3.21
1.49
-0.69
-3.12
-5.51
-7.59
-9.25
-10.56
-11.80
-13.32
-15.41
-18.08
-21.10
-24.04
-26.47
-28.18
-29.26
-30.14
-31.34
-33.42
-36.75
-41.40
-47.07
-52.99
-57.92
-60.34
-58.85
-52.82
-42.75
-30.34
-17.93
-7.63
-0.58
3.34
5.22
6.34
7.55
9.10
10.75
12.26
13.59
14.99
16.65
18.54
20.36
21.68
22.23
22.07
21.54
21.11
21.21
22.01
23.39
25.00
26.37
27.07
26.88
25.87
24.30
22.58
20.99
19.64
18.46
17.32
16.09
14.75
13.34
11.90
10.45
9.01
7.58
6.22
4.93
3.68
2.43
1.14
-0.19
-1.46
-2.55
-3.42
-4.18
-4.99
-6.12
-7.68
-9.69
-12.03
-14.51
-16.91
-19.04
-20.81
-22.27
-23.59
-25.08
-27.03
-29.65
-32.97
-36.70
-40.31
-42.97
-43.83
-42.15
-37.63
-30.51
-21.63
-12.19
-3.39
3.88
9.26
12.89
15.24
16.91
18.42
20.10
22.09
24.29
26.48
28.34
29.57
30.03
29.79
29.10
28.38
28.02
28.30
29.25
30.72
32.34
33.73
34.53
34.58
33.89
32.64
31.06
29.33
27.55
25.76
23.96
22.19
20.50
18.91
17.41
15.95
14.44
12.81
11.02
9.04
6.82
4.35
1.58
-1.47
-4.78
-8.25
-11.82
-15.46
-19.18
-23.08
-27.28
-31.80
-36.47
-40.82
-44.15
-45.71
-44.91
-41.60
-36.17
-29.44
-22.36
-15.82
-10.26
-5.79
-2.22
0.72
3.20
5.19
6.59
7.29
7.33
6.93
6.44
6.21
6.40
7.00
7.79
8.56
9.19
9.70
10.16
10.61
10.96
11.04
10.63
9.65
8.19
6.44
4.59
2.77
1.01
-0.79
-2.73
-4.85
-7.13
-9.51
-11.91
-14.28
-16.57
-18.79
-20.90
-22.92
-24.88
-26.82
-28.78
-30.76
-32.79
-34.90
-37.28
-40.17
-43.77
-48.00
-52.39
-56.05
-57.92
-57.15
-53.37
-46.91
-38.57
-29.43
-20.48
-12.42
-5.58
-0.01
4.45
8.13
11.38
14.53
17.74
21.00
24.11
26.80
28.86
30.19
30.84
30.94
30.71
30.34
30.05
29.96
30.13
30.47
30.76
30.75
30.28
29.33
28.06
26.70
25.49
24.48
23.59
22.62
21.37
19.76
17.85
15.83
13.86
12.06
10.45
8.91
7.34
5.69
3.96
2.25
0.67
-0.75
-2.05
-3.42
-5.09
-7.23
-9.89
-12.96
-16.18
-19.27
-22.02
-24.41
-26.59
-28.85
-31.52
-34.91
-39.08
-43.85
-48.60
-52.46
-54.44
-53.76
-50.14
-43.90
-35.90
-27.19
-18.79
-11.35
-5.17
-0.20
3.78
7.13
10.21
13.34
16.72
20.33
24.00
27.38
30.12
31.97
32.89
32.98
32.53
31.88
31.33
31.15
31.44
32.20
33.23
34.30
35.12
35.51
35.41
34.84
33.90
32.67
31.20
29.56
27.82
26.05
24.32
22.62
20.92
19.22
17.59
16.14
15.00
14.19
13.56
12.92
12.05
10.86
9.38
7.75
6.10
4.49
2.93
1.35
-0.30
-2.10
-4.21
-6.82
-10.12
-14.12
-18.50
-22.63
-25.69
-26.97
-26.04
-23.02
-18.42
-13.02
-7.63
-2.85
0.95
3.71
5.60
6.84
7.62
8.06
8.15
7.82
7.08
5.97
4.69
3.42
2.36
1.58
1.08
0.81
0.67
0.59
0.52
0.42
0.26
-0.02
-0.47
-1.13
-2.06
-3.26
-4.67
-6.16
-7.59
-8.81
-9.84
-10.76
-11.66
-12.60
-13.51
-14.24
-14.70
-14.92
-15.05
-15.33
-15.96
-16.98
-18.29
-19.76
-21.29
-22.86
-24.50
-26.21
-28.00
-29.88
-31.94
-34.33
-37.10
-40.07
-42.74
-44.36
-44.23
-41.93
-37.53
-31.53
-24.69
