1626686381.00
64.000000
-0.00
-0.00
-0.00
-0.00
-0.00
-0.00
-0.00
-0.00
-0.00
-0.00
0.00
0.01
0.01
-0.00
-0.03
-0.05
-0.05
0.00
0.13
0.36
0.66
1.01
1.37
1.72
2.06
2.40
2.79
3.24
3.80
4.42
5.06
5.66
6.20
6.68
7.15
7.68
8.31
9.14
10.09
11.04
11.88
12.56
13.14
13.76
14.65
15.96
17.91
20.32
22.90
25.38
27.58
29.57
31.68
34.32
37.81
42.54
48.15
54.10
59.83
64.97
69.58
74.14
79.34
85.71
93.76
103.00
112.62
121.73
129.77
136.75
143.30
150.75
157.77
166.64
177.95
191.79
206.97
220.57
228.25
225.36
208.53
176.87
132.76
80.05
23.07
-34.94
-92.44
-149.16
-205.23
-260.37
-313.74
-363.87
-409.83
-450.91
-486.50
-515.74
-537.23
-549.22
-549.96
-538.37
-514.21
-478.67
-433.88
-382.45
-327.02
-269.84
-212.63
-156.66
-102.95
-52.37
-5.90
35.58
71.43
101.35
125.50
144.38
158.69
169.15
176.37
180.75
182.57
182.07
179.51
175.23
169.65
163.18
156.15
148.81
141.30
133.69
126.02
118.33
110.69
103.16
95.80
88.68
81.83
75.25
68.95
62.95
57.25
51.86
46.78
42.03
37.59
33.45
29.61
26.07
22.81
19.83
17.11
14.67
12.48
10.54
8.83
7.35
6.07
4.97
4.05
3.27
2.62
2.09
1.65
1.30
1.01
0.79
0.61
0.47
0.37
0.29
0.23
0.19
0.16
0.14
0.14
0.15
0.16
0.18
0.21
0.24
0.27
0.31
0.36
0.40
0.45
0.49
0.54
0.59
0.64
0.70
0.75
0.82
0.89
0.97
1.05
1.14
1.25
1.37
1.50
1.65
1.81
1.99
2.20
2.43
2.68
2.95
3.26
3.60
3.97
4.37
4.80
5.28
5.79
6.33
6.92
7.55
8.22
8.94
9.71
10.51
11.37
12.26
13.20
14.19
15.25
16.37
17.57
18.82
20.13
21.41
22.58
23.56
24.20
24.42
24.11
23.21
21.67
19.45
16.55
12.99
8.82
4.23
-0.58
-5.33
-9.77
-13.68
-16.93
-19.47
-21.35
-22.65
-23.46
-23.83
-23.76
-23.24
-22.30
-21.05
-19.69
-18.47
-17.60
-17.17
-17.08
-17.09
-16.90
-16.31
-15.35
-14.29
-13.56
-13.57
-14.44
-15.99
-17.71
-19.03
-19.54
-19.29
-18.73
-18.61
-19.59
-21.96
-25.39
-29.13
-32.35
-34.48
-35.48
-35.85
-36.35
-37.81
-40.96
-46.28
-53.90
-63.12
-72.12
-77.99
-77.57
-68.74
-51.60
-28.77
-4.52
16.78
32.32
41.61
46.06
47.78
48.43
48.75
48.21
46.51
43.83
40.88
38.52
37.23
36.84
36.68
35.95
34.21
31.68
29.04
27.01
26.00
25.90
26.09
25.84
24.60
22.31
19.39
16.52
14.33
13.15
12.90
13.18
13.42
13.16
12.18
10.63
8.87
7.24
6.01
5.18
4.61
4.02
3.26
2.28
1.17
0.04
-1.02
-2.01
-2.99
-4.02
-5.13
-6.35
-7.73
-9.25
-10.93
-12.73
-14.64
-16.65
-18.79
-21.12
-23.67
-26.40
-29.19
-31.89
-34.40
-36.79
-39.23
-41.99
-45.24
-48.96
-52.81
-56.19
-58.32
-58.45
-56.16
-51.44
-44.77
-36.90
-28.65
-20.67
-13.28
-6.53
-0.29
5.63
11.43
17.22
23.05
28.86
34.44
39.47
43.60
46.62
48.51
49.46
49.83
50.01
50.29
50.80
51.53
52.35
53.06
53.47
53.39
52.69
51.34
49.39
46.95
44.23
41.48
38.89
36.57
34.52
32.63
30.79
28.90
26.99
25.17
23.54
22.18
21.05
19.99
18.87
17.54
16.00
14.32
12.59
10.84
9.00
6.94
4.53
1.70
-1.43
-4.69
-7.82
-10.63
-13.08
-15.27
-17.48
-20.09
-23.46
-27.83
-33.15
-38.98
-44.52
-48.75
-50.72
-49.84
-46.14
-40.25
-33.18
-26.01
-19.52
-14.03
-9.53
-5.74
-2.43
0.53
3.08
5.17
6.73
7.79
8.41
8.62
8.46
8.00
7.39
6.86
6.64
6.90
7.64
8.69
9.78
10.68
11.22
11.33
11.03
10.36
9.36
8.12
6.76
5.42
4.21
3.19
2.31
1.39
0.25
-1.28
-3.26
-5.59
-8.08
-10.52
-12.83
-15.04
-17.35
-19.91
-22.75
-25.66
-28.40
-30.75
-32.81
-34.86
-37.33
-40.56
-44.65
-49.45
-54.58
-59.52
-63.63
-66.18
-66.47
-64.03
-58.79
-51.24
-42.30
-33.06
-24.45
-16.99
-10.69
-5.17
0.10
5.59
11.46
17.57
23.49
28.73
32.89
35.85
37.71
38.73
39.22
39.38
39.29
39.09
38.85
38.69
38.66
38.64
38.41
37.72
36.45
34.67
32.63
30.61
28.77
27.22
25.90
24.71
23.60
22.48
21.31
20.05
18.68
17.22
15.74
14.30
12.94
11.63
10.30
8.88
7.35
5.73
4.01
2.16
0.08
-2.22
-4.67
-7.08
-9.22
-10.97
-12.37
-13.65
-15.11
-16.91
-19.09
-21.49
-23.92
-26.22
-28.35
-30.38
-32.46
-34.78
-37.54
-40.84
-44.59
-48.36
-51.46
-53.01
-52.28
-48.95
-43.27
-35.93
-27.82
-19.75
-12.17
-5.26
1.05
6.87
12.32
17.50
22.53
27.48
32.34
36.97
41.13
44.51
46.92
48.31
48.84
48.80
48.46
48.03
47.62
47.24
46.84
46.36
45.69
44.71
43.34
41.61
39.65
37.64
35.75
34.08
32.62
31.30
30.09
28.98
27.96
27.00
26.02
24.92
23.68
22.32
20.97
19.69
18.46
17.15
15.63
13.87
11.98
10.16
8.63
7.46
6.59
5.82
4.91
3.70
2.20
0.47
-1.34
-3.15
-4.96
-6.90
-9.16
-11.99
-15.56
-19.94
-24.97
-30.25
-35.10
-38.75
-40.50
-39.98
-37.27
-32.92
-27.75
-22.64
-18.20
-14.74
-12.31
-10.74
-9.82
-9.29
-8.95
-8.65
-8.38
-8.20
-8.23
-8.59
-9.19
-9.86
-10.37
-10.50
-10.15
-9.35
-8.18
-6.81
-5.40
-4.10
-3.07
-2.40
-2.14
-2.27
-2.75
-3.50
-4.46
-5.52
-6.59
-7.60
-8.48
-9.29
-10.03
-10.76
-11.51
-12.19
-12.79
-13.28
-13.69
-14.09
-14.59
-15.26
-16.17
-17.40
-19.00
-20.96
-23.15
-25.32
-27.23
-28.72
-29.85
-30.87
-32.15
-34.02
-36.63
-39.85
-43.26
-46.23
-48.02
-47.97
-45.72
-41.32
-35.23
-28.26
-21.25
-14.92
-9.62
-5.35
-1.94
0.92
3.44
5.85
8.24
10.66
13.05
15.28
17.13
18.43
19.08
19.16
18.88
18.53
18.39
18.65
19.40
20.55
21.89
23.09
23.83
23.90
23.23
22.00
20.50
19.06
17.89
17.02
16.37
15.77
15.14
14.46
13.77
13.14
12.57
12.04
11.48
10.83
10.09
9.29
8.47
7.66
6.83
5.90
4.78
3.40
1.79
0.07
-1.58
-3.03
-4.17
-5.07
-5.86
-6.74
-7.87
-9.36
-11.21
-13.33
-15.57
-17.78
-19.81
-21.55
-22.96
-24.14
-25.27
-26.64
-28.51
-30.98
-33.84
-36.59
-38.45
-38.66
-36.69
-32.49
-26.57
-19.76
-13.00
-6.99
-2.04
1.93
5.23
8.23
11.20
14.29
17.54
20.89
24.23
27.40
30.18
32.37
33.84
34.62
34.90
34.98
35.16
35.62
36.37
37.23
37.94
38.22
37.92
37.05
35.74
34.17
32.55
31.04
29.75
28.70
27.84
27.02
26.09
24.94
23.60
22.21
20.98
20.05
19.41
18.85
18.11
16.99
15.46
13.69
11.95
10.43
9.17
8.02
6.74
5.10
3.09
0.85
-1.37
-3.31
-4.90
-6.26
-7.63
-9.28
-11.42
-14.18
-17.55
-21.42
-25.52
-29.37
-32.37
-33.89
-33.53
-31.33
-27.74
-23.57
-19.63
-16.51
-14.39
-13.14
-12.43
-12.01
-11.71
-11.47
-11.29
-11.22
-11.28
-11.55
-12.06
-12.76
-13.49
-14.02
-14.14
-13.77
-13.01
-12.04
-11.10
-10.33
-9.76
-9.38
-9.16
-9.10
-9.21
-9.48
-9.85
-10.23
-10.55
-10.83
-11.15
-11.61
-12.34
-13.42
-14.79
-16.32
-17.81
-19.06
-19.99
-20.67
-21.28
-22.02
-23.00
-24.20
-25.50
-26.76
-27.94
-29.14
-30.56
-32.48
-35.10
-38.48
-42.42
-46.46
-49.96
-52.19
-52.56
-50.75
-46.80
-41.10
-34.30
-27.17
-20.36
-14.34
-9.31
-5.17
-1.65
1.62
4.97
8.48
12.01
15.25
17.82
19.58
20.58
21.10
21.48
21.96
22.62
23.40
24.20
24.96
25.66
26.29
26.80
27.08
27.01
26.55
25.72
24.65
23.46
22.25
21.09
19.98
18.92
17.87
16.78
15.64
14.46
13.30
12.24
11.36
10.64
9.97
9.15
7.97
6.33
4.23
1.84
-0.58
-2.82
-4.77
-6.51
-8.25
-10.24
-12.69
-15.62
-18.94
-22.44
-25.91
-29.19
-32.15
-34.82
-37.36
-40.08
-43.42
-47.68
-52.96
-58.87
-64.59
-69.02
-71.12
-70.26
-66.34
-59.89
-51.76
-42.94
-34.25
-26.13
-18.64
-11.51
-4.39
3.02
10.76
18.59
26.11
32.86
38.52
42.95
46.15
48.24
49.39
49.84
49.90
49.96
50.35
51.27
52.65
54.21
55.54
56.27
56.26
55.53
54.32
52.85
51.32
49.78
48.23
46.55
44.66
42.48
39.99
37.25
34.36
31.49
28.76
26.28
24.04
21.92
19.76
17.48
15.03
12.51
10.03
7.65
5.34
2.94
0.24
-2.92
-6.56
-10.56
-14.70
-18.83
-22.88
-26.97
-31.37
-36.38
-42.24
-48.99
-56.40
-63.89
-70.61
-75.54
-77.75
-76.63
-72.13
-64.77
-55.56
-45.69
-36.20
-27.75
-20.53
-14.38
-9.00
-4.11
0.39
4.43
7.86
10.56
12.48
13.76
14.64
15.47
16.55
18.07
20.03
22.33
24.72
26.99
28.95
30.49
31.55
32.10
32.13
31.66
30.76
29.61
28.36
27.18
26.11
25.11
24.09
22.96
21.71
20.32
18.83
17.25
15.55
13.64
11.41
8.82
5.87
2.67
-0.65
-3.98
-7.38
-11.00
-15.08
-19.77
-25.03
-30.63
-36.22
-41.51
-46.42
-51.11
-55.95
-61.42
-67.92
-75.61
-84.20
-92.82
-100.13
-104.54
-104.70
-100.00
-90.77
-78.27
-64.17
-50.11
-37.19
-25.80
-15.71
-6.27
3.37
13.98
26.04
39.43
53.25
65.96
75.81
81.56
82.98
81.02
77.43
74.00
71.95
71.60
72.55
74.12
75.70
76.96
77.72
77.79
76.92
74.91
71.77
67.81
63.61
59.71
56.51
54.07
52.09
50.16
47.89
45.09
41.84
38.40
35.12
32.26
29.90
27.89
26.05
24.18
22.17
20.13
18.22
16.61
15.36
14.30
13.17
11.67
9.56
6.81
3.54
-0.04
-3.72
-7.34
-10.89
-14.44
-18.10
-21.99
-26.16
-30.53
-34.95
-39.28
-43.44
-47.51
-51.79
-56.75
-62.83
-70.23
-78.68
-87.29
-94.71
-99.34
-99.83
-95.42
-86.27
-73.34
-58.08
-42.10
-26.66
-12.51
0.08
11.23
21.19
30.24
38.61
46.44
53.77
60.47
66.28
70.85
73.95
75.58
76.02
75.77
75.35
75.12
75.22
75.61
76.11
76.50
76.54
75.96
74.55
72.20
68.99
65.17
61.12
57.19
53.54
50.15
46.85
43.47
39.96
36.39
32.97
29.84
27.08
24.56
22.05
19.32
16.20
12.69
8.99
5.33
1.94
-1.11
-3.98
-6.91
-10.26
-14.23
-18.83
-23.87
-29.07
-34.12
-38.90
-43.50
-48.20
-53.41
-59.57
-66.96
-75.61
-85.06
-94.37
-102.13
-106.79
-107.06
-102.34
-92.91
-79.92
-65.01
-49.93
-35.99
-23.96
-13.96
-5.72
1.16
7.02
11.98
16.04
19.12
21.21
22.39
22.86
22.86
22.63
22.41
22.43
22.95
24.09
25.84
27.92
29.87
31.14
31.37
30.49
28.74
26.58
24.40
22.47
20.83
19.38
17.98
16.48
14.78
12.77
10.47
7.90
5.19
2.49
-0.08
-2.50
-4.88
-7.38
-10.08
-12.99
-15.96
-18.92
-21.88
-25.06
-28.73
-33.11
-38.24
-43.90
-49.71
-55.28
-60.36
-65.01
-69.56
-74.58
-80.68
-88.16
-96.82
-105.75
-113.45
-118.13
-118.20
-112.76
-101.87
-86.55
-68.46
-49.47
-31.18
-14.64
-0.29
12.00
22.63
32.13
40.87
49.04
56.54
63.07
68.23
71.68
73.25
73.07
71.48
69.05
66.44
64.23
62.85
62.43
62.79
63.52
64.05
63.90
62.78
60.67
57.79
54.45
50.99
47.64
44.54
41.76
39.29
37.13
35.21
33.45
31.78
30.13
28.51
26.96
25.53
24.26
23.10
21.94
20.62
19.03
17.11
14.90
12.54
10.17
7.89
5.74
3.70
1.68
-0.43
-2.78
-5.51
-8.73
-12.44
-16.55
-20.87
-25.17
-29.29
-33.20
-37.05
-41.13
-45.82
-51.50
-58.32
-66.13
-74.22
-81.47
-86.47
-87.90
-84.96
-77.64
-66.71
-53.51
-39.55
-26.11
-14.00
-3.53
5.44
13.19
20.07
26.32
32.02
37.12
41.48
44.88
47.18
48.32
48.44
47.85
46.99
46.30
46.10
46.50
47.36
48.43
49.41
50.06
50.25
49.91
49.03
47.58
45.58
43.07
40.14
36.94
33.65
30.39
27.22
24.09
20.89
17.50
13.91
10.25
6.65
3.27
0.10
-2.92
-5.97
-9.20
-12.67
-16.39
-20.29
-24.30
-28.37
-32.47
-36.60
-40.80
-45.15
-49.80
-54.98
-60.89
-67.57
-74.73
-81.72
-87.48
-90.85
-90.85
-86.97
-79.42
-69.07
-57.17
-45.07
-33.79
-23.92
-15.58
-8.53
-2.43
3.04
8.09
12.71
16.74
19.95
22.14
23.22
23.29
22.66
21.73
20.94
20.62
20.98
22.04
23.64
25.48
27.12
28.17
28.31
27.48
25.86
23.80
21.72
19.94
18.58
17.58
16.81
16.11
15.36
14.48
13.45
12.32
11.14
10.06
9.15
8.41
7.71
6.80
5.47
3.57
1.21
-1.41
-4.07
-6.68
-9.28
-12.01
-15.03
-18.36
-21.93
-25.55
-29.05
-32.31
-35.32
-38.20
-41.13
-44.37
-48.17
-52.70
-57.94
-63.60
-69.00
-73.26
-75.39
-74.63
-70.73
-63.99
-55.27
-45.65
-36.17
-27.52
-19.92
-13.24
-7.12
-1.26
4.55
10.38
16.13
21.65
26.70
30.99
34.19
36.10
36.72
36.31
35.32
34.32
33.71
33.70
34.22
35.06
35.93
36.55
36.73
36.29
35.17
33.36
31.09
28.67
26.45
24.71
23.45
22.54
21.74
20.86
19.89
18.94
18.15
17.60
17.26
16.99
16.62
16.04
15.21
14.14
12.92
11.71
10.64
9.84
9.32
8.96
8.52
7.82
6.81
5.60
4.41
3.45
2.77
2.25
1.64
0.72
-0.66
-2.48
-4.68
-7.12
-9.70
-12.35
-15.00
-17.59
-20.14
-22.74
-25.56
-28.82
-32.63
-36.87
-41.10
-44.58
-46.47
-46.11
-43.24
-38.15
-31.59
-24.48
-17.66
-11.63
-6.57
-2.41
1.03
3.91
6.43
8.74
11.02
13.38
15.80
18.14
20.15
21.66
22.64
23.23
23.68
24.26
25.07
26.09
27.12
27.95
28.43
28.50
28.19
27.60
26.85
26.00
25.08
24.03
22.75
21.17
19.27
17.13
14.89
12.72
10.74
8.94
7.21
5.33
3.14
0.62
-2.09
-4.76
-7.13
-9.14
-10.87
-12.56
-14.41
-16.54
-18.88
-21.25
-23.49
-25.55
-27.52
-29.64
-32.16
-35.26
-39.01
-43.27
-47.65
-51.60
-54.39
-55.41
-54.25
-50.95
-45.94
-39.95
-33.78
-28.01
-22.92
-18.50
-14.58
-11.02
-7.79
-4.93
-2.56
-0.74
0.59
1.50
2.16
2.73
3.32
4.03
4.90
5.91
7.02
8.17
9.30
10.40
11.40
12.21
12.74
12.86
12.52
11.78
10.80
9.83
9.02
8.42
7.89
7.23
6.28
5.02
3.56
2.04
0.58
-0.79
-2.12
-3.42
-4.75
-6.09
-7.50
-9.03
-10.76
-12.70
-14.83
-17.11
-19.49
-21.97
-24.56
-27.22
-29.86
-32.39
-34.80
-37.25
-40.05
-43.47
-47.59
-52.04
-56.07
-58.74
-59.23
-57.14
-52.67
-46.50
-39.51
-32.53
-26.01
-20.05
-14.55
-9.31
-4.20
0.86
5.88
10.90
15.86
20.60
24.84
28.24
30.53
31.66
31.80
31.29
30.51
29.75
29.22
28.98
28.99
29.12
29.22
29.13
28.77
28.15
27.33
26.46
25.63
24.89
24.23
23.56
22.83
21.95
20.91
19.74
18.52
17.36
16.33
15.45
14.68
13.90
13.01
11.97
10.74
9.31
7.65
5.76
3.68
1.52
-0.54
-2.37
-3.94
-5.35
-6.82
-8.51
-10.47
-12.58
-14.68
-16.59
-18.29
-19.86
-21.46
-23.24
-25.31
-27.77
-30.69
-34.20
-38.34
-42.98
-47.67
-51.62
-53.90
-53.73
-50.75
-45.18
-37.78
-29.56
-21.47
-14.10
-7.58
-1.72
3.87
9.51
15.32
21.20
26.91
32.13
36.61
40.19
42.79
44.44
45.26
45.41
45.12
44.65
44.27
44.17
44.41
44.89
45.36
45.49
45.00
43.78
41.92
39.69
37.39
35.26
33.30
31.38
29.30
26.97
24.48
22.07
20.00
18.42
17.29
16.42
15.58
14.56
13.30
11.80
10.13
8.34
6.47
4.49
2.43
0.27
-2.00
-4.42
-7.07
-9.99
-13.22
-16.71
-20.41
-24.24
-28.23
-32.47
-37.15
-42.47
-48.47
-54.89
-61.13
-66.27
-69.40
-69.83
-67.42
-62.64
-56.37
-49.59
-43.03
-36.96
-31.33
-25.90
-20.61
-15.59
-11.12
-7.46
-4.67
-2.68
-1.25
-0.20
0.60
1.25
1.90
2.78
4.13
6.11
8.64
11.40
13.99
16.01
17.26
17.75
17.57
16.92
15.93
14.72
13.41
12.10
10.91
9.86
8.92
8.01
7.04
5.96
4.77
3.46
1.99
0.31
-1.62
-3.75
-5.95
-8.15
-10.35
-12.71
-15.49
-18.92
-23.09
-27.94
-33.21
-38.58
-43.75
-48.51
-52.86
-57.08
-61.68
-67.31
-74.43
-82.98
-92.21
-100.68
-106.64
-108.65
-106.05
-99.23
-89.31
-77.82
-66.00
-54.55
-43.66
-33.15
-22.59
-11.40
1.03
15.14
30.75
46.82
61.53
72.93
79.70
81.86
80.69
78.13
75.89
74.77
74.63
74.87
75.03
75.10
75.33
75.88
76.45
76.41
75.18
72.65
69.30
65.92
63.32
61.79
61.08
60.56
59.57
57.75
55.14
52.09
49.10
46.53
44.53
43.02
41.76
40.51
39.04
37.30
35.36
33.35
31.40
29.55
27.73
25.78
23.64
21.35
19.07
17.00
15.20
13.57
11.89
9.90
7.49
4.74
1.86
-0.94
-3.61
-6.22
-8.98
-12.12
-15.80
-20.00
-24.61
-29.44
-34.29
-39.04
-43.70
-48.45
-53.59
-59.48
-66.36
-74.22
-82.63
-90.72
-97.18
-100.63
-99.86
-94.30
-84.23
-70.69
-55.30
-39.68
-25.10
-12.20
-0.96
9.01
18.29
27.30
36.22
44.95
53.16
60.43
66.36
70.68
73.33
74.50
74.63
74.24
73.85
73.81
74.23
74.98
75.74
76.15
75.89
74.78
72.83
70.16
67.01
63.64
60.30
57.15
54.16
51.19
48.03
44.50
40.57
36.39
32.23
28.39
25.06
22.22
19.67
17.11
14.25
10.93
7.15
3.06
-1.10
-5.14
-8.97
-12.65
-16.36
-20.29
-24.56
-29.11
-33.79
-38.37
-42.78
-47.12
-51.73
-57.10
-63.64
-71.49
-80.32
-89.28
-97.08
-102.30
-103.72
-100.63
-93.09
-81.84
-68.13
-53.39
-38.86
-25.46
-13.71
-3.74
4.52
11.26
16.69
20.96
24.17
26.40
27.77
28.47
28.75
28.87
29.02
29.36
29.93
30.72
31.71
32.85
34.02
35.06
35.71
35.71
34.90
33.27
31.00
28.42
25.90
23.66
21.77
20.08
18.38
16.49
14.36
12.04
9.65
7.21
4.64
1.76
-1.51
-5.13
-8.91
-12.60
-16.00
-19.11
-22.15
-25.39
-29.10
-33.38
-38.17
-43.24
-48.35
-53.23
-57.77
-62.01
-66.19
-70.73
-76.14
-82.78
-90.59
-98.92
-106.45
-111.50
-112.44
-108.19
-98.63
-84.68
-67.95
-50.34
-33.46
-18.31
-5.19
6.20
16.39
25.92
35.14
44.08
52.53
60.12
66.41
71.09
73.95
75.08
74.76
73.45
71.70
70.03
68.84
68.31
68.36
68.72
68.95
68.62
67.44
65.37
62.58
59.42
56.27
53.40
50.96
48.93
47.17
45.50
43.74
41.79
39.66
37.44
35.24
33.18
31.28
29.55
27.98
26.58
25.33
24.23
23.19
22.05
20.63
18.81
16.59
14.08
11.49
8.95
6.51
4.06
1.36
-1.81
-5.62
-10.12
-15.15
-20.48
-25.82
-30.94
-35.79
-40.56
-45.62
-51.47
-58.47
-66.69
-75.67
-84.40
-91.41
-95.17
-94.45
-88.80
-78.68
-65.34
-50.48
-35.73
-22.27
-10.64
-0.82
7.52
14.87
21.56
27.75
33.43
38.46
42.66
45.85
47.96
49.01
49.16
48.69
47.91
47.15
46.68
46.64
47.00
47.58
48.08
48.15
47.48
45.90
43.41
40.18
36.51
32.67
28.90
25.29
21.86
18.50
15.12
11.62
7.93
4.06
0.09
-3.90
-7.80
-11.62
-15.44
-19.41
-23.69
-28.34
-33.30
-38.41
-43.43
-48.23
-52.82
-57.40
-62.31
-67.96
-74.55
-81.96
-89.52
-96.18
-100.67
-101.88
-99.22
-92.70
-82.97
-71.11
-58.26
-45.53
-33.67
-23.16
-14.11
-6.36
0.38
6.39
11.79
16.54
20.42
23.29
25.14
26.13
26.57
26.81
27.10
27.63
28.50
29.74
31.30
33.00
34.52
35.54
35.82
35.27
34.01
32.25
30.18
27.92
25.52
22.97
20.28
17.49
14.66
11.84
9.06
6.36
3.77
1.35
-0.90
-3.02
-5.10
-7.26
-9.62
-12.25
-15.18
-18.42
-22.00
-25.89
-30.04
-34.30
-38.46
-42.33
-45.82
-49.01
-52.16
-55.70
-60.03
-65.40
-71.69
-78.33
-84.31
-88.35
-89.27
-86.32
-79.45
-69.33
-57.15
-44.19
-31.50
-19.65
-8.82
1.10
10.29
18.89
26.98
34.58
41.64
48.03
53.54
57.93
60.97
62.62
62.98
62.41
61.36
60.27
59.48
59.09
59.05
59.12
59.00
58.42
57.22
55.40
53.04
50.26
47.27
44.26
41.48
39.14
37.37
36.18
35.39
34.77
34.07
33.17
32.10
30.98
29.96
29.11
28.37
27.58
26.55
25.19
23.44
21.38
19.14
16.87
14.62
12.44
10.27
8.09
5.81
3.40
0.82
-1.93
-4.78
-7.67
-10.48
-13.13
-15.58
-17.93
-20.40
-23.30
-27.02
-31.84
-37.79
-44.50
-51.16
-56.65
-59.84
-59.89
-56.63
-50.55
-42.68
-34.26
-26.36
-19.61
-14.13
-9.69
-5.90
-2.36
1.12
4.57
7.84
10.66
12.80
14.14
14.65
14.52
14.03
13.54
13.29
13.40
13.82
14.36
14.81
14.97
14.74
14.06
12.89
11.25
9.20
6.86
4.47
2.19
0.10
-1.90
-4.07
-6.62
-9.62
-12.89
-16.07
-18.84
-21.04
-22.86
-24.61
-26.67
-29.22
-32.16
-35.22
-38.08
-40.57
-42.67
-44.60
-46.63
-49.09
-52.19
-56.04
-60.53
-65.26
-69.54
-72.48
-73.21
-71.15
-66.26
-59.09
-50.58
-41.72
-33.22
-25.36
-18.01
-10.87
-3.72
3.40
10.29
16.65
22.24
26.99
30.87
33.91
36.03
37.20
37.48
37.07
36.33
35.59
35.09
34.87
34.77
34.61
34.21
33.51
32.53
31.31
29.85
28.16
26.22
24.13
22.07
20.25
18.81
17.70
16.74
15.63
14.21
12.49
10.69
9.07
7.85
6.99
6.25
5.38
4.19
2.69
1.00
-0.74
-2.52
-4.42
-6.52
-8.80
-11.10
-13.23
-15.13
-16.92
-18.88
-21.28
-24.18
-27.34
-30.36
-32.93
-35.02
-36.89
-39.08
-42.07
-46.10
-50.99
-56.14
-60.69
-63.69
-64.34
-62.21
-57.38
-50.36
-42.01
-33.25
-24.76
-16.94
-9.86
-3.37
2.69
8.52
14.19
19.77
25.26
30.55
35.43
39.56
42.63
44.41
44.96
44.59
43.78
43.04
42.69
42.80
43.20
43.63
43.86
43.73
43.27
42.53
41.62
40.65
39.69
38.80
38.01
37.32
36.72
36.21
35.73
35.28
34.83
34.37
33.86
33.32
32.75
32.14
31.52
30.84
30.06
29.15
28.07
26.78
25.27
23.54
21.60
19.57
17.54
15.64
13.87
12.14
10.29
8.14
5.65
2.89
0.09
-2.52
-4.76
-6.68
-8.43
-10.31
-12.63
-15.62
-19.43
-24.00
-29.06
-34.02
-38.12
-40.51
-40.59
-38.22
-33.80
-28.20
-22.39
-17.19
-13.00
-9.77
-7.24
-5.07
-3.09
-1.29
0.22
1.31
1.93
2.10
1.90
1.39
0.63
-0.35
-1.46
-2.61
-3.64
-4.42
-4.87
-5.01
-5.01
-5.08
-5.44
-6.18
-7.28
-8.57
-9.84
-10.94
-11.83
-12.61
-13.44
-14.50
-15.85
-17.40
-18.99
-20.45
-21.68
-22.70
-23.63
-24.63
-25.81
-27.18
-28.73
-30.37
-31.99
-33.54
-34.99
-36.36
-37.77
-39.42
-41.57
-44.40
-47.93
-51.84
-55.47
-57.94
-58.39
-56.31
-51.72
-45.19
-37.66
-30.13
-23.28
-17.39
-12.31
-7.67
-3.10
1.60
6.42
11.13
15.46
19.12
21.98
24.02
25.37
26.16
26.59
26.76
26.75
26.65
26.56
26.54
26.64
26.80
26.88
26.72
26.20
25.32
24.24
23.14
22.16
21.31
20.44
19.37
18.01
16.35
14.57
12.84
11.29
9.98
8.87
7.85
6.87
5.82
4.63
3.20
1.52
-0.36
-2.27
-4.01
-5.43
-6.55
-7.53
-8.64
-10.12
-12.10
-14.53
-17.22
-19.93
-22.45
-24.72
-26.82
-28.94
-31.32
-34.16
-37.54
-41.33
-45.25
-48.73
-51.11
-51.68
-49.94
-45.73
-39.33
-31.41
-22.82
-14.35
-6.59
0.23
6.09
11.17
15.74
20.10
24.47
28.95
33.41
37.54
40.94
43.29
44.49
44.69
44.25
43.58
43.02
42.72
42.72
42.92
43.17
43.35
43.39
43.22
42.81
42.13
41.19
40.03
38.81
37.76
37.10
36.90
36.98
36.99
36.52
35.38
33.65
31.71
30.01
28.78
27.98
27.30
26.39
25.03
23.27
21.34
19.52
17.93
16.52
15.14
13.55
11.65
9.43
7.06
4.70
2.54
0.63
-1.10
-2.78
-4.58
-6.66
-9.14
-12.15
-15.74
-19.85
-24.24
-28.40
-31.61
-33.16
-32.57
-29.81
-25.30
-19.82
-14.20
-9.10
-4.84
-1.46
1.18
3.22
4.79
5.86
6.44
6.54
6.22
5.55
4.59
3.38
1.96
0.45
-1.01
-2.26
-3.20
-3.84
-4.31
-4.78
-5.47
-6.47
-7.80
-9.33
-10.92
-12.50
-14.07
-15.74
-17.62
-19.78
-22.17
-24.59
-26.79
-28.54
-29.73
-30.41
-30.76
-31.04
-31.43
-32.07
-32.97
-34.07
-35.25
-36.45
-37.63
-38.85
-40.19
-41.82
-43.91
-46.56
-49.74
-53.13
-56.16
-58.01
-57.91
-55.40
-50.53
-43.89
-36.40
-29.04
-22.41
-16.66
-11.61
-6.84
-2.09
2.73
7.48
11.94
15.91
19.27
21.97
24.04
25.54
26.56
27.22
27.68
28.03
28.32
28.54
28.61
28.46
28.04
27.33
26.36
25.19
23.92
22.65
21.45
20.35
19.30
18.19
16.92
15.46
13.87
12.27
10.79
9.45
8.17
6.75
5.06
3.05
0.88
-1.24
-3.10
-4.65
-6.03
-7.46
-9.13
-11.07
-13.16
-15.21
-17.10
-18.84
-20.49
-22.15
-23.87
-25.66
-27.58
-29.77
-32.49
-35.96
-40.09
-44.40
-48.07
-50.12
-49.81
-46.87
-41.57
-34.62
-26.86
-19.05
-11.65
-4.88
1.22
6.70
11.63
16.16
20.46
24.65
28.69
32.39
35.45
37.63
38.84
39.30
39.36
39.40
39.63
40.06
40.54
40.94
41.21
41.41
41.59
41.74
41.74
41.45
40.75
39.65
38.24
36.69
35.12
33.58
32.10
30.68
29.38
28.28
27.42
26.77
26.20
25.54
24.63
23.41
21.98
20.52
19.20
18.13
17.32
16.64
15.90
14.90
13.49
11.65
9.46
7.09
4.74
2.50
0.37
-1.81
-4.28
-7.26
-10.92
-15.27
-20.12
-25.06
-29.49
-32.71
-34.10
-33.33
-30.46
-26.01
-20.75
-15.44
-10.66
-6.63
-3.29
-0.49
1.92
3.97
5.61
6.78
7.49
7.83
7.89
7.76
7.44
6.91
6.18
5.35
4.57
3.97
3.60
3.42
3.28
3.01
2.48
1.70
0.70
-0.43
-1.62
-2.90
-4.33
-5.99
-7.93
-10.08
-12.33
-14.49
-16.45
-18.16
-19.66
-21.05
-22.39
-23.71
-25.04
-26.38
-27.79
-29.33
-31.01
-32.81
-34.73
-36.84
-39.27
-42.24
-45.85
-49.98
-54.17
-57.67
-59.63
-59.31
-56.42
-51.17
-44.26
-36.63
-29.14
-22.40
-16.57
-11.50
-6.88
-2.43
1.97
6.30
10.45
14.30
17.72
20.62
22.93
24.58
25.59
26.05
26.11
25.99
25.90
25.97
26.28
26.75
27.24
27.51
27.34
26.52
25.04
23.03
20.84
18.83
17.29
16.29
15.68
15.17
14.50
13.57
12.41
11.14
9.87
8.59
7.19
5.59
3.69
1.54
-0.72
-2.86
-4.69
-6.13
-7.24
-8.27
-9.54
-11.31
-13.67
-16.50
-19.50
-22.35
-24.88
-27.10
-29.20
-31.42
-34.01
-37.11
-40.76
-44.79
-48.79
-52.10
-53.93
-53.59
-50.70
-45.43
-38.39
-30.44
-22.45
-14.97
-8.27
-2.33
2.99
7.92
12.59
17.16
21.66
26.04
30.12
33.67
36.49
38.46
39.62
40.12
40.17
39.97
39.73
39.60
39.65
39.85
40.10
40.27
40.25
39.98
39.44
38.60
37.53
36.31
35.10
34.08
33.35
32.87
32.49
32.02
31.35
30.49
29.57
28.71
27.94
27.15
26.20
24.98
23.49
21.89
20.39
19.10
18.05
17.09
16.01
14.62
12.79
10.58
8.12
5.61
3.21
0.99
-1.11
-3.31
-5.91
-9.26
-13.59
-18.84
-24.61
-30.14
-34.52
-36.91
-36.89
-34.50
-30.27
-24.93
-19.22
-13.73
-8.85
-4.80
-1.65
0.69
2.46
3.98
5.54
7.25
9.02
10.57
11.59
11.96
11.70
11.04
10.26
9.57
9.09
8.86
8.82
8.93
9.08
9.14
8.94
8.35
7.33
5.95
4.36
2.69
1.02
-0.67
-2.47
-4.44
-6.58
-8.78
-10.92
-12.88
-14.64
-16.29
-17.96
-19.75
-21.70
-23.74
-25.78
-27.73
-29.58
-31.40
-33.41
-35.83
-38.91
-42.75
-47.29
-52.18
-56.85
-60.53
-62.47
-62.11
-59.32
-54.35
-47.81
-40.42
-32.88
-25.70
-19.12
-13.20
-7.83
-2.80
2.01
6.67
11.08
15.06
18.35
20.83
22.49
23.49
24.06
24.41
24.65
24.82
24.97
25.15
25.42
25.80
26.18
26.39
26.22
25.58
24.53
23.22
21.84
20.49
19.14
17.72
16.13
14.40
12.65
11.03
9.62
8.39
7.15
5.74
4.04
2.12
0.12
-1.77
-3.44
-4.89
-6.24
-7.67
-9.37
-11.49
-14.04
-16.96
-20.07
-23.14
-25.99
-28.56
-30.99
-33.56
-36.60
-40.36
-44.85
-49.72
-54.35
-57.88
-59.54
-58.78
-55.47
-49.91
-42.73
-34.66
-26.35
-18.31
-10.83
-4.04
2.08
7.70
12.98
18.14
23.22
28.15
32.71
36.62
39.69
41.83
43.10
43.67
43.75
43.56
43.34
43.28
43.53
44.10
44.94
45.84
46.62
47.11
47.25
47.09
46.77
46.48
46.37
46.46
46.63
46.63
46.19
45.18
43.63
41.77
39.84
38.05
36.44
35.01
33.70
32.49
31.30
30.04
28.50
26.48
23.91
20.91
17.76
14.80
12.17
9.83
7.53
5.01
2.15
-0.97
-4.15
-7.16
-9.90
-12.41
-14.85
-17.47
-20.45
-23.94
-27.95
-32.33
-36.76
-40.71
-43.59
-44.84
-44.11
-41.34
-36.81
-31.02
-24.59
-18.14
-12.15
-6.95
-2.65
0.83
3.65
6.03
8.08
9.79
11.05
11.77
11.96
11.73
11.29
10.82
10.48
10.32
10.36
10.58
10.93
11.32
11.58
11.52
10.92
9.72
8.00
6.01
4.02
2.26
0.70
-0.84
-2.63
-4.90
-7.66
-10.67
-13.56
-16.02
-17.92
-19.38
-20.63
-21.89
-23.28
-24.81
-26.41
-28.02
-29.66
-31.42
-33.38
-35.68
-38.46
-41.82
-45.76
-50.08
-54.30
-57.74
-59.68
-59.58
-57.24
-52.86
-46.98
-40.18
-33.06
-26.07
-19.45
-13.31
-7.63
-2.28
2.87
7.88
12.73
17.27
21.23
24.41
26.67
28.04
28.72
28.97
29.06
29.17
29.33
29.50
29.60
29.55
29.31
28.83
28.02
26.79
25.09
22.96
20.64
18.43
16.58
15.18
14.13
13.18
12.15
10.98
9.77
8.66
7.78
7.09
6.45
5.67
4.58
3.13
1.40
-0.45
-2.23
-3.81
-5.20
-6.54
-8.08
-10.06
-12.60
-15.59
-18.77
-21.79
-24.39
-26.52
-28.33
-30.16
-32.37
-35.26
-38.92
-43.22
-47.80
-52.06
-55.30
-56.86
-56.24
-53.27
-48.14
-41.38
-33.68
-25.80
-18.32
-11.59
-5.63
-0.18
5.18
10.83
16.98
23.50
30.00
35.96
40.88
44.46
46.70
47.82
48.19
48.22
48.24
48.50
49.11
50.05
51.19
52.28
53.03
53.22
52.73
51.61
50.02
48.19
46.32
44.47
42.65
40.83
38.99
37.22
35.62
34.28
33.19
32.23
31.24
30.07
28.72
27.23
25.70
24.21
22.75
21.27
19.70
17.98
16.10
14.05
11.86
9.54
7.13
4.68
2.23
-0.21
-2.65
-5.14
-7.71
-10.40
-13.24
-16.32
-19.72
-23.46
-27.42
-31.25
-34.41
-36.29
-36.39
-34.53
-30.95
-26.23
-21.15
-16.44
-12.58
-9.67
-7.51
-5.74
-4.03
-2.27
-0.55
0.91
1.90
2.39
2.46
2.28
1.99
1.63
1.19
0.67
0.09
-0.42
-0.75
-0.86
-0.82
-0.81
-1.02
-1.58
-2.48
-3.64
-4.90
-6.15
-7.39
-8.68
-10.12
-11.78
-13.63
-15.57
-17.44
-19.11
-20.56
-21.84
-23.09
-24.45
-26.00
-27.71
-29.46
-31.17
-32.73
-34.15
-35.55
-37.10
-39.04
-41.54
-44.62
-48.17
-51.86
-55.14
-57.36
-57.86
-56.23
-52.37
-46.66
-39.83
-32.72
-26.05
-20.21
-15.19
-10.73
-6.47
-2.20
2.10
6.24
9.95
12.99
15.27
16.87
17.97
18.79
19.47
20.12
20.78
21.49
22.27
23.11
23.95
24.66
25.09
25.09
24.67
23.92
22.95
21.91
20.83
19.73
18.53
17.19
15.71
14.16
12.62
11.18
9.88
8.70
7.57
6.39
5.08
3.59
1.92
0.06
-1.97
-4.13
-6.39
-8.74
-11.19
-13.79
-16.59
-19.53
-22.50
-25.33
-27.89
-30.17
-32.27
-34.46
-37.02
-40.18
-43.94
-48.04
-51.89
-54.71
-55.71
-54.32
-50.44
-44.46
-37.22
-29.67
-22.60
-16.43
-11.16
-6.52
-2.12
2.36
7.09
12.11
17.30
22.42
27.18
31.27
34.46
36.71
38.16
39.06
39.71
40.32
41.02
41.81
42.70
43.66
44.64
45.56
46.30
46.67
46.55
45.93
44.87
43.56
42.20
40.94
39.84
38.90
38.05
37.22
36.36
35.47
34.59
33.75
32.97
32.24
31.47
30.55
29.31
27.60
25.32
22.55
19.52
16.53
13.83
11.48
9.33
7.09
4.53
1.64
-1.39
-4.30
-6.91
-9.32
-11.82
-14.78
-18.44
-22.83
-27.83
-33.17
-38.51
-43.46
-47.53
-50.17
-50.90
-49.54
-46.25
-41.57
-36.23
-30.86
-25.83
-21.23
-16.95
-12.86
-8.89
-5.16
-1.85
0.84
2.81
4.06
4.68
4.84
4.67
4.30
3.84
3.40
3.12
3.11
3.42
4.02
4.70
5.20
5.24
4.66
3.42
1.68
-0.35
-2.46
-4.52
-6.54
-8.58
-10.71
-12.95
-15.22
-17.41
-19.38
-21.09
-22.57
-23.98
-25.47
-27.15
-29.03
-31.03
-33.02
-34.90
-36.66
-38.41
-40.37
-42.76
-45.81
-49.56
-54.01
-59.01
-64.33
-69.60
-74.38
-78.14
-80.22
-80.09
-77.36
-71.86
-63.81
-53.61
-41.77
-28.67
-14.62
-0.05
14.24
27.06
37.12
43.57
46.41
46.63
45.72
45.04
45.25
46.19
47.30
48.06
48.49
48.97
49.91
51.36
52.93
53.99
54.04
53.00
51.15
48.94
46.82
44.99
43.43
41.99
40.49
38.78
36.83
34.68
32.47
30.39
28.60
27.17
26.01
24.89
23.56
21.84
19.74
17.43
15.20
13.24
11.59
10.09
8.50
6.56
4.21
1.54
-1.25
-3.97
-6.54
-9.09
-11.87
-15.12
-18.89
-22.99
-27.03
-30.66
-33.70
-36.34
-39.00
-42.23
-46.50
-51.94
-58.24
-64.69
-70.19
-73.54
-73.72
-70.21
-63.16
-53.35
-41.95
-30.20
-19.03
-8.94
0.01
8.05
15.50
22.65
29.65
36.49
43.00
48.95
54.06
58.12
61.05
62.91
63.90
64.28
64.36
64.37
64.44
64.55
64.57
64.35
63.73
62.66
61.16
59.33
57.28
55.13
52.97
50.89
48.93
47.09
45.29
43.37
41.14
38.48
35.39
32.01
28.56
25.28
22.31
19.61
17.04
14.38
11.42
8.09
4.43
0.60
-3.24
-6.99
-10.63
-14.21
-17.86
-21.70
-25.89
-30.59
-35.96
-42.06
-48.75
-55.50
-61.43
-65.51
-66.80
-64.84
-59.77
-52.37
-43.71
-34.90
-26.77
-19.73
-13.85
-8.97
-4.91
-1.53
1.20
3.26
4.66
5.43
5.70
5.62
5.40
5.18
5.15
5.42
6.07
7.08
8.38
9.80
11.11
12.08
12.47
12.12
11.03
9.45
7.71
6.25
5.28
4.74
4.35
3.71
2.54
0.80
-1.29
-3.45
-5.47
-7.35
-9.26
-11.38
-13.79
-16.45
-19.27
-22.15
-25.09
-28.10
-31.21
-34.38
-37.64
-41.09
-44.96
-49.52
-54.86
-60.70
-66.31
-70.62
-72.52
-71.21
-66.50
-58.81
-49.06
-38.37
-27.75
-17.92
-9.15
-1.43
5.52
11.95
18.02
23.70
28.85
33.30
36.89
39.57
41.35
42.29
42.51
42.17
41.54
40.88
40.44
40.31
40.47
40.73
40.91
40.83
40.39
39.50
38.16
36.41
34.41
32.37
30.51
28.96
27.71
26.60
25.43
24.07
22.51
20.88
19.37
18.07
16.97
15.89
14.69
13.25
11.62
10.00
8.59
7.49
6.63
5.76
4.58
2.89
0.71
-1.77
-4.26
-6.57
-8.65
-10.67
-12.85
-15.40
-18.51
-22.28
-26.78
-31.94
-37.46
-42.82
-47.23
-49.81
-49.83
-47.01
-41.60
-34.36
-26.28
-18.35
-11.18
-5.02
0.29
5.05
9.53
13.88
18.08
22.01
25.52
28.48
30.78
32.34
33.13
33.24
32.92
32.51
32.40
32.83
33.89
35.40
37.03
38.37
39.08
38.96
37.99
36.33
34.23
31.91
29.50
27.01
24.41
21.70
19.02
16.54
14.42
12.62
10.94
9.05
6.70
3.83
0.59
-2.75
-5.96
-8.92
-11.72
-14.56
-17.69
-21.31
-25.54
-30.36
-35.64
-41.13
-46.42
-50.99
-54.24
-55.65
-54.90
-52.02
-47.40
-41.66
-35.58
-29.82
-24.82
-20.71
-17.34
-14.47
-11.87
-9.43
-7.25
-5.48
-4.27
-3.64
-3.38
-3.20
-2.78
-1.94
-0.69
0.83
2.40
3.86
5.10
6.06
6.67
6.85
6.57
5.87
4.86
3.68
2.42
1.07
-0.44
-2.17
-4.12
-6.18
-8.18
-10.08
-11.89
-13.73
-15.67
-17.70
-19.73
-21.58
-23.20
-24.66
-26.18
-28.02
-30.39
-33.40
-37.03
-41.15
-45.55
-49.84
-53.45
-55.66
-55.75
-53.30
-48.34
-41.41
-33.43
-25.36
-17.89
-11.28
-5.40
0.07
5.46
10.92
16.40
21.67
26.41
30.27
33.00
34.52
34.92
34.47
33.51
32.38
31.34
30.53
30.00
29.79
29.83
30.05
30.32
30.43
30.23
29.60
28.56
27.23
25.74
24.22
22.69
21.14
19.49
17.73
15.87
13.99
12.19
10.58
9.18
7.97
6.88
5.83
4.78
3.74
2.73
1.82
0.99
0.17
-0.72
-1.77
-2.98
-4.27
-5.58
-6.88
-8.23
-9.74
-11.46
-13.31
-15.09
-16.65
-17.94
-19.12
-20.58
-22.72
-25.87
-30.09
-35.06
-40.19
-44.68
-47.74
-48.80
-47.60
-44.25
-39.21
-33.11
-26.62
-20.29
-14.46
-9.26
-4.62
-0.31
3.95
8.42
13.18
18.14
22.98
27.29
30.71
33.12
34.60
35.48
36.12
36.82
37.74
38.89
40.23
41.64
42.98
44.10
44.81
44.95
44.47
43.42
41.95
40.21
38.30
36.29
34.24
32.22
30.30
28.47
26.66
24.68
22.40
19.78
16.95
14.14
11.56
9.25
7.09
4.86
2.41
-0.30
-3.22
-6.29
-9.52
-13.03
-16.90
-21.15
-25.71
-30.45
-35.36
-40.61
-46.46
-53.02
-60.06
-66.82
-72.29
-75.46
-75.74
-73.16
-68.30
-62.12
-55.52
-49.17
-43.36
-38.12
-33.31
-28.84
-24.67
-20.91
-17.72
-15.19
-13.37
-12.09
-11.11
-10.07
-8.67
-6.76
-4.37
-1.66
1.20
4.11
7.08
10.14
13.24
16.24
18.88
20.87
22.07
22.52
22.48
22.29
22.23
22.37
22.55
22.49
21.93
20.73
18.98
16.88
14.69
12.59
10.64
8.80
6.98
5.14
3.23
1.26
-0.73
-2.71
-4.66
-6.59
-8.57
-10.74
-13.24
-16.19
-19.60
-23.39
-27.42
-31.46
-35.36
-39.06
-42.62
-46.26
-50.30
-55.11
-60.91
-67.56
-74.41
-80.35
-84.02
-84.29
-80.62
-73.37
-63.60
-52.74
-42.02
-32.12
-23.08
-14.56
-6.10
2.65
11.91
21.74
31.94
41.97
50.93
57.78
61.76
62.78
61.52
59.19
57.01
55.68
55.27
55.43
55.74
55.97
56.07
56.07
55.79
54.96
53.33
50.93
48.08
45.25
42.86
41.18
40.19
39.68
39.31
38.62
37.23
34.81
31.32
27.00
22.37
18.08
14.70
12.55
11.63
11.69
12.37
13.35
14.39
15.32
15.90
15.83
14.77
12.46
8.85
4.14
-1.28
-6.93
-12.44
-17.62
-22.43
-26.98
-31.36
-35.56
-39.50
-43.08
-46.35
-49.53
-53.03
-57.29
-62.54
-68.53
-74.45
-79.04
-80.96
-79.18
-73.35
-63.90
-51.86
-38.58
-25.37
-13.21
-2.73
5.86
12.62
17.78
21.72
24.79
27.32
29.52
31.54
33.34
34.78
35.69
35.89
35.37
34.33
33.18
32.39
32.25
32.72
33.41
33.75
33.26
31.76
29.35
26.34
23.00
19.50
15.90
12.21
8.54
4.98
1.58
-1.77
-5.27
-9.17
-13.55
-18.38
-23.48
-28.68
-33.84
-38.98
-44.17
-49.50
-54.93
-60.20
-64.78
-67.99
-69.16
-67.90
-64.22
-58.61
-51.74
-44.27
-36.53
-28.42
-19.46
-9.13
2.93
16.69
31.70
47.17
62.14
75.69
87.05
95.74
101.63
104.92
106.09
105.82
104.75
103.34
101.81
100.08
97.96
95.24
91.84
87.86
83.54
79.16
74.97
71.11
67.59
64.32
61.19
58.10
55.00
51.88
48.72
45.51
42.20
38.78
35.23
31.59
27.91
24.32
20.87
17.63
14.58
11.64
8.75
5.85
2.93
0.06
-2.70
-5.28
-7.72
-10.11
-12.62
-15.43
-18.74
-22.67
-27.27
-32.39
-37.72
-42.68
-46.57
-48.68
-48.51
-45.95
-41.33
-35.36
-28.94
-22.94
-18.00
-14.46
-12.33
-11.36
-11.21
-11.54
-12.10
-12.79
-13.66
-14.78
-16.15
-17.66
-19.11
-20.22
-20.83
-20.90
-20.48
-19.71
-18.63
-17.31
-15.75
-14.09
-12.50
-11.25
-10.57
-10.57
-11.17
-12.16
-13.26
-14.25
-15.03
-15.64
-16.23
-17.00
-18.11
-19.58
-21.36
-23.24
-24.97
-26.38
-27.41
-28.21
-29.04
-30.24
-32.11
-34.80
-38.33
-42.50
-46.88
-50.83
-53.57
-54.31
-52.52
-48.10
-41.45
-33.42
-25.07
-17.35
-10.91
-5.97
-2.38
0.28
2.47
4.57
6.79
9.12
11.42
13.51
15.24
16.55
17.44
17.94
18.15
18.15
18.09
18.10
18.33
18.79
19.41
19.98
20.26
20.10
19.45
18.38
17.03
15.50
13.87
12.17
10.42
8.64
6.88
5.18
3.57
2.07
0.69
-0.61
-1.93
-3.42
-5.19
-7.29
-9.68
-12.17
-14.56
-16.68
-18.44
-19.90
-21.18
-22.53
-24.22
-26.48
-29.42
-32.91
-36.48
-39.38
-40.76
-39.88
-36.43
-30.57
-22.97
-14.52
-6.16
1.41
7.78
12.87
16.83
19.90
22.35
24.44
26.40
28.35
30.31
32.20
33.89
35.21
36.05
36.35
36.17
35.65
35.05
34.66
34.65
35.04
35.62
36.06
36.02
35.36
34.13
32.62
31.13
29.89
29.00
28.40
27.97
27.56
27.07
26.42
25.57
24.55
23.40
22.24
21.10
19.97
18.73
17.24
15.44
13.39
11.21
9.11
7.18
5.45
3.75
1.90
-0.32
-3.10
-6.48
-10.38
-14.53
-18.44
-21.50
-23.07
-22.68
-20.19
-15.91
-10.55
-4.99
-0.08
3.68
6.16
7.55
8.18
8.31
8.06
7.38
6.23
4.65
2.79
0.90
-0.82
-2.30
-3.58
-4.74
-5.78
-6.67
-7.29
-7.61
-7.68
-7.65
-7.75
-8.11
-8.86
-10.06
-11.71
-13.76
-16.10
-18.54
-20.91
-23.06
-25.03
-26.90
-28.82
-30.82
-32.82
-34.66
-36.25
-37.62
-38.99
-40.64
-42.80
-45.56
-48.79
-52.16
-55.19
-57.30
-57.90
-56.59
-53.28
-48.27
-42.18
-35.72
-29.55
-24.02
-19.25
-15.12
-11.50
-8.34
-5.66
-3.55
-2.05
-1.09
-0.55
-0.22
0.11
0.58
1.26
2.15
3.16
4.19
5.16
6.02
6.78
7.48
8.12
8.64
8.87
8.63
7.75
6.26
4.38
2.43
0.74
-0.57
-1.61
-2.72
-4.19
-6.13
-8.42
-10.72
-12.70
-14.21
-15.34
-16.39
-17.73
-19.64
-22.19
-25.33
-28.91
-32.70
-36.44
-39.73
-42.08
-42.90
-41.68
-38.15
-32.44
-25.06
-16.89
-8.85
-1.75
3.96
8.21
11.24
13.47
15.28
16.97
18.62
20.15
21.43
22.31
22.75
22.80
22.58
22.20
21.74
21.29
20.95
20.82
20.99
21.41
21.90
22.22
22.14
21.61
20.78
19.87
19.14
18.65
18.33
17.94
17.27
16.12
14.48
12.42
10.10
7.69
5.32
3.05
0.84
-1.43
-3.82
-6.27
-8.59
-10.57
-12.06
-13.07
-13.83
-14.64
-15.85
-17.69
-20.22
-23.34
-26.75
-29.93
-32.29
-33.15
-32.00
-28.60
-23.16
-16.27
-8.77
-1.51
4.87
10.11
14.31
17.77
20.86
23.85
26.80
29.64
32.27
34.57
36.49
37.97
38.98
39.52
39.62
39.39
38.98
38.51
38.02
37.48
36.78
35.80
34.48
32.85
30.96
28.91
26.80
24.72
22.76
21.02
19.56
18.46
17.71
17.21
16.83
16.40
15.75
14.81
13.59
12.17
10.61
9.00
7.36
5.67
3.91
1.96
-0.32
-3.14
-6.68
-10.99
-15.80
-20.54
-24.41
-26.58
-26.52
-24.19
-20.08
-15.09
-10.16
-6.02
-2.97
-0.96
0.28
1.03
1.39
1.30
0.65
-0.63
-2.42
-4.44
-6.34
-7.82
-8.72
-9.02
-8.86
-8.43
-7.91
-7.46
-7.16
-7.07
-7.25
-7.73
-8.56
-9.75
-11.28
-13.07
-14.99
-16.89
-18.60
-20.02
-21.10
-21.92
-22.62
-23.32
-24.12
-24.99
-25.85
-26.58
-27.11
-27.46
-27.73
-28.09
-28.77
-29.99
-31.90
-34.48
-37.43
-40.14
-41.81
-41.69
-39.29
-34.63
-28.18
-20.76
-13.26
-6.39
-0.58
4.09
7.78
10.71
13.15
15.28
17.18
18.85
20.23
21.24
21.81
22.01
21.90
21.61
21.23
20.80
20.37
20.01
19.76
19.64
19.59
19.43
19.02
18.23
17.05
15.65
14.21
12.88
11.71
10.68
9.69
8.67
7.57
6.31
4.86
3.21
1.41
-0.40
-2.07
-3.50
-4.71
-5.85
-7.12
-8.69
-10.62
-12.80
-15.03
-17.07
-18.80
-20.26
-21.68
-23.38
-25.66
-28.69
-32.33
-36.10
-39.18
-40.72
-40.01
-36.84
-31.47
-24.64
-17.28
-10.24
-4.11
0.92
4.93
8.20
11.05
13.69
16.25
18.71
20.97
22.92
24.46
25.55
26.19
26.39
26.21
25.71
25.03
24.35
23.87
23.71
23.88
24.29
24.74
25.05
25.03
24.60
23.74
22.56
21.28
20.13
19.34
18.99
19.02
19.25
19.40
19.30
18.90
18.30
17.70
17.31
17.23
17.42
17.77
18.15
18.50
18.76
18.91
18.84
18.44
17.57
16.20
14.42
12.42
10.42
8.52
6.73
4.90
2.86
0.44
-2.45
-5.80
-9.53
-13.31
-16.61
-18.76
-19.08
-17.18
-13.14
-7.57
-1.47
4.12
8.42
11.17
12.57
13.13
13.34
13.46
13.52
13.31
12.67
11.56
10.14
8.67
7.42
6.56
6.13
6.07
6.32
6.84
7.59
8.50
9.40
10.16
10.58
10.56
10.10
9.24
8.07
6.67
5.11
3.40
1.53
-0.49
-2.65
-4.86
-7.04
-9.12
-11.07
-12.93
-14.79
-16.72
-18.79
-21.00
-23.33
-25.70
-28.06
-30.38
-32.70
-35.08
-37.66
-40.54
-43.73
-47.07
-50.16
-52.45
-53.37
-52.52
-49.83
-45.52
-40.07
-34.05
-28.01
-22.38
-17.45
-13.39
-10.20
-7.76
-5.89
-4.34
-2.98
-1.77
-0.75
0.05
0.68
1.27
1.97
2.90
4.03
5.29
6.55
7.72
8.72
9.53
10.10
10.31
10.06
9.24
7.94
6.32
4.69
3.32
2.36
1.79
1.39
0.98
0.36
-0.46
-1.38
-2.22
-2.90
-3.43
-3.91
-4.49
-5.30
-6.42
-7.86
-9.62
-11.64
-13.85
-16.18
-18.52
-20.85
-23.19
-25.65
-28.42
-31.69
-35.49
-39.62
-43.48
-46.27
-47.17
-45.66
-41.72
-35.87
-28.99
-22.00
-15.54
-9.91
-5.11
-0.92
2.82
6.27
9.51
12.62
15.62
18.47
21.04
23.14
24.57
25.30
25.41
25.15
24.82
24.70
24.93
25.50
26.26
27.01
27.56
27.76
27.56
26.98
26.08
24.98
23.80
22.62
21.52
20.52
19.62
18.76
17.89
17.00
16.10
15.29
14.63
14.12
13.70
13.28
12.75
12.01
11.08
9.99
8.91
7.98
7.36
7.11
7.14
7.21
7.00
6.22
4.71
2.55
-0.03
-2.71
-5.28
-7.63
-9.85
-12.11
-14.67
-17.74
-21.36
-25.33
-29.13
-32.02
-33.22
-32.18
-28.80
-23.48
-17.01
-10.33
-4.20
0.93
4.97
8.12
10.69
12.95
15.05
17.02
18.74
20.11
21.05
21.54
21.73
21.74
21.74
21.81
21.96
22.19
22.51
22.97
23.68
24.66
25.79
26.79
27.27
26.97
25.80
23.98
21.86
19.81
18.00
16.40
14.79
12.95
10.80
8.40
5.97
3.69
1.65
-0.18
-1.96
-3.82
-5.87
-8.16
-10.72
-13.50
-16.43
-19.45
-22.45
-25.44
-28.47
-31.71
-35.42
-39.76
-44.75
-50.05
-55.06
-58.90
-60.72
-59.90
-56.33
-50.39
-42.95
-35.11
-27.83
-21.70
-16.83
-12.93
-9.51
-6.20
-2.84
0.42
3.35
5.75
7.56
8.95
10.12
11.24
12.37
13.46
14.44
15.33
16.18
17.08
18.02
18.87
19.39
19.38
18.75
17.63
16.28
14.99
13.89
12.97
12.09
11.09
9.90
8.55
7.15
5.76
4.38
2.94
1.40
-0.22
-1.86
-3.41
-4.88
-6.34
-7.95
-9.83
-12.03
-14.50
-17.11
-19.76
-22.40
-24.99
-27.56
-30.14
-32.86
-35.91
-39.52
-43.88
-48.97
-54.42
-59.50
-63.23
-64.66
-63.15
-58.65
-51.66
-43.16
-34.25
-25.82
-18.37
-11.92
-6.17
-0.76
4.57
9.87
14.98
19.67
23.75
27.12
29.74
31.67
32.95
33.70
34.10
34.40
34.89
35.75
36.97
38.41
39.78
40.80
41.32
41.30
40.82
40.01
38.98
37.83
36.69
35.67
34.87
34.31
33.90
33.44
32.75
31.71
30.40
28.98
27.67
26.63
25.90
25.38
24.94
24.43
23.76
22.86
21.73
20.39
18.94
17.48
16.10
14.83
13.57
12.16
10.43
8.26
5.66
2.69
-0.55
-3.95
-7.45
-11.01
-14.65
-18.44
-22.55
-27.23
-32.66
-38.81
-45.24
-51.13
-55.40
-57.07
-55.58
-50.97
-43.87
-35.25
-26.11
-17.24
-9.10
-1.87
4.46
9.92
14.56
18.44
21.67
24.35
26.59
28.40
29.80
30.76
31.28
31.42
31.31
31.17
31.18
31.42
31.89
32.43
32.85
32.99
32.73
32.06
30.97
29.51
27.72
25.61
23.26
20.72
18.05
15.29
12.44
9.51
6.48
3.37
0.18
-3.13
-6.61
-10.27
-14.10
-18.00
-21.86
-25.58
-29.15
-32.66
-36.26
-40.16
-44.59
-49.69
-55.46
-61.63
-67.58
-72.44
-75.23
-75.14
-71.82
-65.42
-56.61
-46.35
-35.67
-25.46
-16.30
-8.42
-1.77
3.93
8.94
13.43
17.33
20.47
22.63
23.82
24.29
24.47
24.83
25.68
27.05
28.77
30.56
32.23
33.64
34.81
35.70
36.21
36.16
35.42
33.93
31.88
29.54
27.25
25.18
23.31
21.43
19.25
16.56
13.33
9.66
5.79
1.93
-1.74
-5.15
-8.30
-11.28
-14.20
-17.17
-20.26
-23.48
-26.78
-30.06
-33.30
-36.54
-39.92
-43.67
-48.03
-53.15
-59.05
-65.39
-71.52
-76.49
-79.23
-78.88
-75.03
-67.94
-58.37
-47.43
-36.21
-25.54
-15.84
-7.17
0.69
8.02
15.12
22.14
29.08
35.72
41.69
46.57
50.00
51.86
52.31
51.73
50.66
49.59
48.89
48.74
49.13
49.93
50.88
51.70
52.13
52.02
51.39
50.41
49.30
48.16
47.01
45.71
44.16
42.32
40.27
38.14
35.99
33.92
31.93
30.08
28.38
26.82
25.24
23.42
21.14
18.30
14.98
11.39
7.82
4.41
1.19
-1.95
-5.14
-8.49
-11.96
-15.44
-18.74
-21.72
-24.34
-26.72
-29.14
-31.89
-35.26
-39.49
-44.67
-50.73
-57.33
-63.81
-69.25
-72.50
-72.57
-68.82
-61.21
-50.37
-37.36
-23.37
-9.32
4.17
16.70
27.82
36.94
43.45
47.08
48.09
47.37
46.03
44.98
44.59
44.64
44.66
44.32
43.67
43.05
42.81
43.07
43.52
43.76
43.38
42.28
40.61
38.66
36.74
34.96
33.27
31.53
29.52
27.13
24.31
21.16
17.83
14.48
11.20
7.95
4.62
1.06
-2.76
-6.76
-10.77
-14.60
-18.21
-21.72
-25.33
-29.28
-33.71
-38.71
-44.32
-50.52
-57.15
-63.79
-69.68
-73.82
-75.28
-73.49
-68.48
-60.85
-51.61
-41.88
-32.54
-24.15
-16.93
-10.86
-5.81
-1.65
1.70
4.34
6.37
7.92
9.15
10.23
11.31
12.51
13.92
15.61
17.61
19.86
22.20
24.35
26.05
27.08
27.36
26.95
26.04
24.81
23.45
22.05
20.62
19.04
17.16
14.87
12.14
9.11
6.03
3.11
0.46
-2.01
-4.54
-7.38
-10.61
-14.16
-17.80
-21.31
-24.57
-27.60
-30.53
-33.60
-37.07
-41.21
-46.19
-51.97
-58.14
-63.90
-68.19
-69.98
-68.63
-64.12
-57.09
-48.52
-39.48
-30.79
-22.85
-15.71
-9.18
-3.06
2.79
8.38
13.65
18.46
22.69
26.20
28.91
30.76
31.79
32.13
32.06
31.90
31.93
32.30
32.93
33.54
33.78
33.33
32.09
30.12
27.61
24.79
21.87
18.94
16.10
13.38
10.80
8.38
6.08
3.88
1.70
-0.50
-2.76
-5.14
-7.65
-10.30
-13.08
-15.94
-18.86
-21.83
-24.94
-28.36
-32.26
-36.72
-41.62
-46.55
-50.83
-53.65
-54.27
-52.22
-47.46
-40.37
-31.68
-22.32
-13.15
-4.80
2.39
8.43
13.55
18.04
22.07
25.73
28.93
31.53
33.44
34.60
35.10
35.09
34.71
34.11
33.40
32.70
32.09
31.64
31.33
31.07
30.64
29.85
28.51
26.63
24.34
21.93
19.66
17.67
15.91
14.19
12.31
10.15
7.75
5.25
2.83
0.62
-1.36
-3.11
-4.76
-6.40
-8.19
-10.21
-12.49
-14.93
-17.39
-19.69
-21.74
-23.60
-25.47
-27.64
-30.34
-33.69
-37.52
-41.38
-44.53
-46.10
-45.31
-41.72
-35.42
-27.01
-17.42
-7.64
1.59
9.88
17.22
23.80
29.87
35.58
40.93
45.82
50.04
53.42
55.90
57.55
58.51
58.96
59.05
58.85
58.42
57.84
57.20
56.66
56.31
56.13
55.94
55.46
54.39
52.59
50.04
46.90
43.42
39.88
36.48
33.34
30.45
27.74
25.05
22.24
19.24
16.01
12.61
9.12
5.66
2.28
-1.01
-4.30
-7.67
-11.18
-14.82
-18.57
-22.35
-26.14
-30.01
-34.09
-38.53
-43.42
-48.72
-54.19
-59.35
-63.63
-66.37
-67.05
-65.40
-61.51
-55.86
-49.23
-42.44
-36.18
-30.84
-26.49
-23.00
-20.19
-17.91
-16.11
-14.76
-13.81
-13.13
-12.54
-11.89
-11.02
-9.89
-8.50
-6.82
-4.93
-2.93
-0.96
0.71
1.88
2.40
2.29
1.73
0.98
0.25
-0.39
-1.02
-1.78
-2.77
-4.00
-5.33
-6.59
-7.65
-8.50
-9.21
-9.95
-10.92
-12.27
-14.06
-16.24
-18.70
-21.29
-23.89
-26.43
-28.94
-31.54
-34.40
-37.70
-41.53
-45.83
-50.29
-54.31
-57.07
-57.79
-55.91
-51.32
-44.48
-36.25
-27.60
-19.36
-11.99
-5.58
0.03
5.05
9.69
14.04
18.07
21.70
24.78
27.15
28.71
29.44
29.43
28.90
28.16
27.51
27.18
27.29
27.76
28.43
29.00
29.18
28.73
27.57
25.81
23.70
21.54
19.55
17.86
16.46
15.27
14.16
13.03
11.76
10.35
8.74
6.95
5.01
2.93
0.76
-1.38
-3.39
-5.19
-6.76
-8.24
-9.81
-11.65
-13.85
-16.31
-18.83
-21.16
-23.19
-24.93
-26.55
-28.30
-30.47
-33.28
-36.83
-40.97
-45.27
-48.99
-51.20
-51.07
-48.10
-42.34
-34.40
-25.20
-15.74
-6.77
1.33
8.56
15.06
21.00
26.47
31.40
35.69
39.30
42.25
44.65
46.63
48.23
49.44
50.15
50.30
49.95
49.26
48.48
47.82
47.40
47.16
46.94
46.55
45.89
44.89
43.61
42.05
40.26
38.27
36.14
33.95
31.82
29.77
27.77
25.76
23.63
21.38
19.08
16.88
14.88
13.09
11.41
9.63
7.50
4.90
1.85
-1.41
-4.52
-7.19
-9.33
-11.14
-13.08
-15.64
-19.13
-23.47
-28.25
-32.80
-36.43
-38.55
-38.74
-36.85
-32.96
-27.41
-20.80
-13.88
-7.37
-1.85
2.43
5.49
7.52
8.76
9.32
9.20
8.37
6.89
4.96
2.82
0.79
-0.91
-2.16
-2.90
-3.17
-2.99
-2.46
-1.73
-1.01
-0.54
-0.55
-1.20
-2.52
-4.38
-6.60
-8.92
-11.16
-13.22
-15.13
-17.01
-19.00
-21.18
-23.53
-25.92
-28.22
-30.29
-32.09
-33.66
-35.09
-36.46
-37.81
-39.18
-40.61
-42.18
-44.06
-46.44
-49.48
-53.24
-57.58
-62.09
-66.03
-68.54
-68.84
-66.43
-61.37
-54.21
-45.82
-37.14
-28.86
-21.35
-14.65
-8.62
-3.07
2.10
6.92
11.33
15.25
18.60
21.34
23.49
25.12
26.33
27.22
27.88
28.41
28.90
29.49
30.25
31.18
32.18
33.00
33.41
33.26
32.51
31.30
29.82
28.27
26.73
25.17
23.49
21.62
19.56
17.43
15.38
13.54
11.93
10.45
8.94
7.29
5.46
3.51
1.56
-0.34
-2.22
-4.19
-6.42
-8.96
-11.80
-14.74
-17.57
-20.16
-22.52
-24.86
-27.52
-30.81
-34.92
-39.80
-45.19
-50.52
-55.09
-58.08
-58.71
-56.50
-51.32
-43.56
-33.98
-23.54
-13.12
-3.31
5.59
13.61
20.89
27.60
33.88
39.77
45.23
50.08
54.10
57.05
58.82
59.45
59.19
58.38
57.39
56.48
55.80
55.37
55.08
54.85
54.48
53.83
52.75
51.18
49.10
46.57
43.71
40.66
37.60
34.62
31.75
28.93
26.08
23.19
20.31
17.59
15.21
13.28
11.79
10.64
9.63
8.57
7.29
5.65
3.60
1.20
-1.40
-4.03
-6.54
-8.87
-11.11
-13.49
-16.28
-19.76
-24.07
-29.14
-34.57
-39.62
-43.30
-44.71
-43.25
-38.93
-32.31
-24.33
-15.96
-7.93
-0.68
5.59
10.79
14.83
17.66
19.27
19.75
19.25
18.02
16.25
14.15
11.92
9.78
7.91
6.48
5.57
5.17
5.15
5.34
5.46
5.23
4.36
2.66
0.11
-3.13
-6.75
-10.39
-13.74
-16.61
-19.03
-21.11
-23.06
-25.07
-27.17
-29.29
-31.23
-32.76
-33.80
-34.40
-34.83
-35.38
-36.29
-37.58
-39.12
-40.70
-42.16
-43.50
-44.82
-46.35
-48.30
-50.82
-53.88
-57.23
-60.33
-62.38
-62.58
-60.32
-55.47
-48.40
-39.92
-30.95
-22.28
-14.35
-7.29
-1.00
4.75
10.17
15.40
20.49
25.38
29.89
33.79
36.83
38.84
39.79
39.83
39.24
38.39
37.63
37.18
37.12
37.33
37.56
37.56
37.17
36.34
35.20
33.86
32.39
30.79
29.02
27.05
24.93
22.80
20.82
19.11
17.65
16.34
14.98
13.45
11.68
9.72
7.68
5.66
3.76
2.02
0.51
-0.67
-1.44
-1.80
-1.89
-2.02
-2.53
-3.72
-5.71
-8.46
-11.80
-15.52
-19.45
-23.41
-27.21
-30.66
-33.60
-35.99
-38.00
-40.02
-42.52
-45.88
-50.18
-55.05
-59.70
-63.10
-64.33
-62.75
-58.30
-51.44
-42.97
-33.82
-24.74
-16.24
-8.48
-1.40
5.23
11.58
17.78
23.80
29.51
34.71
39.20
42.80
45.39
46.97
47.59
47.41
46.70
45.76
44.81
44.05
43.51
43.16
42.95
42.79
42.62
42.40
42.06
41.59
41.01
40.39
39.80
39.23
38.60
37.75
36.56
35.01
33.22
31.39
29.76
28.44
27.41
26.51
25.57
24.49
23.27
21.98
20.72
19.54
18.41
17.24
15.92
14.34
12.45
10.25
7.78
5.13
2.44
-0.24
-2.91
-5.68
-8.76
-12.34
-16.54
-21.35
-26.64
-32.14
-37.44
-42.00
-45.18
-46.36
-45.13
-41.53
-36.02
-29.44
-22.70
-16.53
-11.29
-6.95
-3.25
0.10
3.30
6.34
9.07
11.30
12.82
13.54
13.51
12.89
12.00
11.17
10.68
10.67
11.09
11.74
12.31
12.50
12.08
10.94
9.11
6.77
4.19
1.70
-0.43
-2.12
-3.49
-4.89
-6.67
-9.06
-12.05
-15.38
-18.70
-21.67
-24.13
-26.06
-27.61
-28.99
-30.46
-32.20
-34.37
-36.98
-39.90
-42.98
-46.02
-48.99
-51.94
-55.03
-58.29
-61.51
-64.22
-65.69
-65.24
-62.42
-57.21
-50.03
-41.58
-32.65
-23.90
-15.77
-8.47
-2.02
3.66
8.73
13.34
17.62
21.62
25.26
28.36
30.69
32.14
32.72
32.66
32.27
31.85
31.57
31.45
31.36
31.18
30.84
30.35
29.69
28.83
27.67
26.16
24.40
22.58
20.98
19.80
18.97
18.24
17.27
15.83
13.91
11.73
9.59
7.69
6.03
4.50
2.89
1.08
-0.98
-3.23
-5.60
-8.03
-10.44
-12.80
-15.09
-17.32
-19.57
-21.92
-24.42
-27.03
-29.65
-32.13
-34.40
-36.54
-38.72
-41.22
-44.26
-47.88
-51.81
-55.48
-58.07
-58.76
-56.97
-52.53
-45.76
-37.39
-28.30
-19.27
-10.87
-3.37
3.20
8.93
14.00
18.59
22.85
26.85
30.57
33.87
36.57
38.49
39.53
39.75
39.37
38.73
38.19
38.07
38.49
39.36
40.44
41.43
42.12
42.41
42.39
42.19
41.89
41.46
40.84
39.92
38.72
37.35
35.97
34.73
33.69
32.81
32.02
31.23
30.42
29.59
28.73
27.79
26.71
25.40
23.80
21.97
20.04
18.19
16.59
15.32
14.31
13.31
12.08
10.43
8.37
6.08
3.81
1.72
-0.16
-1.97
-3.90
-6.12
-8.74
-11.87
-15.63
-20.10
-25.16
-30.39
-35.07
-38.29
-39.33
-37.86
-34.15
-28.85
-22.83
-16.82
-11.27
-6.31
-1.87
2.13
5.74
8.92
11.53
13.44
14.54
14.89
14.57
13.78
12.68
11.44
10.17
8.95
7.88
7.02
6.41
6.00
5.70
5.34
4.81
3.98
2.82
1.33
-0.43
-2.40
-4.52
-6.78
-9.12
-11.57
-14.00
-16.31
-18.36
-20.09
-21.52
-22.80
-24.11
-25.63
-27.48
-29.69
-32.21
-34.93
-37.69
-40.35
-42.86
-45.24
-47.63
-50.25
-53.32
-56.92
-60.89
-64.78
-67.89
-69.40
-68.64
-65.28
-59.48
-51.86
-43.35
-34.87
-27.04
-20.14
-14.03
-8.43
-3.03
2.32
7.56
12.48
16.79
20.26
22.80
24.51
25.62
26.37
26.97
27.47
27.84
28.05
28.13
28.16
28.19
28.20
28.00
27.39
26.22
24.52
22.56
20.67
19.10
17.91
16.94
15.95
14.77
13.34
11.76
10.17
8.60
7.00
5.27
3.34
1.22
-0.94
-2.97
-4.75
-6.30
-7.78
-9.38
-11.27
-13.52
-16.08
-18.79
-21.53
-24.18
-26.68
-29.07
-31.43
-33.91
-36.70
-40.02
-44.02
-48.69
-53.78
-58.72
-62.73
-64.97
-64.75
-61.76
-56.16
-48.54
-39.78
-30.76
-22.24
-14.62
-8.00
-2.14
3.30
8.70
14.26
19.94
25.53
30.65
34.95
38.21
40.42
41.76
42.53
43.04
43.54
44.16
44.93
45.84
46.85
47.86
48.68
49.08
48.87
47.99
46.60
45.03
43.63
42.62
41.91
41.25
40.32
38.93
37.13
35.14
33.24
31.62
30.32
29.23
28.18
27.01
25.64
24.06
22.32
20.53
18.79
17.23
15.94
14.98
14.35
14.00
13.79
13.60
13.30
12.84
12.26
11.63
11.03
10.49
9.94
9.28
8.32
6.95
5.10
2.79
0.20
-2.49
-4.99
-7.16
-8.89
-10.29
-11.49
-12.66
-13.92
-15.32
-16.84
-18.48
-20.33
-22.55
-25.39
-29.06
-33.55
-38.52
-43.32
-47.04
-48.77
-47.94
-44.47
-38.83
-31.87
-24.52
-17.52
-11.32
-6.02
-1.59
2.07
5.05
7.44
9.33
10.81
11.95
12.79
13.36
13.71
13.88
13.94
13.93
13.91
13.95
14.17
14.61
15.26
15.90
16.24
15.99
15.01
13.39
11.43
9.42
7.55
5.81
4.07
2.18
0.07
-2.18
-4.46
-6.65
-8.72
-10.73
-12.74
-14.79
-16.91
-19.07
-21.28
-23.57
-25.99
-28.58
-31.31
-34.10
-36.94
-39.87
-43.06
-46.79
-51.25
-56.36
-61.76
-66.67
-70.13
-71.22
-69.35
-64.46
-57.03
-47.97
-38.24
-28.70
-19.85
-11.82
-4.50
2.28
8.67
14.62
20.00
24.60
28.23
30.83
32.42
33.19
33.38
33.28
33.06
32.84
32.65
32.49
32.42
32.52
32.87
33.46
34.10
34.47
34.23
33.21
31.50
29.42
27.40
25.74
24.54
23.64
22.76
21.66
20.19
18.35
16.25
13.98
11.60
9.14
6.57
3.92
1.18
-1.62
-4.48
-7.37
-10.24
-13.03
-15.67
-18.15
-20.57
-23.09
-25.85
-28.92
-32.21
-35.49
-38.50
-41.08
-43.32
-45.55
-48.30
-52.05
-57.08
-63.23
-69.78
-75.57
-79.28
-79.78
-76.50
-69.69
-60.29
-49.55
-38.74
-28.65
-19.54
-11.23
-3.30
4.74
13.32
22.64
32.56
42.49
51.46
58.34
62.33
63.27
61.73
58.81
55.67
53.14
51.54
50.77
50.59
50.83
51.38
52.13
52.86
53.21
52.88
51.74
49.94
47.83
45.78
44.12
42.93
42.11
41.37
40.46
39.21
37.67
36.00
34.42
33.12
32.14
31.43
30.85
30.25
29.56
28.79
27.96
27.12
26.30
25.52
24.74
23.91
22.93
21.73
20.28
18.61
16.78
14.90
13.01
11.11
9.10
6.86
4.33
1.54
-1.37
-4.18
-6.75
-9.02
-11.09
-13.18
-15.63
-18.81
-23.01
-28.37
-34.65
-41.24
-47.13
-51.20
-52.49
-50.54
-45.57
-38.38
-30.14
-21.96
-14.64
-8.56
-3.74
0.02
2.95
5.28
7.15
8.64
9.77
10.54
10.95
11.05
10.92
10.68
10.48
10.42
10.54
10.84
11.28
11.82
12.37
12.84
13.05
12.81
11.96
10.48
8.51
6.24
3.89
1.60
-0.57
-2.60
-4.49
-6.22
-7.79
-9.24
-10.68
-12.23
-13.96
-15.87
-17.88
-19.86
-21.74
-23.55
-25.36
-27.33
-29.51
-31.86
-34.24
-36.48
-38.47
-40.22
-41.87
-43.67
-45.87
-48.69
-52.15
-56.15
-60.28
-63.91
-66.25
-66.57
-64.39
-59.68
-52.87
-44.72
-36.07
-27.61
-19.72
-12.53
-6.03
-0.13
5.22
10.03
14.32
18.09
21.38
24.23
26.67
28.73
30.45
31.90
33.10
34.11
34.90
35.51
35.93
36.16
36.17
35.91
35.32
34.37
33.06
31.49
29.69
27.75
25.70
23.58
21.43
19.28
17.24
15.38
13.80
12.58
11.77
11.31
11.08
10.85
10.34
9.37
7.90
6.05
4.01
1.97
0.07
-1.72
-3.47
-5.29
-7.30
-9.54
-12.00
-14.68
-17.49
-20.42
-23.41
-26.47
-29.56
-32.63
-35.60
-38.41
-41.05
-43.62
-46.37
-49.59
-53.56
-58.36
-63.75
-69.14
-73.65
-76.31
-76.33
-73.28
-67.25
-58.79
-48.73
-38.01
-27.37
-17.40
-8.37
-0.36
6.71
13.08
19.03
24.82
30.58
36.17
41.29
45.50
48.50
50.23
50.94
51.08
51.07
51.21
51.53
51.97
52.45
52.90
53.30
53.54
53.41
52.73
51.43
49.67
47.79
46.16
44.98
44.21
43.58
42.83
41.80
40.54
39.19
37.90
36.68
35.45
34.11
32.62
31.02
29.40
27.85
26.41
25.03
23.62
22.05
20.24
18.11
15.70
13.10
10.47
7.94
5.57
3.27
0.90
-1.74
-4.70
-7.89
-11.14
-14.28
-17.27
-20.23
-23.40
-27.02
-31.26
-36.21
-41.92
-48.29
-55.03
-61.56
-67.01
-70.36
-70.78
-67.87
-61.87
-53.60
-44.19
-34.78
-26.21
-18.95
-13.04
-8.31
-4.49
-1.33
1.31
3.53
5.31
6.62
7.40
7.64
7.38
6.82
6.20
5.84
5.96
6.60
7.67
8.93
10.11
10.93
11.26
11.03
10.28
9.16
7.86
6.59
5.43
4.40
3.39
2.26
0.88
-0.78
-2.65
-4.65
-6.65
-8.56
-10.29
-11.76
-12.93
-13.85
-14.65
-15.60
-16.98
-19.04
-21.87
-25.43
-29.50
-33.83
-38.16
-42.36
-46.43
-50.55
-54.98
-60.03
-65.84
-72.30
-78.87
-84.64
-88.52
-89.43
-86.73
-80.32
-70.80
-59.22
-46.78
-34.58
-23.34
-13.34
-4.49
3.49
10.96
18.21
25.31
32.14
38.40
43.71
47.76
50.46
51.97
52.64
52.88
53.04
53.28
53.61
53.97
54.25
54.39
54.30
53.87
53.02
51.69
49.92
47.87
45.75
43.71
41.80
39.98
38.13
36.19
34.11
31.99
29.90
27.89
25.95
24.04
22.12
20.17
18.21
16.19
14.08
11.77
9.17
6.31
3.31
0.35
-2.42
-4.98
-7.49
-10.17
-13.27
-16.83
-20.75
-24.77
-28.64
-32.23
-35.53
-38.71
-42.02
-45.76
-50.20
-55.55
-61.82
-68.71
-75.47
-80.97
-83.94
-83.31
-78.54
-69.83
-58.07
-44.55
-30.57
-17.14
-4.82
6.24
16.12
25.03
33.13
40.54
47.27
53.31
58.53
62.78
65.91
67.89
68.79
68.86
68.49
68.06
67.92
68.21
68.87
69.62
70.07
69.90
68.89
67.04
64.49
61.48
58.24
54.92
51.66
48.51
45.51
42.66
39.93
37.31
34.81
32.45
30.28
28.28
26.36
24.38
22.22
19.81
17.17
14.42
11.67
8.99
6.36
3.72
0.97
-1.90
-4.85
-7.77
-10.52
-13.01
-15.29
-17.53
-20.05
-23.18
-27.22
-32.32
-38.43
-45.26
-52.27
-58.64
-63.47
-65.84
-65.10
-61.10
-54.22
-45.33
-35.50
-25.73
-16.73
-8.83
-2.11
3.53
8.17
11.85
14.57
16.36
17.28
17.53
17.35
17.02
16.82
16.93
17.42
18.24
19.27
20.34
21.33
22.11
22.58
22.64
22.21
21.25
19.76
17.82
15.54
13.03
10.41
7.77
5.19
2.69
0.24
-2.22
-4.74
-7.33
-9.94
-12.41
-14.63
-16.54
-18.18
-19.70
-21.29
-23.15
-25.37
-27.90
-30.62
-33.35
-35.97
-38.48
-41.01
-43.84
-47.27
-51.59
-56.88
-62.94
-69.21
-74.78
-78.63
-79.78
-77.63
-72.18
-64.00
-54.10
-43.60
-33.37
-23.88
-15.15
-6.98
0.86
8.48
15.77
22.49
28.37
33.30
37.25
40.35
42.71
44.43
45.53
46.02
45.98
45.61
45.12
44.75
44.60
44.66
44.77
44.65
44.07
42.90
41.17
39.04
36.75
34.50
32.40
30.45
28.59
26.76
24.96
23.27
21.77
20.46
19.26
18.07
16.80
15.46
14.15
12.96
11.95
11.04
10.13
9.10
7.89
6.53
5.09
3.69
2.41
1.30
0.32
-0.61
-1.63
-2.81
-4.20
-5.76
-7.42
-9.14
-10.94
-12.91
-15.17
-17.80
-20.77
-23.93
-27.11
-30.12
-32.94
-35.66
-38.49
-41.73
-45.63
-50.29
-55.57
-61.02
-65.90
-69.33
-70.52
-68.97
-64.66
-58.06
-49.92
-41.06
-32.14
-23.58
-15.61
-8.30
-1.65
4.42
10.09
15.54
20.92
26.21
31.20
35.60
39.19
41.89
43.84
45.24
46.31
47.15
47.80
48.28
48.60
48.82
48.88
48.67
47.99
46.72
44.88
42.65
40.33
38.10
36.04
34.05
32.03
30.01
28.15
26.65
25.60
24.89
24.22
23.32
22.07
20.59
19.15
18.02
17.27
16.80
16.36
15.76
14.96
14.03
13.10
12.25
11.49
10.76
9.99
9.17
8.33
7.46
6.49
5.34
3.86
1.99
-0.24
-2.72
-5.25
-7.65
-9.80
-11.73
-13.60
-15.71
-18.38
-21.84
-26.07
-30.74
-35.22
-38.78
-40.74
-40.73
-38.74
-35.15
-30.55
-25.59
-20.83
-16.68
-13.25
-10.53
-8.35
-6.55
-5.01
-3.73
-2.76
-2.15
-1.88
-1.90
-2.16
-2.64
-3.33
-4.17
-4.98
-5.48
-5.39
-4.64
-3.41
-2.12
-1.22
-1.03
-1.54
-2.47
-3.53
-4.47
-5.29
-6.15
-7.22
-8.59
-10.15
-11.73
-13.12
-14.22
-15.03
-15.65
-16.20
-16.75
-17.34
-17.94
-18.52
-19.03
-19.44
-19.79
-20.18
-20.73
-21.55
-22.68
-24.03
-25.46
-26.83
-28.09
-29.32
-30.71
-32.48
-34.83
-37.83
-41.42
-45.37
-49.28
-52.55
-54.52
-54.63
-52.57
-48.46
-42.77
-36.28
-29.76
-23.83
-18.82
-14.76
-11.48
-8.75
-6.33
-4.05
-1.78
0.58
3.03
5.52
7.94
10.06
11.72
12.83
13.47
13.85
14.21
14.75
15.49
16.33
17.10
17.65
17.91
17.89
17.65
17.25
16.77
16.26
15.79
15.38
14.98
14.47
13.78
12.90
11.99
11.24
10.83
10.79
10.98
11.13
10.96
10.34
9.28
7.97
6.62
5.39
4.33
3.38
2.40
1.26
-0.14
-1.80
-3.62
-5.51
-7.34
-9.10
-10.84
-12.68
-14.75
-17.09
-19.66
-22.33
-24.97
-27.44
-29.70
-31.79
-33.80
-35.98
-38.57
-41.79
-45.66
-49.91
-53.99
-57.13
-58.55
-57.69
-54.38
-48.92
-41.90
-34.13
-26.33
-19.05
-12.53
-6.79
-1.65
3.10
7.66
12.18
16.68
21.09
25.23
28.93
32.05
34.53
36.43
37.90
39.12
40.24
41.38
42.57
43.77
44.87
45.70
46.05
45.80
44.92
43.53
41.88
40.20
38.66
37.28
35.99
34.70
33.36
31.99
30.64
29.42
28.37
27.51
26.78
26.13
25.49
24.83
24.11
23.29
22.33
21.16
19.76
18.19
16.57
15.04
13.72
12.62
11.60
10.47
8.98
7.06
4.78
2.29
-0.19
-2.62
-5.04
-7.61
-10.51
-13.87
-17.76
-22.25
-27.38
-33.11
-39.19
-45.03
-49.77
-52.49
-52.53
-49.76
-44.63
-38.06
-31.08
-24.54
-18.90
-14.23
-10.33
-6.96
-3.96
-1.29
0.99
2.82
4.17
5.08
5.60
5.83
5.82
5.61
5.29
5.01
4.98
5.34
6.14
7.27
8.43
9.24
9.36
8.63
7.10
5.02
2.71
0.46
-1.60
-3.48
-5.30
-7.18
-9.12
-11.05
-12.88
-14.55
-16.09
-17.59
-19.13
-20.69
-22.25
-23.72
-25.15
-26.66
-28.41
-30.55
-33.11
-35.97
-38.92
-41.80
-44.59
-47.44
-50.69
-54.69
-59.68
-65.54
-71.75
-77.43
-81.48
-82.92
-81.16
-76.13
-68.33
-58.66
-48.11
-37.55
-27.56
-18.35
-9.88
-1.94
5.67
13.05
20.10
26.62
32.29
36.89
40.35
42.77
44.40
45.56
46.48
47.31
48.14
48.99
49.87
50.74
51.48
51.92
51.85
51.13
49.74
47.80
45.53
43.16
40.91
38.86
36.98
35.14
33.18
31.02
28.66
26.22
23.89
21.77
19.91
18.18
16.42
14.45
12.15
9.51
6.61
3.57
0.50
-2.58
-5.65
-8.78
-11.98
-15.27
-18.59
-21.90
-25.11
-28.22
-31.25
-34.31
-37.57
-41.22
-45.49
-50.57
-56.41
-62.63
-68.40
-72.54
-73.91
-71.69
-65.77
-56.74
-45.66
-33.75
-21.96
-10.87
-0.64
8.74
17.43
25.56
33.23
40.45
47.15
53.15
58.20
62.07
64.65
66.00
66.33
65.93
65.15
64.31
63.68
63.41
63.54
63.94
64.37
64.55
64.25
63.39
62.01
60.22
58.08
55.65
52.95
50.03
47.02
44.04
41.22
38.56
36.03
33.54
31.03
28.49
25.95
23.45
21.01
18.65
16.31
13.88
11.20
8.10
4.53
0.61
-3.39
-7.12
-10.39
-13.25
-15.98
-19.02
-22.74
-27.38
-32.95
-39.22
-45.74
-51.78
-56.46
-58.85
-58.22
-54.32
-47.48
-38.56
-28.70
-18.94
-10.02
-2.21
4.50
10.21
14.94
18.61
21.07
22.23
22.23
21.35
19.98
18.47
17.04
15.79
14.76
13.99
13.50
13.30
13.36
13.56
13.72
13.64
13.15
12.16
10.67
8.80
6.76
4.71
2.77
0.90
-1.05
-3.23
-5.73
-8.48
-11.30
-13.91
-16.17
-18.12
-20.00
-22.09
-24.58
-27.49
-30.60
-33.60
-36.28
-38.60
-40.77
-43.15
-46.09
-49.83
-54.41
-59.62
-64.99
-69.78
-73.13
-74.13
-72.19
-67.07
-59.14
-49.19
-38.22
-27.21
-16.83
-7.40
1.07
8.78
15.98
22.83
29.32
35.28
40.42
44.43
47.15
48.60
49.00
48.74
48.20
47.74
47.57
47.73
48.14
48.60
48.85
48.67
47.91
46.57
44.72
42.56
40.26
37.99
35.81
33.70
31.55
29.28
26.84
24.25
21.61
19.03
16.55
14.19
11.85
9.49
7.14
4.90
2.92
1.26
-0.15
-1.48
-2.96
-4.72
-6.79
-9.01
-11.18
-13.11
-14.77
-16.29
-17.87
-19.73
-21.92
-24.38
-26.94
-29.42
-31.70
-33.79
-35.74
-37.73
-39.98
-42.74
-46.24
-50.53
-55.30
-59.88
-63.30
-64.57
-63.02
-58.50
-51.43
-42.57
-32.80
-22.88
-13.36
-4.57
3.32
10.34
16.62
22.38
27.85
33.15
38.26
42.99
47.04
50.16
52.20
53.20
53.35
52.96
52.41
52.02
52.00
52.31
52.74
52.90
52.47
51.27
49.39
47.11
44.77
42.58
40.58
38.66
36.65
34.46
32.09
29.67
27.29
25.00
22.79
20.59
18.39
16.21
14.12
12.18
10.46
8.94
7.57
6.22
4.72
2.96
0.94
-1.23
-3.34
-5.21
-6.76
-8.15
-9.64
-11.59
-14.27
-17.84
-22.32
-27.64
-33.57
-39.65
-45.17
-49.24
-51.01
-50.03
-46.40
-40.86
-34.41
-28.06
-22.41
-17.65
-13.57
-9.92
-6.51
-3.36
-0.63
1.52
3.00
3.83
4.13
4.06
3.77
3.41
3.11
3.02
3.27
3.93
5.02
6.39
7.80
8.95
9.59
9.60
9.07
8.19
7.18
6.18
5.20
4.15
2.93
1.52
-0.03
-1.62
-3.18
-4.73
-6.36
-8.09
-9.91
-11.71
-13.38
-14.94
-16.50
-18.26
-20.35
-22.76
-25.31
-27.78
-30.04
-32.11
-34.16
-36.47
-39.32
-42.87
-47.15
-51.90
-56.67
-60.77
-63.45
-64.07
-62.31
-58.28
-52.45
-45.55
-38.32
-31.37
-25.06
-19.46
-14.44
-9.77
-5.19
-0.58
4.07
8.59
12.73
16.26
19.04
21.02
22.32
23.09
23.59
24.02
24.57
25.33
26.30
27.39
28.41
29.14
29.41
29.10
28.22
26.88
25.27
23.59
21.98
20.51
19.12
17.74
16.32
14.91
13.57
12.41
11.46
10.66
9.92
9.17
8.43
7.77
7.29
6.98
6.76
6.46
5.95
5.16
4.11
2.86
1.50
0.05
-1.53
-3.32
-5.41
-7.86
-10.71
-13.87
-17.18
-20.48
-23.62
-26.54
-29.32
-32.13
-35.17
-38.61
-42.57
-47.07
-51.99
-56.94
-61.30
-64.23
-64.91
-62.85
-58.07
-51.13
-42.94
-34.42
-26.30
-18.95
-12.43
-6.60
-1.21
3.99
9.22
14.57
19.97
25.18
29.87
33.70
36.48
38.18
38.98
39.14
38.95
38.69
38.57
38.73
39.23
40.05
41.03
41.98
42.63
42.78
42.30
41.27
39.86
38.39
37.10
36.06
35.21
34.38
33.41
32.25
31.05
29.96
29.08
28.35
27.60
26.68
25.56
24.42
23.51
23.03
22.94
22.96
22.71
21.87
20.37
18.43
16.46
14.82
13.69
12.97
12.39
11.60
10.31
8.38
5.82
2.79
-0.49
-3.79
-6.98
-10.04
-13.16
-16.61
-20.67
-25.50
-31.04
-36.90
-42.41
-46.77
-49.19
-49.15
-46.53
-41.69
-35.35
-28.41
-21.66
-15.65
-10.65
-6.66
-3.58
-1.27
0.40
1.54
2.33
2.92
3.40
3.79
4.03
4.04
3.80
3.43
3.11
3.09
3.50
4.34
5.46
6.60
7.44
7.72
7.33
6.31
4.85
3.23
1.68
0.37
-0.69
-1.63
-2.61
-3.85
-5.45
-7.49
-9.89
-12.50
-15.10
-17.46
-19.42
-20.96
-22.21
-23.46
-24.98
-26.95
-29.38
-32.08
-34.83
-37.44
-39.85
-42.17
-44.64
-47.54
-51.09
-55.37
-60.22
-65.15
-69.42
-72.14
-72.52
-70.16
-65.14
-58.07
-49.81
-41.22
-32.98
-25.44
-18.68
-12.60
-7.04
-1.86
3.03
7.67
11.97
15.76
18.86
21.18
22.73
23.69
24.28
24.78
25.39
26.25
27.40
28.76
30.16
31.29
31.86
31.68
30.78
29.36
27.78
26.31
25.09
24.12
23.31
22.57
21.86
21.09
20.20
19.12
17.86
16.52
15.27
14.26
13.48
12.70
11.58
9.81
7.30
4.21
0.90
-2.24
-4.97
-7.24
-9.23
-11.26
-13.60
-16.40
-19.66
-23.21
-26.75
-30.09
-33.08
-35.77
-38.30
-40.92
-43.87
-47.39
-51.61
-56.45
-61.56
-66.17
-69.28
-69.93
-67.47
-61.90
-53.83
-44.29
-34.34
-24.79
-16.01
-8.08
-0.85
5.85
12.14
18.11
23.81
29.19
34.15
38.47
41.95
44.43
45.88
46.41
46.25
45.71
45.10
44.67
44.57
44.82
45.28
45.79
46.14
46.27
46.18
45.96
45.69
45.37
44.96
44.37
43.58
42.61
41.58
40.60
39.76
39.06
38.45
37.79
36.98
36.00
34.87
33.70
32.63
31.70
30.88
30.09
29.21
28.17
26.96
25.62
24.16
22.57
20.77
18.67
16.20
13.33
10.13
6.72
3.29
0.00
-3.01
-5.72
-8.21
-10.69
-13.46
-16.83
-21.04
-26.19
-32.07
-38.20
-43.79
-47.91
-49.72
-48.74
-44.95
-38.83
-31.15
-22.84
-14.67
-7.19
-0.71
4.67
8.98
12.38
15.03
17.15
18.85
20.15
21.05
21.49
21.53
21.27
20.90
20.59
20.43
20.48
20.75
21.19
21.73
22.24
22.54
22.42
21.71
20.33
18.32
15.87
13.21
10.60
8.19
6.00
3.93
1.83
-0.43
-2.89
-5.47
-8.04
-10.52
-12.95
-15.42
-18.07
-20.98
-24.13
-27.40
-30.58
-33.52
-36.15
-38.57
-41.00
-43.75
-47.15
-51.41
-56.53
-62.23
-67.94
-72.83
-76.00
-76.68
-74.43
-69.28
-61.76
-52.74
-43.20
-33.99
-25.65
-18.34
-11.96
-6.25
-0.99
3.95
8.53
12.59
15.97
18.56
20.41
21.75
22.86
23.99
25.26
26.66
28.07
29.39
30.52
31.43
32.10
32.44
32.34
31.71
30.55
29.01
27.31
25.69
24.29
23.13
22.06
20.92
19.52
17.75
15.64
13.29
10.87
8.54
6.45
4.64
3.11
1.76
0.48
-0.86
-2.41
-4.30
-6.59
-9.27
-12.27
-15.47
-18.77
-22.09
-25.41
-28.70
-31.89
-34.92
-37.84
-40.81
-44.13
-48.17
-53.10
-58.74
-64.46
-69.26
-72.07
-72.06
-68.95
-63.04
-55.05
-45.89
-36.38
-27.08
-18.27
-10.05
-2.38
4.82
11.62
18.09
24.15
29.67
34.40
38.15
40.77
42.35
43.17
43.56
43.86
44.21
44.60
44.90
44.97
44.79
44.42
43.98
43.52
42.98
42.20
41.06
39.52
37.70
35.81
34.02
32.43
31.02
29.68
28.30
26.91
25.59
24.47
23.67
23.15
22.81
22.46
21.98
21.29
20.49
19.72
19.11
18.74
18.57
18.47
18.31
17.94
17.34
16.47
15.38
14.07
12.53
10.71
8.55
6.04
3.23
0.22
-2.82
-5.79
-8.65
-11.49
-14.54
-18.09
-22.40
-27.53
-33.26
-38.96
-43.75
-46.73
-47.24
-45.08
-40.58
-34.47
-27.58
-20.58
-13.93
-7.78
-2.22
2.73
7.03
10.65
13.66
16.15
18.22
19.89
21.12
21.75
21.77
21.25
20.44
19.62
19.05
18.83
18.93
19.20
19.45
19.55
19.38
18.92
18.17
17.17
15.98
14.70
13.42
12.18
10.98
9.73
8.27
6.49
4.28
1.65
-1.28
-4.31
-7.28
-10.12
-12.86
-15.58
-18.35
-21.16
-23.92
-26.51
-28.95
-31.38
-34.03
-37.19
-41.06
-45.65
-50.71
-55.79
-60.21
-63.25
-64.27
-62.88
-59.07
-53.25
-46.11
-38.49
-31.09
-24.36
-18.48
-13.31
-8.63
-4.19
0.08
4.10
7.68
10.64
12.93
14.71
16.20
17.63
19.05
20.38
21.46
22.20
22.67
23.10
23.65
24.35
25.00
25.26
24.87
23.73
21.98
19.89
17.74
15.66
13.66
11.66
9.56
7.32
4.93
2.43
-0.12
-2.60
-4.90
-6.95
-8.75
-10.42
-12.16
-14.19
-16.67
-19.57
-22.76
-25.98
-29.07
-31.94
-34.72
-37.66
-41.13
-45.38
-50.43
-55.94
-61.16
-65.11
-66.78
-65.53
-61.22
-54.29
-45.59
-36.10
-26.69
-17.94
-10.10
-3.15
3.05
8.76
14.14
19.32
24.21
28.62
32.30
35.01
36.67
37.37
37.38
37.06
36.73
36.60
36.73
37.10
37.61
38.18
38.67
38.98
38.94
38.42
37.38
35.90
34.19
32.50
31.01
29.77
28.66
27.51
26.18
24.59
22.81
21.01
19.37
18.03
17.04
16.30
15.66
14.93
13.96
12.72
11.24
9.65
8.08
6.66
5.48
4.51
3.64
2.70
1.50
-0.06
-1.97
-4.10
-6.25
-8.26
-10.16
-12.13
-14.48
-17.56
-21.58
-26.51
-32.01
-37.41
-41.89
-44.61
-44.93
-42.59
-37.80
-31.16
-23.51
-15.70
-8.43
-2.12
3.14
7.51
11.29
14.78
18.20
21.60
24.84
27.72
29.98
31.49
32.26
32.46
32.36
32.20
32.14
32.20
32.33
32.48
32.61
32.69
32.63
32.25
31.31
29.66
27.36
24.66
21.97
19.61
17.64
15.91
14.10
11.95
9.40
6.58
3.75
1.10
-1.36
-3.78
-6.37
-9.26
-12.48
-15.91
-19.42
-22.95
-26.50
-30.20
-34.17
-38.58
-43.48
-48.79
-54.21
-59.24
-63.22
-65.51
-65.59
-63.26
-58.64
-52.19
-44.59
-36.53
-28.62
-21.21
-14.48
-8.36
-2.73
2.45
7.11
11.01
13.96
15.86
16.87
17.31
17.58
18.00
18.74
19.82
21.14
22.61
24.09
25.44
26.51
27.16
27.27
26.86
26.03
24.95
23.78
22.62
21.49
20.36
19.17
17.86
16.38
14.74
12.94
11.02
9.04
7.07
5.18
3.35
1.52
-0.41
-2.49
-4.69
-6.93
-9.13
-11.28
-13.44
-15.74
-18.26
-20.98
-23.84
-26.71
-29.52
-32.28
-35.06
-38.03
-41.36
-45.27
-49.80
-54.79
-59.78
-64.01
-66.59
-66.78
-64.25
-59.14
-52.07
-43.87
-35.33
-27.03
-19.23
-12.00
-5.27
1.09
7.21
13.23
19.20
25.07
30.63
35.54
39.44
42.16
43.74
44.47
44.72
44.91
45.30
46.02
47.03
48.15
49.13
49.67
49.56
48.69
47.17
45.22
43.11
41.08
39.20
37.51
35.96
34.55
33.29
32.19
31.24
30.38
29.56
28.77
28.07
27.50
27.06
26.69
26.22
25.51
24.50
23.22
21.81
20.41
19.14
18.07
17.19
16.47
15.88
15.37
14.90
14.42
13.88
13.25
12.51
11.65
10.65
9.50
8.16
6.61
4.76
2.55
-0.01
-2.89
-5.96
-9.09
-12.19
-15.33
-18.68
-22.54
-27.13
-32.48
-38.33
-43.94
-48.39
-50.67
-50.14
-46.68
-40.84
-33.61
-26.14
-19.36
-13.75
-9.39
-6.01
-3.26
-0.83
1.41
3.47
5.24
6.63
7.61
8.19
8.43
8.34
7.91
7.15
6.12
4.95
3.88
3.14
2.85
2.96
3.24
3.31
2.87
1.75
0.00
-2.13
-4.34
-6.34
-8.01
-9.38
-10.59
-11.79
-13.10
-14.53
-16.03
-17.49
-18.82
-19.96
-20.87
-21.56
-22.03
-22.37
-22.71
-23.24
-24.18
-25.58
-27.41
-29.50
-31.66
-33.79
-35.92
-38.29
-41.19
-44.79
-49.04
-53.48
-57.38
-59.79
-59.93
-57.33
-52.06
-44.74
-36.29
-27.64
-19.48
-12.17
-5.75
-0.06
5.03
9.59
13.59
16.95
19.64
21.67
23.16
24.26
25.08
25.72
26.21
26.61
26.99
27.49
28.17
28.97
29.74
30.25
30.31
29.88
29.07
28.07
27.03
26.02
25.02
23.96
22.79
21.53
20.23
18.94
17.68
16.45
15.19
13.87
12.53
11.25
10.15
9.28
8.61
7.98
7.22
6.17
4.73
2.94
0.88
-1.33
-3.58
-5.79
-7.85
-9.65
-11.09
-12.15
-12.95
-13.72
-14.76
-16.35
-18.58
-21.35
-24.40
-27.39
-30.09
-32.45
-34.61
-36.87
-39.54
-42.87
-46.91
-51.47
-55.97
-59.63
-61.54
-60.98
-57.63
-51.72
-43.91
-35.08
-26.12
-17.69
-10.17
-3.71
1.74
6.32
10.29
13.96
17.56
21.26
25.06
28.77
32.17
35.04
37.27
38.88
40.00
40.84
41.58
42.36
43.22
44.15
45.02
45.69
46.01
45.83
45.11
43.90
42.34
40.64
38.98
37.45
36.02
34.55
32.92
31.10
29.20
27.40
25.86
24.63
23.63
22.64
21.49
20.08
18.47
16.79
15.16
13.59
11.96
10.05
7.72
4.94
1.84
-1.34
-4.39
-7.16
-9.70
-12.17
-14.81
-17.90
-21.70
-26.33
-31.71
-37.46
-42.83
-46.86
-48.63
-47.57
-43.69
-37.58
-30.23
-22.67
-15.74
-9.90
-5.27
-1.70
1.04
3.13
4.69
5.74
6.26
6.27
5.82
5.05
4.13
3.24
2.52
2.02
1.77
1.76
2.01
2.46
2.98
3.36
3.36
2.86
1.91
0.70
-0.55
-1.71
-2.83
-4.10
-5.71
-7.74
-10.07
-12.45
-14.64
-16.48
-18.00
-19.37
-20.79
-22.44
-24.41
-26.63
-28.94
-31.19
-33.25
-35.19
-37.17
-39.46
-42.31
-45.90
-50.18
-54.88
-59.46
-63.16
-65.11
-64.56
-61.09
-54.79
-46.35
-36.80
-27.28
-18.68
-11.40
-5.39
-0.24
4.52
9.26
14.07
18.80
23.18
26.90
29.76
31.73
32.91
33.51
33.76
33.84
33.88
33.98
34.23
34.70
35.40
36.24
37.00
37.39
37.17
36.24
34.71
32.87
30.99
29.26
27.68
26.08
24.28
22.20
19.94
17.69
15.67
13.92
12.36
10.72
8.79
6.50
3.92
1.27
-1.29
-3.74
-6.18
-8.81
-11.77
-15.11
-18.78
-22.70
-26.80
-31.01
-35.19
-39.17
-42.82
-46.17
-49.54
-53.43
-58.27
-64.03
-69.97
-74.81
-77.08
-75.74
-70.53
-62.09
-51.62
-40.42
-29.52
-19.47
-10.42
-2.20
5.50
13.17
21.34
30.35
40.10
49.84
58.31
64.20
66.74
66.07
63.23
59.69
56.76
55.09
54.66
54.98
55.55
56.08
56.51
56.83
56.96
56.61
55.52
53.56
50.90
47.89
44.97
42.44
40.39
38.64
36.90
34.94
32.67
30.19
27.74
25.54
23.71
22.22
20.88
19.44
17.67
15.38
12.54
9.21
5.56
1.83
-1.72
-4.91
-7.66
-10.06
-12.39
-15.06
-18.51
-23.08
-28.82
-35.33
-41.78
-47.07
-50.09
-50.06
-46.75
-40.54
-32.25
-22.94
-13.64
-5.17
1.96
7.56
11.77
14.92
17.46
19.75
21.95
23.99
25.63
26.65
26.96
26.67
25.99
25.14
24.26
23.35
22.38
21.33
20.21
19.07
17.86
16.47
14.68
12.34
9.42
6.05
2.45
-1.11
-4.40
-7.33
-9.88
-12.16
-14.33
-16.52
-18.86
-21.44
-24.24
-27.25
-30.38
-33.57
-36.74
-39.88
-43.04
-46.28
-49.74
-53.56
-57.86
-62.63
-67.62
-72.30
-75.89
-77.48
-76.29
-71.94
-64.62
-55.04
-44.29
-33.49
-23.45
-14.62
-6.98
-0.26
5.92
11.80
17.43
22.68
27.28
30.95
33.55
35.11
35.86
36.15
36.38
36.82
37.57
38.57
39.66
40.65
41.37
41.66
41.46
40.72
39.47
37.79
35.83
33.77
31.72
29.73
27.74
25.66
23.39
20.92
18.33
15.74
13.26
10.94
8.73
6.55
4.31
1.95
-0.55
-3.20
-5.96
-8.80
-11.67
-14.55
-17.46
-20.46
-23.61
-26.91
-30.33
-33.72
-36.94
-39.99
-42.98
-46.24
-50.12
-54.82
-60.14
-65.45
-69.77
-71.98
-71.15
-66.81
-59.09
-48.74
-36.80
-24.46
-12.76
-2.37
6.40
13.60
19.51
24.58
29.20
33.67
38.06
42.19
45.74
48.39
49.98
50.59
50.53
50.17
49.89
49.89
50.21
50.80
51.51
52.13
52.46
52.31
51.57
50.27
48.50
46.48
44.41
42.41
40.58
38.95
37.48
36.15
34.91
33.67
32.38
31.07
29.78
28.62
27.62
26.68
25.61
24.24
22.50
20.49
18.43
16.55
14.94
13.49
12.01
10.25
8.07
5.46
2.52
-0.59
-3.71
-6.75
-9.70
-12.63
-15.75
-19.30
-23.47
-28.27
-33.41
-38.24
-41.91
-43.55
-42.56
-38.82
-32.73
-25.15
-17.15
-9.68
-3.39
1.48
5.07
7.69
9.67
11.21
12.32
12.92
12.90
12.22
10.95
9.27
7.41
5.62
4.12
3.08
2.54
2.44
2.55
2.60
2.30
1.48
0.14
-1.59
-3.47
-5.33
-7.09
-8.71
-10.26
-11.79
-13.34
-14.95
-16.64
-18.43
-20.32
-22.31
-24.39
-26.57
-28.82
-31.10
-33.35
-35.47
-37.41
-39.17
-40.86
-42.64
-44.73
-47.32
-50.53
-54.25
-58.13
-61.52
-63.58
-63.53
-60.93
-55.85
-48.89
-40.95
-32.94
-25.50
-18.88
-13.09
-7.93
-3.25
1.05
4.98
8.49
11.54
14.11
16.18
17.76
18.87
19.56
19.92
20.09
20.25
20.59
21.22
22.16
23.20
24.04
24.35
24.01
23.10
21.88
20.65
19.62
18.87
18.29
17.78
17.19
16.43
15.47
14.25
12.80
11.18
9.52
7.95
6.51
5.15
3.70
2.03
0.08
-2.07
-4.23
-6.26
-8.13
-9.94
-11.79
-13.73
-15.75
-17.77
-19.75
-21.74
-23.88
-26.27
-28.91
-31.71
-34.58
-37.52
-40.73
-44.47
-48.87
-53.66
-58.08
-61.06
-61.63
-59.18
-53.85
-46.39
-37.87
-29.33
-21.45
-14.50
-8.44
-3.10
1.72
6.19
10.44
14.56
18.54
22.31
25.63
28.29
30.15
31.25
31.81
32.11
32.42
32.89
33.53
34.26
34.95
35.49
35.79
35.79
35.47
34.89
34.14
33.34
32.53
31.71
30.80
29.78
28.69
27.69
26.88
26.32
25.89
25.39
24.66
23.70
22.61
21.62
20.88
20.45
20.29
20.34
20.56
20.90
21.26
21.47
21.31
20.69
19.67
18.46
17.34
16.48
15.87
15.33
14.62
13.53
11.99
10.00
7.65
5.05
2.25
-0.70
-3.81
-7.11
-10.72
-14.80
-19.46
-24.72
-30.29
-35.58
-39.73
-41.92
-41.56
-38.63
-33.63
-27.42
-20.90
-14.78
-9.40
-4.84
-1.07
1.95
4.28
5.96
7.12
7.90
8.44
8.79
8.93
8.84
8.52
8.02
7.46
6.95
6.63
6.54
6.71
7.08
7.49
7.75
7.69
7.20
6.28
5.04
3.61
2.05
0.39
-1.39
-3.31
-5.33
-7.34
-9.26
-11.06
-12.80
-14.57
-16.42
-18.29
-20.01
-21.47
-22.66
-23.74
-24.94
-26.42
-28.13
-29.89
-31.58
-33.25
-35.19
-37.84
-41.54
-46.29
-51.74
-57.17
-61.77
-64.74
-65.51
-63.81
-59.71
-53.66
-46.36
-38.63
-31.25
-24.64
-18.93
-13.89
-9.20
-4.61
-0.05
4.35
8.35
11.72
14.34
16.22
17.48
18.36
19.09
19.92
21.00
22.38
24.01
25.69
27.20
28.34
29.00
29.17
28.92
28.35
27.53
26.52
25.34
24.05
22.75
21.54
20.49
19.56
18.68
17.72
16.65
15.48
14.28
13.10
11.91
10.64
9.23
7.67
6.01
4.36
2.76
1.24
-0.28
-1.88
-3.60
-5.44
-7.35
-9.28
-11.27
-13.40
-15.78
-18.50
-21.54
-24.83
-28.18
-31.45
-34.59
-37.68
-40.99
-44.87
-49.62
-55.26
-61.41
-67.28
-71.81
-73.99
-73.12
-69.10
-62.35
-53.72
-44.24
-34.81
-26.04
-18.16
-11.10
-4.61
1.59
7.67
13.66
19.45
24.85
29.68
33.80
37.10
39.54
41.17
42.08
42.53
42.81
43.24
44.02
45.20
46.59
47.96
49.07
49.76
49.97
49.74
49.11
48.14
46.87
45.36
43.74
42.20
40.88
39.92
39.28
38.83
38.36
37.73
36.89
35.96
35.17
34.73
34.69
34.95
35.25
35.39
35.28
34.99
34.71
34.52
34.36
34.02
33.23
31.86
29.99
27.89
25.83
24.00
22.40
20.82
18.96
16.55
13.44
9.70
5.59
1.50
-2.19
-5.28
-7.81
-10.07
-12.56
-15.82
-20.25
-25.94
-32.53
-39.17
-44.61
-47.56
-47.10
-43.16
-36.71
-29.59
-23.90
-21.36
-22.67
-27.33
-33.90
-40.50
-45.46
-47.69
-46.78
-42.93
-36.75
-29.03
-20.67
-12.54
-5.38
0.34
4.51
7.35
9.34
11.02
12.82
14.90
17.09
19.01
20.24
20.52
19.93
18.87
17.89
17.49
17.86
18.84
20.04
21.00
21.44
21.26
20.53
19.36
17.88
16.15
14.27
12.34
10.45
8.60
6.76
4.84
2.80
0.66
-1.48
-3.55
-5.49
-7.31
-9.04
-10.70
-12.34
-14.03
-15.85
-17.93
-20.33
-23.02
-25.85
-28.69
-31.43
-34.10
-36.84
-39.87
-43.39
-47.60
-52.60
-58.39
-64.70
-71.00
-76.39
-79.84
-80.39
-77.51
-71.33
-62.56
-52.32
-41.78
-31.88
-23.15
-15.74
-9.51
-4.11
0.88
5.83
10.95
16.18
21.21
25.57
28.87
30.94
31.96
32.35
32.57
33.01
33.87
35.13
36.66
38.26
39.68
40.66
40.96
40.42
39.05
37.09
34.92
32.91
31.27
30.00
28.91
27.79
26.47
25.00
23.48
22.01
20.62
19.27
17.85
16.33
14.76
13.27
11.98
10.95
10.12
9.29
8.21
6.65
4.52
1.92
-0.86
-3.52
-5.80
-7.68
-9.35
-11.11
-13.23
-15.85
-18.93
-22.27
-25.65
-28.86
-31.81
-34.49
-36.91
-39.18
-41.49
-44.09
-47.30
-51.34
-56.15
-61.24
-65.72
-68.47
-68.51
-65.31
-59.03
-50.45
-40.68
-30.88
-21.87
-14.06
-7.43
-1.68
3.59
8.74
13.96
19.27
24.59
29.69
34.29
38.12
40.92
42.55
43.09
42.83
42.23
41.76
41.80
42.42
43.44
44.52
45.30
45.57
45.26
44.42
43.14
41.53
39.68
37.74
35.87
34.16
32.66
31.26
29.83
28.30
26.72
25.26
24.13
23.43
23.12
23.01
22.88
22.60
22.14
21.57
20.99
20.43
19.88
19.28
18.62
17.90
17.15
16.37
15.48
14.36
12.87
11.02
8.87
6.58
4.25
1.92
-0.52
-3.15
-6.03
-9.09
-12.16
-15.15
-18.13
-21.42
-25.40
-30.36
-36.18
-42.21
-47.37
-50.48
-50.67
-47.70
-42.08
-34.80
-27.00
-19.61
-13.15
-7.74
-3.28
0.40
3.40
5.80
7.66
9.05
10.06
10.70
10.97
10.87
10.44
9.85
9.30
8.99
8.99
9.29
9.75
10.20
10.51
10.57
10.26
9.50
8.24
6.46
4.28
1.88
-0.51
-2.67
-4.52
-6.07
-7.39
-8.63
-9.89
-11.28
-12.82
-14.52
-16.29
-18.02
-19.58
-20.87
-21.87
-22.70
-23.54
-24.60
-25.99
-27.73
-29.72
-31.80
-33.88
-36.00
-38.32
-41.11
-44.64
-48.95
-53.83
-58.66
-62.57
-64.60
-64.06
-60.68
-54.78
-47.11
-38.61
-30.11
-22.14
-14.92
-8.36
-2.29
3.48
9.03
14.32
19.24
23.61
27.25
30.06
32.00
33.09
33.46
33.29
32.81
32.34
32.14
32.40
33.13
34.16
35.16
35.78
35.77
35.05
33.74
32.08
30.30
28.55
26.90
25.37
23.94
22.64
21.45
20.35
19.28
18.15
16.96
15.77
14.70
13.90
13.39
13.04
12.62
11.84
10.54
8.75
6.69
4.65
2.86
1.37
0.05
-1.30
-2.83
-4.54
-6.35
-8.14
-9.88
-11.68
-13.70
-16.07
-18.84
-21.92
-25.14
-28.31
-31.30
-34.04
-36.52
-38.87
-41.23
-43.80
-46.85
-50.54
-54.87
-59.54
-63.87
-66.97
-67.87
-65.91
-60.96
-53.52
-44.56
-35.18
-26.29
-18.47
-11.81
-6.09
-0.96
3.96
8.93
14.03
19.19
24.17
28.69
32.47
35.40
37.45
38.73
39.43
39.74
39.85
39.96
40.21
40.65
41.21
41.71
41.93
41.67
40.93
39.87
38.75
37.84
37.24
36.89
36.58
36.11
35.38
34.43
33.42
32.51
31.80
31.28
30.91
30.65
30.50
30.51
30.68
30.98
31.30
31.53
31.51
31.17
30.43
29.29
27.77
25.95
23.99
22.04
20.24
18.63
17.16
15.71
14.22
12.69
11.21
9.86
8.63
7.41
6.01
4.28
2.18
-0.24
-2.84
-5.55
-8.34
-11.26
-14.44
-18.00
-22.07
-26.80
-32.24
-38.34
-44.76
-50.84
-55.64
-58.23
-57.97
-54.80
-49.22
-42.14
-34.57
-27.34
-20.91
-15.46
-10.96
-7.30
-4.38
-2.09
-0.33
1.02
2.02
2.68
2.98
2.91
2.55
2.06
1.63
1.47
1.71
2.36
3.33
4.47
5.57
6.45
6.96
7.01
6.57
5.66
4.38
2.89
1.37
-0.05
-1.33
-2.50
-3.66
-4.85
-6.08
-7.26
-8.32
-9.23
-10.06
-10.92
-11.90
-13.06
-14.35
-15.74
-17.20
-18.77
-20.54
-22.52
-24.66
-26.79
-28.75
-30.46
-31.96
-33.40
-35.02
-37.08
-39.80
-43.37
-47.80
-52.83
-57.93
-62.21
-64.74
-64.73
-61.82
-56.25
-48.72
-40.19
-31.60
-23.65
-16.65
-10.60
-5.27
-0.32
4.47
9.19
13.76
18.03
21.82
25.04
27.67
29.81
31.57
33.09
34.51
35.88
37.13
38.16
38.81
38.98
38.63
37.85
36.75
35.46
34.04
32.55
31.03
29.52
28.10
26.82
25.68
24.64
23.60
22.49
21.30
20.06
18.85
17.70
16.59
15.39
13.98
12.26
10.25
8.09
5.96
4.05
2.41
1.06
-0.11
-1.21
-2.33
-3.50
-4.80
-6.33
-8.20
-10.50
-13.20
-16.14
-19.10
-21.82
-24.19
-26.29
-28.41
-30.92
-34.24
-38.56
-43.78
-49.37
-54.41
-57.80
-58.57
-56.16
-50.68
-42.88
-33.85
-24.69
-16.21
-8.75
-2.29
3.36
8.41
13.03
17.32
21.40
25.37
29.21
32.80
35.89
38.23
39.68
40.32
40.40
40.22
40.05
39.98
40.03
40.14
40.28
40.42
40.57
40.64
40.55
40.19
39.56
38.74
37.88
37.10
36.38
35.58
34.45
32.82
30.62
27.97
25.14
22.40
19.89
17.61
15.39
13.03
10.33
7.21
3.72
-0.03
-3.89
-7.70
-11.35
-14.82
-18.16
-21.56
-25.28
-29.58
-34.56
-40.05
-45.52
-50.14
-53.00
-53.38
-50.98
-46.07
-39.36
-31.84
-24.47
-17.89
-12.40
-7.94
-4.25
-1.07
1.77
4.31
6.51
8.27
9.50
10.18
10.37
10.21
9.91
9.73
9.86
10.36
11.16
12.06
12.84
13.35
13.57
13.51
13.17
12.48
11.41
9.95
8.22
6.49
5.02
4.02
3.49
3.26
3.03
2.53
1.61
0.32
-1.20
-2.74
-4.19
-5.55
-6.96
-8.60
-10.60
-13.03
-15.81
-18.80
-21.85
-24.85
-27.78
-30.64
-33.55
-36.60
-39.97
-43.79
-48.17
-53.05
-58.13
-62.89
-66.48
-67.98
-66.65
-62.16
-54.75
-45.29
-34.93
-24.85
-15.88
-8.40
-2.28
2.84
7.39
11.68
15.85
19.88
23.64
26.96
29.71
31.80
33.26
34.17
34.71
35.02
35.23
35.45
35.79
36.31
37.02
37.83
38.54
38.91
38.72
37.91
36.61
35.05
33.46
31.97
30.54
29.10
27.57
25.98
24.43
23.05
21.93
21.07
20.39
19.79
19.19
18.54
17.84
17.12
16.41
15.72
15.13
14.64
14.25
13.91
13.47
12.82
11.89
10.72
9.42
8.11
6.84
5.57
4.21
2.66
0.91
-0.96
-2.85
-4.65
-6.37
-8.10
-10.01
-12.32
-15.24
-18.99
-23.62
-29.03
-34.77
-40.08
-44.01
-45.64
-44.42
-40.29
-33.80
-25.87
-17.58
-9.84
-3.23
2.05
6.10
9.20
11.68
13.81
15.77
17.62
19.29
20.67
21.65
22.15
22.15
21.70
20.94
20.06
19.35
19.03
19.25
19.99
21.06
22.14
22.94
23.28
23.13
22.66
22.07
21.51
20.99
20.42
19.63
18.48
16.91
14.94
12.71
10.36
8.00
5.66
3.32
0.90
-1.68
-4.46
-7.49
-10.80
-14.35
-18.03
-21.66
-25.03
-28.00
-30.59
-33.04
-35.74
-39.14
-43.56
-48.97
-54.93
-60.57
-64.82
-66.67
-65.55
-61.48
-55.11
-47.42
-39.43
-31.91
-25.29
-19.69
-15.03
-11.17
-7.93
-5.15
-2.67
-0.38
1.72
3.56
5.03
6.07
6.66
6.94
7.13
7.46
8.13
9.20
10.61
12.22
13.83
15.22
16.24
16.79
16.77
16.16
14.98
13.35
11.54
9.91
8.73
8.15
8.01
8.01
7.77
7.03
5.71
3.93
1.95
-0.05
-1.98
-3.93
-6.03
-8.42
-11.14
-14.09
-17.12
-20.06
-22.81
-25.40
-27.89
-30.41
-33.15
-36.30
-40.05
-44.55
-49.74
-55.23
-60.32
-64.05
-65.53
-64.13
-59.74
-52.76
-43.98
-34.38
-24.86
-16.08
-8.39
-1.85
3.78
8.84
13.68
18.50
23.26
27.71
31.50
34.36
36.20
37.19
37.59
37.70
37.70
37.65
37.53
37.32
37.00
36.59
36.09
35.49
34.78
33.93
32.99
32.00
31.02
30.05
29.06
28.01
26.82
25.48
24.05
22.62
21.28
20.07
18.97
17.92
16.82
15.68
14.56
13.56
12.75
12.12
11.54
10.84
9.90
8.70
7.29
5.79
4.27
2.72
1.07
-0.77
-2.85
-5.13
-7.55
-10.00
-12.43
-14.81
-17.21
-19.68
-22.35
-25.36
-28.88
-32.98
-37.54
-42.11
-45.94
-48.10
-47.76
-44.54
-38.65
-30.86
-22.23
-13.79
-6.24
0.14
5.41
9.77
13.48
16.71
19.61
22.27
24.73
26.92
28.73
30.00
30.67
30.77
30.49
30.15
30.03
30.33
31.13
32.31
33.66
34.89
35.72
35.93
35.43
34.26
32.58
30.63
28.61
26.62
24.64
22.58
20.33
17.86
15.18
12.37
9.51
6.67
3.86
1.09
-1.70
-4.57
-7.58
-10.74
-14.02
-17.34
-20.59
-23.72
-26.73
-29.75
-32.99
-36.65
-40.93
-45.86
-51.22
-56.50
-60.90
-63.53
-63.67
-61.00
-55.76
-48.66
-40.70
-32.81
-25.58
-19.23
-13.63
-8.52
-3.75
0.68
4.58
7.73
10.01
11.45
12.26
12.72
13.11
13.64
14.45
15.60
17.10
18.90
20.82
22.59
23.96
24.74
24.88
24.46
23.62
22.48
21.10
19.48
17.66
15.75
13.93
12.36
11.16
10.30
9.66
9.04
8.26
7.18
5.78
4.09
2.23
0.32
-1.59
-3.52
-5.57
-7.84
-10.38
-13.14
-15.99
-18.80
-21.48
-24.07
-26.64
-29.33
-32.30
-35.74
-39.89
-44.90
-50.77
-57.12
-63.20
-67.94
-70.32
-69.63
-65.80
-59.39
-51.40
-42.90
-34.71
-27.24
-20.53
-14.41
-8.61
-2.95
2.70
8.37
13.99
19.39
24.35
28.62
32.02
34.51
36.20
37.33
38.20
39.10
40.19
41.52
42.94
44.21
45.07
45.32
44.90
43.91
42.57
41.16
39.90
38.87
37.96
36.99
35.73
34.11
32.23
30.27
28.38
26.59
24.75
22.71
20.39
17.86
15.31
12.96
10.92
9.16
7.60
6.05
4.39
2.51
0.34
-2.09
-4.66
-7.14
-9.29
-11.04
-12.52
-14.08
-16.11
-18.83
-22.18
-25.83
-29.38
-32.56
-35.40
-38.23
-41.56
-45.74
-50.91
-56.77
-62.57
-67.30
-69.82
-69.10
-64.43
-55.66
-43.42
-29.11
-14.61
-1.83
7.95
14.48
18.56
21.58
24.88
29.17
34.34
39.75
44.63
48.55
51.44
53.49
54.87
55.64
55.77
55.33
54.48
53.53
52.74
52.31
52.20
52.24
52.14
51.59
50.39
48.49
46.07
43.48
41.10
39.17
37.75
36.60
35.35
33.64
31.38
28.71
26.03
23.74
22.10
21.08
20.39
19.66
18.60
17.07
15.17
13.04
10.81
8.50
6.00
3.20
0.04
-3.37
-6.85
-10.17
-13.17
-15.83
-18.24
-20.59
-23.09
-25.91
-29.17
-32.97
-37.30
-42.00
-46.67
-50.67
-53.24
-53.69
-51.67
-47.32
-41.24
-34.34
-27.50
-21.36
-16.17
-11.82
-8.07
-4.70
-1.68
0.89
2.78
3.87
4.15
3.75
2.93
1.97
1.13
0.58
0.39
0.54
0.96
1.54
2.15
2.71
3.14
3.40
3.41
3.09
2.37
1.20
-0.33
-2.10
-3.92
-5.64
-7.19
-8.62
-9.95
-11.20
-12.30
-13.22
-13.95
-14.61
-15.31
-16.15
-17.12
-18.17
-19.25
-20.38
-21.65
-23.18
-25.03
-27.15
-29.36
-31.49
-33.46
-35.33
-37.29
-39.62
-42.59
-46.37
-50.89
-55.80
-60.38
-63.74
-64.98
-63.50
-59.17
-52.44
-44.10
-35.11
-26.30
-18.21
-11.08
-4.88
0.52
5.33
9.77
13.96
17.96
21.69
24.92
27.42
29.04
29.78
29.86
29.67
29.60
29.93
30.75
31.90
33.11
34.10
34.69
34.83
34.62
34.17
33.58
32.88
32.06
31.05
29.88
28.59
27.23
25.87
24.49
23.10
21.67
20.24
18.88
17.66
16.57
15.55
14.48
13.22
11.77
10.17
8.55
7.00
5.55
4.09
2.50
0.71
-1.24
-3.20
-5.01
-6.56
-7.92
-9.29
-10.93
-13.02
-15.54
-18.31
-21.00
-23.40
-25.47
-27.41
-29.58
-32.36
-35.97
-40.30
-44.92
-49.10
-51.98
-52.81
-51.11
-46.80
-40.28
-32.24
-23.54
-14.98
-7.12
-0.20
5.82
11.15
16.06
20.75
25.29
29.60
33.52
36.81
39.31
40.93
41.72
41.88
41.68
41.41
41.38
41.74
42.54
43.65
44.79
45.66
46.00
45.67
44.69
43.19
41.35
39.30
37.13
34.89
32.62
30.38
28.23
26.22
24.36
22.68
21.15
19.77
18.50
17.29
16.10
14.90
13.68
12.41
11.06
9.59
7.94
6.05
3.92
1.53
-1.04
-3.76
-6.60
-9.53
-12.64
-16.00
-19.79
-24.19
-29.34
-35.22
-41.61
-47.98
-53.60
-57.62
-59.33
-58.37
-54.84
-49.33
-42.71
-35.87
-29.46
-23.80
-18.91
-14.63
-10.82
-7.40
-4.40
-1.91
-0.01
1.28
2.00
2.24
2.17
1.94
1.71
1.62
1.80
2.27
3.00
3.92
4.88
5.76
6.42
6.78
6.83
6.62
6.22
5.69
5.10
4.46
3.79
3.11
2.44
1.75
0.97
-0.01
-1.33
-3.09
-5.25
-7.62
-9.98
-12.08
-13.80
-15.23
-16.56
-18.07
-19.96
-22.28
-24.92
-27.66
-30.31
-32.72
-34.93
-37.12
-39.53
-42.47
-46.12
-50.53
-55.44
-60.30
-64.31
-66.61
-66.50
-63.67
-58.33
-51.16
-43.13
-35.16
-27.90
-21.59
-16.11
-11.11
-6.20
-1.11
4.24
9.79
15.31
20.59
25.35
29.41
32.62
34.97
36.49
37.39
37.93
38.41
39.01
39.78
40.58
41.17
41.32
40.91
40.00
38.73
37.24
35.65
33.98
32.24
30.50
28.86
27.44
26.31
25.40
24.60
23.78
22.89
21.91
20.85
19.73
18.50
17.10
15.44
13.49
11.28
8.85
6.29
3.69
1.12
-1.37
-3.72
-5.91
-7.95
-9.87
-11.74
-13.65
-15.64
-17.74
-19.92
-22.04
-24.00
-25.77
-27.45
-29.33
-31.78
-35.11
-39.38
-44.27
-49.00
-52.53
-53.82
-52.16
-47.48
-40.35
-31.85
-23.13
-15.11
-8.26
-2.54
2.33
6.75
11.02
15.34
19.79
24.34
28.85
33.04
36.57
39.17
40.76
41.51
41.82
42.15
42.86
44.09
45.77
47.62
49.34
50.65
51.39
51.49
50.96
49.85
48.23
46.20
43.87
41.38
38.81
36.24
33.66
31.07
28.46
25.85
23.33
20.99
18.92
17.14
15.63
14.26
12.87
11.32
9.51
7.44
5.18
2.83
0.43
-2.02
-4.56
-7.18
-9.86
-12.49
-14.99
-17.34
-19.67
-22.20
-25.23
-29.07
-33.85
-39.51
-45.65
-51.55
-56.32
-59.07
-59.16
-56.48
-51.44
-44.87
-37.76
-30.94
-24.91
-19.79
-15.41
-11.54
-8.02
-4.86
-2.18
-0.15
1.18
1.92
2.26
2.47
2.77
3.34
4.22
5.44
6.92
8.54
10.17
11.69
12.95
13.87
14.37
14.47
14.19
13.64
12.94
12.22
11.53
10.83
10.03
9.08
7.97
6.79
5.65
4.63
3.71
2.77
1.69
0.39
-1.09
-2.68
-4.27
-5.81
-7.31
-8.79
-10.33
-11.99
-13.79
-15.81
-18.06
-20.56
-23.22
-25.94
-28.56
-31.01
-33.32
-35.64
-38.23
-41.41
-45.41
-50.25
-55.60
-60.74
-64.68
-66.36
-65.09
-60.75
-53.87
-45.51
-36.79
-28.60
-21.33
-14.94
-9.13
-3.58
1.90
7.37
12.80
18.12
23.20
27.80
31.69
34.63
36.59
37.72
38.32
38.75
39.24
39.93
40.78
41.69
42.52
43.11
43.33
43.05
42.23
40.93
39.28
37.52
35.85
34.35
33.02
31.72
30.37
28.93
27.42
25.95
24.60
23.42
22.43
21.64
21.02
20.53
20.09
19.60
18.92
18.03
16.96
15.79
14.63
13.56
12.63
11.82
11.08
10.33
9.49
8.54
7.53
6.62
5.97
5.70
5.79
6.05
6.21
5.97
5.15
3.67
1.60
-0.91
-3.68
-6.49
-9.21
-11.74
-14.17
-16.75
-19.85
-23.79
-28.70
-34.40
-40.25
-45.34
-48.62
-49.24
-46.84
-41.64
-34.41
-26.22
-18.10
-10.82
-4.76
0.08
3.90
6.99
9.61
11.98
14.24
16.43
18.55
20.43
21.89
22.74
22.89
22.47
21.70
20.89
20.31
20.06
20.13
20.37
20.60
20.67
20.53
20.20
19.66
18.96
18.04
16.89
15.51
13.95
12.36
10.87
9.57
8.48
7.49
6.45
5.21
3.60
1.54
-0.97
-3.84
-6.93
-10.01
-12.91
-15.55
-17.97
-20.33
-22.79
-25.46
-28.35
-31.33
-34.25
-37.01
-39.64
-42.21
-44.89
-47.89
-51.36
-55.42
-60.01
-64.85
-69.39
-72.85
-74.38
-73.38
-69.65
-63.48
-55.63
-47.02
-38.49
-30.63
-23.64
-17.43
-11.77
-6.40
-1.18
3.89
8.68
12.98
16.66
19.62
21.90
23.60
24.86
25.82
26.57
27.25
27.93
28.69
29.52
30.32
30.92
31.16
30.92
30.20
29.07
27.64
26.06
24.44
22.89
21.44
20.09
18.73
17.30
15.73
14.08
12.42
10.87
9.49
8.30
7.29
6.44
5.68
4.87
3.85
2.47
0.69
-1.44
-3.73
-6.05
-8.31
-10.61
-13.09
-15.92
-19.17
-22.74
-26.43
-30.03
-33.31
-36.14
-38.51
-40.57
-42.63
-45.14
-48.51
-52.89
-58.07
-63.30
-67.55
-69.72
-68.98
-65.06
-58.30
-49.54
-39.85
-30.21
-21.26
-13.32
-6.40
-0.34
5.08
10.10
14.91
19.61
24.19
28.50
32.28
35.30
37.45
38.79
39.56
40.12
40.73
41.51
42.45
43.39
44.25
44.98
45.57
45.98
46.16
46.03
45.51
44.67
43.64
42.64
41.81
41.20
40.72
40.24
39.67
38.98
38.26
37.58
37.01
36.49
35.92
35.20
34.30
33.27
32.24
31.30
30.42
29.47
28.27
26.66
24.63
22.32
19.94
17.65
15.50
13.32
10.85
7.84
4.21
0.09
-4.18
-8.22
-11.74
-14.72
-17.37
-20.10
-23.34
-27.41
-32.40
-38.15
-44.10
-49.45
-53.24
-54.63
-53.16
-48.92
-42.50
-34.81
-26.75
-19.02
-12.01
-5.85
-0.59
3.77
7.28
10.04
12.21
13.94
15.30
16.24
16.70
16.68
16.23
15.56
14.88
14.36
14.04
13.87
13.71
13.47
13.06
12.45
11.60
10.44
8.93
7.06
4.91
2.59
0.26
-2.06
-4.43
-6.98
-9.75
-12.66
-15.50
-18.03
-20.13
-21.85
-23.39
-25.01
-26.87
-29.00
-31.33
-33.70
-35.98
-38.11
-40.12
-42.11
-44.25
-46.76
-49.90
-53.85
-58.61
-63.89
-69.03
-73.12
-75.18
-74.46
-70.68
-64.18
-55.72
-46.31
-36.87
-28.03
-20.09
-13.01
-6.63
-0.73
4.83
10.07
14.91
19.19
22.78
25.66
27.85
29.50
30.78
31.90
32.99
34.16
35.41
36.68
37.85
38.74
39.22
39.18
38.61
37.53
36.00
34.11
31.94
29.62
27.27
25.03
22.99
21.17
19.51
17.93
16.32
14.58
12.67
10.56
8.24
5.71
2.97
0.03
-3.03
-6.08
-8.97
-11.62
-14.04
-16.35
-18.74
-21.35
-24.19
-27.15
-30.06
-32.79
-35.38
-38.04
-41.10
-44.88
-49.55
-55.03
-60.86
-66.27
-70.22
-71.76
-70.23
-65.57
-58.28
-49.28
-39.57
-29.96
-20.96
-12.68
-5.06
2.07
8.86
15.47
21.93
28.19
34.01
39.08
43.11
45.93
47.62
48.45
48.78
48.98
49.25
49.68
50.23
50.80
51.24
51.42
51.19
50.48
49.27
47.71
46.03
44.48
43.27
42.37
41.59
40.69
39.51
38.09
36.67
35.53
34.78
34.32
33.90
33.21
32.10
30.60
28.87
27.11
25.41
23.75
22.08
20.28
18.30
16.09
13.62
10.85
7.73
4.28
0.54
-3.30
-7.10
-10.73
-14.27
-17.97
-22.24
-27.43
-33.59
-40.34
-46.77
-51.75
-54.21
-53.55
-49.79
-43.57
-35.83
-27.53
-19.42
-11.92
-5.23
0.63
5.66
9.84
13.22
15.81
17.70
18.93
19.60
19.78
19.59
19.19
18.73
18.36
18.20
18.30
18.64
19.13
19.66
20.07
20.18
19.79
18.72
16.91
14.44
11.51
8.41
5.43
2.73
0.34
-1.86
-3.99
-6.20
-8.53
-10.95
-13.43
-15.90
-18.35
-20.79
-23.28
-25.86
-28.59
-31.45
-34.41
-37.41
-40.40
-43.43
-46.65
-50.30
-54.63
-59.66
-65.15
-70.41
-74.48
-76.36
-75.27
-71.00
-63.89
-54.78
-44.66
-34.42
-24.68
-15.77
-7.78
-0.62
5.84
11.78
17.32
22.51
27.24
31.31
34.50
36.69
37.88
38.29
38.24
38.00
37.82
37.80
37.99
38.30
38.64
38.87
38.79
38.28
37.26
35.81
34.11
32.39
30.89
29.71
28.81
28.01
27.06
25.78
24.15
22.31
20.50
18.92
17.66
16.61
15.58
14.39
12.89
11.07
8.98
6.69
4.28
1.79
-0.69
-3.12
-5.44
-7.64
-9.77
-11.89
-14.11
-16.53
-19.21
-22.13
-25.24
-28.40
-31.46
-34.27
-36.75
-38.96
-41.04
-43.27
-45.96
-49.43
-53.87
-59.17
-64.86
-70.09
-73.75
-74.82
-72.67
-67.31
-59.34
-49.78
-39.73
-30.03
-21.17
-13.29
-6.24
0.21
6.31
12.30
18.35
24.51
30.62
36.36
41.31
45.09
47.51
48.66
48.90
48.70
48.58
48.86
49.63
50.76
52.00
53.04
53.63
53.64
53.09
52.08
50.76
49.26
47.69
46.11
44.59
43.18
41.94
40.89
40.04
39.32
38.65
37.96
37.19
36.31
35.37
34.41
33.42
32.39
31.29
30.03
28.55
26.80
24.78
22.51
20.07
17.56
14.99
12.35
9.47
6.20
2.44
-1.79
-6.25
-10.70
-14.86
-18.63
-22.07
-25.41
-28.95
-32.97
-37.69
-43.03
-48.60
-53.66
-57.25
-58.47
-56.73
-52.02
-44.95
-36.53
-27.86
-19.88
-13.12
-7.70
-3.44
-0.02
2.88
5.46
7.78
9.80
11.41
12.52
13.11
13.26
13.09
12.82
12.62
12.62
12.86
13.30
13.81
14.27
14.54
14.50
14.04
13.06
11.54
9.54
7.26
4.96
2.87
1.05
-0.66
-2.56
-4.92
-7.83
-11.14
-14.57
-17.78
-20.61
-23.07
-25.31
-27.52
-29.82
-32.19
-34.52
-36.69
-38.63
-40.38
-42.18
-44.35
-47.31
-51.35
-56.55
-62.65
-69.02
-74.71
-78.68
-80.00
-78.14
-73.09
-65.39
-55.96
-45.86
-36.02
-27.06
-19.22
-12.35
-6.13
-0.22
5.58
11.20
16.40
20.88
24.43
27.02
28.79
29.97
30.77
31.37
31.88
32.37
32.94
33.67
34.58
35.58
36.48
37.03
36.99
36.26
34.88
33.11
31.24
29.54
28.17
27.07
26.11
25.09
23.86
22.39
20.71
18.89
16.96
14.94
12.83
10.61
8.26
5.79
3.20
0.57
-2.04
-4.51
-6.80
-8.97
-11.12
-13.46
-16.09
-19.06
-22.29
-25.63
-28.91
-32.01
-34.98
-37.97
-41.25
-45.15
-49.91
-55.61
-62.01
-68.48
-74.10
-77.78
-78.57
-75.95
-70.01
-61.38
-51.11
-40.28
-29.81
-20.25
-11.77
-4.26
2.54
8.96
15.21
21.43
27.56
33.38
38.59
42.90
46.12
48.24
49.42
49.97
50.21
50.45
50.86
51.48
52.26
53.03
53.61
53.82
53.53
52.67
51.31
49.58
47.64
45.68
43.81
42.06
40.40
38.82
37.35
36.11
35.18
34.62
34.37
34.33
34.34
34.31
34.18
33.93
33.51
32.82
31.75
30.26
28.37
26.20
23.94
21.70
19.53
17.34
15.00
12.38
9.44
6.21
2.80
-0.61
-3.91
-7.01
-9.98
-13.00
-16.39
-20.46
-25.43
-31.32
-37.83
-44.42
-50.34
-54.76
-56.95
-56.42
-53.03
-47.07
-39.20
-30.36
-21.52
-13.53
-6.90
-1.78
2.01
4.86
7.15
9.15
10.98
12.59
13.87
14.71
15.06
14.99
14.57
13.95
13.30
12.78
12.50
12.49
12.71
12.98
13.08
12.84
12.16
11.04
9.58
7.91
6.11
4.23
2.27
0.19
-2.00
-4.26
-6.55
-8.84
-11.10
-13.32
-15.48
-17.58
-19.64
-21.72
-23.86
-26.14
-28.51
-30.86
-33.06
-35.00
-36.78
-38.70
-41.21
-44.70
-49.28
-54.63
-59.96
-64.18
-66.19
-65.24
-61.17
-54.39
-45.83
-36.52
-27.44
-19.18
-12.01
-5.82
-0.37
4.65
9.42
13.95
18.09
21.60
24.28
26.07
27.12
27.68
28.04
28.33
28.62
28.84
28.91
28.84
28.67
28.51
28.40
28.32
28.17
27.85
27.27
26.40
25.25
23.87
22.32
20.68
19.02
17.40
15.85
14.37
12.91
11.38
9.69
7.76
5.56
3.14
0.59
-1.98
-4.46
-6.84
-9.17
-11.54
-14.05
-16.71
-19.53
-22.45
-25.50
-28.63
-31.87
-35.17
-38.51
-41.91
-45.49
-49.51
-54.15
-59.40
-64.74
-69.21
-71.62
-70.95
-66.79
-59.54
-50.22
-40.11
-30.31
-21.41
-13.50
-6.37
0.23
6.47
12.40
18.05
23.44
28.59
33.38
37.58
40.87
43.03
44.02
44.08
43.62
43.11
42.84
42.93
43.28
43.65
43.80
43.51
42.69
41.35
39.60
37.61
35.52
33.49
31.60
29.88
28.34
26.96
25.71
24.56
23.47
22.37
21.24
20.08
18.95
17.92
17.03
16.20
15.31
14.20
12.86
11.35
9.86
8.59
7.64
6.98
6.48
6.02
5.51
4.95
4.40
3.94
3.55
3.18
2.65
1.77
0.45
-1.28
-3.27
-5.33
-7.34
-9.32
-11.40
-13.75
-16.57
-19.93
-23.88
-28.42
-33.38
-38.39
-42.75
-45.58
-46.06
-43.74
-38.79
-31.98
-24.36
-16.94
-10.40
-4.97
-0.53
3.22
6.56
9.67
12.63
15.41
17.96
20.15
21.87
23.05
23.65
23.77
23.59
23.32
23.19
23.37
23.90
24.74
25.79
26.85
27.69
28.12
27.94
27.08
25.57
23.58
21.40
19.31
17.50
16.04
14.78
13.48
11.87
9.80
7.28
4.49
1.67
-0.96
-3.29
-5.32
-7.21
-9.11
-11.15
-13.40
-15.85
-18.43
-21.04
-23.61
-26.06
-28.38
-30.61
-32.95
-35.66
-38.97
-42.93
-47.28
-51.38
-54.37
-55.41
-53.92
-49.87
-43.72
-36.35
-28.73
-21.65
-15.57
-10.53
-6.31
-2.62
0.77
3.88
6.61
8.80
10.32
11.17
11.51
11.59
11.63
11.85
12.37
13.19
14.25
15.40
16.53
17.56
18.50
19.34
20.06
20.52
20.56
20.12
19.27
18.24
17.32
16.68
16.30
16.03
15.67
15.11
14.40
13.67
13.04
12.55
12.13
11.69
11.16
10.54
9.84
9.05
8.13
7.00
5.63
4.07
2.42
0.80
-0.75
-2.30
-3.94
-5.80
-7.86
-9.98
-11.97
-13.66
-15.04
-16.23
-17.43
-18.84
-20.49
-22.26
-23.96
-25.39
-26.53
-27.45
-28.38
-29.58
-31.30
-33.68
-36.80
-40.52
-44.49
-48.14
-50.71
-51.46
-49.93
-46.10
-40.44
-33.78
-27.03
-20.87
-15.65
-11.28
-7.49
-3.95
-0.39
3.27
7.00
10.73
14.28
17.49
20.19
22.25
23.61
24.33
24.62
24.74
24.94
25.39
26.10
26.94
27.76
28.38
28.64
28.48
27.91
27.02
25.95
24.91
24.04
23.37
22.82
22.27
21.63
20.98
20.49
20.35
20.67
21.35
22.19
22.97
23.59
24.05
24.43
24.78
25.04
25.15
25.09
24.93
24.80
24.82
24.97
25.12
25.10
24.81
24.25
23.52
22.71
21.83
20.82
19.63
18.27
16.82
15.38
13.97
12.49
10.76
8.63
6.07
3.23
0.40
-2.12
-4.17
-5.79
-7.25
-8.95
-11.28
-14.48
-18.53
-23.12
-27.73
-31.70
-34.39
-35.30
-34.23
-31.28
-26.91
-21.85
-16.90
-12.69
-9.58
-7.53
-6.18
-5.06
-3.83
-2.37
-0.86
0.35
0.98
0.87
0.14
-0.98
-2.16
-3.12
-3.71
-3.89
-3.72
-3.36
-2.98
-2.74
-2.72
-2.94
-3.33
-3.82
-4.38
-5.02
-5.79
-6.73
-7.80
-8.90
-9.96
-10.92
-11.79
-12.63
-13.48
-14.35
-15.13
-15.73
-16.02
-16.01
-15.80
-15.63
-15.73
-16.27
-17.28
-18.65
-20.18
-21.71
-23.18
-24.64
-26.18
-27.87
-29.69
-31.59
-33.55
-35.65
-38.10
-41.11
-44.82
-49.04
-53.19
-56.41
-57.80
-56.72
-53.06
-47.31
-40.34
-33.13
-26.49
-20.89
-16.42
-12.89
-9.95
-7.26
-4.54
-1.68
1.27
4.14
6.70
8.75
10.19
11.05
11.48
11.75
12.16
12.96
14.27
15.97
17.79
19.32
20.24
20.41
19.94
19.06
18.03
17.04
16.21
15.57
15.11
14.84
14.70
14.59
14.38
13.94
13.21
12.29
11.29
10.38
9.61
8.97
8.36
7.64
6.75
5.63
4.29
2.74
1.04
-0.78
-2.63
-4.49
-6.34
-8.24
-10.28
-12.55
-15.15
-18.06
-21.20
-24.42
-27.56
-30.50
-33.19
-35.65
-38.01
-40.49
-43.35
-46.84
-51.00
-55.52
-59.76
-62.83
-63.85
-62.30
-58.16
-51.93
-44.49
-36.79
-29.60
-23.34
-18.06
-13.54
-9.45
-5.41
-1.15
3.46
8.41
13.56
18.64
23.33
27.33
30.47
32.77
34.44
35.77
37.10
38.62
40.37
42.25
44.04
45.51
46.48
46.82
46.55
45.78
44.75
43.69
42.81
42.15
41.62
41.05
40.32
39.38
38.30
37.20
36.21
35.38
34.70
34.09
33.48
32.78
32.01
31.20
30.50
29.96
29.64
29.40
29.08
28.45
27.39
25.90
24.09
22.15
20.22
18.27
16.24
13.98
11.35
8.29
4.85
1.15
-2.60
-6.22
-9.59
-12.76
-15.89
-19.33
-23.38
-28.30
-34.15
-40.60
-47.00
-52.37
-55.72
-56.26
-53.72
-48.42
-41.19
-33.11
-25.19
-18.14
-12.22
-7.35
-3.26
0.34
3.64
6.59
9.09
11.01
12.30
13.07
13.47
13.69
13.86
14.06
14.34
14.76
15.37
16.19
17.17
18.17
18.98
19.43
19.42
18.90
17.90
16.52
14.86
13.02
11.12
9.24
7.45
5.79
4.26
2.86
1.55
0.26
-1.10
-2.62
-4.33
-6.19
-8.10
-9.96
-11.70
-13.41
-15.26
-17.43
-20.05
-23.08
-26.28
-29.38
-32.19
-34.70
-37.15
-39.95
-43.49
-48.01
-53.45
-59.34
-64.93
-69.27
-71.39
-70.62
-66.66
-59.73
-50.56
-40.17
-29.67
-19.95
-11.57
-4.62
1.20
6.34
11.27
16.21
21.12
25.72
29.64
32.67
34.81
36.33
37.55
38.69
39.82
40.83
41.58
42.04
42.27
42.41
42.51
42.51
42.24
41.52
40.29
38.63
36.77
34.93
33.25
31.76
30.38
29.03
27.62
26.06
24.34
22.50
20.64
18.90
17.38
16.16
15.14
14.16
13.02
11.55
9.67
7.42
4.95
2.45
0.04
-2.27
-4.54
-6.88
-9.43
-12.24
-15.29
-18.52
-21.81
-25.06
-28.16
-31.04
-33.70
-36.23
-38.83
-41.78
-45.39
-49.81
-54.85
-59.90
-64.02
-66.13
-65.35
-61.32
-54.33
-45.32
-35.48
-25.98
-17.59
-10.49
-4.45
1.06
6.49
12.05
17.69
23.15
28.18
32.55
36.14
38.90
40.78
41.79
42.02
41.65
40.98
40.29
39.85
39.78
40.12
40.72
41.40
41.89
41.96
41.49
40.49
39.12
37.61
36.17
34.88
33.73
32.65
31.64
30.77
30.18
29.92
29.91
29.94
29.77
29.25
28.38
27.31
26.19
25.09
24.00
22.79
21.41
19.88
18.30
16.78
15.35
13.91
12.27
10.24
7.77
4.98
2.09
-0.64
-3.10
-5.31
-7.45
-9.78
-12.56
-16.05
-20.41
-25.69
-31.64
-37.66
-42.83
-46.11
-46.71
-44.37
-39.49
-32.99
-26.03
-19.56
-14.13
-9.82
-6.33
-3.30
-0.44
2.32
4.86
6.96
8.44
9.23
9.39
9.06
8.43
7.69
7.02
6.61
6.57
6.98
7.82
8.95
10.11
11.02
11.39
11.04
9.92
8.15
5.97
3.70
1.64
-0.02
-1.31
-2.40
-3.60
-5.12
-7.06
-9.31
-11.63
-13.74
-15.45
-16.73
-17.76
-18.79
-20.09
-21.75
-23.70
-25.75
-27.66
-29.33
-30.75
-32.03
-33.32
-34.77
-36.53
-38.75
-41.59
-45.08
-48.93
-52.54
-54.99
-55.38
-53.16
-48.38
-41.67
-34.05
-26.50
-19.74
-14.04
-9.32
-5.27
-1.58
1.96
5.43
8.81
12.02
14.91
17.35
19.24
20.57
21.44
22.05
22.67
23.52
24.76
26.34
28.03
29.53
30.56
30.94
30.70
30.00
29.08
28.16
27.36
26.71
26.15
25.61
24.99
24.28
23.46
22.50
21.39
20.07
18.51
16.74
14.88
13.11
11.56
10.35
9.44
8.70
8.02
7.28
6.49
5.67
4.85
4.02
3.13
2.12
0.95
-0.41
-1.97
-3.71
-5.59
-7.55
-9.56
-11.61
-13.74
-15.95
-18.27
-20.59
-22.81
-24.85
-26.68
-28.40
-30.16
-32.16
-34.61
-37.68
-41.46
-45.82
-50.36
-54.33
-56.82
-57.01
-54.48
-49.37
-42.35
-34.37
-26.37
-19.03
-12.65
-7.21
-2.48
1.87
6.19
10.67
15.41
20.27
25.01
29.30
32.87
35.55
37.33
38.28
38.58
38.53
38.43
38.63
39.25
40.26
41.35
42.13
42.26
41.62
40.36
38.79
37.24
35.96
35.01
34.30
33.70
33.08
32.32
31.38
30.25
29.02
27.78
26.68
25.78
25.06
24.42
23.72
22.89
22.01
21.19
20.58
20.16
19.82
19.35
18.54
17.31
15.70
13.87
11.93
9.97
8.02
6.03
3.98
1.87
-0.28
-2.46
-4.72
-7.12
-9.77
-12.79
-16.24
-20.21
-24.73
-29.77
-35.14
-40.49
-45.23
-48.67
-50.16
-49.31
-46.16
-41.16
-35.04
-28.61
-22.55
-17.33
-13.15
-10.01
-7.75
-6.11
-4.86
-3.80
-2.86
-2.13
-1.71
-1.70
-2.04
-2.57
-3.06
-3.31
-3.20
-2.77
-2.13
-1.42
-0.77
-0.30
-0.08
-0.16
-0.57
-1.27
-2.14
-3.02
-3.74
-4.16
-4.28
-4.20
-4.11
-4.21
-4.59
-5.24
-6.04
-6.84
-7.56
-8.24
-9.04
-10.11
-11.56
-13.35
-15.27
-17.09
-18.56
-19.61
-20.29
-20.82
-21.47
-22.46
-23.87
-25.60
-27.48
-29.36
-31.18
-33.10
-35.42
-38.46
-42.39
-47.11
-52.18
-56.84
-60.23
-61.54
-60.27
-56.40
-50.33
-42.86
-34.90
-27.28
-20.54
-14.88
-10.19
-6.20
-2.60
0.89
4.45
8.11
11.82
15.42
18.68
21.41
23.47
24.88
25.82
26.57
27.42
28.58
30.08
31.77
33.37
34.57
35.12
34.92
34.05
32.73
31.17
29.61
28.17
26.89
25.74
24.67
23.62
22.53
21.26
19.75
18.00
16.12
14.31
12.76
11.59
10.75
10.08
9.37
8.44
7.19
5.66
3.92
2.12
0.38
-1.24
-2.75
-4.28
-5.98
-8.01
-10.42
-13.11
-15.87
-18.49
-20.86
-22.98
-25.03
-27.19
-29.69
-32.75
-36.50
-41.03
-46.14
-51.37
-55.98
-59.04
-59.73
-57.58
-52.65
-45.50
-37.01
-28.13
-19.63
-11.96
-5.28
0.54
5.78
10.71
15.56
20.40
25.14
29.62
33.66
37.09
39.82
41.88
43.35
44.40
45.18
45.86
46.58
47.43
48.43
49.46
50.35
50.92
51.05
50.72
49.96
48.86
47.46
45.75
43.71
41.37
38.82
36.22
33.71
31.37
29.26
27.32
25.49
23.72
21.91
19.97
17.86
15.58
13.25
11.01
8.93
6.98
4.96
2.70
0.12
-2.69
-5.48
-8.02
-10.25
-12.33
-14.52
-17.18
-20.49
-24.53
-29.28
-34.60
-40.25
-45.76
-50.46
-53.56
-54.39
-52.66
-48.56
-42.76
-36.13
-29.48
-23.34
-17.94
-13.25
-9.17
-5.61
-2.54
-0.02
1.91
3.22
3.95
4.25
4.29
4.26
4.35
4.65
5.21
6.05
7.14
8.50
10.05
11.69
13.21
14.34
14.92
14.88
14.32
13.43
12.38
11.26
10.04
8.70
7.29
5.88
4.59
3.47
2.47
1.45
0.30
-0.99
-2.28
-3.39
-4.27
-5.08
-6.19
-8.02
-10.78
-14.38
-18.43
-22.44
-26.02
-29.13
-32.03
-35.14
-38.88
-43.46
-48.82
-54.64
-60.34
-65.21
-68.49
-69.54
-68.02
-63.85
-57.42
-49.34
-40.37
-31.24
-22.43
-14.08
-5.93
2.42
11.25
20.36
29.02
36.18
40.94
43.03
42.92
41.61
40.18
39.33
39.24
39.67
40.31
41.01
41.75
42.60
43.49
44.18
44.37
43.80
42.45
40.54
38.39
36.45
35.00
34.13
33.66
33.16
32.23
30.59
28.32
25.77
23.39
21.49
20.14
19.12
18.11
16.88
15.37
13.71
12.10
10.69
9.50
8.43
7.34
6.10
4.65
2.97
1.09
-0.96
-3.09
-5.27
-7.38
-9.42
-11.38
-13.33
-15.38
-17.60
-20.01
-22.54
-25.03
-27.35
-29.47
-31.51
-33.73
-36.50
-40.11
-44.59
-49.65
-54.60
-58.51
-60.39
-59.51
-55.60
-48.96
-40.36
-30.83
-21.41
-12.85
-5.50
0.66
5.98
10.91
15.81
20.87
26.01
30.95
35.33
38.86
41.42
43.08
44.03
44.58
45.00
45.46
46.01
46.63
47.20
47.62
47.84
47.79
47.46
46.80
45.80
44.45
42.81
40.99
39.12
37.34
35.69
34.12
32.48
30.67
28.64
26.51
24.49
22.79
21.51
20.60
19.91
19.20
18.33
17.23
15.91
14.39
12.71
10.88
8.96
7.02
5.18
3.45
1.75
-0.07
-2.20
-4.72
-7.54
-10.49
-13.34
-15.97
-18.46
-21.03
-24.06
-27.87
-32.66
-38.34
-44.55
-50.66
-55.83
-59.25
-60.23
-58.49
-54.23
-48.10
-41.04
-34.01
-27.72
-22.49
-18.29
-14.90
-12.06
-9.58
-7.40
-5.53
-3.99
-2.82
-2.02
-1.54
-1.31
-1.17
-0.93
-0.37
0.61
2.02
3.66
5.26
6.53
7.25
7.41
7.13
6.60
6.05
5.61
5.33
5.14
4.95
4.68
4.27
3.71
3.06
2.40
1.78
1.27
0.86
0.52
0.16
-0.34
-1.07
-2.07
-3.34
-4.82
-6.40
-7.99
-9.54
-11.09
-12.75
-14.68
-16.98
-19.66
-22.54
-25.40
-28.01
-30.26
-32.22
-34.17
-36.46
-39.42
-43.20
-47.68
-52.37
-56.48
-59.08
-59.31
-56.76
-51.56
-44.48
-36.55
-28.85
-22.11
-16.58
-12.10
-8.25
-4.61
-0.88
3.08
7.25
11.52
15.68
19.48
22.66
25.02
26.49
27.25
27.63
28.03
28.78
29.95
31.42
32.92
34.13
34.87
35.09
34.83
34.20
33.27
32.06
30.56
28.81
26.86
24.85
22.90
21.12
19.54
18.15
16.91
15.81
14.87
14.13
13.60
13.20
12.81
12.29
11.55
10.65
9.67
8.72
7.87
7.06
6.25
5.35
4.36
3.29
2.19
1.05
-0.18
-1.58
-3.22
-5.13
-7.24
-9.42
-11.52
-13.43
-15.14
-16.82
-18.74
-21.26
-24.62
-28.91
-33.87
-38.93
-43.27
-46.00
-46.46
-44.35
-39.83
-33.50
-26.21
-18.81
-12.01
-6.20
-1.46
2.35
5.55
8.47
11.39
14.46
17.66
20.91
24.03
26.89
29.33
31.25
32.59
33.37
33.76
34.01
34.41
35.17
36.32
37.70
38.96
39.81
40.03
39.62
38.73
37.60
36.43
35.32
34.28
33.23
32.04
30.65
29.00
27.13
25.16
23.20
21.35
19.67
18.13
16.66
15.14
13.49
11.64
9.62
7.45
5.15
2.71
0.09
-2.71
-5.65
-8.61
-11.45
-14.07
-16.52
-18.94
-21.59
-24.76
-28.65
-33.34
-38.65
-44.17
-49.22
-53.06
-54.98
-54.57
-51.82
-47.14
-41.26
-34.99
-29.05
-23.88
-19.61
-16.14
-13.25
-10.73
-8.46
-6.47
-4.81
-3.60
-2.89
-2.68
-2.85
-3.25
-3.63
-3.76
-3.49
-2.76
-1.67
-0.40
0.86
1.95
2.76
3.22
3.28
2.90
2.12
1.08
0.02
-0.84
-1.43
-1.85
-2.38
-3.27
-4.62
-6.32
-8.08
-9.60
-10.74
-11.53
-12.20
-12.99
-14.10
-15.59
-17.39
-19.41
-21.51
-23.59
-25.58
-27.43
-29.15
-30.78
-32.46
-34.44
-36.98
-40.26
-44.23
-48.52
-52.41
-54.98
-55.47
-53.44
-49.01
-42.76
-35.58
-28.31
-21.57
-15.66
-10.59
-6.24
-2.42
1.08
4.47
7.92
11.52
15.18
18.64
21.59
23.72
24.93
25.34
25.28
25.13
25.16
25.50
26.09
26.77
27.40
27.85
28.07
27.99
27.57
26.81
25.73
24.48
23.27
22.27
21.52
20.93
20.27
19.28
17.87
16.17
14.43
12.94
11.79
10.90
10.01
8.87
7.41
5.72
4.04
2.49
1.02
-0.59
-2.55
-4.95
-7.66
-10.42
-13.01
-15.34
-17.51
-19.70
-22.06
-24.67
-27.57
-30.80
-34.43
-38.43
-42.55
-46.22
-48.61
-48.92
-46.66
-41.86
-35.13
-27.36
-19.53
-12.28
-5.90
-0.31
4.78
9.62
14.36
19.04
23.60
27.98
32.06
35.72
38.81
41.26
43.01
44.17
44.92
45.44
45.88
46.32
46.74
47.08
47.26
47.18
46.71
45.77
44.34
42.48
40.36
38.18
36.05
34.03
32.05
30.04
27.96
25.86
23.82
21.93
20.23
18.69
17.30
16.07
15.08
14.36
13.87
13.45
12.87
11.91
10.48
8.59
6.40
4.09
1.83
-0.34
-2.47
-4.70
-7.24
-10.27
-13.92
-18.20
-22.96
-27.82
-32.19
-35.29
-36.41
-35.12
-31.50
-26.14
-20.03
-14.16
-9.23
-5.44
-2.59
-0.28
1.80
3.79
5.58
7.00
7.89
8.23
8.10
7.64
7.04
6.44
5.95
5.61
5.44
5.42
5.50
5.60
5.58
5.30
4.57
3.28
1.45
-0.81
-3.26
-5.61
-7.68
-9.42
-10.94
-12.39
-13.94
-15.63
-17.43
-19.25
-21.02
-22.75
-24.44
-26.10
-27.72
-29.23
-30.59
-31.82
-33.03
-34.35
-35.92
-37.84
-40.27
-43.28
-46.90
-50.93
-54.89
-57.99
-59.39
-58.44
-54.93
-49.18
-41.92
-34.03
-26.27
-19.10
-12.68
-6.92
-1.70
3.07
7.38
11.21
14.49
17.20
19.38
21.10
22.45
23.53
24.42
25.23
26.01
26.82
27.64
28.41
29.09
29.55
29.76
29.64
29.15
28.27
27.01
25.45
23.69
21.89
20.14
18.46
16.85
15.27
13.72
12.20
10.71
9.24
7.74
6.13
4.41
2.58
0.68
-1.28
-3.29
-5.40
-7.62
-9.94
-12.30
-14.65
-16.97
-19.26
-21.49
-23.68
-25.82
-27.98
-30.34
-33.13
-36.64
-40.94
-45.84
-50.72
-54.69
-56.79
-56.33
-53.09
-47.42
-40.12
-32.08
-24.09
-16.63
-9.87
-3.81
1.65
6.62
11.22
15.57
19.75
23.80
27.63
31.06
33.93
36.12
37.68
38.75
39.51
40.19
40.94
41.86
42.91
43.98
44.86
45.36
45.32
44.74
43.72
42.45
41.13
39.92
38.89
38.03
37.25
36.50
35.74
34.99
34.33
33.79
33.39
33.07
32.77
32.44
32.09
31.76
31.47
31.17
30.76
30.16
29.29
28.14
26.73
25.12
23.37
21.57
19.81
18.13
16.52
14.86
12.99
10.78
8.20
5.35
2.43
-0.39
-3.00
-5.46
-7.98
-10.86
-14.36
-18.64
-23.63
-29.00
-34.14
-38.27
-40.61
-40.51
-37.71
-32.40
-25.28
-17.32
-9.60
-2.95
2.20
5.85
8.29
9.92
11.05
11.80
12.18
12.17
11.77
11.03
10.05
8.91
7.72
6.63
5.82
5.43
5.55
6.12
6.94
7.72
8.18
8.11
7.43
6.20
4.54
2.64
0.71
-1.10
-2.72
-4.18
-5.61
-7.15
-8.89
-10.84
-12.91
-14.93
-16.74
-18.27
-19.53
-20.68
-21.90
-23.34
-25.03
-26.85
-28.62
-30.21
-31.63
-33.04
-34.70
-36.88
-39.78
-43.48
-47.86
-52.60
-57.05
-60.33
-61.55
-60.07
-55.80
-49.23
-41.32
-33.20
-25.77
-19.56
-14.64
-10.81
-7.75
-5.13
-2.71
-0.32
2.12
4.61
7.00
9.10
10.74
11.86
12.56
13.08
13.70
14.63
15.89
17.32
18.62
19.51
19.82
19.49
18.60
17.29
15.75
14.18
12.79
11.72
11.02
10.60
10.28
9.84
9.15
8.17
7.04
5.91
4.88
3.95
2.98
1.83
0.41
-1.26
-3.04
-4.81
-6.42
-7.80
-8.98
-10.05
-11.16
-12.54
-14.31
-16.54
-19.13
-21.83
-24.38
-26.62
-28.56
-30.45
-32.66
-35.56
-39.27
-43.59
-47.92
-51.39
-53.08
-52.31
-48.85
-42.99
-35.47
-27.20
-19.02
-11.54
-5.05
0.42
4.98
8.82
12.17
15.30
18.41
21.57
24.72
27.58
29.87
31.34
31.99
32.05
31.92
31.99
32.50
33.42
34.49
35.44
36.05
36.27
36.19
35.93
35.54
35.02
34.35
33.56
32.78
32.15
31.75
31.52
31.29
30.93
30.44
29.98
29.73
29.80
30.11
30.41
30.47
30.18
29.61
28.93
28.30
27.72
27.08
26.25
25.14
23.82
22.43
21.06
19.73
18.34
16.70
14.67
12.15
9.20
5.90
2.44
-1.03
-4.46
-7.87
-11.41
-15.30
-19.70
-24.69
-30.06
-35.38
-39.95
-43.00
-43.85
-42.15
-37.99
-31.94
-24.96
-18.07
-12.13
-7.59
-4.38
-2.15
-0.42
1.14
2.57
3.71
4.37
4.43
3.98
3.20
2.35
1.53
0.86
0.35
0.05
0.01
0.16
0.34
0.36
0.00
-0.80
-2.00
-3.49
-5.16
-6.96
-8.89
-10.96
-13.13
-15.32
-17.47
-19.48
-21.28
-22.73
-23.72
-24.20
-24.26
-24.16
-24.23
-24.74
-25.76
-27.17
-28.67
-30.06
-31.27
-32.40
-33.69
-35.36
-37.58
-40.45
-43.95
-47.91
-51.97
-55.52
-57.75
-57.86
-55.38
-50.26
-43.02
-34.61
-26.04
-18.22
-11.61
-6.29
-1.99
1.68
5.12
8.57
12.03
15.37
18.38
20.82
22.55
23.57
24.00
24.02
23.82
23.55
23.32
23.22
23.33
23.67
24.17
24.64
24.87
24.69
24.06
23.16
22.16
21.27
20.50
19.76
18.84
17.61
16.08
14.36
12.68
11.17
9.89
8.79
7.73
6.63
5.45
4.23
3.01
1.83
0.65
-0.59
-2.02
-3.73
-5.76
-8.08
-10.62
-13.28
-15.98
-18.66
-21.26
-23.79
-26.28
-28.89
-31.83
-35.36
-39.61
-44.44
-49.40
-53.72
-56.51
-57.01
-54.81
-49.96
-42.93
-34.47
-25.48
-16.75
-8.87
-2.13
3.46
8.10
12.10
15.72
19.15
22.45
25.57
28.39
30.75
32.54
33.74
34.44
34.86
35.26
35.85
36.75
37.93
39.27
40.60
41.79
42.77
43.58
44.23
44.73
45.02
44.99
44.54
43.69
42.55
41.33
40.15
39.04
37.89
36.57
35.09
33.59
32.31
31.38
30.78
30.23
29.40
28.10
26.39
24.52
22.79
21.41
20.30
19.23
17.93
16.21
14.06
11.62
9.06
6.49
3.92
1.25
-1.65
-4.95
-8.85
-13.49
-18.95
-25.05
-31.30
-36.89
-40.86
-42.34
-40.92
-36.72
-30.45
-23.09
-15.70
-9.07
-3.65
0.40
3.20
4.98
6.01
6.51
6.63
6.41
5.80
4.74
3.27
1.55
-0.17
-1.59
-2.52
-2.87
-2.73
-2.29
-1.77
-1.41
-1.46
-2.09
-3.35
-5.14
-7.25
-9.38
-11.34
-13.04
-14.54
-15.93
-17.27
-18.51
-19.54
-20.25
-20.58
-20.62
-20.55
-20.57
-20.85
-21.51
-22.58
-24.01
-25.75
-27.69
-29.75
-31.87
-34.06
-36.42
-39.11
-42.27
-45.94
-49.85
-53.48
-55.99
-56.55
-54.51
-49.71
-42.59
-34.02
-25.10
-16.81
-9.72
-3.95
0.76
4.85
8.70
12.49
16.21
19.71
22.78
25.30
27.20
28.52
29.31
29.65
29.64
29.42
29.12
28.91
28.88
29.02
29.24
29.38
29.24
28.71
27.78
26.53
25.16
23.90
22.90
22.19
21.65
21.03
20.12
18.79
17.12
15.29
13.54
12.01
10.67
9.39
7.97
6.30
4.38
2.32
0.32
-1.47
-2.99
-4.37
-5.84
-7.70
-10.14
-13.18
-16.62
-20.14
-23.43
-26.35
-28.87
-31.12
-33.33
-35.70
-38.48
-41.83
-45.70
-49.68
-53.01
-54.69
-53.81
-49.92
-43.27
-34.74
-25.55
-16.82
-9.28
-3.13
1.78
5.87
9.52
13.04
16.57
20.12
23.60
26.79
29.43
31.32
32.42
32.85
32.86
32.72
32.64
32.75
33.11
33.75
34.62
35.61
36.51
37.09
37.15
36.59
35.51
34.08
32.56
31.14
29.93
28.97
28.22
27.59
26.94
26.13
25.07
23.77
22.36
20.97
19.72
18.66
17.71
16.74
15.60
14.14
12.29
10.05
7.57
5.03
2.63
0.45
-1.64
-3.94
-6.81
-10.52
-15.13
-20.47
-26.08
-31.32
-35.40
-37.58
-37.34
-34.58
-29.71
-23.54
-17.08
-11.18
-6.37
-2.78
-0.30
1.28
2.17
2.51
2.42
2.07
1.58
1.04
0.48
-0.16
-0.89
-1.71
-2.50
-3.13
-3.47
-3.41
-2.95
-2.19
-1.32
-0.58
-0.24
-0.48
-1.30
-2.51
-3.81
-4.91
-5.66
-6.12
-6.47
-6.92
-7.58
-8.42
-9.32
-10.25
-11.20
-12.29
-13.60
-15.17
-16.93
-18.74
-20.48
-22.07
-23.49
-24.81
-26.12
-27.64
-29.62
-32.31
-35.77
-39.76
-43.64
-46.49
-47.35
-45.62
-41.18
-34.57
-26.70
-18.57
-11.00
-4.44
0.99
5.38
8.91
11.79
14.24
16.49
18.73
21.01
23.25
25.27
26.87
27.89
28.34
28.32
27.97
27.45
26.91
26.46
26.16
26.02
25.92
25.64
24.93
23.65
21.86
19.76
17.69
15.88
14.44
13.34
12.47
11.72
10.98
10.18
9.18
7.88
6.20
4.17
1.94
-0.27
-2.25
-3.93
-5.37
-6.83
-8.58
-10.86
-13.68
-16.89
-20.14
-23.06
-25.43
-27.33
-29.11
-31.31
-34.39
-38.48
-43.22
-47.82
-51.21
-52.39
-50.74
-46.21
-39.32
-31.06
-22.51
-14.57
-7.79
-2.28
2.12
5.72
8.78
11.53
14.10
16.62
19.19
21.77
24.23
26.25
27.58
28.08
27.90
27.36
26.84
26.62
26.76
27.19
27.74
28.29
28.72
28.93
28.82
28.29
27.34
26.14
25.03
24.34
24.27
24.70
25.28
25.51
25.03
23.82
22.20
20.75
19.95
20.04
20.83
21.80
22.35
22.04
20.83
19.11
17.61
17.13
18.16
20.62
23.78
26.30
26.56
23.04
14.69
1.44
-15.59
-34.16
-51.18
-63.46
-68.51
-65.43
-55.20
-40.44
-24.50
-10.37
0.24
7.15
11.30
13.97
16.03
17.78
19.08
19.82
20.23
20.85
22.23
24.47
27.11
29.45
30.96
31.67
32.14
33.14
35.10
37.85
40.65
42.75
43.93
44.71
46.17
49.40
54.82
61.90
69.35
75.70
80.01
82.21
83.01
83.46
84.28
85.61
86.94
87.43
86.26
82.82
76.85
68.25
57.12
43.76
28.82
13.25
-1.78
-15.11
-25.96
-33.95
-39.16
-41.94
-42.75
-42.01
-40.10
-37.39
-34.20
-30.75
-27.17
-23.48
-19.77
-16.28
-13.45
-11.84
-11.94
-13.86
-17.30
-21.64
-26.22
-30.51
-34.32
-37.54
-40.01
-41.34
-40.91
-38.22
-33.16
-26.23
-18.38
-10.58
-3.47
2.89
8.84
14.75
20.67
26.18
30.64
33.50
34.69
34.63
33.95
33.20
32.45
31.35
29.32
25.93
21.12
15.24
8.83
2.34
-4.09
-10.59
-17.36
-24.34
-30.96
-36.15
-38.59
-37.20
-31.48
-22.39
-11.43
-0.09
10.95
20.75
28.73
34.80
39.43
43.25
46.15
47.88
48.47
48.67
48.67
48.60
48.60
49.10
50.59
52.23
53.56
55.16
59.09
65.20
72.18
78.32
82.55
84.59
81.22
71.24
56.99
45.93
40.09
38.74
39.46
40.44
40.18
30.19
5.80
-29.92
-62.54
-87.80
-106.51
-122.77
-139.46
-158.63
-193.43
-250.73
-325.30
-393.97
-450.04
-494.79
-534.44
-573.31
-615.04
-678.78
-776.53
-904.05
-1031.35
-1145.45
-1239.43
-1310.63
-1355.23
-1272.90
-1026.52
-667.15
-374.33
-170.19
-38.40
61.54
142.81
212.04
272.08
308.53
313.91
296.20
286.39
293.82
316.87
347.22
379.11
408.80
422.50
413.66
388.49
371.42
370.37
384.68
407.76
433.78
457.20
465.57
451.71
418.14
380.82
347.24
320.60
300.66
287.28
279.41
271.28
258.20
239.09
219.11
199.81
181.81
165.14
150.43
137.80
125.17
110.80
94.57
79.11
65.83
55.10
46.08
37.36
27.43
15.47
1.80
-12.24
-25.08
-35.57
-43.77
-50.81
-58.48
-68.29
-80.82
-95.27
-109.66
-121.52
-128.53
-129.06
-122.31
-108.32
-88.09
-63.69
-38.12
-14.73
3.73
16.08
23.03
26.74
29.55
32.96
37.07
40.97
43.68
44.93
45.34
45.85
47.00
48.58
49.83
49.97
48.80
46.86
45.07
44.31
44.82
46.12
47.21
47.11
45.21
41.63
37.03
32.37
28.60
26.44
26.29
28.05
30.99
33.70
34.35
31.36
24.11
13.36
1.04
-10.58
-19.86
-26.56
-31.75
-37.14
-44.14
-53.19
-63.64
-74.04
-82.78
-88.47
-90.19
-87.45
-80.22
-68.87
-54.20
-37.30
-19.52
-2.26
13.21
25.96
35.58
42.12
46.08
48.18
49.21
49.91
50.95
53.01
56.54
61.57
67.50
73.13
77.05
78.26
76.67
73.08
68.83
65.09
62.36
60.33
58.34
55.84
52.72
49.31
45.97
42.80
39.58
35.93
31.63
26.83
21.95
17.37
13.37
9.79
6.16
1.96
-3.24
-9.53
-16.64
-24.05
-31.20
-37.74
-43.66
-49.39
-55.62
-63.11
-72.35
-83.30
-95.22
-106.72
-115.94
-121.01
-120.48
-113.73
-101.16
-84.11
-64.42
-44.00
-24.17
-5.61
11.52
27.20
41.21
53.07
62.33
68.86
73.01
75.53
77.17
78.34
79.06
79.13
78.49
77.44
76.60
76.55
77.53
79.27
81.11
82.30
82.37
81.14
78.77
75.64
72.02
68.11
64.03
59.84
55.63
51.54
47.64
43.91
40.21
36.37
32.26
27.90
23.46
19.20
15.38
12.15
9.46
7.08
4.63
1.76
-1.75
-5.89
-10.39
-14.86
-18.97
-22.56
-25.77
-29.01
-32.86
-37.86
-44.27
-51.83
-59.60
-66.11
-69.56
-68.46
-62.03
-50.57
-35.42
-18.53
-1.93
12.85
24.97
34.34
41.35
46.53
50.37
53.15
54.97
55.89
56.00
55.44
54.46
53.23
51.92
50.57
49.23
47.95
46.82
45.92
45.30
44.85
44.35
43.44
41.83
39.30
35.88
31.80
27.43
23.17
19.27
15.81
12.65
9.54
6.19
2.38
-1.95
-6.65
-11.40
-15.82
-19.62
-22.75
-25.44
-28.14
-31.32
-35.30
-40.18
-45.80
-51.79
-57.61
-62.49
-65.48
-65.62
-62.21
-55.19
-45.23
-33.62
-21.90
-11.35
-2.63
4.22
9.60
14.04
17.88
21.20
23.85
25.64
26.46
26.44
25.85
25.07
24.43
24.11
24.11
24.29
24.50
24.60
24.57
24.35
23.87
22.95
21.41
19.17
16.29
13.11
10.02
7.35
5.19
3.39
1.62
-0.39
-2.71
-5.13
-7.39
-9.31
-10.98
-12.73
-14.92
-17.77
-21.16
-24.76
-28.17
-31.19
-33.90
-36.54
-39.39
-42.66
-46.45
-50.75
-55.42
-60.13
-64.22
-66.80
-66.97
-64.07
-58.05
-49.48
-39.42
-29.06
-19.39
-10.96
-3.88
2.06
7.21
11.88
16.23
20.21
23.54
25.96
27.26
27.51
27.02
26.25
25.59
25.25
25.24
25.43
25.71
25.98
26.27
26.57
26.84
26.93
26.62
25.74
24.21
22.12
19.73
17.38
15.34
13.76
12.60
11.66
10.70
9.52
8.11
6.56
5.12
4.00
3.31
3.04
3.01
2.96
2.65
1.99
1.00
-0.15
-1.28
-2.33
-3.34
-4.49
-5.92
-7.65
-9.55
-11.37
-12.92
-14.16
-15.28
-16.61
-18.51
-21.21
-24.72
-28.76
-32.86
-36.34
-38.47
-38.59
-36.26
-31.43
-24.52
-16.37
-8.01
-0.38
5.96
10.94
14.89
18.29
21.45
24.40
26.95
28.82
29.86
30.14
29.80
29.09
28.14
27.05
25.97
25.06
24.49
24.40
24.82
25.61
26.56
27.42
27.93
27.94
27.36
26.25
24.84
23.43
22.28
21.45
20.72
19.68
17.89
15.14
11.57
7.68
4.03
0.93
-1.62
-4.01
-6.65
-9.80
-13.38
-17.04
-20.42
-23.33
-25.93
-28.59
-31.80
-35.82
-40.59
-45.69
-50.35
-53.74
-55.14
-54.16
-50.81
-45.53
-39.04
-32.15
-25.60
-19.94
-15.43
-12.10
-9.81
-8.34
-7.51
-7.17
-7.24
-7.62
-8.15
-8.65
-8.89
-8.70
-8.02
-6.92
-5.55
-4.11
-2.81
-1.81
-1.24
-1.18
-1.60
-2.44
-3.62
-5.04
-6.64
-8.36
-10.18
-12.09
-14.10
-16.18
-18.24
-20.17
-21.80
-23.06
-23.98
-24.73
-25.58
-26.71
-28.18
-29.87
-31.57
-33.14
-34.58
-36.04
-37.72
-39.80
-42.33
-45.32
-48.69
-52.30
-55.81
-58.68
-60.08
-59.25
-55.68
-49.38
-41.04
-31.72
-22.63
-14.63
-8.18
-3.16
0.85
4.38
7.89
11.55
15.29
18.87
21.96
24.30
25.83
26.66
26.96
26.94
26.70
26.33
25.90
25.54
25.40
25.56
25.97
26.38
26.48
25.98
24.77
23.02
21.02
19.12
17.55
16.33
15.32
14.33
13.23
12.01
10.78
9.64
8.62
7.63
6.54
5.27
3.85
2.43
1.19
0.22
-0.51
-1.14
-1.87
-2.77
-3.87
-5.09
-6.38
-7.74
-9.24
-10.95
-12.92
-15.13
-17.49
-19.89
-22.21
-24.43
-26.55
-28.68
-30.97
-33.60
-36.77
-40.55
-44.82
-49.12
-52.66
-54.42
-53.43
-49.23
-42.08
-32.96
-23.26
-14.32
-6.96
-1.32
2.96
6.46
9.66
12.81
15.98
19.14
22.28
25.31
28.05
30.23
31.62
32.17
32.07
31.66
31.34
31.41
32.00
33.11
34.63
36.37
38.05
39.35
39.95
39.62
38.38
36.46
34.34
32.44
31.09
30.36
30.02
29.74
29.22
28.33
27.17
26.00
25.11
24.62
24.45
24.32
23.89
22.94
21.44
19.63
17.83
16.24
14.89
13.55
11.97
9.98
7.62
5.05
2.46
-0.11
-2.77
-5.66
-8.95
-12.72
-16.93
-21.62
-26.69
-31.95
-36.95
-41.04
-43.45
-43.59
-41.25
-36.70
-30.65
-24.03
-17.82
-12.77
-9.26
-7.29
-6.56
-6.63
-7.10
-7.76
-8.58
-9.64
-10.95
-12.39
-13.70
-14.59
-14.88
-14.57
-13.78
-12.67
-11.38
-9.98
-8.53
-7.13
-5.92
-5.08
-4.74
-4.94
-5.59
-6.46
-7.31
-7.92
-8.19
-8.17
-8.07
-8.16
-8.67
-9.62
-10.91
-12.24
-13.39
-14.24
-14.87
-15.51
-16.44
-17.82
-19.66
-21.79
-23.96
-25.93
-27.64
-29.15
-30.73
-32.69
-35.38
-38.99
-43.46
-48.38
-52.98
-56.24
-57.19
-55.18
-50.19
-42.82
-34.15
-25.34
-17.36
-10.67
-5.31
-1.01
2.66
6.08
9.46
12.85
16.13
19.10
21.56
23.39
24.59
25.28
25.65
25.93
26.32
26.97
27.90
29.03
30.12
30.93
31.26
31.09
30.57
29.93
29.39
29.03
28.71
28.23
27.41
26.18
24.65
22.96
21.27
19.66
18.27
17.23
16.62
16.32
15.94
14.96
12.90
9.64
5.49
1.12
-2.77
-5.69
-7.45
-8.19
-8.23
-7.95
-7.78
-8.11
-9.30
-11.44
-14.34
-17.47
-20.19
-21.98
-22.65
-22.51
-22.20
-22.51
-24.02
-26.80
-30.31
-33.44
-34.84
-33.38
-28.64
-21.09
-11.98
-2.99
4.35
9.11
11.23
11.45
11.01
11.15
12.67
15.57
19.17
22.40
24.28
24.34
22.72
20.05
17.18
14.89
13.67
13.65
14.73
16.62
18.90
21.14
22.90
23.88
23.92
23.07
21.61
19.98
18.67
18.18
18.88
20.86
23.93
27.67
31.55
35.12
38.17
40.66
42.65
44.05
44.56
43.73
41.20
37.02
31.72
26.24
21.45
17.85
15.29
13.05
10.30
6.41
1.28
-4.77
-11.10
-17.04
-21.95
-25.19
-26.30
-25.13
-22.25
-18.93
-16.84
-17.30
-20.58
-25.57
-30.21
-32.41
-31.02
-26.29
-19.60
-12.64
-6.64
-1.93
1.81
5.09
8.12
10.78
12.91
14.66
16.62
19.61
24.30
30.75
38.35
45.98
52.58
57.62
61.27
64.36
67.94
72.81
79.16
86.57
94.22
101.27
107.20
111.84
115.31
117.85
119.63
120.79
121.43
121.59
121.17
119.89
117.34
113.06
106.77
98.62
89.35
80.21
72.67
67.89
66.21
66.88
68.43
69.20
68.12
65.04
60.64
55.85
51.26
46.89
42.37
37.52
32.72
28.96
27.42
28.87
33.27
39.77
47.03
53.80
59.35
63.68
67.48
71.78
77.44
84.72
92.98
100.85
106.60
108.75
106.50
99.90
89.44
75.59
58.29
36.79
9.82
-23.96
-65.85
-117.11
-178.78
-251.00
-331.60
-415.22
-493.22
-555.60
-593.98
-604.37
-588.40
-552.05
-502.96
-447.64
-390.37
-333.74
-280.12
-232.50
-194.01
-166.46
-149.21
-139.18
-132.43
-126.02
-119.17
-112.89
-108.93
-108.24
-110.28
-113.37
-115.69
-116.24
-115.16
-113.67
-113.37
-115.61
-121.11
-129.71
-140.03
-149.58
-155.24
-154.33
-145.72
-130.57
-112.02
-93.82
-78.71
-67.30
-58.08
-48.64
-37.06
-22.92
-7.30
8.10
21.99
33.84
43.74
51.87
58.10
62.25
64.65
66.57
69.97
76.50
86.60
98.71
109.90
117.11
118.59
114.73
107.64
100.04
93.92
89.90
87.37
85.31
82.96
80.11
76.83
73.12
68.76
63.56
57.56
51.22
45.14
39.64
34.73
29.92
24.60
18.37
11.27
3.76
-3.59
-10.38
-16.64
-22.77
-29.53
-37.65
-47.57
-59.21
-71.70
-83.25
-91.21
-92.76
-85.91
-70.64
-49.23
-25.71
-4.40
11.86
22.57
29.35
34.69
40.51
47.25
54.11
59.87
63.81
66.12
67.47
68.51
69.37
69.77
69.44
68.52
67.64
67.53
68.79
71.32
74.38
76.99
78.24
77.76
75.82
73.11
70.54
68.96
68.99
70.77
73.81
76.85
78.14
75.98
69.45
59.01
46.35
33.76
23.21
15.57
10.39
6.44
2.37
-2.64
-8.75
-15.59
-22.59
-29.26
-35.29
-40.57
-45.25
-49.81
-55.00
-61.59
-70.11
-80.36
-91.17
-100.48
-105.81
-105.03
-97.23
-82.95
-64.17
-43.54
-23.45
-5.41
10.24
24.25
38.08
53.31
71.12
91.55
113.12
133.13
148.57
157.38
159.48
156.84
152.59
149.55
149.13
151.05
154.14
157.22
159.86
162.29
164.83
167.36
169.24
169.59
167.93
164.44
159.89
155.40
151.81
149.49
148.27
147.67
147.19
146.63
146.06
145.68
145.65
145.95
146.48
147.18
148.14
149.45
151.10
152.78
153.90
153.77
151.76
147.46
140.61
131.15
119.33
105.80
91.66
78.33
67.06
58.57
52.75
48.90
46.20
44.29
43.46
44.54
48.22
54.49
62.33
69.85
75.00
76.32
73.45
67.01
58.08
47.37
34.60
18.42
-3.31
-32.89
-72.48
-123.62
-186.67
-259.79
-338.21
-414.17
-478.38
-522.59
-542.21
-537.73
-514.01
-477.90
-435.15
-388.76
-339.13
-285.97
-230.32
-175.48
-126.14
-86.46
-58.24
-40.34
-29.60
-22.52
-16.69
-11.48
-7.53
-5.68
-6.00
-7.59
-8.99
-8.95
-7.18
-4.42
-2.10
-1.59
-3.47
-7.28
-11.64
-14.92
-15.97
-14.65
-11.81
-8.89
-7.21
-7.30
-8.72
-10.35
-10.95
-9.85
-7.22
-4.07
-1.72
-1.46
-3.95
-9.19
-16.56
-24.98
-32.97
-38.74
-40.51
-37.05
-28.45
-16.26
-3.21
7.93
15.47
19.38
21.13
22.59
25.01
28.46
32.18
35.29
37.43
38.90
40.21
41.56
42.68
43.01
42.24
40.57
38.68
37.33
37.10
38.02
39.66
41.33
42.29
42.09
40.62
38.09
35.00
31.90
29.26
27.34
26.15
25.44
24.84
23.96
22.55
20.55
18.12
15.54
13.11
11.01
9.25
7.66
6.01
4.12
1.97
-0.32
-2.55
-4.62
-6.53
-8.37
-10.30
-12.42
-14.77
-17.33
-20.11
-23.12
-26.33
-29.67
-32.96
-36.10
-39.05
-42.03
-45.46
-49.76
-55.18
-61.45
-67.71
-72.61
-74.71
-72.98
-67.12
-57.77
-46.24
-34.09
-22.71
-12.96
-5.18
0.80
5.42
9.19
12.63
16.11
19.79
23.58
27.15
30.07
31.96
32.70
32.46
31.62
30.70
30.11
30.08
30.66
31.73
33.05
34.36
35.37
35.83
35.57
34.59
33.03
31.16
29.30
27.71
26.47
25.47
24.49
23.27
21.70
19.83
17.86
16.02
14.51
13.33
12.32
11.22
9.84
8.11
6.17
4.23
2.50
1.01
-0.37
-1.86
-3.64
-5.69
-7.79
-9.64
-11.04
-12.06
-12.98
-14.24
-16.20
-19.09
-22.92
-27.53
-32.56
-37.45
-41.40
-43.51
-42.97
-39.34
-32.80
-24.16
-14.73
-5.78
1.67
7.22
11.01
13.50
15.24
16.61
17.75
18.61
19.14
19.27
19.07
18.63
18.08
17.53
17.05
16.69
16.51
16.54
16.83
17.32
17.88
18.33
18.39
17.89
16.72
14.99
12.96
10.98
9.35
8.22
7.52
7.02
6.39
5.33
3.72
1.61
-0.79
-3.24
-5.52
-7.59
-9.53
-11.47
-13.55
-15.79
-18.12
-20.41
-22.57
-24.60
-26.65
-29.00
-31.97
-35.82
-40.64
-46.23
-52.05
-57.17
-60.50
-61.10
-58.44
-52.73
-44.77
-35.74
-26.71
-18.36
-10.87
-4.14
1.96
7.41
12.03
15.67
18.36
20.44
22.43
24.78
27.63
30.68
33.34
34.97
35.25
34.35
32.94
31.92
32.01
33.48
36.14
39.44
42.64
45.02
45.61
43.33
37.39
27.94
16.58
6.18
-0.27
-0.99
3.59
10.98
17.86
21.79
22.26
20.56
18.71
18.05
18.60
19.22
18.70
16.48
13.07
9.58
6.99
5.65
5.16
4.69
3.46
1.07
-2.30
-6.06
-9.54
-12.23
-14.00
-15.13
-16.14
-17.56
-19.70
-22.62
-26.23
-30.40
-35.05
-39.98
-44.69
-48.08
-48.74
-45.53
-38.26
-28.08
-17.13
-7.65
-1.01
2.72
4.59
5.97
7.74
10.02
12.41
14.52
16.34
18.22
20.44
22.96
25.24
26.58
26.53
25.23
23.29
21.58
20.84
21.33
22.79
24.57
26.01
26.69
26.55
25.87
25.01
24.23
23.58
22.92
22.05
20.85
19.30
17.50
15.59
13.71
11.99
10.47
9.21
8.17
7.27
6.39
5.41
4.21
2.71
0.87
-1.29
-3.69
-6.18
-8.61
-10.88
-13.08
-15.42
-18.21
-21.71
-25.95
-30.67
-35.29
-39.07
-41.18
-41.05
-38.45
-33.65
-27.31
-20.33
-13.62
-7.84
-3.29
0.08
2.47
4.12
5.16
5.55
5.29
4.45
3.27
2.05
1.08
0.54
0.50
0.89
1.65
2.72
4.01
5.41
6.72
7.75
8.32
8.38
8.03
7.41
6.72
6.08
5.52
5.02
4.51
3.89
3.08
2.03
0.73
-0.72
-2.18
-3.49
-4.55
-5.41
-6.21
-7.18
-8.52
-10.31
-12.51
-14.91
-17.32
-19.58
-21.63
-23.55
-25.47
-27.63
-30.29
-33.62
-37.64
-42.01
-46.06
-48.86
-49.52
-47.47
-42.69
-35.79
-27.72
-19.61
-12.30
-6.23
-1.44
2.31
5.39
8.10
10.69
13.28
15.92
18.58
21.11
23.29
24.82
25.49
25.32
24.56
23.66
23.09
23.19
24.01
25.33
26.79
28.00
28.65
28.61
27.89
26.69
25.27
23.90
22.78
21.96
21.36
20.85
20.30
19.68
19.02
18.37
17.77
17.17
16.56
15.92
15.27
14.67
14.15
13.69
13.21
12.59
11.79
10.77
9.56
8.23
6.85
5.46
4.08
2.69
1.21
-0.46
-2.49
-5.05
-8.28
-12.22
-16.64
-21.01
-24.55
-26.43
-25.99
-23.02
-17.91
-11.48
-4.79
1.25
6.09
9.62
12.03
13.67
14.79
15.57
16.08
16.37
16.52
16.63
16.79
17.01
17.24
17.39
17.43
17.43
17.55
17.98
18.84
20.04
21.36
22.46
23.06
23.02
22.39
21.33
20.04
18.62
17.10
15.49
13.84
12.21
10.68
9.17
7.50
5.36
2.53
-1.01
-5.06
-9.26
-13.23
-16.76
-19.86
-22.73
-25.66
-28.91
-32.69
-37.07
-42.04
-47.34
-52.50
-56.80
-59.40
-59.59
-57.05
-51.99
-45.12
-37.48
-30.12
-23.78
-18.74
-14.84
-11.71
-8.96
-6.39
-4.03
-2.09
-0.75
-0.08
0.09
0.07
0.26
0.94
2.27
4.17
6.41
8.68
10.69
12.23
13.21
13.64
13.56
13.01
12.05
10.76
9.28
7.79
6.41
5.17
4.01
2.79
1.44
-0.02
-1.49
-2.86
-4.14
-5.46
-7.02
-8.93
-11.21
-13.71
-16.22
-18.59
-20.74
-22.75
-24.78
-27.06
-29.81
-33.17
-37.13
-41.33
-45.10
-47.52
-47.70
-45.15
-39.95
-32.83
-24.79
-16.87
-9.75
-3.72
1.26
5.40
9.00
12.31
15.56
18.88
22.22
25.39
28.06
29.99
31.10
31.51
31.51
31.37
31.29
31.35
31.57
31.91
32.31
32.66
32.81
32.62
32.00
31.01
29.78
28.52
27.38
26.43
25.65
24.91
24.08
23.01
21.65
20.02
18.22
16.41
14.73
13.27
11.97
10.73
9.40
7.85
6.07
4.08
1.98
-0.11
-2.10
-3.88
-5.34
-6.43
-7.17
-7.72
-8.35
-9.39
-11.12
-13.68
-17.03
-20.89
-24.76
-27.98
-29.83
-29.74
-27.46
-23.16
-17.44
-11.12
-5.02
0.31
4.63
8.03
10.74
13.04
15.15
17.20
19.19
21.08
22.75
24.07
24.90
25.24
25.14
24.79
24.42
24.23
24.39
24.91
25.74
26.69
27.60
28.24
28.45
28.18
27.42
26.28
24.90
23.45
22.07
20.80
19.56
18.21
16.54
14.46
12.01
9.40
6.91
4.78
3.08
1.68
0.31
-1.34
-3.44
-5.93
-8.60
-11.21
-13.59
-15.81
-18.10
-20.73
-23.90
-27.65
-31.80
-36.01
-39.83
-42.73
-44.24
-43.96
-41.75
-37.79
