1626690469.00
64.000000
-0.00
-0.00
-0.00
-0.00
-0.00
-0.00
-0.00
-0.00
-0.00
-0.00
0.00
0.01
0.01
-0.00
-0.03
-0.05
-0.05
0.00
0.13
0.36
0.66
1.01
1.37
1.72
2.06
2.40
2.79
3.24
3.80
4.42
5.06
5.66
6.20
6.68
7.15
7.68
8.31
9.14
10.09
11.04
11.88
12.56
13.14
13.76
14.65
15.96
17.91
20.32
22.90
25.38
27.58
29.57
31.68
34.32
37.81
42.54
48.15
54.10
59.83
64.97
69.58
74.14
79.34
85.71
93.76
103.00
112.62
121.73
129.77
136.75
143.30
150.75
157.77
166.64
177.95
191.79
206.97
220.57
228.25
225.36
208.53
176.87
132.76
80.05
23.07
-34.94
-92.44
-149.16
-205.23
-260.37
-313.74
-363.87
-409.83
-450.91
-486.50
-515.74
-537.23
-549.22
-549.96
-538.37
-514.21
-478.67
-433.88
-382.45
-327.02
-269.84
-212.63
-156.66
-102.95
-52.37
-5.90
35.58
71.43
101.35
125.50
144.38
158.69
169.15
176.37
180.75
182.57
182.07
179.51
175.23
169.65
163.18
156.15
148.81
141.30
133.69
126.02
118.33
110.69
103.16
95.80
88.68
81.83
75.25
68.95
62.95
57.25
51.86
46.78
42.03
37.59
33.45
29.61
26.07
22.81
19.83
17.11
14.67
12.48
10.54
8.83
7.35
6.07
4.97
4.05
3.27
2.62
2.09
1.65
1.30
1.01
0.79
0.61
0.48
0.37
0.30
0.24
0.21
0.19
0.19
0.19
0.21
0.23
0.26
0.30
0.34
0.38
0.42
0.47
0.51
0.56
0.61
0.66
0.72
0.78
0.85
0.92
1.00
1.09
1.18
1.30
1.42
1.56
1.71
1.88
2.08
2.29
2.52
2.79
3.08
3.39
3.74
4.12
4.53
4.98
5.47
6.01
6.60
7.21
7.84
8.48
9.12
9.79
10.52
11.31
12.18
13.14
14.14
15.18
16.22
17.28
18.36
19.48
20.63
21.76
22.75
23.43
23.63
23.17
21.96
19.95
17.23
13.88
10.02
5.72
1.06
-3.87
-8.95
-13.96
-18.56
-22.41
-25.23
-26.93
-27.68
-27.83
-27.87
-28.11
-28.69
-29.44
-30.01
-30.05
-29.44
-28.40
-27.42
-27.07
-27.70
-29.31
-31.39
-33.26
-34.37
-34.48
-33.87
-33.15
-33.00
-33.92
-36.17
-39.78
-44.50
-49.59
-53.64
-54.78
-51.29
-42.43
-29.11
-13.77
0.57
11.59
18.70
23.08
26.89
31.99
38.96
47.01
54.58
60.28
63.44
64.15
62.81
59.73
54.92
48.25
39.87
30.39
20.93
12.67
6.52
2.70
0.93
0.46
0.47
0.38
0.07
-0.20
-0.14
0.26
0.60
0.20
-1.58
-5.05
-9.99
-15.82
-21.80
-27.40
-32.49
-37.27
-42.25
-48.05
-55.17
-63.72
-73.12
-82.02
-88.42
-90.16
-85.57
-74.11
-56.60
-35.01
-11.80
10.78
31.14
48.38
62.07
71.93
77.70
79.28
77.01
71.74
64.80
57.60
51.24
46.26
42.65
40.02
37.94
36.10
34.38
32.80
31.34
29.88
28.06
25.42
21.51
16.04
9.07
0.97
-7.63
-16.13
-24.12
-31.53
-38.62
-45.86
-53.74
-62.58
-72.38
-82.63
-92.22
-99.55
-102.80
-100.43
-91.69
-76.89
-57.40
-35.20
-12.42
9.13
28.17
43.95
56.08
64.45
69.14
70.42
68.81
65.04
59.96
54.47
49.37
45.29
42.62
41.47
41.77
43.27
45.63
48.45
51.33
53.88
55.78
56.83
56.91
55.92
53.77
50.32
45.43
39.07
31.39
22.72
13.42
3.74
-6.25
-16.62
-27.40
-38.53
-49.81
-60.89
-71.26
-80.20
-86.68
-89.43
-87.27
-79.57
-66.58
-49.60
-30.67
-11.96
4.76
18.53
29.13
36.75
41.62
43.89
43.59
40.93
36.47
31.07
25.82
21.62
19.00
17.96
18.11
18.80
19.50
19.87
19.89
19.66
19.27
18.67
17.56
15.62
12.54
8.26
2.98
-2.94
-9.07
-15.11
-20.94
-26.64
-32.39
-38.38
-44.76
-51.66
-59.20
-67.36
-75.88
-84.07
-90.75
-94.38
-93.46
-87.00
-74.90
-58.03
-38.05
-16.95
3.43
21.68
36.88
48.47
56.11
59.70
59.44
55.94
50.25
43.68
37.55
32.81
29.84
28.47
28.20
28.42
28.72
28.96
29.16
29.33
29.30
28.68
26.99
23.80
18.98
12.73
5.56
-1.91
-9.14
-15.88
-22.16
-28.32
-34.76
-41.88
-49.82
-58.43
-67.17
-75.08
-80.93
-83.33
-81.08
-73.50
-60.71
-43.61
-23.73
-2.91
17.15
35.09
50.01
61.40
69.04
72.98
73.49
71.12
66.67
61.12
55.42
50.36
46.41
43.70
42.05
41.09
40.39
39.56
38.31
36.51
34.16
31.32
28.10
24.58
20.72
16.40
11.44
5.72
-0.69
-7.51
-14.28
-20.59
-26.22
-31.30
-36.23
-41.60
-47.95
-55.62
-64.57
-74.29
-83.71
-91.26
-95.16
-93.82
-86.33
-72.84
-54.52
-33.28
-11.21
9.89
28.83
44.99
58.10
68.09
74.86
78.37
78.69
76.14
71.36
65.17
58.53
52.25
46.89
42.67
39.51
37.14
35.26
33.60
31.90
29.95
27.48
24.31
20.30
15.48
9.98
3.92
-2.54
-9.34
-16.42
-23.65
-30.83
-37.66
-43.89
-49.38
-54.20
-58.63
-63.14
-68.32
-74.62
-82.21
-90.67
-98.90
-105.16
-107.51
-104.36
-95.01
-79.93
-60.63
-39.15
-17.41
3.15
21.72
37.85
51.22
61.43
68.12
71.21
71.06
68.52
64.62
60.32
56.27
52.76
49.95
47.88
46.70
46.49
47.16
48.31
49.27
49.32
47.93
45.00
40.80
35.87
30.70
25.54
20.30
14.76
8.66
1.99
-5.00
-11.95
-18.52
-24.64
-30.44
-36.31
-42.65
-49.85
-58.13
-67.43
-77.17
-86.23
-92.97
-95.58
-92.62
-83.52
-68.92
-50.40
-30.12
-10.09
8.27
24.22
37.55
48.11
55.68
59.96
60.83
58.63
54.27
48.99
44.03
40.23
37.92
36.90
36.74
36.99
37.32
37.53
37.47
37.02
35.98
34.16
31.34
27.38
22.26
16.15
9.42
2.55
-4.07
-10.26
-16.07
-21.75
-27.59
-33.80
-40.56
-48.01
-56.18
-64.89
-73.50
-80.79
-85.16
-85.04
-79.44
-68.36
-52.79
-34.42
-15.08
3.61
20.44
34.54
45.24
52.07
54.81
53.70
49.49
43.33
36.44
29.80
23.99
19.24
15.56
12.91
11.22
10.34
10.01
9.83
9.31
8.01
5.60
1.94
-2.91
-8.69
-15.01
-21.39
-27.44
-33.07
-38.51
-44.32
-51.14
-59.35
-68.84
-78.78
-87.79
-94.16
-96.29
-93.04
-83.95
-69.42
-50.58
-29.09
-6.80
14.49
33.30
48.57
59.64
66.29
68.66
67.29
63.11
57.33
51.22
45.85
41.76
39.00
37.24
36.03
35.06
34.22
33.51
32.81
31.78
29.96
26.94
22.61
17.20
11.19
5.05
-0.95
-6.76
-12.57
-18.66
-25.35
-33.04
-42.12
-52.86
-65.13
-78.13
-90.32
-99.58
-103.82
-101.53
-92.34
-77.12
-57.66
-36.18
-14.73
5.20
22.69
37.25
48.61
56.52
60.85
61.72
59.59
55.32
49.99
44.58
39.78
35.87
32.84
30.56
28.91
27.90
27.52
27.66
27.95
27.84
26.70
24.04
19.75
14.06
7.49
0.65
-6.00
-12.23
-18.05
-23.65
-29.32
-35.39
-42.23
-50.19
-59.40
-69.48
-79.41
-87.49
-91.78
-90.64
-83.30
-70.11
-52.43
-32.20
-11.33
8.68
26.83
42.48
55.17
64.45
70.05
71.99
70.77
67.30
62.70
57.95
53.74
50.38
47.92
46.29
45.37
45.07
45.16
45.31
45.08
44.00
41.69
38.01
33.09
27.26
20.88
14.27
7.55
0.72
-6.31
-13.56
-20.97
-28.35
-35.59
-42.64
-49.66
-56.96
-64.76
-73.12
-81.56
-89.08
-94.16
-95.15
-90.73
-80.38
-64.67
-45.11
-23.77
-2.68
16.61
33.16
46.55
56.61
63.23
66.37
66.18
63.10
57.87
51.40
44.57
38.04
32.25
27.51
24.12
22.31
22.23
23.70
26.17
28.74
30.38
30.19
27.68
22.81
15.93
7.64
-1.44
-10.76
-19.96
-28.93
-37.72
-46.59
-55.86
-65.91
-76.96
-88.92
-101.21
-112.66
-121.62
-126.28
-125.24
-117.98
-105.14
-88.36
-69.84
-51.79
-35.99
-23.51
-14.80
-9.75
-7.89
-8.49
-10.65
-13.40
-15.72
-16.63
-15.32
-11.19
-4.05
5.92
18.09
31.53
45.12
57.75
68.41
76.26
80.68
81.38
78.44
72.46
64.39
55.28
46.04
37.10
28.33
19.12
8.76
-3.28
-16.98
-31.60
-45.64
-57.19
-64.24
-65.29
-59.67
-47.77
-30.87
-10.85
10.31
30.85
49.36
64.91
76.83
84.78
88.72
88.95
86.17
81.28
75.32
69.18
63.49
58.57
54.49
51.20
48.55
46.41
44.59
42.82
40.71
37.80
33.68
28.11
21.11
13.01
4.34
-4.31
-12.41
-19.76
-26.47
-33.05
-40.26
-48.79
-59.02
-70.63
-82.55
-93.01
-99.97
-101.63
-96.91
-85.75
-69.13
-48.76
-26.61
-4.50
16.17
34.48
49.83
61.84
70.30
75.11
76.47
74.92
71.31
66.66
61.93
57.84
54.69
52.39
50.50
48.53
46.12
43.17
39.85
36.42
33.02
29.46
25.29
20.06
13.57
6.02
-1.95
-9.69
-16.74
-23.09
-29.15
-35.52
-42.75
-51.15
-60.68
-70.92
-81.02
-89.74
-95.54
-96.84
-92.49
-82.12
-66.33
-46.55
-24.65
-2.49
18.41
36.99
52.56
64.68
73.08
77.60
78.43
76.11
71.59
66.03
60.60
56.09
52.87
50.84
49.57
48.60
47.57
46.32
44.80
42.97
40.74
37.90
34.23
29.58
23.94
17.39
10.16
2.50
-5.25
-12.79
-19.92
-26.63
-33.11
-39.80
-47.21
-55.80
-65.77
-76.84
-88.18
-98.39
-105.71
-108.36
-105.02
-95.20
-79.47
-59.32
-36.78
-13.96
7.41
26.07
41.28
52.64
59.98
63.34
63.10
59.96
54.93
49.17
43.72
39.30
36.16
34.19
33.06
32.41
31.98
31.62
31.25
30.70
29.67
27.72
24.44
19.60
13.31
6.00
-1.67
-9.07
-15.80
-21.89
-27.68
-33.75
-40.68
-48.80
-58.07
-67.94
-77.41
-85.06
-89.32
-88.77
-82.59
-70.84
-54.44
-34.96
-14.21
6.17
24.87
40.90
53.47
61.94
65.95
65.60
61.64
55.32
48.16
41.49
36.13
32.27
29.59
27.57
25.83
24.19
22.73
21.53
20.48
19.19
17.09
13.64
8.59
2.05
-5.53
-13.57
-21.49
-28.98
-35.92
-42.48
-48.98
-55.87
-63.62
-72.48
-82.30
-92.28
-100.90
-106.23
-106.42
-100.26
-87.68
-69.75
-48.38
-25.72
-3.68
16.43
33.86
48.13
58.93
65.92
69.00
68.45
65.08
60.08
54.77
50.22
46.94
44.89
43.68
42.81
41.94
40.94
39.85
38.71
37.39
35.61
32.96
29.05
23.69
16.90
8.99
0.48
-8.08
-16.18
-23.57
-30.27
-36.63
-43.21
-50.60
-59.20
-68.90
-78.96
-87.91
-93.94
-95.26
-90.55
-79.44
-62.56
-41.43
-18.12
5.26
26.86
45.43
60.24
71.00
77.69
80.46
79.69
75.98
70.30
63.78
57.48
52.12
47.89
44.58
41.78
39.18
36.74
34.58
32.82
31.40
29.94
27.90
24.70
20.00
13.78
6.35
-1.73
-9.87
-17.59
-24.61
-30.95
-36.76
-42.35
-48.04
-54.23
-61.26
-69.40
-78.54
-87.92
-96.08
-101.03
-100.81
-94.17
-80.98
-62.39
-40.44
-17.42
4.70
24.58
41.46
54.89
64.52
70.08
71.51
69.18
64.02
57.32
50.48
44.62
40.29
37.51
35.87
34.86
34.10
33.42
32.83
32.23
31.47
30.21
28.05
24.75
20.26
14.77
8.67
2.33
-3.97
-10.11
-16.24
-22.63
-29.64
-37.61
-46.72
-56.82
-67.33
-77.22
-85.07
-89.28
-88.44
-81.66
-68.93
-51.16
-30.07
-7.75
13.73
32.72
48.11
59.24
65.82
67.81
65.50
59.61
51.28
41.98
33.16
25.93
20.76
17.53
15.75
14.82
14.32
14.06
13.94
13.80
13.25
11.77
8.86
4.25
-1.94
-9.22
-16.94
-24.51
-31.68
-38.49
-45.34
-52.67
-60.80
-69.72
-78.80
-86.86
-92.26
-93.30
-88.67
-77.92
-61.65
-41.32
-18.99
3.25
23.56
40.57
53.30
61.25
64.31
62.88
57.81
50.36
41.79
33.23
25.40
18.66
13.09
8.73
5.57
3.62
2.75
2.57
2.50
1.84
0.07
-3.00
-7.22
-12.25
-17.74
-23.59
-29.88
-36.86
-44.79
-53.83
-63.97
-74.85
-85.68
-95.09
-101.27
-102.35
-96.93
-84.65
-66.35
-43.98
-19.90
3.62
24.86
42.82
56.98
67.09
73.04
74.94
73.28
68.97
63.17
57.06
51.47
46.68
42.53
38.64
34.73
30.90
27.49
24.94
23.43
22.74
22.25
21.20
18.98
15.30
10.21
4.04
-2.83
-10.06
-17.48
-25.10
-33.15
-42.00
-52.05
-63.45
-75.77
-87.90
-98.00
-103.91
-103.73
-96.40
-82.03
-61.96
-38.35
-13.57
10.30
31.75
49.89
64.20
74.38
80.28
82.05
80.21
75.74
69.92
63.95
58.72
54.60
51.51
49.12
47.12
45.33
43.74
42.40
41.23
40.02
38.39
35.88
32.08
26.82
20.19
12.57
4.49
-3.53
-11.14
-18.27
-25.06
-31.86
-39.07
-47.05
-55.99
-65.82
-76.10
-85.84
-93.63
-97.78
-96.70
-89.46
-76.01
-57.39
-35.40
-12.13
10.52
31.17
48.98
63.50
74.47
81.71
85.18
85.17
82.30
77.51
71.88
66.37
61.65
58.01
55.34
53.31
51.50
49.62
47.56
45.31
42.97
40.47
37.66
34.20
29.82
24.41
18.13
11.30
4.39
-2.28
-8.56
-14.52
-20.39
-26.44
-32.95
-40.15
-48.22
-57.28
-67.13
-77.14
-86.08
-92.23
-93.81
-89.43
-78.72
-62.40
-42.14
-20.08
1.74
21.67
38.60
51.79
60.74
65.19
65.26
61.52
55.05
47.22
39.38
32.57
27.27
23.47
20.77
18.68
16.81
15.04
13.38
11.88
10.42
8.70
6.30
2.87
-1.69
-7.19
-13.25
-19.39
-25.33
-31.01
-36.58
-42.36
-48.68
-55.80
-63.80
-72.37
-80.77
-87.76
-91.74
-91.15
-84.92
-72.86
-55.78
-35.35
-13.56
7.68
26.92
43.15
55.68
64.01
67.80
67.10
62.49
55.17
46.72
38.63
31.97
27.06
23.67
21.22
19.22
17.44
15.92
14.79
13.98
13.22
11.91
9.49
5.58
0.15
-6.50
-13.81
-21.18
-28.20
-34.69
-40.76
-46.75
-53.19
-60.58
-69.18
-78.75
-88.34
-96.34
-100.78
-99.88
-92.56
-78.87
-59.96
-37.72
-14.26
8.57
29.41
47.38
61.86
72.40
78.73
80.83
79.15
74.56
68.26
61.44
55.09
49.71
45.40
41.95
39.04
36.44
34.00
31.71
29.56
27.51
25.40
23.00
20.02
16.17
11.29
5.42
-1.19
-8.15
-15.05
-21.66
-27.94
-34.06
-40.27
-46.92
-54.34
-62.79
-72.30
-82.45
-92.23
-99.99
-103.77
-101.88
-93.33
-78.32
-58.18
-34.95
-10.90
11.99
32.33
49.31
62.53
71.84
77.25
78.90
77.18
72.79
66.70
59.99
53.70
48.55
44.84
42.49
41.15
40.38
39.77
39.04
37.99
36.49
34.39
31.58
27.96
23.49
18.16
12.01
5.15
-2.18
-9.66
-16.97
-23.79
-30.01
-35.77
-41.39
-47.31
-53.95
-61.55
-70.04
-78.87
-86.93
-92.70
-94.46
-90.75
-80.84
-65.05
-44.77
-22.07
0.84
22.10
40.51
55.40
66.50
73.64
76.77
76.02
71.93
65.41
57.71
50.10
43.57
38.54
34.95
32.40
30.39
28.61
27.03
25.77
24.94
24.46
23.89
22.61
20.05
15.95
10.50
4.24
-2.17
-8.25
-13.84
-19.14
-24.48
-30.26
-36.76
-44.15
-52.48
-61.58
-70.98
-79.72
-86.39
-89.33
-87.15
-79.14
-65.60
-47.79
-27.57
-6.92
12.51
29.51
43.32
53.45
59.57
61.67
60.10
55.63
49.33
42.37
35.66
29.78
24.94
21.10
18.11
15.82
14.09
12.80
11.71
10.55
8.98
6.67
3.40
-0.88
-6.04
-11.75
-17.66
-23.39
-28.80
-33.96
-39.18
-44.91
-51.60
-59.47
-68.20
-76.92
-84.16
-88.24
-87.62
-81.41
-69.56
-52.94
-32.99
-11.49
9.84
29.50
46.29
59.27
67.84
71.77
71.29
67.16
60.55
52.81
45.24
38.77
33.80
30.29
27.89
26.16
24.75
23.46
22.11
20.57
18.63
16.03
12.57
8.12
2.77
-3.27
-9.67
-16.12
-22.41
-28.53
-34.69
-41.32
-48.86
-57.68
-67.69
-78.23
-87.91
-94.84
-97.11
-93.29
-82.93
-66.66
-46.02
-22.99
0.48
22.73
42.53
58.99
71.46
79.59
83.34
83.08
79.57
73.88
67.15
60.35
54.20
49.00
44.75
41.27
38.31
35.68
33.25
30.96
28.80
26.64
24.31
21.50
17.87
13.19
7.40
0.75
-6.34
-13.38
-20.02
-26.24
-32.31
-38.66
-45.84
-54.25
-64.01
-74.79
-85.64
-95.04
-101.07
-101.85
-96.15
-83.75
-65.56
-43.41
-19.46
4.23
26.06
44.95
60.21
71.42
78.43
81.32
80.56
76.93
71.47
65.27
59.28
54.22
50.42
47.94
46.58
46.05
45.98
46.07
46.04
45.63
44.58
42.61
39.55
35.35
30.14
24.19
17.83
11.30
4.71
-2.01
-8.98
-16.24
-23.69
-31.08
-38.07
-44.45
-50.25
-55.80
-61.69
-68.51
-76.56
-85.43
-93.90
-100.07
-101.87
-97.71
-86.98
-70.24
-49.09
-25.60
-1.85
20.43
39.95
55.83
67.43
74.44
76.90
75.34
70.76
64.44
57.62
51.29
46.01
41.97
39.11
37.26
36.24
35.88
35.88
35.88
35.39
34.01
31.51
27.89
23.32
18.09
12.42
6.48
0.37
-5.80
-11.88
-17.72
-23.28
-28.64
-34.10
-39.98
-46.62
-54.18
-62.57
-71.43
-80.02
-87.27
-91.84
-92.35
-87.72
-77.56
-62.35
-43.38
-22.44
-1.45
17.93
34.42
47.13
55.54
59.40
58.93
54.80
48.17
40.49
33.16
27.21
23.11
20.76
19.68
19.27
19.05
18.74
18.26
17.56
16.53
14.94
12.53
9.12
4.73
-0.41
-6.00
-11.80
-17.70
-23.84
-30.37
-37.47
-45.22
-53.64
-62.62
-71.89
-80.82
-88.37
-93.09
-93.39
-88.08
-76.80
-60.22
-39.94
-17.99
3.64
23.41
40.30
53.74
63.40
69.10
70.87
69.03
64.28
57.68
50.48
43.78
38.40
34.72
32.65
31.82
31.69
31.74
31.54
30.85
29.55
27.64
25.17
22.19
18.71
14.71
10.11
4.87
-1.05
-7.57
-14.58
-21.93
-29.44
-36.90
-44.14
-51.05
-57.74
-64.54
-71.97
-80.35
-89.51
-98.44
-105.39
-108.26
-105.25
-95.53
-79.53
-58.75
-35.32
-11.35
11.42
31.78
49.01
62.59
72.21
77.74
79.38
77.69
73.60
68.28
62.80
57.98
54.22
51.52
49.68
48.41
47.56
47.02
46.75
46.65
46.46
45.83
44.48
42.18
38.93
34.87
30.29
25.51
20.77
16.23
11.80
7.31
2.48
-2.95
-9.03
-15.63
-22.41
-28.94
-34.88
-40.13
-44.89
-49.65
-55.07
-61.74
-69.98
-79.64
-89.96
-99.51
-106.45
-108.88
-105.37
-95.38
-79.41
-58.98
-36.11
-12.81
9.24
28.94
45.57
58.71
68.05
73.48
75.20
73.82
70.28
65.63
60.80
56.38
52.68
49.77
47.68
46.38
45.78
45.71
45.81
45.63
44.73
42.87
40.00
36.21
31.73
26.73
21.32
15.57
9.53
3.29
-3.02
-9.29
-15.40
-21.29
-26.94
-32.35
-37.67
-43.13
-49.11
-56.00
-64.03
-72.94
-81.81
-89.15
-93.16
-92.27
-85.66
-73.50
-56.91
-37.63
-17.52
1.77
18.98
33.21
43.86
50.58
53.34
52.48
48.77
43.29
37.26
31.71
27.29
24.19
22.20
20.95
20.13
19.60
19.34
19.30
19.20
18.56
16.76
13.33
8.19
1.67
-5.57
-12.88
-19.80
-26.23
-32.33
-38.39
-44.75
-51.73
-59.55
-68.27
-77.56
-86.51
-93.68
-97.28
-95.69
-88.01
-74.38
-55.97
-34.64
-12.39
9.09
28.53
45.09
58.10
67.03
71.56
71.73
68.15
61.94
54.59
47.53
41.75
37.69
35.17
33.70
32.76
32.00
31.36
30.83
30.32
29.56
28.04
25.24
20.84
14.82
7.48
-0.61
-8.86
-16.77
-24.01
-30.47
-36.28
-41.72
-47.29
-53.48
-60.74
-69.20
-78.42
-87.31
-94.16
-97.04
-94.32
-85.20
-70.02
-50.20
-27.80
-4.98
16.43
35.21
50.66
62.43
70.36
74.42
74.75
71.76
66.25
59.27
51.98
45.39
40.18
36.56
34.36
33.16
32.51
32.08
31.66
31.10
30.24
28.87
26.80
23.88
20.10
15.57
10.50
5.02
-0.71
-6.61
-12.62
-18.64
-24.58
-30.42
-36.25
-42.37
-49.22
-57.26
-66.69
-77.21
-87.86
-97.02
-102.77
-103.32
-97.54
-85.29
-67.42
-45.62
-21.96
1.52
23.08
41.43
55.73
65.61
71.05
72.49
70.63
66.46
61.03
55.30
50.03
45.69
42.50
40.45
39.45
39.32
39.88
40.91
42.06
42.92
43.01
41.91
39.36
35.44
30.54
25.18
19.86
14.79
9.87
4.72
-1.01
-7.41
-14.25
-21.04
-27.33
-32.89
-37.92
-42.89
-48.44
-55.12
-63.17
-72.47
-82.36
-91.62
-98.65
-101.66
-99.17
-90.38
-75.52
-55.78
-33.00
-9.24
13.68
34.37
51.84
65.38
74.55
79.17
79.50
76.31
70.79
64.25
57.84
52.25
47.67
43.98
40.95
38.48
36.59
35.38
34.85
34.80
34.82
34.40
33.03
30.38
26.31
20.94
14.60
7.70
0.66
-6.22
-12.83
-19.29
-25.89
-32.95
-40.76
-49.42
-58.70
-67.94
-76.12
-81.88
-83.81
-80.86
-72.54
-59.20
-41.94
-22.32
-2.17
16.87
33.47
46.65
55.85
60.78
61.57
58.70
53.05
45.83
38.31
31.64
26.57
23.31
21.63
20.97
20.73
20.47
19.98
19.22
18.22
16.86
14.83
11.82
7.56
2.08
-4.30
-11.08
-17.73
-23.96
-29.77
-35.43
-41.42
-48.17
-56.04
-65.12
-75.14
-85.31
-94.31
-100.39
-101.79
-97.09
-85.78
-68.42
-46.54
-22.28
2.17
24.98
44.87
61.09
73.28
81.29
85.19
85.27
82.16
76.79
70.29
63.75
57.99
53.41
50.06
47.76
46.25
45.30
44.69
44.17
43.38
41.92
39.49
35.95
31.38
26.00
20.02
13.56
6.62
-0.84
-8.77
-16.99
-25.20
-33.10
-40.51
-47.48
-54.24
-61.20
-68.79
-77.32
-86.80
-96.73
-106.06
-113.15
-116.11
-113.29
-103.75
-87.65
-66.22
-41.52
-15.79
9.02
31.47
50.65
66.01
77.14
83.86
86.28
84.99
81.04
75.73
70.28
65.50
61.71
58.82
56.53
54.64
53.07
51.80
50.75
49.63
48.05
45.62
42.12
37.61
32.32
26.62
20.80
15.00
9.18
3.20
-3.10
-9.79
-16.78
-23.83
-30.62
-36.83
-42.35
-47.33
-52.23
-57.72
-64.44
-72.69
-82.13
-91.69
-99.59
-103.80
-102.49
-94.66
-80.39
-60.83
-37.88
-13.64
9.94
31.39
49.71
64.27
74.69
80.87
83.04
81.79
78.02
72.78
67.06
61.58
56.77
52.83
49.79
47.66
46.40
45.91
45.94
46.07
45.75
44.42
41.75
37.68
32.52
26.75
20.87
15.20
9.79
4.41
-1.31
-7.62
-14.59
-22.00
-29.39
-36.28
-42.32
-47.40
-51.74
-55.78
-60.13
-65.33
-71.65
-78.85
-85.97
-91.45
-93.40
-90.17
-80.88
-65.83
-46.42
-24.79
-3.22
16.41
32.93
45.77
54.76
59.88
61.23
59.06
54.01
47.12
39.67
32.93
27.85
24.75
23.43
23.32
23.76
24.27
24.62
24.72
24.60
24.14
23.14
21.29
18.34
14.21
9.02
3.09
-3.15
-9.38
-15.38
-21.11
-26.71
-32.37
-38.33
-44.78
-51.86
-59.64
-67.96
-76.25
-83.47
-88.15
-88.69
-83.85
-73.24
-57.49
-38.12
-17.11
3.60
22.50
38.63
51.35
60.26
65.13
65.95
63.17
57.70
50.81
43.86
37.91
33.59
31.05
30.00
30.00
30.52
31.13
31.47
31.28
30.37
28.63
25.98
22.44
18.03
12.76
6.65
-0.22
-7.65
-15.34
-22.92
-30.12
-36.82
-43.15
-49.44
-56.09
-63.54
-72.02
-81.42
-91.12
-99.92
-106.18
-108.06
-104.12
-93.72
-77.29
-56.32
-32.93
-9.40
12.36
31.04
45.98
57.04
64.37
68.27
69.17
67.59
64.25
59.91
55.38
51.30
48.16
46.19
45.41
45.65
46.55
47.60
48.25
48.03
46.69
44.18
40.66
36.31
31.23
25.38
18.71
11.19
2.98
-5.56
-13.99
-21.90
-29.04
-35.38
-41.09
-46.54
-52.17
-58.50
-65.84
-74.16
-82.84
-90.55
-95.45
-95.69
-89.91
-77.76
-60.04
-38.44
-15.08
8.02
29.23
47.45
62.01
72.60
79.17
81.98
81.54
78.56
73.90
68.39
62.79
57.69
53.54
50.54
48.66
47.72
47.39
47.26
46.91
45.92
43.93
40.73
36.30
30.85
24.76
18.41
12.08
5.88
-0.34
-6.71
-13.31
-20.02
-26.54
-32.62
-38.16
-43.36
-48.62
-54.51
-61.47
-69.69
-78.86
-88.05
-95.74
-100.10
-99.46
-92.81
-80.13
-62.48
-41.66
-19.77
1.32
20.19
35.93
48.00
56.10
60.09
60.21
57.01
51.46
44.76
38.09
32.38
28.12
25.36
23.84
23.13
22.85
22.69
22.46
22.05
21.37
20.31
18.69
16.30
12.88
8.29
2.58
-3.99
-10.96
-17.86
-24.40
-30.55
-36.60
-42.98
-50.14
-58.30
-67.33
-76.62
-85.07
-91.19
-93.37
-90.32
-81.47
-67.23
-48.91
-28.43
-7.78
11.39
27.96
41.27
50.99
56.94
59.13
57.83
53.71
47.82
41.39
35.56
31.16
28.48
27.32
27.22
27.53
27.72
27.44
26.52
25.00
22.93
20.33
17.14
13.22
8.50
2.97
-3.18
-9.68
-16.24
-22.60
-28.65
-34.45
-40.19
-46.22
-52.99
-60.89
-70.11
-80.32
-90.51
-99.07
-104.03
-103.59
-96.68
-83.29
-64.49
-42.14
-18.36
4.83
25.97
44.09
58.61
69.28
76.04
79.09
78.80
75.90
71.27
65.82
60.36
55.45
51.38
48.21
45.92
44.41
43.56
43.17
42.91
42.41
41.28
39.22
36.10
31.97
26.98
21.29
14.98
8.11
0.69
-7.15
-15.18
-23.06
-30.48
-37.25
-43.44
-49.38
-55.62
-62.70
-70.97
-80.21
-89.54
-97.43
-102.06
-101.76
-95.49
-83.21
-65.75
-44.70
-21.91
0.87
22.15
40.88
56.33
68.09
75.95
80.01
80.61
78.42
74.32
69.32
64.28
59.83
56.20
53.37
51.20
49.54
48.37
47.67
47.34
47.10
46.48
45.03
42.42
38.63
33.93
28.73
23.46
18.33
13.34
8.31
3.00
-2.77
-8.97
-15.44
-21.86
-27.90
-33.38
-38.33
-43.04
-48.03
-53.86
-60.98
-69.42
-78.61
-87.32
-93.82
-96.23
-93.05
-83.64
-68.42
-48.87
-27.03
-5.01
15.45
33.23
47.73
58.68
65.87
69.28
69.03
65.66
60.08
53.47
46.96
41.43
37.26
34.51
32.92
32.20
32.08
32.25
32.41
32.20
31.27
29.39
26.49
22.68
18.15
13.14
7.77
2.10
-3.85
-10.07
-16.45
-22.85
-29.12
-35.12
-40.85
-46.40
-52.01
-57.95
-64.48
-71.66
-79.14
-86.11
-91.25
-93.00
-90.00
-81.46
-67.59
-49.52
-29.07
-8.20
11.38
28.45
42.27
52.38
58.51
60.65
59.10
54.59
48.19
41.13
34.50
29.06
25.16
22.81
21.76
21.64
22.02
22.48
22.64
22.24
21.20
19.52
17.35
14.71
11.62
7.90
3.37
-2.09
-8.39
-15.26
-22.26
-28.98
-35.19
-40.89
-46.31
-51.84
-57.87
-64.72
-72.54
-81.12
-89.80
-97.34
-102.09
-102.28
-96.57
-84.53
-66.81
-45.07
-21.48
1.84
23.17
41.45
56.19
67.23
74.62
78.51
79.24
77.28
73.33
68.22
62.77
57.66
53.38
50.13
47.92
46.59
45.92
45.57
45.17
44.31
42.63
39.90
36.08
31.36
26.04
20.40
14.68
8.88
2.96
-3.22
-9.66
-16.28
-22.87
-29.18
-35.06
-40.47
-45.64
-51.01
-57.08
-64.33
-72.89
-82.39
-91.79
-99.50
-103.61
-102.48
-95.08
-81.43
-62.61
-40.46
-17.13
5.38
25.60
42.68
56.22
66.13
72.45
75.32
75.08
72.31
67.85
62.61
57.43
52.91
49.33
46.76
45.19
44.56
44.75
45.52
46.42
46.85
46.24
44.19
40.70
36.09
30.89
25.57
20.38
15.22
9.80
3.78
-2.94
-10.23
-17.65
-24.71
-31.07
-36.62
-41.57
-46.38
-51.62
-57.82
-65.27
-73.80
-82.65
-90.40
-95.25
-95.37
-89.52
-77.46
-60.03
-39.01
-16.57
5.21
24.76
41.06
53.62
62.26
66.95
67.83
65.27
59.97
52.98
45.48
38.62
33.16
29.42
27.30
26.42
26.36
26.75
27.30
27.80
28.05
27.83
27.00
25.45
23.17
20.15
16.41
11.91
6.69
0.84
-5.51
-12.15
-18.90
-25.67
-32.43
-39.27
-46.38
-53.96
-62.10
-70.59
-78.75
-85.37
-88.98
-88.16
-82.06
-70.70
-55.04
-36.68
-17.40
1.21
17.99
32.16
43.18
50.66
54.36
54.35
51.12
45.57
38.87
32.21
26.53
22.28
19.47
17.75
16.58
15.47
14.17
12.63
10.99
9.36
7.74
5.94
3.60
0.48
-3.56
-8.40
-13.73
-19.23
-24.66
-29.92
-35.10
-40.44
-46.27
-52.97
-60.84
-69.94
-79.86
-89.66
-97.79
-102.41
-101.87
-95.11
-82.09
-63.86
-42.25
-19.46
2.50
22.10
38.54
51.46
60.84
66.72
69.24
68.72
65.74
61.15
55.92
50.95
46.84
43.85
41.94
40.88
40.34
39.98
39.52
38.70
37.34
35.34
32.67
29.29
25.16
20.23
14.48
7.98
0.90
-6.44
-13.73
-20.73
-27.31
-33.56
-39.73
-46.20
-53.33
-61.45
-70.65
-80.60
-90.46
-98.81
-103.89
-104.00
-98.01
-85.77
-68.19
-46.99
-24.24
-1.89
18.51
35.97
49.86
59.95
66.24
69.02
68.86
66.52
62.86
58.66
54.53
50.89
48.00
45.94
44.72
44.22
44.23
44.41
44.42
43.91
42.61
40.39
37.24
33.31
28.77
23.80
18.55
13.08
7.38
1.44
-4.75
-11.09
-17.42
-23.57
-29.48
-35.25
-41.15
-47.53
-54.77
-63.00
-71.92
-80.68
-87.85
-91.64
-90.38
-83.04
-69.67
-51.38
-30.12
-8.11
12.71
31.02
46.10
57.74
65.92
70.71
72.28
70.95
67.29
62.12
56.40
51.01
46.62
43.54
41.73
40.90
40.65
40.56
40.30
39.59
38.25
36.18
33.38
29.89
25.75
21.04
15.79
10.12
4.15
-1.92
-7.92
-13.74
-19.39
-24.96
-30.55
-36.25
-42.15
-48.43
-55.34
-63.07
-71.49
-79.83
-86.71
-90.31
-88.97
-81.74
-68.78
-51.34
-31.37
-10.92
8.29
25.02
38.49
48.15
53.67
54.98
52.48
47.11
40.27
33.45
27.86
24.18
22.42
22.19
22.88
24.01
25.28
26.59
27.88
28.99
29.61
29.30
27.62
24.28
19.23
12.69
5.09
-3.03
-11.21
-19.17
-26.88
-34.49
-42.26
-50.42
-59.15
-68.34
-77.59
-85.99
-92.19
-94.56
-91.71
-82.84
-68.24
-49.20
-27.77
-6.11
13.97
31.32
45.39
55.99
63.10
66.65
66.78
63.93
58.97
53.08
47.49
43.05
40.09
38.40
37.40
36.51
35.33
33.75
31.85
29.75
27.41
24.65
21.22
16.88
11.58
5.43
-1.26
-8.13
-14.85
-21.21
-27.20
-32.97
-38.78
-44.96
-51.86
-59.76
-68.77
-78.60
-88.47
-97.01
-102.46
-103.05
-97.52
-85.52
-67.80
-46.02
-22.36
1.02
22.38
40.62
55.21
66.03
73.11
76.65
76.95
74.52
70.09
64.62
59.07
54.19
50.43
47.85
46.24
45.27
44.56
43.86
43.02
41.91
40.46
38.53
36.00
32.72
28.55
23.47
17.50
10.82
3.69
-3.61
-10.86
-17.96
-24.93
-31.88
-38.94
-46.28
-54.11
-62.67
-72.04
-81.98
-91.65
-99.54
-103.70
-102.29
-94.21
-79.51
-59.48
-36.27
-12.28
10.46
30.65
47.60
61.08
70.98
77.33
80.26
80.21
77.90
74.27
70.14
66.10
62.41
59.10
56.14
53.56
51.50
50.05
49.16
48.55
47.81
46.46
44.20
40.90
36.67
31.73
26.32
20.59
14.60
8.30
1.65
-5.29
-12.38
-19.36
-26.03
-32.31
-38.32
-44.37
-50.93
-58.38
-66.93
-76.33
-85.80
-93.94
-99.00
-99.20
-93.35
-81.17
-63.53
-42.24
-19.52
2.53
22.32
38.98
52.09
61.54
67.29
69.42
68.17
64.10
58.16
51.47
45.09
39.78
35.85
33.21
31.54
30.44
29.59
28.79
27.89
26.77
25.27
23.25
20.53
17.02
12.64
7.43
1.56
-4.70
-10.97
-16.91
-22.33
-27.25
-31.88
-36.55
-41.63
-47.44
-54.15
-61.70
-69.63
-77.05
-82.57
-84.63
-81.83
-73.47
-59.81
-42.09
-22.16
-2.02
16.69
32.80
45.64
54.87
60.38
62.27
60.88
56.85
51.13
44.76
38.72
33.72
30.06
27.69
26.31
25.46
24.70
23.67
22.16
20.13
17.60
14.67
11.34
7.54
3.08
-2.18
-8.28
-15.02
-21.99
-28.69
-34.71
-39.91
-44.46
-48.81
-53.51
-59.11
-65.98
-74.15
-83.08
-91.61
-98.03
-100.37
-97.04
-87.29
-71.58
-51.49
-29.24
-7.05
13.33
30.90
45.24
56.29
64.05
68.51
69.81
68.32
64.74
59.98
55.02
50.64
47.34
45.26
44.21
43.81
43.57
43.09
42.06
40.37
38.06
35.21
31.85
27.90
23.22
17.74
11.44
4.50
-2.77
-10.05
-17.07
-23.71
-29.96
-35.94
-41.85
-47.95
-54.55
-61.95
-70.25
-79.13
-87.69
-94.43
-97.51
-95.35
-87.06
-72.84
-53.97
-32.40
-10.24
10.70
29.21
44.60
56.56
65.00
69.97
71.66
70.56
67.34
62.85
57.91
53.20
49.16
45.98
43.67
42.17
41.35
41.01
40.91
40.72
40.05
38.57
36.09
32.56
28.12
22.99
17.39
11.48
5.29
-1.19
-7.87
-14.63
-21.26
-27.55
-33.38
-38.80
-44.07
-49.59
-55.84
-63.22
-71.82
-81.18
-90.16
-97.00
-99.75
-96.81
-87.52
-72.37
-52.96
-31.41
-9.76
10.42
28.16
42.97
54.58
62.73
67.33
68.47
66.68
62.83
57.94
52.97
48.58
45.11
42.59
40.93
39.99
39.60
39.58
39.68
39.58
38.96
37.54
35.21
31.96
28.00
23.56
18.82
13.86
8.61
2.93
-3.29
-9.97
-16.87
-23.67
-30.13
-36.26
-42.30
-48.71
-55.93
-64.22
-73.34
-82.51
-90.34
-95.06
-95.02
-89.19
-77.47
-60.86
-41.10
-20.23
-0.08
17.93
32.91
44.34
52.01
55.86
56.13
53.39
48.48
42.49
36.50
31.39
27.69
25.48
24.47
24.13
23.94
23.50
22.66
21.46
19.92
18.03
15.59
12.34
8.07
2.76
-3.34
-9.77
-16.06
-21.90
-27.24
-32.30
-37.47
-43.13
-49.57
-56.96
-65.21
-73.87
-82.01
-88.18
-90.64
-87.85
-79.00
-64.40
-45.42
-24.11
-2.61
17.41
34.88
49.17
59.94
66.86
69.73
68.68
64.31
57.75
50.35
43.39
37.71
33.61
30.93
29.25
28.08
27.14
26.21
25.21
24.02
22.48
20.42
17.67
14.10
9.59
4.09
-2.38
-9.67
-17.43
-25.24
-32.66
-39.45
-45.67
-51.68
-58.07
-65.40
-74.01
-83.80
-93.96
-103.08
-109.21
-110.39
-105.16
-93.11
-75.09
-52.96
-29.07
-5.64
15.71
34.02
48.84
59.98
67.32
70.84
70.76
67.66
62.49
56.43
50.60
45.78
42.32
40.07
38.61
37.45
36.26
34.94
33.59
32.35
31.23
30.02
28.35
25.81
22.12
17.21
11.28
4.67
-2.16
-8.85
-15.17
-21.10
-26.85
-32.76
-39.27
-46.77
-55.53
-65.44
-75.90
-85.75
-93.35
-96.85
-94.73
-86.22
-71.63
-52.35
-30.42
-8.06
12.90
31.25
46.35
57.94
65.94
70.40
71.52
69.76
65.91
60.94
55.85
51.41
48.04
45.78
44.46
43.88
43.86
44.26
44.86
45.33
45.25
44.20
41.99
38.67
34.46
29.57
24.13
18.12
11.51
4.39
-3.02
-10.36
-17.37
-23.98
-30.31
-36.68
-43.45
-50.95
-59.38
-68.63
-78.16
-86.91
-93.30
-95.65
-92.56
-83.44
-68.71
-49.76
-28.55
-7.08
12.96
30.48
44.84
55.78
63.17
67.05
67.61
65.34
61.04
55.78
50.61
46.36
43.44
41.72
40.75
39.96
38.90
37.38
35.40
33.09
30.48
27.45
23.75
19.13
13.50
6.98
-0.07
-7.23
-14.08
-20.41
-26.17
-31.50
-36.68
-41.99
-47.76
-54.26
-61.59
-69.51
-77.31
-83.78
-87.37
-86.56
-80.36
-68.69
-52.37
-33.03
-12.58
7.19
24.93
39.76
51.12
58.63
62.12
61.74
58.10
52.25
45.49
39.02
33.60
29.42
26.27
23.72
21.47
19.39
17.53
15.97
14.65
13.31
11.50
8.75
4.71
-0.66
-7.05
-13.86
-20.49
-26.45
-31.71
-36.58
-41.63
-47.50
-54.65
-63.21
-72.81
-82.53
-90.86
-95.96
-96.03
-89.90
-77.41
-59.58
-38.31
-15.78
6.03
25.73
42.52
55.96
65.77
71.80
74.02
72.74
68.64
62.73
56.10
49.77
44.37
40.21
37.15
34.92
33.18
31.66
30.29
29.06
27.93
26.77
25.29
23.11
19.90
15.52
10.04
3.78
-2.78
-9.19
-15.13
-20.54
-25.54
-30.48
-35.79
-41.93
-49.35
-58.31
-68.73
-79.97
-90.65
-98.80
-102.27
-99.36
-89.41
-73.06
-52.09
-28.86
-5.64
15.86
34.62
50.14
62.15
70.46
75.03
76.09
74.24
70.44
65.77
61.14
57.10
53.77
51.09
48.95
47.34
46.36
46.02
46.14
46.22
45.62
43.84
40.60
36.09
30.78
25.20
19.67
14.20
8.50
2.21
-4.88
-12.63
-20.65
-28.36
-35.36
-41.52
-47.13
-52.73
-58.98
-66.37
-74.97
-84.29
-93.20
-100.02
-102.88
-100.16
-90.99
-75.57
-55.16
-31.82
-7.88
14.66
34.40
50.61
63.09
71.86
77.06
78.89
77.77
74.37
69.54
64.19
59.06
54.59
50.99
48.28
46.38
45.16
44.41
43.82
43.00
41.56
39.25
35.98
31.83
27.03
21.79
16.33
10.75
5.13
-0.54
-6.24
-11.96
-17.67
-23.30
-28.86
-34.41
-40.13
-46.28
-53.12
-60.87
-69.46
-78.38
-86.57
-92.54
-94.57
-91.27
-82.02
-67.26
-48.40
-27.43
-6.38
13.12
29.98
43.60
53.58
59.65
61.78
60.22
55.76
49.59
43.04
37.29
33.04
30.41
29.02
28.30
27.69
26.89
25.84
24.63
23.33
21.85
19.91
17.14
13.20
8.02
1.74
-5.23
-12.40
-19.35
-25.79
-31.70
-37.26
-42.86
-48.97
-56.01
-64.20
-73.36
-82.71
-90.88
-96.10
-96.60
-91.12
-79.32
-61.95
-40.65
-17.56
5.24
26.02
43.63
57.42
67.15
72.80
74.59
72.99
68.76
62.87
56.37
50.18
44.92
40.82
37.80
35.60
33.89
32.43
31.05
29.63
28.08
26.27
24.05
21.15
17.34
12.49
6.63
-0.00
-7.03
-14.05
-20.79
-27.17
-33.28
-39.30
-45.41
-51.84
-58.86
-66.78
-75.85
-85.89
-96.06
-104.76
-109.90
-109.49
-102.24
-88.10
-68.24
-44.73
-19.95
4.00
25.58
43.88
58.43
69.06
75.75
78.69
78.36
75.52
71.11
66.15
61.47
57.59
54.65
52.53
50.99
49.80
48.83
48.04
47.36
46.61
45.46
43.62
40.84
37.09
32.50
27.24
21.40
14.99
7.91
0.20
-7.94
-16.17
-24.12
-31.58
-38.60
-45.50
-52.75
-60.87
-70.23
-80.77
-91.88
-102.18
-109.71
-112.33
-108.33
-97.02
-79.06
-56.28
-31.19
-6.26
16.58
36.23
52.21
64.46
73.00
77.90
79.36
77.85
74.22
69.48
64.65
60.44
57.16
54.76
53.03
51.83
51.13
50.96
51.28
51.78
51.99
51.30
49.26
45.70
40.80
34.96
28.66
22.21
15.76
9.17
2.24
-5.22
-13.19
-21.45
-29.61
-37.24
-44.11
-50.24
-55.96
-61.79
-68.28
-75.80
-84.31
-93.28
-101.56
-107.56
-109.54
-106.01
-96.26
-80.56
-60.19
-37.09
-13.38
9.08
28.95
45.38
57.92
66.35
70.70
71.25
68.67
63.93
58.10
52.15
46.81
42.43
39.06
36.59
34.83
33.58
32.65
31.83
30.91
29.64
27.88
25.55
22.63
19.09
14.93
10.14
4.72
-1.24
-7.57
-14.02
-20.36
-26.39
-32.05
-37.42
-42.71
-48.25
-54.40
-61.49
-69.65
-78.54
-87.25
-94.24
-97.66
-95.86
-87.92
-74.04
-55.50
-34.32
-12.65
7.72
25.63
40.46
51.87
59.66
63.69
64.01
61.08
55.76
49.26
42.78
37.23
33.12
30.50
29.10
28.51
28.34
28.23
27.90
27.16
25.89
24.02
21.48
18.19
14.00
8.80
2.62
-4.37
-11.84
-19.39
-26.70
-33.61
-40.19
-46.68
-53.42
-60.75
-68.98
-78.18
-88.07
-97.81
-105.99
-110.83
-110.57
-104.00
-90.86
-72.00
-49.18
-24.58
-0.31
21.95
41.14
56.68
68.23
75.66
79.01
78.56
74.98
69.30
62.71
56.31
50.87
46.65
43.54
41.18
39.22
37.45
35.78
34.22
32.70
31.08
29.11
26.54
23.17
18.92
13.76
7.79
1.24
-5.60
-12.40
-18.92
-25.05
-30.94
-36.91
-43.43
-50.97
-59.82
-69.94
-80.72
-90.91
-98.73
-102.20
-99.65
-90.29
-74.50
-53.76
-30.30
-6.42
15.94
35.51
51.62
64.00
72.55
77.36
78.62
76.79
72.63
67.05
60.99
55.26
50.45
46.83
44.40
42.95
42.19
41.79
41.44
40.92
40.02
38.60
36.48
33.48
29.44
24.25
17.97
10.79
3.01
-4.96
-12.81
-20.34
-27.53
-34.53
-41.54
-48.83
-56.63
-65.12
-74.27
-83.64
-92.27
-98.60
-100.84
-97.50
-87.87
-72.34
-52.38
-30.01
-7.31
14.04
32.88
48.49
60.39
68.23
71.89
71.63
68.16
62.61
56.29
50.28
45.22
41.24
38.04
35.20
32.50
29.89
27.52
25.51
23.81
22.09
19.89
16.74
12.33
6.66
0.04
-7.06
-14.14
-20.87
-27.24
-33.53
-40.23
-47.84
-56.64
-66.56
-77.05
-87.06
-95.10
-99.54
-98.97
-92.52
-80.21
-62.93
-42.28
-20.14
1.61
21.39
38.00
50.60
58.76
62.38
61.92
58.29
52.73
46.56
40.85
36.22
32.75
30.23
28.37
26.97
25.96
25.25
24.59
23.52
21.48
18.03
12.99
6.53
-0.86
-8.69
-16.49
-24.08
-31.47
-38.96
-46.98
-55.97
-66.20
-77.48
-88.95
-99.09
-105.92
-107.45
-102.31
-90.16
-71.88
-49.32
-24.84
-0.65
21.51
40.51
55.74
66.91
73.86
76.67
75.77
71.99
66.45
60.35
54.59
49.60
45.40
41.74
38.44
35.50
33.04
31.12
29.56
27.87
25.32
21.32
15.57
8.22
-0.16
-8.82
-17.08
-24.65
-31.62
-38.47
-45.89
-54.52
-64.68
-76.15
-87.99
-98.60
-105.94
-108.02
-103.38
-91.64
-73.60
-51.10
-26.47
-2.01
20.50
39.91
55.68
67.56
75.47
79.49
79.95
77.51
73.16
68.01
63.03
58.77
55.33
52.42
49.65
46.76
43.73
40.79
38.19
36.01
34.07
31.87
28.84
24.48
18.62
11.47
3.51
-4.66
-12.56
-19.98
-27.10
-34.40
-42.50
-51.95
-62.90
-74.94
-86.95
-97.17
-103.51
-104.11
-97.76
-84.42
-65.16
-41.93
-17.00
7.57
30.27
50.11
66.48
78.94
87.17
91.05
90.88
87.44
81.88
75.46
69.22
63.82
59.45
55.89
52.80
49.87
46.94
44.03
41.20
38.42
35.55
32.22
28.07
22.82
16.46
9.28
1.70
-5.80
-12.97
-19.78
-26.45
-33.31
-40.63
-48.65
-57.49
-67.18
-77.47
-87.70
-96.60
-102.47
-103.52
-98.42
-86.77
-69.30
-47.70
-24.15
-0.82
20.51
38.54
52.54
62.06
67.08
67.88
65.12
59.83
53.25
46.59
40.80
36.41
33.49
31.76
30.76
30.07
29.46
28.87
28.25
27.49
26.20
23.90
20.14
14.69
7.78
-0.04
-8.11
-15.91
-23.32
-30.59
-38.27
-46.91
-56.85
-68.00
-79.70
-90.72
-99.36
-103.80
-102.46
-94.46
-79.91
-59.91
-36.32
-11.33
12.98
34.95
53.46
67.87
77.85
83.38
84.71
82.38
77.24
70.37
62.91
55.87
49.94
45.44
42.34
40.41
39.30
38.60
37.92
36.89
35.19
32.63
29.18
24.92
20.01
14.55
8.59
2.08
-5.04
-12.78
-20.97
-29.31
-37.44
-45.03
-51.97
-58.40
-64.76
-71.67
-79.73
-89.24
-99.96
-110.88
-120.25
-125.88
-125.69
-118.28
-103.41
-82.08
-56.28
-28.37
-0.61
25.24
48.00
66.97
81.72
92.00
97.81
99.51
97.84
93.81
88.55
82.98
77.69
72.92
68.69
64.98
61.82
59.32
57.54
56.30
55.14
53.46
50.60
46.21
40.28
33.23
25.69
18.26
11.27
4.70
-1.79
-8.56
-15.84
-23.49
-31.12
-38.23
-44.51
-49.93
-54.86
-59.83
-65.44
-72.14
-80.17
-89.39
-99.18
-108.35
-115.15
-117.62
-114.05
-103.54
-86.31
-63.73
-37.90
-11.11
14.64
37.84
57.53
73.12
84.32
91.05
93.54
92.40
88.55
83.17
77.36
71.99
67.49
63.91
61.09
58.84
57.10
55.89
55.19
54.77
54.24
53.05
50.78
47.18
42.30
36.39
29.83
23.07
16.43
10.13
4.21
-1.49
-7.23
-13.26
-19.69
-26.43
-33.17
-39.61
-45.48
-50.75
-55.59
-60.39
-65.64
-71.79
-79.19
-87.85
-97.27
-106.30
-113.24
-116.14
-113.31
-103.86
-87.97
-66.91
-42.63
-17.37
6.86
28.49
46.47
60.18
69.37
74.08
74.69
71.91
66.71
60.23
53.51
47.42
42.45
38.76
36.25
34.68
33.78
33.29
32.94
32.45
31.51
29.83
27.27
23.81
19.64
15.00
10.14
5.18
0.07
-5.33
-11.23
-17.68
-24.57
-31.64
-38.64
-45.44
-52.14
-59.09
-66.71
-75.33
-84.88
-94.69
-103.44
-109.33
-110.53
-105.68
-94.33
-77.10
-55.52
-31.63
-7.52
15.11
34.99
51.32
63.59
71.55
75.22
74.96
71.47
65.73
58.83
51.86
45.66
40.78
37.39
35.35
34.29
33.75
33.31
32.62
31.41
29.46
26.56
22.70
17.98
12.75
7.36
2.07
-3.15
-8.57
-14.52
-21.17
-28.35
-35.69
-42.75
-49.29
-55.43
-61.57
-68.32
-76.20
-85.41
-95.65
-105.92
-114.64
-119.79
-119.49
-112.45
-98.44
-78.35
-54.04
-27.76
-1.72
22.34
43.25
60.37
73.36
82.13
86.78
87.69
85.46
80.91
74.96
68.47
62.15
56.50
51.79
48.06
45.27
43.29
41.87
40.76
39.64
38.20
36.22
33.52
30.08
25.95
21.22
15.94
10.09
3.64
-3.46
-11.12
-19.10
-27.05
-34.63
-41.68
-48.23
-54.64
-61.44
-69.18
-78.16
-88.16
-98.29
-106.98
-112.30
-112.37
-105.89
-92.61
-73.36
-49.85
-24.23
1.36
25.16
45.90
62.75
75.23
83.24
87.01
87.10
84.36
79.74
74.11
68.23
62.63
57.65
53.49
50.28
48.00
46.57
45.79
45.35
44.90
44.04
42.48
39.98
36.48
32.01
26.70
20.69
14.09
7.01
-0.45
-8.12
-15.83
-23.37
-30.63
-37.59
-44.42
-51.41
-58.90
-67.20
-76.36
-85.97
-95.08
-102.21
-105.58
-103.64
-95.50
-81.29
-62.20
-40.09
-17.06
5.03
24.75
41.17
53.66
61.78
65.35
64.58
60.21
53.39
45.52
37.85
31.24
26.04
22.18
19.39
17.36
15.92
15.01
14.53
14.28
13.92
13.03
11.20
8.22
4.08
-0.93
-6.42
-11.95
-17.31
-22.55
-27.97
-34.03
-41.12
-49.46
-59.02
-69.35
-79.57
-88.35
-94.02
-94.90
-89.78
-78.33
-61.30
-40.30
-17.43
5.29
26.27
44.35
58.69
68.64
73.78
74.14
70.32
63.57
55.48
47.53
40.76
35.49
31.46
28.16
25.12
22.19
19.51
17.29
15.61
14.22
12.55
9.90
5.74
-0.05
-7.14
-14.81
-22.32
-29.15
-35.27
-41.07
-47.28
-54.61
-63.58
-74.17
-85.75
-96.98
-105.99
-110.68
-109.28
-100.80
-85.44
-64.43
-39.85
-13.99
11.08
33.76
52.99
68.11
78.73
84.73
86.33
84.13
79.06
72.34
65.14
58.47
53.00
48.98
46.37
44.87
44.10
43.69
43.27
42.44
40.79
37.82
33.17
26.67
18.53
9.28
-0.39
-9.78
-18.44
-26.29
-33.57
-40.77
-48.48
-57.21
-67.22
-78.22
-89.30
-98.89
-105.03
-105.83
-100.03
-87.39
-68.77
-45.91
-20.97
3.99
27.18
47.34
63.59
75.38
82.50
85.06
83.64
79.21
72.99
66.25
59.90
54.44
49.91
46.04
42.60
39.51
36.89
34.92
33.60
32.71
31.71
29.99
27.01
22.51
16.58
9.59
2.11
-5.37
-12.50
-19.19
-25.64
-32.20
-39.30
-47.35
-56.65
-67.17
-78.46
-89.41
-98.33
-103.19
-102.18
-94.24
-79.47
-59.15
-35.39
-10.49
13.55
35.26
53.67
68.14
78.21
83.62
84.49
81.46
75.65
68.43
61.05
54.38
48.73
44.06
40.10
36.68
33.75
31.37
29.58
28.21
26.87
24.99
22.00
17.54
11.64
4.66
-2.76
-10.00
-16.66
-22.76
-28.67
-34.96
-42.19
-50.69
-60.43
-70.95
-81.31
-90.18
-95.94
-97.01
-92.22
-81.19
-64.52
-43.65
-20.55
2.67
24.15
42.41
56.45
65.68
69.97
69.65
65.52
58.76
50.69
42.53
35.25
29.35
24.93
21.86
19.89
18.75
18.25
18.10
17.93
17.20
15.32
11.86
6.71
0.15
-7.20
-14.68
-21.78
-28.40
-34.81
-41.58
-49.33
-58.47
-68.97
-80.13
-90.57
-98.41
-101.68
-98.82
-89.19
-73.24
-52.47
-28.92
-4.72
18.35
39.00
56.37
69.84
78.99
83.59
83.74
80.09
73.70
65.90
58.01
51.01
45.42
41.24
38.16
35.71
33.50
31.29
29.05
26.84
24.64
22.29
19.44
15.71
10.81
4.73
-2.27
-9.75
-17.28
-24.63
-31.75
-38.77
-45.93
-53.44
-61.51
-70.24
-79.46
-88.56
-96.30
-100.97
-100.77
-94.34
-81.30
-62.44
-39.53
-14.82
9.53
31.81
50.94
66.31
77.64
84.84
88.00
87.45
83.85
78.14
71.39
64.59
58.51
53.54
49.81
47.25
45.70
44.95
44.71
44.56
44.02
42.66
40.17
36.50
31.75
26.14
19.82
12.93
5.49
-2.44
-10.75
-19.26
-27.68
-35.70
-43.05
-49.60
-55.47
-61.03
-66.89
-73.67
-81.72
-90.83
-100.01
-107.59
-111.51
-109.85
-101.42
-86.14
-65.10
-40.24
-13.88
11.87
35.36
55.51
71.66
83.46
90.71
93.57
92.56
88.59
82.81
76.39
70.16
64.61
59.85
55.83
52.49
49.85
47.94
46.70
45.90
45.11
43.86
41.78
38.76
34.94
30.60
26.00
21.20
16.07
10.37
3.87
-3.42
-11.23
-19.15
-26.76
-33.83
-40.39
-46.73
-53.33
-60.61
-68.92
-78.32
-88.37
-98.12
-106.01
-110.20
-108.96
-101.23
-86.95
-67.25
-44.11
-19.86
3.38
24.08
41.37
54.86
64.35
69.80
71.22
68.95
63.76
56.79
49.43
42.83
37.78
34.45
32.53
31.47
30.76
30.10
29.37
28.61
27.77
26.68
25.03
22.43
18.54
13.22
6.62
-0.87
-8.68
-16.27
-23.29
-29.68
-35.69
-41.79
-48.50
-56.23
-65.10
-74.85
-84.62
-93.06
-98.44
-99.09
-93.80
-82.28
-65.27
-44.31
-21.37
1.61
23.00
41.62
56.56
67.26
73.38
74.96
72.47
66.82
59.23
51.02
43.35
37.07
32.53
29.66
28.04
27.10
26.30
25.31
23.99
22.29
20.19
17.52
14.03
9.47
3.71
-3.13
-10.73
-18.63
-26.38
-33.75
-40.67
-47.34
-54.09
-61.31
-69.33
-78.37
-88.27
-98.36
-107.38
-113.55
-114.95
-110.02
-98.07
-79.57
-56.10
-29.87
-3.29
21.57
43.28
61.02
74.48
83.62
88.58
89.68
87.42
82.60
76.21
69.29
62.79
57.28
52.95
49.60
46.87
44.39
41.90
39.32
36.68
33.97
31.07
27.67
23.42
18.03
11.42
3.81
-4.31
-12.43
-20.09
-27.12
-33.60
-39.83
-46.20
-53.10
-60.84
-69.61
-79.44
-90.00
-100.42
-109.22
-114.48
-114.28
-107.18
-92.86
-72.17
-47.09
-20.10
6.34
30.32
50.61
66.62
78.15
85.26
88.20
87.45
83.75
78.06
71.41
64.75
58.78
53.89
50.18
47.57
45.86
44.80
44.05
43.31
42.27
40.73
38.58
35.76
32.26
28.03
23.01
17.18
10.60
3.49
-3.88
-11.22
-18.43
-25.53
-32.72
-40.21
-48.22
-56.90
-66.35
-76.48
-86.81
-96.25
-103.20
-105.77
-102.37
-92.23
-75.79
-54.56
-30.71
-6.48
16.27
36.32
52.93
65.71
74.40
78.89
79.32
76.21
70.46
63.29
55.95
49.50
44.55
41.24
39.26
38.10
37.26
36.40
35.38
34.13
32.58
30.54
27.69
23.73
18.48
12.02
4.68
-3.08
-10.85
-18.35
-25.48
-32.22
-38.63
-44.77
-50.75
-56.82
-63.35
-70.65
-78.75
-87.06
-94.32
-98.73
-98.47
-92.22
-79.68
-61.63
-39.76
-16.17
7.10
28.35
46.37
60.32
69.67
74.21
74.06
69.88
62.73
54.01
45.17
37.43
31.52
27.67
25.63
24.87
24.75
24.74
24.48
23.81
22.69
21.13
19.07
16.38
12.88
8.38
2.82
-3.68
-10.87
-18.32
-25.71
-32.75
-39.43
-45.89
-52.40
-59.31
-66.96
-75.57
-85.06
-94.91
-103.94
-110.46
-112.51
-108.41
-97.31
-79.52
-56.51
-30.47
-3.84
21.35
43.62
62.07
76.18
85.62
90.37
90.69
87.33
81.47
74.45
67.46
61.30
56.27
52.30
49.25
46.96
45.43
44.65
44.50
44.69
44.73
44.08
42.26
38.99
34.32
28.54
22.16
15.69
9.46
3.53
-2.36
-8.64
-15.60
-23.29
-31.36
-39.17
-46.17
-52.10
-57.12
-61.84
-67.04
-73.41
-81.32
-90.63
-100.52
-109.62
-116.06
-117.87
-113.40
-101.84
-83.52
-59.91
-33.26
-6.03
19.68
42.34
61.07
75.44
85.33
90.81
92.25
90.36
86.10
80.62
74.93
69.74
65.37
61.80
58.95
56.71
55.07
54.05
53.58
53.42
53.06
51.91
49.44
45.38
39.86
33.40
26.71
20.42
14.84
9.87
5.05
-0.17
-6.17
-12.99
-20.32
-27.69
-34.66
-40.99
-46.72
-52.06
-57.41
-63.22
-69.92
-77.82
-86.80
-96.15
-104.41
-109.55
-109.53
-102.88
-89.24
-69.52
-45.64
-19.97
5.25
28.25
47.83
63.30
74.29
80.75
82.94
81.46
77.25
71.41
65.06
59.05
53.88
49.74
46.59
44.29
42.76
41.93
41.72
41.90
42.15
41.97
40.91
38.63
35.04
30.34
24.93
19.23
13.50
7.78
1.91
-4.36
-11.14
-18.35
-25.63
-32.59
-38.90
-44.45
-49.46
-54.31
-59.51
-65.50
-72.59
-80.64
-88.96
-96.21
-100.57
-100.20
-93.79
-81.07
-62.96
-41.33
-18.36
3.94
24.09
41.13
54.45
63.57
68.25
68.52
64.97
58.68
50.99
43.23
36.39
31.02
27.23
24.87
23.61
23.09
22.88
22.58
21.83
20.40
18.21
15.33
11.90
8.01
3.68
-1.17
-6.69
-12.92
-19.75
-26.91
-34.03
-40.80
-47.06
-52.87
-58.55
-64.59
-71.43
-79.39
-88.37
-97.71
-106.08
-111.67
-112.54
-107.18
-95.01
-76.57
-53.48
-27.95
-2.23
21.79
42.77
59.91
72.74
81.10
85.07
84.99
81.52
75.63
68.34
60.70
53.53
47.44
42.76
39.57
37.74
36.98
36.85
36.81
36.33
35.01
32.63
29.20
24.99
20.34
15.57
10.76
5.78
0.35
-5.76
-12.56
-19.86
-27.22
-34.25
-40.74
-46.76
-52.61
-58.75
-65.71
-73.85
-83.25
-93.42
-103.27
-111.08
-114.81
-112.63
-103.49
-87.53
-65.99
-41.06
-15.11
9.75
32.00
50.79
65.69
76.51
83.23
86.00
85.26
81.79
76.65
70.87
65.28
60.30
56.01
52.36
49.28
46.83
45.07
43.93
43.09
42.05
40.27
37.40
33.38
28.45
22.99
17.42
12.03
6.92
1.96
-3.14
-8.71
-14.97
-21.88
-29.11
-36.15
-42.52
-48.05
-53.00
-57.99
-63.81
-71.08
-79.85
-89.47
-98.51
-105.04
-107.03
-102.93
-92.16
-75.24
-53.69
-29.63
-5.19
17.83
38.19
55.09
68.06
76.78
81.15
81.39
78.15
72.47
65.62
58.83
53.01
48.59
45.62
43.91
43.25
43.46
44.43
45.93
47.59
48.91
49.36
48.55
46.35
42.88
38.51
33.61
28.53
23.38
18.06
12.26
5.68
-1.85
-10.15
-18.77
-27.09
-34.58
-41.10
-46.92
-52.71
-59.17
-66.92
-76.14
-86.49
-97.00
-106.17
-112.17
-113.19
-107.91
-95.95
-78.02
-55.79
-31.47
-7.27
15.01
34.11
49.23
59.96
66.06
67.61
65.09
59.46
52.02
44.25
37.42
32.33
29.21
27.78
27.49
27.76
28.15
28.45
28.58
28.48
28.04
27.06
25.26
22.38
18.28
13.00
6.78
-0.04
-7.06
-13.96
-20.63
-27.12
-33.63
-40.46
-47.92
-56.23
-65.38
-75.13
-84.79
-93.18
-98.80
-99.99
-95.48
-84.75
-68.29
-47.58
-24.64
-1.61
19.77
38.27
53.15
63.98
70.52
72.74
70.98
66.04
59.14
51.67
44.92
39.66
36.16
34.17
33.15
32.56
31.98
31.21
30.23
29.04
27.56
25.63
22.96
19.25
14.34
8.20
1.00
-6.96
-15.30
-23.65
-31.72
-39.45
-46.89
-54.34
-62.17
-70.80
-80.46
-91.00
-101.67
-111.02
-117.12
-117.93
-111.95
-98.69
-78.95
-54.61
-28.13
-1.90
22.19
42.98
59.83
72.48
80.85
85.02
85.34
82.43
77.17
70.63
63.83
57.64
52.62
48.95
46.55
45.08
44.16
43.40
42.56
41.48
40.03
38.04
35.29
31.60
26.84
21.11
14.64
7.75
0.75
-6.14
-12.84
-19.32
-25.69
-32.10
-38.89
-46.43
-55.10
-65.08
-76.07
-87.08
-96.45
-102.06
-101.94
-94.77
-80.45
-60.15
-35.98
-10.44
14.30
36.70
55.92
71.56
83.42
91.35
95.30
95.58
92.87
88.24
82.81
77.54
73.06
69.63
67.26
65.85
65.28
65.35
65.81
66.31
66.51
66.17
65.18
63.59
61.46
58.88
55.78
52.08
47.63
42.36
36.26
29.42
21.97
13.97
5.38
-4.06
-14.71
-26.96
-40.95
-56.29
-71.96
-86.27
-97.25
-102.93
-101.98
-93.99
-79.59
-60.34
-38.28
-15.50
6.19
25.51
41.67
54.22
63.10
68.37
70.40
69.70
66.99
63.00
58.42
53.78
49.40
45.47
42.08
39.28
37.10
35.47
34.25
33.10
31.51
28.86
24.54
18.23
10.14
1.14
-7.30
-13.63
-16.71
-16.43
-13.79
-10.67
-9.18
-10.98
-16.87
-26.71
-39.60
-54.21
-68.93
-82.03
-91.76
-96.67
-95.84
-89.20
-77.57
-62.43
-45.57
-28.72
-13.32
-0.50
9.02
14.84
16.98
15.94
12.58
7.96
3.00
-1.67
-5.82
-9.59
-13.16
-16.64
-19.95
-22.85
-25.19
-26.95
-28.38
-29.88
-31.87
-34.55
-37.91
-41.75
-45.81
-49.94
-54.14
-58.61
-63.69
-69.73
-77.07
-85.85
-95.84
-106.31
-116.01
-123.28
-126.42
-124.07
-115.66
-101.50
-82.78
-61.25
-38.89
-17.54
1.31
16.65
28.03
35.52
39.62
41.17
41.05
40.06
38.77
37.55
36.56
35.90
35.57
35.50
35.52
35.34
34.59
33.00
30.41
26.88
22.64
18.02
13.28
8.54
3.76
-1.16
-6.37
-11.96
-18.06
-24.76
-32.00
-39.44
-46.17
-50.86
-51.96
-48.24
-39.23
-25.42
-8.10
11.07
30.48
48.82
65.04
78.23
87.60
92.54
92.95
89.35
82.79
74.65
66.20
58.33
51.44
45.53
40.36
35.63
31.13
26.72
22.34
17.98
13.57
9.02
4.17
-1.13
-7.01
-13.54
-20.80
-28.93
-38.13
-48.50
-59.89
-71.54
-82.02
-89.40
-91.71
-87.58
-76.65
-59.76
-38.60
-15.28
8.17
30.08
49.21
64.61
75.59
81.82
83.33
80.68
74.85
67.05
58.46
50.11
42.71
36.68
32.11
28.88
26.62
24.80
22.85
20.28
16.76
12.21
6.77
0.68
-5.85
-12.68
-19.83
-27.46
-35.85
-45.30
-55.90
-67.30
-78.46
-87.65
-92.72
-91.75
-83.62
-68.48
-47.69
-23.42
1.95
26.42
48.52
67.33
82.19
92.61
98.30
99.35
96.35
90.39
82.79
74.77
67.13
60.13
53.55
47.06
40.39
33.57
26.90
20.73
15.20
10.05
4.76
-1.29
-8.49
-16.76
-25.63
-34.42
-42.55
-49.82
-56.49
-63.16
-70.56
-79.33
-89.81
-101.87
-114.74
-126.88
-136.16
-140.20
-136.95
-125.40
-105.90
-80.14
-50.64
-20.02
9.48
36.37
59.75
79.09
93.98
104.18
109.68
110.92
108.69
104.06
98.07
91.56
85.07
78.87
73.10
67.82
63.09
58.93
55.22
51.77
48.27
44.46
40.14
35.23
29.76
23.72
17.12
9.89
1.99
-6.55
-15.59
-24.86
-34.08
-43.04
-51.66
-60.05
-68.50
-77.54
-87.75
-99.52
-112.62
-125.93
-137.32
-144.11
-143.76
-134.73
-116.99
-92.02
-62.29
-30.51
0.99
30.49
56.86
79.30
97.14
109.89
117.32
119.70
117.78
112.63
105.45
97.22
88.69
80.28
72.31
65.00
58.72
53.81
50.48
48.73
48.16
48.08
47.69
46.29
43.49
39.27
33.94
27.93
21.58
15.00
8.02
0.35
-8.20
-17.61
-27.54
-37.50
-46.97
-55.62
-63.37
-70.44
-77.25
-84.37
-92.37
-101.68
-112.26
-123.39
-133.46
-140.15
-140.99
-134.03
-118.51
-95.09
-65.69
-32.94
0.49
32.41
61.19
85.77
105.41
119.58
128.01
130.90
128.94
123.29
115.35
106.42
97.43
88.83
80.71
73.01
65.77
59.24
53.80
49.74
47.08
45.40
43.98
42.00
38.80
34.13
28.16
21.41
14.42
7.64
1.24
-4.92
-11.10
-17.66
-24.80
-32.48
-40.39
-48.07
-55.12
-61.35
-66.90
-72.17
-77.61
-83.66
-90.58
-98.43
-106.96
-115.42
-122.50
-126.32
-124.87
-116.58
-100.87
-78.56
-51.62
-22.61
5.89
31.92
54.19
71.97
84.87
92.74
95.63
93.97
88.65
80.88
71.98
63.09
54.92
47.79
41.65
36.39
31.91
28.16
25.17
22.84
21.00
19.39
17.70
15.69
13.14
9.88
5.74
0.64
-5.36
-12.07
-19.12
-26.12
-32.80
-39.04
-44.94
-50.75
-56.82
-63.53
-71.20
-79.93
-89.37
-98.57
-105.91
-109.41
-107.18
-98.02
-81.90
-59.94
-34.17
-7.01
19.27
42.87
62.61
77.75
87.99
93.30
93.93
90.51
83.97
75.45
66.14
57.09
49.04
42.37
37.17
33.34
30.69
28.98
27.98
27.34
26.63
25.39
23.25
20.01
15.75
10.71
5.16
-0.68
-6.83
-13.39
-20.50
-28.13
-36.07
-43.90
-51.14
-57.46
-62.77
-67.38
-71.91
-77.13
-83.71
-91.97
-101.55
-111.21
-119.02
-122.71
-120.27
-110.53
-93.58
-70.69
-43.94
-15.74
11.69
36.59
57.70
74.28
85.96
92.76
95.01
93.37
88.67
81.81
73.68
65.07
56.65
48.93
42.27
36.82
32.64
29.61
27.50
26.00
24.69
23.18
21.15
18.51
15.33
11.81
8.05
4.02
-0.49
-5.69
-11.76
-18.62
-26.01
-33.57
-40.94
-47.90
-54.44
-60.74
-67.20
-74.34
-82.55
-91.80
-101.31
-109.47
-114.13
-113.17
-105.11
-89.72
-68.01
-42.04
-14.27
12.97
37.84
59.12
76.09
88.31
95.67
98.33
96.87
92.20
85.45
77.76
70.00
62.71
56.14
50.34
45.37
41.25
38.11
35.88
34.39
33.24
31.95
30.08
27.40
23.91
19.71
14.96
9.73
3.95
-2.41
-9.33
-16.59
-23.88
-30.89
-37.44
-43.62
-49.69
-56.09
-63.29
-71.62
-81.14
-91.36
-101.09
-108.57
-111.74
-108.87
-99.15
-82.88
-61.53
-37.15
-11.88
12.40
34.25
52.49
66.15
74.50
77.24
74.76
68.16
59.00
48.94
39.30
30.80
23.62
17.59
12.47
8.18
4.77
2.37
0.96
0.30
-0.07
-0.79
-2.40
-5.22
-9.27
-14.22
-19.60
-24.94
-29.96
-34.67
-39.35
-44.46
-50.56
-58.09
-67.20
-77.49
-87.86
-96.52
-101.31
-100.29
-92.31
-77.37
-56.72
-32.42
-6.79
18.02
40.34
58.97
73.04
82.00
85.65
84.31
78.88
70.67
61.21
51.84
43.47
36.48
30.83
26.20
22.28
18.86
15.93
13.55
11.75
10.33
8.87
6.78
3.53
-1.17
-7.21
-14.11
-21.24
-28.09
-34.43
-40.39
-46.35
-52.78
-60.11
-68.62
-78.33
-88.83
-99.11
-107.59
-112.25
-111.13
-102.80
-86.90
-64.30
-36.91
-7.26
22.10
48.92
71.62
89.26
101.42
108.15
109.76
106.93
100.55
91.82
82.05
72.55
64.34
58.05
53.74
51.13
49.69
48.94
48.58
48.47
48.57
48.75
48.75
48.22
46.82
44.38
40.91
36.61
31.84
26.92
22.08
17.33
12.52
7.31
1.36
-5.51
-13.29
-21.75
-30.44
-38.92
-46.83
-53.98
-60.46
-66.55
-72.76
-79.66
-87.80
-97.36
-107.88
-118.12
-126.02
-129.23
-125.64
-114.10
-94.71
-68.96
-39.18
-8.11
21.78
48.45
70.51
87.10
97.81
102.72
102.31
97.52
89.58
79.86
69.74
60.36
52.51
46.49
42.19
39.20
36.99
35.12
33.35
31.64
29.99
28.37
26.55
24.11
20.64
15.87
9.82
2.83
-4.47
-11.44
-17.63
-22.95
-27.71
-32.52
-38.08
-45.00
-53.61
-63.77
-74.79
-85.28
-93.30
-96.69
-93.66
-83.31
-65.98
-43.22
-17.39
9.00
33.70
55.04
71.88
83.55
89.74
90.64
86.96
79.89
70.92
61.51
52.82
45.48
39.63
35.06
31.45
28.54
26.25
24.56
23.36
22.35
20.94
18.44
14.32
8.42
1.08
-7.00
-15.01
-22.37
-28.94
-34.95
-40.98
-47.64
-55.42
-64.48
-74.41
-84.22
-92.33
-96.81
-95.86
-88.38
-74.30
-54.70
-31.45
-6.75
17.32
39.09
57.36
71.24
80.14
83.79
82.38
76.68
67.96
57.86
47.93
39.37
32.77
28.11
24.98
22.81
21.14
19.66
18.28
16.90
15.36
13.34
10.39
6.13
0.38
-6.70
-14.62
-22.75
-30.57
-37.84
-44.66
-51.38
-58.49
-66.45
-75.55
-85.77
-96.52
-106.56
-114.05
-116.82
-113.03
-101.64
-82.81
-57.71
-28.31
3.03
33.87
61.83
84.82
101.29
110.56
112.94
109.68
102.60
93.51
83.93
74.86
66.82
60.03
54.47
49.95
46.23
43.00
40.07
37.37
34.93
32.68
30.32
27.39
23.36
17.87
10.87
2.74
-5.91
-14.44
-22.45
-29.85
-36.84
-43.86
-51.41
-59.98
-69.94
-81.26
-93.29
-104.59
-113.00
-116.09
-111.87
-99.45
-79.40
-53.59
-24.69
4.53
31.80
55.50
74.62
88.56
97.07
100.25
98.64
93.21
85.26
76.14
66.94
58.45
51.10
45.13
40.63
37.56
35.80
35.02
34.72
34.35
33.43
31.67
28.99
25.52
21.43
16.80
11.61
5.75
-0.86
-8.12
-15.78
-23.42
-30.65
-37.27
-43.26
-48.86
-54.49
-60.69
-68.01
-76.87
-87.26
-98.38
-108.65
-115.73
-117.18
-111.15
-97.02
-75.69
-49.29
-20.64
7.52
33.00
54.39
70.95
82.44
88.85
90.45
87.77
81.68
73.37
64.14
55.24
47.62
41.77
37.74
35.25
33.90
33.29
33.14
33.23
33.38
33.31
32.71
31.21
28.47
24.31
18.73
12.03
4.67
-2.86
-10.23
-17.34
-24.27
-31.16
-38.10
-45.07
-52.13
-59.47
-67.45
-76.31
-85.75
-94.63
-101.01
-102.60
-97.54
-85.13
-66.08
-42.36
-16.56
8.78
31.70
50.92
65.75
75.88
81.23
81.94
78.47
71.65
62.67
52.86
43.52
35.61
29.69
25.81
23.66
22.74
22.50
22.46
22.27
21.69
20.58
18.86
16.43
13.22
9.20
4.32
-1.37
-7.77
-14.71
-21.98
-29.34
-36.60
-43.65
-50.53
-57.41
-64.63
-72.63
-81.72
-91.89
-102.49
-112.13
-118.75
-120.09
-114.36
-100.78
-79.97
-53.79
-24.87
4.12
30.98
54.24
73.11
87.21
96.37
100.57
100.08
95.60
88.32
79.63
70.94
63.29
57.18
52.68
49.57
47.60
46.63
46.58
47.27
48.27
48.90
48.33
45.98
41.63
35.60
28.64
21.55
14.95
8.98
3.28
-2.78
-9.77
-17.86
-26.74
-35.65
-43.78
-50.59
-56.00
-60.53
-65.01
-70.43
-77.53
-86.53
-96.90
-107.30
-115.66
-119.62
-117.08
-106.80
-88.92
-64.87
-37.04
-8.21
19.14
43.23
62.98
77.93
87.98
93.29
94.23
91.49
86.12
79.33
72.35
66.08
60.98
57.08
54.17
52.03
50.58
49.86
49.94
50.66
51.56
51.92
50.97
48.18
43.47
37.28
30.37
23.51
17.22
11.56
6.17
0.54
-5.70
-12.65
-20.07
-27.49
-34.47
-40.68
-46.11
-51.02
-55.87
-61.31
-67.92
-76.07
-85.69
-95.98
-105.44
-111.95
-113.35
-107.96
-95.20
-75.80
-51.66
-25.33
0.65
24.22
44.07
59.53
70.37
76.56
78.25
75.86
70.10
62.09
53.20
44.80
37.97
33.28
30.74
29.88
30.02
30.47
30.76
30.56
29.75
28.25
26.00
22.94
18.99
14.18
8.58
2.30
-4.48
-11.55
-18.72
-25.76
-32.52
-38.94
-45.11
-51.29
-57.75
-64.83
-72.77
-81.61
-90.92
-99.70
-106.30
-108.73
-105.17
-94.59
-77.23
-54.58
-29.00
-3.11
20.92
41.58
58.08
70.12
77.63
80.75
79.81
75.53
68.97
61.35
53.86
47.33
42.11
38.21
35.37
33.36
31.98
31.04
30.30
29.34
27.70
24.97
20.96
15.78
9.76
3.36
-3.06
-9.30
-15.38
-21.47
-27.73
-34.22
-40.86
-47.40
-53.58
-59.26
-64.56
-69.91
-75.97
-83.36
-92.33
-102.40
-112.26
-119.81
-122.72
-118.96
-107.53
-88.77
-64.29
-36.53
-8.11
18.69
42.31
61.84
76.82
87.08
92.64
93.78
91.16
85.79
78.94
71.82
65.32
59.93
55.71
52.50
50.09
48.32
47.05
46.09
45.13
43.78
41.66
38.49
34.24
29.02
23.12
16.80
10.22
3.42
-3.74
-11.36
-19.48
-27.86
-36.03
-43.46
-49.84
-55.31
-60.51
-66.40
-73.84
-83.15
-93.79
-104.23
-112.25
-115.46
-111.94
-100.82
-82.52
-58.67
-31.68
-4.09
21.88
44.69
63.42
77.63
87.11
91.84
92.03
88.26
81.56
73.33
65.01
57.82
52.49
49.20
47.71
47.60
48.48
50.03
51.93
53.72
54.77
54.45
52.28
48.22
42.64
36.12
29.28
22.42
15.53
8.36
0.60
-7.83
-16.71
-25.57
-33.88
-41.26
-47.65
-53.45
-59.32
-66.07
-74.30
-84.14
-94.99
-105.47
-113.60
-117.21
-114.51
-104.56
-87.61
-65.01
-38.88
-11.65
14.47
37.74
56.90
71.22
80.30
84.16
83.23
78.44
71.08
62.61
54.36
47.26
41.71
37.67
34.77
32.61
30.85
29.38
28.16
27.18
26.40
25.57
24.24
21.94
18.28
13.08
6.52
-0.93
-8.60
-15.91
-22.45
-28.14
-33.16
-37.93
-43.03
-49.00
-56.36
-65.29
-75.55
-86.23
-95.75
-102.04
-103.06
-97.29
-84.33
-64.98
-41.15
-15.36
9.91
32.66
51.55
65.91
75.53
80.46
81.01
77.77
71.62
63.73
55.37
47.73
41.67
37.60
35.44
34.71
34.77
34.93
34.68
33.69
31.85
29.16
25.72
21.57
16.71
11.06
4.54
-2.85
-10.99
-19.61
-28.30
-36.66
-44.36
-51.23
-57.36
-63.12
-69.07
-75.97
-84.39
-94.47
-105.52
-115.90
-123.27
-125.10
-119.46
-105.67
-84.48
-57.91
-28.66
0.64
27.90
51.86
71.81
87.42
98.42
104.55
105.74
102.26
94.95
85.14
74.37
64.08
55.27
48.41
43.44
40.00
37.62
35.86
34.38
32.90
31.20
29.08
26.37
23.00
18.99
14.40
9.27
3.54
-2.83
-9.85
-17.33
-24.91
-32.22
-39.00
-45.34
-51.63
-58.46
-66.44
-75.87
-86.59
-97.82
-108.11
-115.51
-117.93
-113.65
-101.80
-82.75
-58.06
-30.05
-1.32
25.86
49.78
69.37
84.09
93.79
98.66
99.22
96.30
90.98
84.37
77.46
70.98
65.43
61.07
58.05
56.41
55.99
56.42
57.10
57.39
56.73
54.78
51.48
47.02
41.68
35.74
29.46
22.97
16.32
9.49
2.46
-4.79
-12.17
-19.56
-26.81
-33.93
-41.13
-48.79
-57.38
-67.34
-78.81
-91.52
-104.51
-116.16
-124.29
-126.64
-121.44
-108.06
-87.30
-61.28
-32.88
-5.05
19.90
40.53
56.25
66.99
72.89
74.17
71.24
64.79
55.94
46.09
36.68
28.83
23.11
19.50
17.54
16.66
16.41
16.58
17.12
18.00
18.98
19.61
19.29
17.55
14.24
9.53
3.91
-2.12
-8.20
-14.25
-20.37
-26.77
-33.66
-41.20
-49.53
-58.78
-68.90
-79.44
-89.35
-96.95
-100.27
-97.59
-87.97
-71.68
-50.18
-25.69
-0.67
22.74
43.02
59.27
71.04
78.11
80.44
78.26
72.19
63.35
53.29
43.63
35.68
30.10
26.80
25.18
24.46
24.00
23.48
22.74
21.68
20.11
17.78
14.48
10.08
4.59
-1.93
-9.38
-17.54
-26.10
-34.59
-42.55
-49.68
-55.94
-61.70
-67.57
-74.23
-82.24
-91.77
-102.35
-112.73
-121.00
-124.84
-122.19
-111.79
-93.69
-69.23
-40.73
-10.90
17.70
43.14
64.20
80.30
91.35
97.59
99.49
97.72
93.13
86.68
79.40
72.26
65.98
60.92
57.07
54.08
51.47
48.83
45.96
42.89
39.77
36.74
33.71
30.45
26.60
21.89
16.24
9.84
3.03
-3.81
-10.43
-16.78
-23.05
-29.51
-36.47
-44.15
-52.74
-62.30
-72.72
-83.65
-94.23
-103.06
-108.33
-108.18
-101.25
-87.19
-66.83
-42.01
-15.10
11.58
36.16
57.35
74.38
86.82
94.52
97.62
96.65
92.49
86.24
79.07
71.95
65.57
60.28
56.19
53.16
50.97
49.25
47.63
45.68
43.06
39.56
35.03
29.55
23.25
16.37
9.12
1.66
-5.92
-13.60
-21.31
-28.97
-36.38
-43.39
-49.93
-56.17
-62.48
-69.43
-77.52
-86.93
-97.23
-107.22
-114.94
-118.12
-114.76
-103.78
-85.43
-61.29
-33.81
-5.63
21.00
44.55
64.13
79.22
89.41
94.41
94.26
89.52
81.41
71.58
61.72
53.09
46.27
41.22
37.49
34.64
32.37
30.64
29.39
28.47
27.51
25.97
23.35
19.25
13.56
6.48
-1.52
-9.82
-17.78
-24.95
-31.19
-36.70
-41.90
-47.25
-53.14
-59.86
-67.55
-76.16
-85.29
-93.93
-100.48
-102.92
-99.38
-88.84
-71.48
-48.68
-22.65
4.20
29.70
52.11
70.17
82.99
90.10
91.53
87.97
80.62
71.07
60.90
51.39
43.33
37.03
32.50
29.54
27.94
27.45
27.83
28.72
29.71
30.34
30.21
29.04
26.65
22.90
17.64
10.68
1.96
-8.31
-19.52
-30.65
-40.67
-48.83
-55.08
-60.07
-65.06
-71.40
-80.00
-90.79
-102.50
-112.84
-119.02
-118.55
-109.96
-93.30
-70.06
-42.73
-14.02
13.67
38.69
60.02
77.04
89.34
96.65
99.04
97.05
91.72
84.43
76.49
68.87
62.07
56.20
51.19
47.09
44.13
42.57
42.52
43.70
45.33
46.39
45.85
43.10
38.16
31.67
24.58
17.75
11.67
6.33
1.34
-3.73
-9.22
-15.13
-21.30
-27.52
-33.67
-39.84
-46.28
-53.42
-61.74
-71.64
-83.23
-95.91
-108.26
-118.09
-122.85
-120.39
-109.61
-90.87
-65.87
-37.15
-7.47
20.83
46.08
67.28
83.83
95.45
102.07
103.82
101.26
95.28
87.12
78.14
69.55
62.18
56.41
52.18
49.24
47.30
46.15
45.62
45.44
45.14
44.11
41.79
37.82
32.27
25.55
18.26
10.96
3.99
-2.59
-8.91
-15.19
-21.58
-28.11
-34.61
-40.85
-46.57
-51.69
-56.38
-61.14
-66.66
-73.67
-82.57
-93.28
-104.89
-115.74
-123.59
-126.12
-121.53
-109.05
-89.25
-63.89
-35.51
-6.75
20.11
43.45
62.31
76.22
85.01
88.77
87.98
83.52
76.65
68.82
61.35
55.13
50.51
47.38
45.35
44.00
43.00
42.13
41.22
40.07
38.50
36.27
33.26
29.41
24.77
19.44
13.54
7.12
0.23
-7.06
-14.63
-22.25
-29.67
-36.66
-43.15
-49.24
-55.25
-61.62
-68.79
-77.05
-86.18
-95.47
-103.49
-108.48
-108.58
-102.47
-89.77
-71.16
-48.24
-23.17
1.86
24.91
44.48
59.45
69.11
73.21
72.06
66.64
58.47
49.32
40.82
34.04
29.38
26.62
25.26
24.79
24.87
25.33
25.93
26.32
25.96
24.36
21.25
16.72
11.26
5.41
-0.43
-6.18
-12.06
-18.41
-25.39
-32.87
-40.46
-47.63
-53.96
-59.33
-64.00
-68.53
-73.68
-80.15
-88.32
-97.99
-108.16
-117.02
-122.27
-121.62
-113.42
-97.25
-74.09
-46.13
-16.23
12.81
38.76
60.19
76.51
87.59
93.67
95.16
92.76
87.43
80.32
72.62
65.31
58.98
53.84
49.84
46.87
44.83
43.67
43.29
43.36
43.37
42.64
40.53
36.62
30.83
23.40
14.80
5.58
-3.84
-13.18
-22.38
-31.52
-40.63
-49.68
-58.48
-66.82
-74.51
-81.60
-88.36
-95.31
-103.10
-112.26
-123.00
-134.90
-146.77
-156.71
-162.41
-161.67
-153.14
-136.61
-113.15
-84.74
-53.64
-21.94
8.83
37.59
63.62
86.27
104.93
119.21
128.96
134.48
136.44
135.76
133.39
130.06
126.23
122.06
117.54
112.73
107.76
102.91
98.36
94.03
89.56
84.41
78.12
70.51
61.81
52.52
43.15
34.04
25.13
16.22
7.06
-2.38
-11.83
-20.87
-29.11
-36.44
-43.11
-49.62
-56.59
-64.47
-73.39
-82.98
-92.31
-99.99
-104.34
-103.74
-97.01
-83.84
-64.90
-41.85
-16.95
7.48
29.46
47.62
61.17
69.74
73.32
72.19
67.01
58.89
49.30
39.87
32.01
26.56
23.69
22.90
23.34
24.12
24.59
24.45
23.65
22.23
20.17
17.30
13.42
8.41
2.34
-4.56
-11.89
-19.30
-26.48
-33.23
-39.46
-45.21
-50.73
-56.44
-62.85
-70.41
-79.16
-88.45
-96.89
-102.51
-103.25
-97.54
-84.84
-65.81
-42.16
-16.25
9.50
33.02
52.84
68.13
78.51
83.98
84.76
81.36
74.62
65.62
55.66
46.03
37.82
31.69
27.84
25.97
25.49
25.66
25.81
25.44
24.31
22.37
19.69
16.36
12.40
7.74
2.27
-4.03
-11.07
-18.53
-26.02
-33.18
-39.82
-46.03
-52.12
-58.54
-65.79
-74.17
-83.71
-93.98
-103.93
-111.92
-115.97
-114.17
-105.30
-89.20
-66.97
-40.66
-12.79
14.25
38.52
58.78
74.34
84.96
90.70
91.89
89.19
83.52
76.06
68.00
60.39
53.98
49.10
45.75
43.68
42.58
42.08
41.83
41.46
40.59
38.90
36.22
32.53
28.01
22.91
17.43
11.70
5.72
-0.58
-7.23
-14.18
-21.25
-28.17
-34.72
-40.79
-46.48
-52.11
-58.12
-64.95
-72.87
-81.77
-90.93
-98.98
-104.09
-104.25
-97.90
-84.43
-64.49
-39.88
-13.09
13.32
37.29
57.51
73.35
84.64
91.45
93.99
92.67
88.23
81.66
74.11
66.65
60.05
54.70
50.65
47.78
45.92
44.95
44.67
44.77
44.81
44.24
42.56
39.53
35.22
30.02
24.47
19.04
13.94
9.07
4.09
-1.38
-7.57
-14.40
-21.48
-28.32
-34.46
-39.73
-44.33
-48.80
-53.78
-59.92
-67.56
-76.45
-85.67
-93.52
-97.77
-96.09
-86.73
-69.12
-44.18
-14.20
17.78
48.69
76.15
98.62
115.40
126.24
131.21
130.68
125.55
117.30
107.80
98.85
91.59
86.23
82.07
78.07
73.33
67.47
60.68
53.45
46.23
39.25
32.39
25.40
17.97
9.89
1.14
-8.16
-17.79
-27.46
-36.91
-46.00
-54.69
-63.06
-71.32
-79.77
-88.72
-98.45
-108.97
-119.72
-129.48
-136.37
-138.35
-133.80
-122.10
-103.93
-81.03
-55.70
-30.17
-6.20
15.03
32.75
46.31
55.14
58.98
58.04
53.22
45.98
37.98
30.69
25.07
21.46
19.62
18.85
18.27
16.97
14.35
10.22
4.94
-0.77
-6.16
-10.76
-14.63
-18.27
-22.31
-27.10
-32.57
-38.26
-43.64
-48.37
-52.49
-56.37
-60.57
-65.56
-71.74
-79.21
-87.70
-96.42
-103.94
-108.37
-107.71
-100.45
-86.11
-65.47
-40.41
-13.46
12.84
36.38
55.75
70.24
79.74
84.66
85.69
83.72
79.70
74.50
68.86
63.42
58.65
54.88
52.22
50.58
49.69
49.19
48.73
48.05
46.97
45.32
42.90
39.43
34.62
28.31
20.53
11.61
2.04
-7.61
-16.96
-25.80
-34.21
-42.46
-50.95
-60.15
-70.48
-82.09
-94.61
-106.93
-117.19
-123.15
-122.80
-114.99
-99.86
-78.79
-53.97
-27.76
-2.26
21.03
41.06
57.13
68.73
75.53
77.54
75.19
69.45
61.67
53.42
46.10
40.70
37.57
36.42
36.51
36.97
37.14
36.69
35.58
33.87
31.48
28.19
23.65
17.65
10.24
1.82
-7.03
-15.75
-23.93
-31.49
-38.60
-45.60
-52.91
-60.95
-70.01
-80.06
-90.51
-100.04
-106.80
-108.75
-104.29
-92.73
-74.60
-51.50
-25.66
0.55
25.03
46.13
62.70
74.04
79.84
80.31
76.08
68.25
58.21
47.38
37.06
28.15
21.14
16.02
12.42
9.75
7.44
5.04
2.33
-0.82
-4.43
-8.50
-12.99
-17.74
-22.55
-27.19
-31.56
-35.78
-40.29
-45.74
-52.82
-61.94
-72.88
-84.59
-95.13
-101.99
-102.77
-95.86
-80.95
-59.25
-33.11
-5.33
21.52
45.57
65.69
81.32
92.17
98.13
99.30
96.20
89.85
81.66
73.14
65.56
59.67
55.65
53.17
51.67
50.58
49.45
48.05
46.24
43.93
40.97
37.14
32.19
25.96
18.52
10.16
1.36
-7.39
-15.75
-23.64
-31.21
-38.79
-46.75
-55.53
-65.48
-76.66
-88.65
-100.24
-109.49
-114.12
-112.08
-102.14
-84.28
-59.69
-30.47
0.77
31.33
58.71
80.98
96.93
106.24
109.40
107.50
101.88
93.85
84.53
74.87
65.63
57.45
50.76
45.76
42.39
40.40
39.41
38.95
38.50
37.57
35.85
33.14
29.48
24.99
19.77
13.83
7.07
-0.57
-9.01
-17.97
-26.97
-35.51
-43.23
-50.02
-56.03
-61.64
-67.32
-73.64
-81.04
-89.71
-99.24
-108.48
-115.51
-117.98
-113.73
-101.52
-81.46
-55.09
-24.95
6.00
35.06
60.21
80.22
94.54
103.17
106.53
105.31
100.50
93.22
84.63
75.81
67.61
60.63
55.19
51.39
49.19
48.37
48.59
49.37
50.08
50.09
48.81
45.96
41.51
35.75
29.14
22.10
14.94
7.68
0.18
-7.77
-16.28
-25.21
-34.18
-42.70
-50.34
-56.97
-62.80
-68.42
-74.54
-81.77
-90.23
-99.32
-107.62
-113.07
-113.49
-107.12
-93.28
-72.63
-47.06
-19.19
8.29
33.15
53.91
69.80
80.53
86.11
86.81
83.15
76.03
66.66
56.45
46.73
38.52
32.34
28.20
25.72
24.42
23.82
23.63
23.66
23.74
23.60
22.83
21.04
17.91
13.38
7.66
1.18
-5.56
-12.13
-18.25
-23.90
-29.23
-34.52
-40.12
-46.38
-53.52
-61.49
-69.87
-77.68
-83.45
-85.44
-82.10
-72.55
-56.90
-36.37
-12.97
10.97
33.29
52.28
66.77
76.05
79.83
78.20
71.81
61.85
49.96
37.90
27.17
18.64
12.46
8.27
5.49
3.61
2.36
1.72
1.67
1.99
2.24
1.74
-0.15
-3.80
-9.15
-15.69
-22.66
-29.29
-35.12
-40.13
-44.74
-49.68
-55.73
-63.43
-72.77
-82.98
-92.51
-99.28
-101.12
-96.36
-84.36
-65.77
-42.31
-16.36
9.60
33.49
53.75
69.42
79.94
85.14
85.17
80.62
72.51
62.21
51.23
40.97
32.44
26.10
21.83
19.13
17.35
16.00
14.83
13.84
13.07
12.47
11.68
10.18
7.41
3.09
-2.67
-9.39
-16.40
-23.14
-29.27
-34.82
-40.11
-45.61
-51.89
-59.37
-68.18
-77.88
-87.32
-94.69
-97.87
-94.95
-84.93
-67.99
-45.57
-19.92
6.47
31.41
53.24
70.83
83.42
90.50
91.99
88.31
80.50
70.10
58.81
48.12
38.99
31.82
26.51
22.72
20.08
18.30
17.17
16.57
16.32
16.13
15.59
14.22
11.66
7.70
2.47
-3.65
-10.09
-16.30
-21.92
-26.88
-31.51
-36.36
-42.18
-49.49
-58.42
-68.36
-77.88
-84.97
-87.46
-83.63
-72.77
-55.41
-33.21
-8.46
16.42
39.39
58.95
74.15
84.45
89.60
89.67
85.14
76.97
66.52
55.38
44.99
36.36
29.94
25.62
22.95
21.38
20.51
20.08
20.02
20.19
20.30
19.87
18.28
15.12
10.26
4.04
-2.89
-9.81
-16.14
-21.72
-26.70
-31.50
-36.59
-42.43
-49.32
-57.36
-66.34
-75.49
-83.48
-88.50
-88.65
-82.51
-69.66
-50.88
-28.01
-3.44
20.47
41.80
59.18
71.81
79.22
81.31
78.39
71.27
61.26
49.93
38.81
29.05
21.29
15.66
11.96
9.94
9.31
9.75
10.81
11.87
12.18
11.12
8.30
3.78
-2.06
-8.62
-15.29
-21.65
-27.49
-32.85
-37.99
-43.32
-49.28
-56.13
-63.76
-71.44
-77.82
-81.11
-79.58
-72.09
-58.48
-39.76
-17.82
5.00
26.44
44.67
58.43
66.98
70.10
68.05
61.59
52.00
40.88
29.83
20.12
12.45
6.97
3.41
1.37
0.51
0.54
1.14
1.91
2.28
1.74
-0.09
-3.25
-7.51
-12.45
-17.65
-22.86
-28.04
-33.36
-39.14
-45.77
-53.58
-62.68
-72.64
-82.35
-90.02
-93.50
-90.87
-81.08
-64.34
-42.11
-16.73
9.19
33.27
53.74
69.39
79.61
84.23
83.54
78.34
69.87
59.70
49.38
40.18
32.81
27.45
23.84
21.56
20.20
19.47
19.12
18.89
18.41
17.26
15.03
11.48
6.61
0.66
-5.89
-12.53
-18.85
-24.69
-30.19
-35.83
-42.25
-50.03
-59.37
-69.84
-80.21
-88.51
-92.52
-90.29
-80.77
-64.21
-42.10
-16.77
9.17
33.47
54.48
71.20
83.05
89.76
91.37
88.27
81.33
71.87
61.40
51.36
42.81
36.30
31.86
29.20
27.84
27.33
27.29
27.40
27.38
26.93
25.70
23.33
19.54
14.24
7.61
0.04
-7.88
-15.55
-22.58
-28.82
-34.47
-39.95
-45.83
-52.59
-60.51
-69.46
-78.77
-87.20
-93.01
-94.33
-89.55
-77.91
-59.77
-36.66
-10.90
14.96
38.73
58.89
74.57
85.37
91.13
91.91
88.10
80.57
70.71
60.19
50.61
43.09
38.05
35.22
33.93
33.39
33.00
32.43
31.59
30.47
28.99
26.91
23.90
19.68
14.17
7.58
0.41
-6.78
-13.52
-19.62
-25.19
-30.59
-36.23
-42.52
-49.65
-57.67
-66.28
-74.78
-81.99
-86.33
-86.18
-80.24
-68.06
-50.19
-28.14
-4.06
19.76
41.28
58.91
71.61
78.86
80.58
77.24
69.79
59.63
48.40
37.67
28.65
21.97
17.65
15.24
14.13
13.76
13.73
13.83
13.87
13.53
12.38
9.98
6.12
0.91
-5.17
-11.51
-17.63
-23.38
-29.00
-34.90
-41.55
-49.17
-57.65
-66.50
-74.79
-81.20
-84.18
-82.29
-74.60
-61.04
-42.57
-20.91
1.79
23.44
42.30
57.04
66.72
70.85
69.43
63.14
53.31
41.73
30.26
20.37
12.81
7.67
4.50
2.68
1.72
1.33
1.30
1.39
1.14
0.04
-2.39
-6.35
-11.62
-17.70
-23.99
-29.99
-35.54
-40.79
-46.11
-51.96
-58.75
-66.71
-75.68
-84.91
-92.91
-97.67
-97.07
-89.51
-74.62
-53.40
-28.06
-1.41
23.91
45.89
63.39
75.90
83.34
85.80
83.61
77.44
68.40
57.99
47.80
39.13
32.71
28.61
26.36
25.28
24.75
24.41
24.12
23.86
23.47
22.61
20.80
17.56
12.66
6.24
-1.22
-8.99
-16.41
-23.05
-28.94
-34.42
-40.09
-46.55
-54.29
-63.45
-73.68
-84.04
-92.99
-98.58
-98.87
-92.49
-79.06
-59.44
-35.51
-9.74
15.48
38.23
57.26
71.88
81.78
86.90
87.40
83.76
76.86
67.94
58.43
49.69
42.69
37.93
35.34
34.51
34.78
35.54
36.23
36.44
35.91
34.48
32.08
28.71
24.36
19.09
12.96
6.14
-1.09
-8.37
-15.30
-21.63
-27.30
-32.51
-37.67
-43.21
-49.54
-56.90
-65.35
-74.55
-83.72
-91.53
-96.20
-95.87
-89.12
-75.50
-55.78
-31.78
-5.94
19.32
42.08
61.04
75.51
85.18
90.02
90.23
86.35
79.35
70.51
61.24
52.84
46.19
41.70
39.27
38.49
38.74
39.40
39.92
39.87
38.97
37.09
34.26
30.54
26.04
20.83
14.94
8.44
1.45
-5.80
-13.01
-19.93
-26.44
-32.48
-38.18
-43.68
-49.23
-55.15
-61.80
-69.36
-77.57
-85.46
-91.38
-93.34
-89.63
-79.39
-62.96
-41.81
-18.10
5.86
28.01
46.80
61.16
70.44
74.37
73.15
67.45
58.53
47.98
37.47
28.42
21.66
17.39
15.24
14.58
14.78
15.38
16.13
16.80
17.11
16.61
14.88
11.62
6.80
0.76
-5.93
-12.65
-18.92
-24.54
-29.61
-34.53
-39.84
-46.05
-53.46
-61.89
-70.52
-77.88
-82.07
-81.30
-74.41
-61.27
-42.92
-21.27
1.42
23.00
41.85
56.81
67.17
72.51
72.76
68.29
60.09
49.62
38.66
28.80
21.14
16.15
13.59
12.87
13.21
13.91
14.50
14.67
14.25
13.14
11.16
8.10
3.81
-1.81
-8.64
-16.34
-24.37
-32.17
-39.32
-45.66
-51.37
-56.97
-63.12
-70.39
-78.95
-88.22
-96.80
-102.65
-103.49
-97.58
-84.23
-64.17
-39.33
-12.37
14.06
37.80
57.45
72.30
82.12
86.94
87.04
83.01
75.81
66.72
57.15
48.43
41.43
36.57
33.72
32.40
32.04
32.09
32.16
32.00
31.47
30.43
28.69
26.02
22.19
17.09
10.77
3.45
-4.47
-12.49
-20.13
-27.06
-33.20
-38.67
-43.85
-49.24
-55.37
-62.62
-71.06
-80.28
-89.18
-96.09
-99.02
-96.10
-86.24
-69.55
-47.35
-21.91
4.14
28.46
49.31
65.70
77.18
83.71
85.49
83.00
77.05
68.74
59.40
50.32
42.57
36.72
32.88
30.78
29.88
29.66
29.70
29.73
29.56
29.04
27.95
26.03
22.99
18.63
12.93
6.07
-1.51
-9.23
-16.54
-23.09
-28.80
-33.88
-38.77
-43.96
-49.88
-56.79
-64.68
-73.14
-81.19
-87.35
-89.78
-86.84
-77.49
-61.82
-41.08
-17.33
7.05
29.91
49.64
65.25
76.21
82.33
83.69
80.68
74.08
65.01
54.89
45.14
36.94
30.92
27.16
25.22
24.44
24.17
24.06
23.97
23.93
23.84
23.37
22.02
19.32
14.99
9.19
2.36
-4.85
-11.90
-18.50
-24.66
-30.62
-36.74
-43.35
-50.73
-59.03
-68.15
-77.68
-86.62
-93.43
-96.30
-93.53
-84.19
-68.44
-47.68
-24.12
-0.30
21.55
39.79
53.45
62.09
65.62
64.28
58.66
49.77
38.97
27.78
17.54
9.15
2.97
-1.08
-3.39
-4.37
-4.40
-3.83
-3.03
-2.49
-2.70
-4.11
-6.89
-10.98
-15.97
-21.43
-26.91
-32.24
-37.49
-42.96
-49.07
-56.14
-64.28
-73.11
-81.69
-88.44
-91.52
-89.23
-80.62
-65.85
-46.20
-23.70
-0.59
21.08
39.74
54.30
64.03
68.57
67.99
62.96
54.67
44.68
34.57
25.64
18.64
13.84
11.13
10.14
10.46
11.61
13.09
14.35
14.85
14.13
11.92
8.21
3.31
-2.28
-7.99
-13.36
-18.28
-22.97
-27.98
-34.00
-41.62
-51.06
-61.88
-72.83
-81.94
-86.90
-85.69
-77.22
-61.68
-40.60
-16.36
8.46
31.63
51.57
67.30
78.30
84.34
85.47
82.11
75.21
66.08
56.25
47.08
39.50
33.91
30.18
27.93
26.72
26.15
25.92
25.75
25.33
24.30
22.23
18.84
14.03
7.96
1.02
-6.24
-13.36
-20.08
-26.50
-33.08
-40.49
-49.27
-59.52
-70.56
-80.89
-88.39
-90.88
-86.80
-75.59
-57.99
-35.80
-11.29
13.22
35.88
55.32
70.64
81.24
86.82
87.44
83.68
76.64
67.78
58.60
50.31
43.57
38.53
34.98
32.58
31.02
30.08
29.59
29.28
28.81
27.75
25.65
22.17
17.20
10.85
3.50
-4.32
-12.07
-19.34
-25.99
-32.17
-38.33
-45.04
-52.82
-61.80
-71.51
-80.70
-87.51
-89.85
-86.05
-75.35
-58.21
-36.20
-11.60
13.20
36.10
55.55
70.56
80.56
85.39
85.27
80.82
73.12
63.55
53.60
44.54
37.24
32.02
28.73
26.97
26.23
26.11
26.32
26.65
26.88
26.64
25.49
22.94
18.67
12.67
5.31
-2.70
-10.59
-17.73
-23.91
-29.44
-34.98
-41.31
-49.02
-58.13
-67.98
-77.23
-84.03
-86.49
-83.12
-73.32
-57.53
-37.24
-14.53
8.28
29.15
46.54
59.45
67.40
70.29
68.46
62.59
53.78
43.35
32.70
23.00
15.10
9.43
5.99
4.55
4.61
5.59
6.80
7.62
7.52
6.17
3.48
-0.38
-5.09
-10.25
-15.54
-20.82
-26.15
-31.82
-38.23
-45.77
-54.56
-64.20
-73.67
-81.29
-85.10
-83.33
-74.92
-59.98
-39.76
-16.39
7.60
29.93
48.90
63.48
73.18
77.90
77.85
73.55
65.89
56.11
45.66
35.95
27.97
22.21
18.59
16.67
15.91
15.81
16.00
16.15
15.91
14.84
12.49
8.55
2.95
-4.05
-11.86
-19.82
-27.32
-34.06
-40.11
-45.94
-52.25
-59.70
-68.60
-78.57
-88.40
-96.17
-99.67
-96.95
-87.05
-70.19
-47.88
-22.46
3.49
27.72
48.61
65.26
77.25
84.46
86.97
85.10
79.50
71.22
61.68
52.36
44.47
38.69
35.04
33.03
31.93
31.08
30.09
28.82
27.28
25.50
23.42
20.84
17.53
13.26
7.87
1.35
-6.07
-13.98
-21.81
-29.06
-35.46
-41.10
-46.39
-51.92
-58.19
-65.47
-73.68
-82.21
-90.00
-95.52
-97.00
-92.87
-82.20
-65.14
-42.98
-17.85
7.78
31.66
52.13
68.18
79.37
85.65
87.27
84.75
78.97
71.06
62.33
54.02
47.06
41.92
38.63
36.86
36.18
36.15
36.44
36.76
36.79
36.16
34.52
31.65
27.55
22.52
16.97
11.27
5.58
-0.16
-6.16
-12.58
-19.38
-26.33
-33.03
-39.13
-44.42
-49.01
-53.23
-57.58
-62.60
-68.69
-75.97
-83.92
-91.36
-96.46
-97.14
-91.68
-79.32
-60.60
-37.28
-11.86
13.10
35.53
54.09
68.15
77.51
82.25
82.60
79.05
72.48
64.08
55.20
47.09
40.62
36.16
33.60
32.56
32.52
33.03
33.72
34.28
34.42
33.83
32.27
29.59
25.87
21.30
16.16
10.68
5.03
-0.77
-6.71
-12.78
-18.93
-25.01
-30.91
-36.57
-42.03
-47.51
-53.28
-59.63
-66.65
-74.02
-80.86
-85.75
-86.98
-83.07
-73.31
-58.02
-38.58
-17.04
4.44
24.03
40.41
52.78
60.64
63.73
62.16
56.54
48.07
38.39
29.17
21.70
16.54
13.58
12.22
11.71
11.48
11.18
10.73
10.11
9.24
7.97
6.02
3.12
-0.92
-6.07
-12.04
-18.34
-24.43
-29.91
-34.66
-38.91
-43.15
-47.92
-53.68
-60.61
-68.50
-76.65
-83.78
-88.27
-88.41
-82.91
-71.30
-54.14
-32.94
-9.77
13.15
33.90
51.08
63.80
71.68
74.80
73.57
68.73
61.28
52.44
43.46
35.49
29.39
25.55
23.87
23.84
24.74
25.86
26.70
26.98
26.61
25.59
23.85
21.32
17.85
13.31
7.65
0.93
-6.58
-14.48
-22.27
-29.50
-35.93
-41.51
-46.47
-51.18
-56.06
-61.61
-68.16
-75.83
-84.23
-92.22
-97.98
-99.37
-94.54
-82.66
-64.30
-41.28
-16.13
8.62
30.99
49.73
64.18
74.01
79.13
79.70
76.28
69.85
61.71
53.20
45.44
39.19
34.80
32.27
31.37
31.71
32.79
34.05
34.98
35.19
34.41
32.54
29.62
25.83
21.40
16.59
11.55
6.29
0.68
-5.45
-12.17
-19.35
-26.64
-33.60
-39.85
-45.27
-49.97
-54.36
-59.00
-64.42
-70.92
-78.27
-85.53
-91.05
-92.80
-88.93
-78.43
-61.52
-39.71
-15.31
9.14
31.57
50.60
65.50
76.03
82.13
83.90
81.67
76.13
68.32
59.50
50.96
43.69
38.30
34.91
33.39
33.36
34.38
35.99
37.70
38.99
39.36
38.48
36.21
32.72
28.32
23.41
18.24
12.86
7.17
1.02
-5.60
-12.49
-19.33
-25.75
-31.59
-36.87
-41.90
-47.14
-53.07
-60.03
-67.99
-76.43
-84.16
-89.49
-90.59
-85.99
-75.03
-58.21
-37.06
-13.77
9.34
30.26
47.57
60.40
68.37
71.39
69.73
64.03
55.38
45.22
35.14
26.51
20.20
16.37
14.64
14.31
14.72
15.43
16.26
17.14
17.92
18.26
17.65
15.58
11.74
6.18
-0.61
-7.91
-14.95
-21.20
-26.51
-31.13
-35.62
-40.60
-46.54
-53.67
-61.83
-70.38
-78.23
-83.87
-85.64
-82.19
-72.85
-57.94
-38.69
-17.01
5.00
25.45
42.90
56.37
65.26
69.34
68.77
64.12
56.48
47.22
37.86
29.68
23.56
19.81
18.26
18.44
19.73
21.53
23.35
24.79
25.56
25.44
24.30
22.12
18.99
15.09
10.65
5.92
1.12
-3.65
-8.38
-13.20
-18.38
-24.15
-30.57
-37.26
-43.38
-47.90
-49.98
-49.54
-47.38
-45.01
-43.99
-45.43
-49.64
-56.22
-64.40
-73.19
-81.40
-87.50
-89.62
-85.85
-74.92
-56.82
-32.97
-5.95
21.34
46.40
67.57
84.10
95.86
103.03
105.97
105.39
102.35
98.34
94.93
93.33
93.95
96.29
99.15
101.17
101.43
99.76
96.66
92.93
89.16
85.46
81.49
76.66
70.51
62.87
53.88
43.82
32.96
21.52
9.68
-2.37
-14.39
-26.17
-37.64
-48.93
-60.18
-71.42
-82.21
-91.56
-97.97
-99.83
-95.85
-85.57
-69.48
-49.06
-26.34
-3.47
17.64
35.56
49.35
58.51
62.80
62.25
57.31
48.86
38.28
27.26
17.45
10.08
5.69
4.04
4.33
5.50
6.61
7.02
6.48
5.02
2.78
-0.09
-3.50
-7.48
-12.08
-17.43
-23.68
-30.95
-39.32
-48.68
-58.79
-69.26
-79.64
-89.60
-99.08
-108.32
-117.81
-128.07
-139.30
-151.08
-162.20
-170.80
-174.70
-172.13
-162.23
-145.49
-123.62
-99.09
-74.43
-51.71
-32.24
-16.66
-5.23
1.95
4.86
3.76
-0.72
-7.44
-14.96
-21.83
-26.93
-29.66
-30.01
-28.43
-25.65
-22.65
-20.42
-19.93
-21.88
-26.30
-32.32
-38.09
-41.15
-39.12
-30.42
-14.95
5.88
29.49
52.76
72.78
87.33
95.15
95.95
90.28
79.40
65.09
49.47
34.71
22.79
15.14
12.44
14.54
20.53
29.04
38.62
48.06
56.58
63.73
69.18
72.56
73.35
71.12
65.82
58.01
48.88
40.01
33.00
29.04
28.70
31.70
37.10
43.51
49.47
53.78
55.78
55.38
52.88
48.77
43.51
37.35
30.37
22.61
14.09
4.91
-4.84
-15.03
-25.51
-36.11
-46.48
-56.04
-63.99
-69.26
-70.69
-67.25
-58.39
-44.24
-25.78
-4.64
17.18
37.69
55.37
69.27
79.06
84.92
87.34
86.98
84.56
80.81
76.40
71.83
67.47
63.43
59.72
56.23
52.80
49.18
44.94
39.49
32.26
23.00
12.05
0.41
-10.56
-19.67
-26.38
-31.04
-34.68
-38.53
-43.56
-50.18
-58.21
-67.00
-75.54
-82.44
-86.02
-84.60
-76.82
-62.21
-41.40
-16.04
11.66
39.53
65.89
89.73
110.47
127.74
141.14
150.21
154.60
154.26
149.52
141.04
129.65
116.14
101.20
85.40
69.33
53.68
39.20
26.53
15.99
7.32
-0.17
-7.54
-15.71
-25.24
-36.09
-47.77
-59.58
-70.92
-81.53
-91.43
-100.83
-110.00
-119.09
-128.04
-136.33
-142.92
-146.26
-144.60
-136.50
-121.40
-99.98
-74.05
-46.08
-18.53
6.75
28.64
46.69
60.76
70.75
76.54
78.02
75.33
68.99
60.00
49.74
39.76
31.57
26.41
25.14
28.13
35.13
45.21
56.82
68.05
77.05
82.51
83.98
81.81
76.82
69.85
61.48
52.00
41.60
30.61
19.62
9.27
0.09
-7.79
-14.72
-21.56
-29.49
-39.66
-52.79
-68.79
-86.51
-103.87
-118.26
-127.33
-129.56
-124.73
-113.85
-98.82
-81.84
-64.97
-49.94
-38.08
-30.44
-27.73
-30.10
-37.00
-47.04
-58.24
-68.46
-75.96
-79.75
-79.77
-76.57
-71.02
-64.00
-56.24
-48.33
-40.78
-34.08
-28.63
-24.66
-22.11
-20.73
-20.12
-19.89
-19.87
-20.10
-20.82
-22.28
-24.65
-27.86
-31.74
-36.03
-40.62
-45.56
-51.08
-57.43
-64.75
-72.81
-80.85
-87.61
-91.45
-90.69
-84.03
-70.94
-51.91
-28.34
-2.31
23.88
48.02
68.32
83.54
93.00
96.65
95.03
89.21
80.68
71.12
62.07
54.60
49.20
45.70
43.55
42.03
40.65
39.19
37.68
36.22
34.70
32.75
29.81
25.41
19.38
12.03
3.99
-3.99
-11.42
-18.12
-24.34
-30.52
-37.19
-44.86
-53.83
-64.13
-75.22
-85.90
-94.37
-98.56
-96.78
-88.18
-73.02
-52.57
-28.64
-3.07
22.57
46.94
68.72
86.47
98.81
104.83
104.57
99.14
90.49
80.80
71.81
64.51
59.13
55.43
53.00
51.52
50.69
50.19
49.56
48.31
46.03
42.51
37.81
32.15
25.81
19.01
11.83
4.30
-3.59
-11.76
-20.00
-27.97
-35.33
-41.91
-47.82
-53.51
-59.61
-66.76
-75.32
-85.12
-95.31
-104.36
-110.32
-111.20
-105.54
-92.75
-73.41
-49.02
-21.76
6.10
32.49
55.80
74.90
89.06
97.91
101.51
100.45
95.80
88.98
81.45
74.40
68.57
64.19
61.26
59.64
59.20
59.72
60.89
62.18
62.98
62.73
61.06
57.90
53.38
47.79
41.46
34.67
27.68
20.67
13.70
6.68
-0.50
-7.88
-15.40
-22.78
-29.67
-35.76
-40.95
-45.42
-49.63
-54.28
-60.09
-67.63
-76.99
-87.46
-97.43
-104.58
-106.44
-101.18
-88.21
-68.43
-43.95
-17.42
8.72
32.63
53.20
69.78
81.95
89.32
91.68
89.19
82.63
73.34
63.10
53.62
46.20
41.42
39.13
38.65
39.10
39.75
40.16
40.13
39.56
38.38
36.39
33.35
29.10
23.57
16.87
9.33
1.36
-6.56
-14.04
-20.84
-26.96
-32.60
-38.08
-43.75
-49.93
-56.82
-64.39
-72.21
-79.34
-84.33
-85.46
-81.25
-70.94
-54.80
-34.20
-11.19
11.96
33.22
51.02
64.33
72.53
75.52
73.60
67.68
59.08
49.36
39.95
31.87
25.59
21.08
18.05
16.18
15.25
15.09
15.47
15.98
15.96
14.76
11.85
7.12
0.91
-6.18
-13.45
-20.43
-26.95
-33.11
-39.28
-45.89
-53.42
-62.17
-72.04
-82.31
-91.52
-97.67
-98.77
-93.38
-81.20
-63.11
-40.99
-17.10
6.39
27.79
45.85
59.73
68.85
72.93
72.13
67.15
59.21
49.83
40.55
32.52
26.36
22.12
19.48
17.97
17.22
16.97
17.07
17.28
17.24
16.42
14.31
10.53
5.06
-1.77
-9.41
-17.21
-24.64
-31.43
-37.62
-43.60
-50.05
-57.63
-66.72
-77.09
-87.66
-96.57
-101.60
-100.79
-93.00
-78.28
-57.83
-33.68
-8.11
16.68
38.92
57.25
70.78
78.98
81.80
79.72
73.76
65.39
56.20
47.61
40.52
35.28
31.64
29.13
27.27
25.81
24.73
24.09
23.77
23.38
22.26
19.72
15.34
9.17
1.76
-6.09
-13.63
-20.49
-26.75
-32.87
-39.49
-47.23
-56.33
-66.62
-77.32
-87.08
-94.16
-96.73
-93.30
-83.16
-66.66
-45.14
-20.70
4.30
27.67
47.70
63.27
73.79
79.20
79.85
76.53
70.37
62.72
54.85
47.75
41.96
37.58
34.41
32.13
30.43
29.10
27.99
26.91
25.61
23.72
20.87
16.74
11.20
4.37
-3.38
-11.52
-19.56
-27.18
-34.35
-41.35
-48.65
-56.75
-65.95
-75.98
-85.94
-94.29
-99.11
-98.57
-91.52
-77.77
-58.25
-34.81
-9.81
14.38
35.68
52.66
64.47
70.91
72.35
69.57
63.67
55.91
47.48
39.44
32.55
27.31
23.86
22.07
21.58
21.79
22.02
21.60
20.03
17.08
12.78
7.36
1.14
-5.58
-12.61
-19.94
-27.69
-36.11
-45.50
-56.06
-67.66
-79.56
-90.36
-98.05
-100.53
-96.15
-84.37
-66.00
-43.09
-18.27
5.88
27.42
45.22
58.80
67.91
72.42
72.31
67.92
60.12
50.33
40.15
31.08
24.05
19.36
16.69
15.42
14.86
14.43
13.80
12.80
11.35
9.39
6.80
3.46
-0.77
-5.97
-12.19
-19.51
-27.98
-37.57
-47.85
-57.93
-66.30
-71.09
-70.55
-63.57
-50.12
-31.31
-9.17
13.88
35.61
54.27
68.80
78.72
83.93
84.60
81.16
74.25
64.86
54.17
43.46
33.90
26.34
21.23
18.47
17.55
17.60
17.65
16.85
14.72
11.24
6.76
1.74
-3.44
-8.68
-14.20
-20.39
-27.62
-36.17
-46.03
-56.88
-67.91
-77.83
-84.93
-87.42
-83.82
-73.50
-56.89
-35.55
-11.73
12.08
33.66
51.38
64.24
71.81
74.07
71.42
64.64
54.84
43.38
31.71
21.14
12.63
6.70
3.37
2.18
2.36
2.96
3.09
2.18
0.02
-3.18
-7.01
-11.12
-15.36
-19.79
-24.59
-29.96
-36.04
-42.90
-50.42
-58.24
-65.47
-70.68
-72.10
-68.12
-57.83
-41.55
-20.84
1.95
24.25
43.92
59.51
70.29
75.99
76.66
72.61
64.49
53.39
40.80
28.37
17.62
9.56
4.56
2.28
1.79
1.83
1.19
-0.91
-4.66
-9.61
-15.02
-20.18
-24.80
-29.13
-33.80
-39.57
-47.04
-56.47
-67.65
-79.85
-91.77
-101.52
-106.90
-105.84
-97.00
-80.24
-56.82
-29.17
-0.32
26.80
49.93
67.69
79.63
85.97
87.35
84.69
79.02
71.50
63.30
55.46
48.79
43.68
40.14
37.90
36.56
35.72
35.01
34.03
32.30
29.32
24.73
18.46
10.87
2.64
-5.45
-12.83
-19.41
-25.59
-32.08
-39.71
-48.96
-59.69
-70.92
-80.88
-87.30
-88.00
-81.52
-67.60
-47.32
-22.76
3.51
29.08
52.04
71.12
85.51
94.78
98.80
97.78
92.48
84.14
74.28
64.46
55.87
49.10
44.18
40.67
37.98
35.57
33.13
30.61
28.10
25.69
23.31
20.72
17.46
13.09
7.34
0.26
-7.69
-15.86
-23.60
-30.58
-36.91
-43.05
-49.67
-57.35
-66.38
-76.60
-87.30
-97.17
-104.36
-106.83
-102.85
-91.54
-73.26
-49.59
-22.91
4.17
29.40
51.09
68.16
79.91
86.02
86.57
82.22
74.18
64.09
53.63
44.13
36.37
30.55
26.42
23.59
21.64
20.24
19.15
18.14
16.93
15.13
12.38
8.40
3.14
-3.14
-9.94
-16.72
-23.04
-28.79
-34.15
-39.57
-45.54
-52.51
-60.66
-69.70
-78.86
-86.77
-91.63
-91.66
-85.55
-72.96
-54.74
-32.76
-9.45
12.87
32.41
48.09
59.39
66.11
68.21
65.81
59.40
49.93
38.81
27.57
17.56
9.59
3.96
0.55
-0.95
-0.86
0.39
2.25
3.95
4.63
3.56
0.34
-4.98
-11.91
-19.70
-27.51
-34.68
-40.87
-46.18
-51.19
-56.69
-63.37
-71.36
-79.85
-87.07
-90.74
-88.68
-79.63
-63.64
-42.08
-17.21
8.42
32.55
53.48
70.15
81.96
88.66
90.36
87.55
81.15
72.44
62.87
53.70
45.81
39.57
34.89
31.43
28.80
26.71
24.99
23.56
22.20
20.62
18.38
15.12
10.65
5.06
-1.22
-7.68
-13.83
-19.44
-24.63
-29.80
-35.57
-42.51
-51.06
-61.19
-72.24
-82.78
-90.68
-93.56
-89.43
-77.34
-57.79
-32.68
-4.75
23.10
48.54
69.94
86.40
97.46
102.91
102.82
97.70
88.63
77.18
65.16
54.17
45.27
38.83
34.56
31.82
29.89
28.24
26.66
25.10
23.46
21.52
18.83
14.90
9.40
2.41
-5.59
-13.85
-21.67
-28.59
-34.58
-39.99
-45.40
-51.45
-58.70
-67.39
-77.28
-87.49
-96.43
-102.08
-102.47
-96.21
-82.98
-63.71
-40.33
-15.31
8.84
30.07
47.00
58.92
65.74
67.83
65.88
60.83
53.71
45.56
37.40
30.09
24.30
20.38
18.28
17.61
17.76
18.07
18.01
17.31
15.86
13.66
10.70
6.92
2.32
-3.00
-8.77
-14.64
-20.37
-25.92
-31.59
-37.87
-45.24
-53.75
-62.79
-71.02
-76.57
-77.58
-72.70
-61.62
-45.07
-24.72
-2.66
19.05
38.69
54.96
66.99
74.25
76.53
74.06
67.52
58.09
47.19
36.30
26.60
18.87
13.37
9.99
8.35
7.95
8.22
8.52
8.28
7.00
4.35
0.29
-5.01
-11.19
-17.89
-24.84
-31.94
-39.33
-47.28
-56.08
-65.83
-76.11
-85.86
-93.36
-96.65
-94.00
-84.49
-68.38
-47.02
-22.60
2.43
25.75
45.55
60.54
70.08
74.07
72.93
67.58
59.26
49.41
39.34
30.16
22.54
16.76
12.71
10.09
8.48
7.43
6.59
5.60
4.16
1.97
-1.18
-5.38
-10.57
-16.50
-22.85
-29.31
-35.77
-42.41
-49.70
-58.22
-68.27
-79.56
-90.86
-100.15
-105.05
-103.55
-94.65
-78.78
-57.57
-33.43
-8.85
14.12
34.02
49.85
60.92
66.81
67.51
63.60
56.36
47.53
38.88
31.78
26.94
24.43
23.96
25.07
27.22
29.85
32.25
33.63
33.29
30.83
26.31
20.15
12.93
5.23
-2.56
-10.23
-17.75
-25.21
-32.84
-40.97
-49.81
-59.24
-68.50
-76.21
-80.64
-80.15
-73.79
-61.58
-44.59
-24.66
-3.90
15.68
32.50
45.55
54.25
58.48
58.39
54.46
47.48
38.51
28.88
19.95
12.90
8.49
6.88
7.69
10.10
13.13
15.84
17.53
17.86
16.79
14.52
11.37
7.60
3.38
-1.27
-6.36
-12.00
-18.33
-25.56
-33.83
-42.98
-52.28
-60.30
-65.13
-64.90
-58.40
-45.56
-27.51
-6.28
15.80
36.61
54.53
68.45
77.68
81.87
81.02
75.59
66.59
55.50
44.02
33.66
25.38
19.41
15.29
12.15
9.19
5.87
2.19
-1.64
-5.26
-8.53
-11.49
-14.40
-17.54
-21.23
-25.76
-31.46
-38.46
-46.55
-54.89
-62.02
-66.14
-65.68
-59.78
-48.67
-33.50
-15.94
2.32
19.94
35.88
49.29
59.28
64.94
65.63
61.30
52.75
41.51
29.51
18.52
9.70
3.41
-0.73
-3.47
-5.61
-7.76
-10.23
-13.07
-16.25
-19.70
-23.45
-27.66
-32.60
-38.61
-46.05
-55.14
-65.71
-77.04
-87.64
-95.45
-98.21
-94.09
-82.26
-63.30
-39.00
-11.94
15.24
40.39
62.12
79.69
92.75
101.14
104.80
103.91
99.04
91.13
81.43
71.21
61.48
52.89
45.66
39.65
34.51
29.83
25.30
20.70
15.97
11.14
6.24
1.22
-4.15
-10.24
-17.50
-26.37
-37.08
-49.47
-62.74
-75.38
-85.35
-90.42
-88.81
-79.65
-63.34
-41.41
-16.12
10.09
35.01
57.00
74.95
88.28
96.83
100.81
100.71
97.31
91.45
84.02
75.76
67.29
59.05
51.32
44.37
38.38
33.49
29.68
26.65
23.82
20.39
15.64
9.14
0.95
-8.43
-18.26
-27.85
-36.83
-45.29
-53.66
-62.57
-72.61
-83.98
-96.28
-108.32
-118.12
-123.30
-121.61
-111.69
-93.49
-68.49
-39.25
-8.79
20.13
45.57
66.38
82.16
92.88
98.71
100.03
97.47
91.97
84.55
76.21
67.63
59.18
51.01
43.21
36.00
29.77
24.82
21.22
18.63
16.33
13.44
9.25
3.45
-3.68
-11.48
-19.14
-26.08
-32.20
-37.96
-44.21
-51.88
-61.62
-73.49
-86.70
-99.60
-109.86
-115.00
-113.00
-102.88
-85.01
-61.10
-33.65
-5.35
21.41
44.89
63.99
78.02
86.69
90.02
88.52
83.18
75.33
66.44
57.68
49.73
42.74
36.52
30.80
25.50
20.76
16.77
13.54
10.72
7.71
3.77
-1.58
-8.39
-16.26
-24.52
-32.51
-39.90
-46.83
-53.88
-61.86
-71.55
-83.31
-96.77
-110.62
-122.64
-130.19
-130.81
-123.00
-106.70
-83.29
-55.18
-25.11
4.47
31.71
55.39
74.76
89.34
98.84
103.31
103.17
99.26
92.73
84.80
76.56
68.78
61.84
55.72
50.20
45.02
40.09
35.52
31.56
28.39
25.94
23.75
21.08
17.15
11.41
3.80
-5.25
-14.99
-24.60
-33.50
-41.49
-48.80
-55.96
-63.66
-72.51
-82.86
-94.55
-106.73
-117.80
-125.60
-127.81
-122.59
-109.20
-88.14
-61.16
-30.70
0.67
30.71
57.71
80.50
98.28
110.62
117.51
119.42
117.30
112.36
105.85
98.72
91.53
84.47
77.52
70.67
64.07
58.03
52.96
49.17
46.68
45.21
44.13
42.66
40.15
36.23
30.97
24.77
18.18
11.62
5.27
-1.04
-7.61
-14.76
-22.57
-30.86
-39.26
-47.30
-54.65
-61.17
-67.07
-72.81
-79.03
-86.46
-95.62
-106.50
-118.25
-129.09
-136.55
-138.06
-131.68
-116.75
-94.16
-66.02
-35.11
-4.15
24.61
49.66
70.02
85.14
94.76
98.97
98.31
93.71
86.42
77.74
68.77
60.21
52.42
45.45
39.27
33.85
29.27
25.65
23.05
21.38
20.24
19.02
17.02
13.66
8.68
2.27
-5.05
-12.55
-19.63
-25.94
-31.53
-36.79
-42.33
-48.92
-57.17
-67.37
-79.18
-91.34
-101.80
-108.11
-108.02
-100.20
-84.63
-62.58
-36.26
-8.18
19.32
44.37
65.65
82.23
93.57
99.47
100.16
96.33
89.01
79.52
69.17
59.07
50.04
42.47
36.41
31.70
28.05
25.18
22.78
20.61
18.42
16.04
13.32
10.20
6.54
2.20
-3.04
-9.26
-16.37
-24.08
-31.95
-39.55
-46.65
-53.30
-59.75
-66.45
-73.93
-82.63
-92.75
-103.90
-114.93
-123.91
-128.41
-126.16
-115.71
-97.04
-71.58
-41.88
-10.91
18.66
44.93
66.80
83.89
96.18
103.78
106.88
105.84
101.29
94.14
85.47
76.35
67.58
59.68
52.84
47.09
42.37
38.59
35.65
33.34
31.40
29.48
27.26
24.54
21.16
17.05
12.15
6.40
-0.14
-7.32
-14.86
-22.44
-29.79
-36.86
-43.80
-50.91
-58.62
-67.30
-77.18
-88.12
-99.41
-109.61
-116.69
-118.41
-112.99
-99.72
-79.27
-53.55
-25.16
3.34
29.93
53.23
72.42
86.94
96.37
100.54
99.67
94.56
86.44
76.75
66.78
57.41
49.06
41.83
35.62
30.34
25.99
22.58
20.12
18.50
17.43
16.45
15.02
12.59
8.78
3.49
-3.06
-10.34
-17.77
-24.79
-31.22
-37.17
-43.09
-49.57
-57.15
-66.12
-76.37
-87.20
-97.26
-104.72
-107.50
-103.89
-93.04
-75.35
-52.36
-26.41
0.03
24.74
46.08
62.96
74.72
81.08
82.18
78.65
71.57
62.30
52.19
42.28
33.21
25.24
18.44
12.83
8.44
5.27
3.16
1.79
0.61
-0.98
-3.50
-7.21
-12.10
-17.86
-24.03
-30.18
-36.00
-41.43
-46.72
-52.37
-59.01
-67.24
-77.16
-88.14
-98.64
-106.38
-108.98
-104.57
-92.48
-73.45
-49.38
-22.74
3.99
28.88
50.59
68.27
81.34
89.45
92.55
90.96
85.57
77.63
68.58
59.67
51.71
44.95
39.20
34.06
29.23
24.67
20.57
17.23
14.79
13.05
11.47
9.33
5.96
1.04
-5.31
-12.61
-20.21
-27.56
-34.39
-40.73
-46.97
-53.66
-61.43
-70.71
-81.45
-92.80
-103.08
-109.94
-111.01
-104.63
-90.42
-69.43
-43.82
-16.19
11.06
36.13
57.79
75.23
87.88
95.39
97.77
95.51
89.67
81.64
72.82
64.28
56.56
49.70
43.43
37.49
31.91
26.95
23.01
20.35
18.84
17.95
16.83
14.66
10.90
5.50
-1.11
-8.24
-15.16
-21.41
-26.94
-32.11
-37.58
-44.09
-52.24
-62.20
-73.47
-84.75
-94.08
-99.24
-98.28
-90.16
-75.00
-54.07
-29.42
-3.39
21.86
44.57
63.45
77.62
86.63
90.45
89.57
84.90
77.61
68.88
59.67
50.65
42.22
34.62
28.04
22.66
18.56
15.66
13.64
11.96
10.00
7.29
3.62
-0.98
-6.23
-11.84
-17.61
-23.46
-29.52
-36.05
-43.44
-51.95
-61.55
-71.60
-80.75
-87.07
-88.57
-83.77
-72.23
-54.70
-32.94
-9.24
14.11
35.20
52.69
65.71
73.91
77.26
76.14
71.21
63.42
53.87
43.64
33.69
24.80
17.43
11.75
7.61
4.63
2.26
-0.05
-2.80
-6.28
-10.53
-15.39
-20.54
-25.67
-30.61
-35.42
-40.42
-46.17
-53.28
-62.21
-72.92
-84.63
-95.72
-103.88
-106.72
-102.42
-90.36
-71.32
-47.28
-20.86
5.40
29.45
49.94
66.10
77.52
84.04
85.80
83.28
77.31
69.04
59.61
50.07
41.10
33.06
26.17
20.51
16.19
13.21
11.43
10.41
9.52
8.03
5.40
1.41
-3.82
-9.91
-16.47
-23.24
-30.23
-37.70
-46.10
-55.91
-67.38
-80.17
-93.14
-104.29
-111.19
-111.50
-103.83
-88.19
-66.04
-39.86
-12.38
14.05
37.84
58.10
74.42
86.58
94.50
98.25
98.22
95.17
90.09
84.03
77.79
71.81
66.17
60.73
55.43
50.41
45.99
42.47
39.84
37.67
35.14
31.36
25.74
18.31
9.60
0.45
-8.40
-16.58
-24.21
-31.81
-40.07
-49.64
-60.91
-73.75
-87.33
-100.05
-109.73
-114.01
-111.06
-100.12
-81.77
-57.77
-30.65
-3.03
22.80
45.18
63.02
75.79
83.35
85.96
84.24
79.08
71.58
62.88
53.98
45.68
38.41
32.38
27.53
23.76
20.98
19.10
18.01
17.37
16.63
15.11
12.18
7.57
1.50
-5.37
-12.25
-18.55
-24.16
-29.47
-35.27
-42.38
-51.34
-62.10
-73.87
-85.15
-93.91
-98.05
-95.79
-86.22
-69.62
-47.38
-21.68
5.00
30.39
52.74
70.88
84.08
92.01
94.69
92.59
86.64
78.15
68.53
59.04
50.45
43.03
36.73
31.34
26.73
22.89
19.83
17.42
15.26
12.74
9.19
4.22
-2.19
-9.61
-17.38
-24.93
-31.95
-38.56
-45.26
-52.77
-61.79
-72.74
-85.50
-99.07
-111.55
-120.37
-122.85
-117.10
-102.57
-80.37
-52.89
-23.13
6.15
32.86
55.73
74.08
87.55
95.96
99.43
98.48
94.10
87.60
80.29
73.26
67.11
62.01
57.77
54.09
50.71
47.48
44.35
41.36
38.48
35.63
32.57
28.93
24.33
18.48
11.28
2.90
-6.26
-15.72
-25.00
-33.77
-41.91
-49.54
-57.01
-64.85
-73.62
-83.78
-95.27
-107.31
-118.20
-125.61
-127.07
-120.75
-106.09
-84.01
-56.71
-27.09
2.09
28.69
51.43
69.76
83.56
92.91
98.00
99.17
97.02
92.43
86.39
79.81
73.40
67.54
62.38
58.03
54.53
51.95
50.22
49.09
48.11
46.75
44.55
41.25
36.90
31.73
26.04
20.05
13.82
7.23
0.14
-7.54
-15.71
-24.10
-32.36
-40.17
-47.41
-54.18
-60.86
-67.99
-76.13
-85.64
-96.28
-107.06
-116.15
-121.20
-119.96
-110.96
-94.04
-70.46
-42.58
-13.18
15.17
40.59
61.93
78.68
90.69
98.01
100.84
99.63
95.07
88.14
79.92
71.44
63.52
56.65
51.04
46.67
43.36
40.88
38.96
37.31
35.69
33.85
31.55
28.55
24.68
19.81
13.98
7.42
0.45
-6.57
-13.40
-19.95
-26.32
-32.72
-39.34
-46.38
-54.00
-62.36
-71.56
-81.35
-91.05
-99.29
-104.22
-103.93
-97.02
-83.15
-63.23
-39.21
-13.55
11.39
33.78
52.42
66.61
75.90
80.05
79.16
73.82
65.25
55.11
45.13
36.61
30.19
25.71
22.55
19.97
17.46
14.92
12.49
10.41
8.67
6.97
4.76
1.50
-3.15
-9.15
-16.11
-23.46
-30.65
-37.37
-43.56
-49.46
-55.53
-62.35
-70.50
-80.29
-91.48
-103.02
-113.04
-119.06
-118.79
-110.71
-94.70
-72.07
-45.21
-16.88
10.46
34.98
55.63
71.94
83.71
90.94
93.76
92.51
87.82
80.61
71.98
63.03
54.69
47.57
41.92
37.70
34.70
32.66
31.33
30.47
29.78
28.92
27.52
25.25
21.88
17.38
11.79
5.24
-2.06
-9.88
-17.93
-25.91
-33.53
-40.63
-47.25
-53.61
-60.19
-67.47
-75.90
-85.55
-95.87
-105.58
-112.69
-114.94
-110.43
-98.24
-78.83
-53.91
-26.02
2.20
28.60
51.77
70.97
85.90
96.41
102.49
104.29
102.23
97.04
89.70
81.23
72.56
64.41
57.25
51.33
46.74
43.45
41.26
39.86
38.84
37.74
36.16
33.88
30.82
27.06
22.73
17.91
12.57
6.58
-0.20
-7.80
-16.04
-24.54
-32.85
-40.61
-47.75
-54.50
-61.40
-69.09
-78.00
-88.11
-98.63
-107.99
-114.08
-114.73
-108.37
-94.54
-74.11
-49.08
-22.01
4.61
28.84
49.40
65.64
77.27
84.17
86.46
84.56
79.28
71.80
63.42
55.27
48.06
41.99
36.88
32.44
28.52
25.15
22.52
20.71
19.51
18.44
16.81
13.99
9.69
4.07
-2.38
-8.98
-15.21
-20.88
-26.17
-31.54
-37.52
-44.59
-53.08
-63.01
-74.01
-85.09
-94.63
-100.55
-100.85
-94.21
-80.46
-60.76
-37.25
-12.42
11.49
32.76
50.29
63.36
71.49
74.48
72.58
66.67
58.15
48.67
39.71
32.15
26.17
21.49
17.59
14.14
11.07
8.47
6.42
4.70
2.87
0.29
-3.53
-8.78
-15.27
-22.51
-29.89
-36.99
-43.69
-50.22
-57.06
-64.80
-73.91
-84.56
-96.38
-108.24
-118.31
-124.25
-123.84
-115.66
-99.56
-76.84
-49.85
-21.29
6.46
31.73
53.51
71.23
84.47
92.87
96.29
95.02
89.88
82.10
73.14
64.29
56.49
50.14
45.19
41.30
38.08
35.25
32.72
30.56
28.74
27.08
25.14
22.33
18.14
12.39
5.24
-2.80
-11.14
-19.29
-27.01
-34.32
-41.47
-48.83
-56.89
-66.13
-76.89
-89.06
-101.87
-113.69
-122.24
-125.10
-120.43
-107.56
-87.21
-61.40
-32.74
-3.91
22.94
46.34
65.55
80.25
90.43
96.25
98.05
96.37
91.96
85.68
78.46
71.12
64.27
58.36
53.59
50.01
47.53
45.88
44.70
43.49
41.84
39.38
35.98
31.67
26.61
20.98
14.86
8.22
1.02
-6.71
-14.82
-23.02
-30.98
-38.46
-45.38
-51.88
-58.30
-65.13
-72.92
-82.03
-92.42
-103.28
-112.99
-119.26
-119.73
-112.69
-97.72
-75.92
-49.54
-21.38
5.99
30.72
51.78
68.73
81.40
89.75
93.83
93.92
90.64
84.97
78.08
71.07
64.79
59.69
55.85
53.12
51.24
49.96
49.06
48.29
47.38
45.98
43.80
40.63
36.39
31.16
25.07
18.27
10.91
3.12
-4.95
-13.10
-21.11
-28.85
-36.23
-43.36
-50.51
-58.12
-66.68
-76.52
-87.51
-98.81
-108.78
-115.23
-115.97
-109.48
-95.38
-74.68
-49.43
-22.23
4.42
28.52
48.77
64.43
75.15
80.89
81.91
78.82
72.64
64.58
55.94
47.71
40.52
34.56
29.79
26.11
23.45
21.75
20.87
20.45
19.91
18.59
15.96
11.77
6.17
-0.40
-7.33
-14.11
-20.49
-26.58
-32.78
-39.69
-47.83
-57.40
-68.07
-78.78
-87.85
-93.26
-93.10
-86.15
-72.26
-52.46
-28.77
-3.62
20.68
42.34
60.24
73.71
82.48
86.47
85.87
81.24
73.59
64.25
54.64
45.90
38.67
33.06
28.73
25.24
22.21
19.50
17.11
15.03
13.13
11.03
8.17
4.04
-1.62
-8.68
-16.63
-24.77
-32.49
-39.46
-45.77
-51.84
-58.27
-65.71
-74.60
-85.04
-96.57
-107.97
-117.37
-122.49
-121.22
-112.31
-95.77
-72.96
-46.20
-18.09
9.06
33.60
54.60
71.58
84.30
92.61
96.53
96.33
92.66
86.54
79.13
71.52
64.48
58.38
53.19
48.74
44.87
41.52
38.72
36.47
34.61
32.83
30.64
27.59
23.34
17.79
11.11
3.64
-4.22
-12.13
-19.88
-27.43
-34.87
-42.32
-49.99
-58.18
-67.19
-77.26
-88.20
-99.17
-108.56
-114.27
-114.23
-107.02
-92.45
-71.55
-46.37
-19.30
7.40
32.05
53.53
71.24
84.82
94.10
99.12
100.20
97.98
93.37
87.36
80.86
74.49
68.57
63.27
58.65
54.81
51.86
49.78
48.35
47.18
45.70
43.41
39.97
35.35
29.78
23.66
17.41
11.24
5.09
-1.28
-8.22
-15.86
-24.01
-32.25
-40.01
-46.93
-52.97
-58.49
-64.12
-70.57
-78.35
-87.62
-97.93
-108.13
-116.41
-120.62
-118.73
-109.55
-93.08
-70.60
-44.37
-16.93
9.52
33.49
54.15
71.13
84.11
92.80
96.97
96.73
92.73
86.11
78.27
70.48
63.54
57.75
52.97
48.95
45.46
42.46
39.97
37.89
36.03
34.04
31.48
28.03
23.51
17.95
11.53
4.57
-2.60
-9.72
-16.59
-23.15
-29.48
-35.79
-42.37
-49.57
-57.73
-66.99
-77.16
-87.46
-96.53
-102.48
-103.44
-98.01
-85.79
-67.57
-45.12
-20.71
3.47
25.67
44.72
59.85
70.58
76.59
77.86
74.83
68.45
60.07
51.07
42.63
35.39
29.54
24.92
21.20
18.16
15.66
13.63
12.05
10.80
9.61
8.07
5.71
2.05
-3.14
-9.79
-17.44
-25.39
-32.96
-39.72
-45.67
-51.19
-56.94
-63.63
-71.80
-81.57
-92.43
-103.20
-112.01
-116.66
-115.13
-106.18
-89.80
-67.22
-40.70
-12.80
14.16
38.46
59.07
75.46
87.37
94.70
97.59
96.44
91.97
85.19
77.11
68.69
60.67
53.49
47.47
42.73
39.27
36.96
35.53
34.55
33.51
31.91
29.38
25.77
21.19
15.90
10.22
4.33
-1.80
-8.28
-15.24
-22.61
-30.20
-37.71
-44.92
-51.82
-58.62
-65.66
-73.29
-81.77
-91.09
-100.78
-109.80
-116.50
-118.83
-114.94
-103.73
-85.39
-61.43
-34.29
-6.61
19.44
42.50
61.90
77.39
88.78
95.86
98.57
97.25
92.71
86.09
78.56
71.10
64.31
58.47
53.67
49.90
47.07
44.93
43.13
41.26
38.98
36.11
32.64
28.68
24.27
19.39
13.92
7.78
0.98
-6.30
-13.81
-21.25
-28.46
-35.37
-42.07
-48.72
-55.61
-63.12
-71.61
-81.26
-91.75
-102.04
-110.30
-114.29
-111.93
-102.00
-84.58
-61.16
-34.14
-6.20
20.31
43.83
63.53
79.13
90.49
97.56
100.33
99.03
94.22
86.88
78.16
69.18
60.82
53.64
47.85
43.45
40.35
38.33
37.10
36.27
35.36
33.93
31.67
28.48
24.47
19.79
14.61
8.95
2.76
-3.95
-11.08
-18.33
-25.37
-32.00
-38.30
-44.57
-51.33
-59.02
-67.91
-77.94
-88.63
-99.00
-107.56
-112.47
-111.91
-104.63
-90.40
-70.26
-46.17
-20.57
4.29
26.77
45.80
60.73
71.09
76.54
77.05
73.03
65.51
55.94
45.90
36.72
29.22
23.57
19.53
16.70
14.69
13.34
12.60
12.38
12.40
12.14
10.92
8.18
3.74
-2.14
-8.79
-15.43
-21.51
-26.90
-31.97
-37.40
-43.99
-52.25
-62.18
-73.12
-83.72
-92.07
-96.14
-94.26
-85.61
-70.42
-50.00
-26.34
-1.63
22.10
43.26
60.72
73.69
81.70
84.61
82.73
76.90
68.40
58.72
49.30
41.17
34.83
30.25
27.02
24.60
22.48
20.37
18.18
15.95
13.73
11.47
8.93
5.76
1.58
-3.82
-10.37
-17.71
-25.38
-32.92
-40.12
-47.08
-54.04
-61.41
-69.54
-78.71
-89.04
-100.34
-111.85
-122.16
-129.28
-131.04
-125.70
-112.54
-92.15
-66.36
-37.64
-8.54
18.81
43.00
63.17
78.91
89.99
96.39
98.35
96.40
91.43
84.51
76.72
68.96
61.83
55.62
50.47
46.30
43.06
40.55
38.51
36.63
34.55
31.99
28.77
24.81
20.10
14.63
8.37
1.36
-6.30
-14.40
-22.65
-30.77
-38.50
-45.68
-52.30
-58.55
-64.84
-71.74
-79.79
-89.16
-99.31
-108.85
-115.68
-117.46
-112.36
-99.60
-79.80
-54.80
-27.07
0.91
27.18
50.44
69.95
85.24
95.95
101.90
103.16
100.32
94.39
86.69
78.50
70.79
64.14
58.70
54.43
51.19
48.94
47.70
47.42
47.88
48.61
48.90
48.05
45.60
41.48
36.06
29.96
23.77
17.83
12.09
6.23
-0.21
-7.52
-15.69
-24.39
-33.13
-41.42
-48.96
-55.76
-62.09
-68.44
-75.41
-83.49
-92.80
-102.86
-112.46
-119.70
-122.41
-118.77
-107.84
-89.94
-66.57
-39.92
-12.33
14.17
38.06
58.25
73.90
84.43
89.61
89.75
85.71
78.82
70.53
62.15
54.55
48.10
42.79
38.44
34.80
31.72
29.14
27.07
25.48
24.16
22.75
20.70
17.47
12.74
6.56
-0.62
-8.12
-15.34
-21.93
-27.99
-33.90
-40.22
-47.43
-55.84
-65.35
-75.47
-85.17
-92.96
-97.11
-96.02
-88.66
-74.92
-55.72
-32.75
-8.18
15.86
37.54
55.45
68.64
76.60
79.27
77.10
71.05
62.47
52.81
43.36
34.96
27.95
22.21
17.47
13.52
10.29
7.84
6.19
5.08
3.99
2.17
-0.99
-5.81
-12.11
-19.32
-26.73
-33.78
-40.25
-46.35
-52.58
-59.59
-67.93
-77.98
-89.61
-102.05
-113.74
-122.42
-125.66
-121.46
-109.00
-88.87
-62.99
-34.02
-4.68
22.82
46.90
66.57
81.21
90.52
94.54
93.74
89.07
81.75
73.03
63.95
55.17
47.02
39.66
33.28
28.03
24.09
21.46
19.88
18.83
17.59
15.50
12.10
7.30
1.35
-5.30
-12.21
-19.15
-26.16
-33.56
-41.82
-51.42
-62.55
-74.94
-87.61
-98.85
-106.47
-108.30
-102.80
-89.59
-69.57
-44.72
-17.50
9.76
35.23
57.67
76.24
90.33
99.46
103.41
102.50
97.59
90.04
81.40
72.93
65.40
58.99
53.51
48.65
44.29
40.51
37.49
35.28
33.62
31.93
29.45
25.53
19.81
12.50
4.15
-4.50
-12.85
-20.74
-28.41
-36.38
-45.27
-55.48
-67.07
-79.64
-92.19
-103.16
-110.66
-112.67
-107.67
-95.04
-75.40
-50.44
-22.61
5.54
31.78
54.49
72.70
85.94
94.13
97.49
96.56
92.16
85.31
77.09
68.48
60.19
52.61
45.88
40.02
35.03
30.87
27.49
24.63
21.85
18.59
14.37
9.01
2.62
-4.39
-11.55
-18.55
-25.38
-32.32
-39.86
-48.49
-58.51
-69.78
-81.53
-92.30
-100.11
-102.91
-99.08
-88.07
-70.47
-48.02
-22.99
2.30
25.90
46.39
62.80
74.47
81.05
82.59
79.65
73.31
64.93
55.85
47.10
39.26
32.54
26.87
22.20
18.48
15.60
13.40
11.48
9.29
6.25
1.96
-3.68
-10.41
-17.69
-24.93
-31.71
-37.97
-44.08
-50.73
-58.74
-68.66
-80.47
-93.32
-105.48
-114.66
-118.47
-115.07
-103.71
-84.95
-60.51
-32.83
-4.43
22.54
46.60
66.82
82.76
94.14
100.88
103.05
101.03
95.58
87.86
79.15
70.70
63.36
57.54
53.13
49.74
46.91
44.30
41.75
39.18
36.55
33.65
30.20
25.85
20.35
13.62
5.82
-2.72
-11.57
-20.29
-28.64
-36.53
-44.15
-51.80
-59.89
-68.74
-78.52
-89.11
-100.03
-110.33
-118.54
-122.91
-121.69
-113.69
-98.59
-77.19
-51.14
-22.53
6.63
34.68
60.36
82.57
100.26
112.51
118.82
119.37
115.19
107.87
99.16
90.44
82.56
75.82
70.29
65.99
63.01
61.39
60.89
61.01
61.00
60.21
58.20
54.99
50.90
46.38
41.72
36.93
31.81
26.11
19.74
12.86
5.82
-1.01
-7.46
-13.58
-19.65
-25.89
-32.45
-39.22
-46.00
-52.56
-58.75
-64.58
-70.20
-75.91
-82.12
-89.38
-98.17
-108.60
-120.14
-131.29
-139.78
-143.01
-138.84
-126.19
-105.47
-78.47
-47.74
-16.04
14.26
41.44
64.40
82.54
95.57
103.43
106.37
105.03
100.41
93.81
86.48
79.42
73.15
67.74
63.07
59.06
55.87
53.79
53.03
53.38
54.19
54.45
53.25
50.10
45.10
38.85
32.08
25.38
18.96
12.70
6.28
-0.56
-7.95
-15.75
-23.69
-31.35
-38.36
-44.50
-49.76
-54.48
-59.24
-64.79
-71.73
-80.24
-89.81
-99.13
-106.25
-108.97
-105.50
-94.91
-77.59
-55.12
-29.86
-4.32
19.40
39.92
56.54
68.96
77.08
80.86
80.44
76.33
69.44
60.99
52.24
44.21
37.58
32.63
29.35
27.53
26.80
26.66
26.53
25.85
24.25
21.59
17.91
13.37
8.03
1.95
-4.88
-12.36
-20.27
-28.35
-36.29
-43.90
-51.09
-57.90
-64.44
-70.92
-77.68
-85.07
-93.38
-102.49
-111.62
-119.23
-123.23
-121.57
-112.83
-96.81
-74.56
-48.15
-20.02
7.59
32.96
54.95
72.86
86.24
94.80
98.52
97.84
93.60
86.98
79.23
71.40
64.19
57.95
52.75
48.60
45.47
43.33
42.05
41.33
40.70
39.56
37.41
33.93
29.11
23.22
16.66
9.73
2.56
-4.91
-12.84
-21.24
-29.86
-38.24
-45.86
-52.35
-57.67
-62.13
-66.28
-70.80
-76.32
-83.33
-91.84
-101.22
-110.08
-116.33
-117.65
-112.20
-99.25
-79.45
-54.62
-27.24
0.27
26.05
48.86
68.01
83.07
93.77
100.05
102.15
100.69
96.60
90.90
84.47
77.94
71.65
65.75
60.39
55.71
51.92
49.17
47.42
46.47
45.86
45.01
43.34
40.44
36.21
30.85
24.80
18.57
12.46
6.52
0.52
-5.92
-13.05
-20.89
-29.16
-37.38
-45.05
-51.90
-57.92
-63.46
-69.10
-75.55
-83.31
-92.49
-102.45
-111.79
-118.47
-120.34
-115.72
-103.92
-85.48
-61.99
-35.70
-8.92
16.38
38.80
57.50
72.03
82.15
87.77
89.01
86.29
80.44
72.64
64.13
56.07
49.17
43.69
39.52
36.38
33.98
32.11
30.59
29.22
27.72
25.82
23.29
20.00
15.92
11.07
5.47
-0.79
-7.63
-14.82
-22.10
-29.15
-35.74
-41.80
-47.51
-53.25
-59.53
-66.74
-74.97
-83.70
-91.80
-97.61
-99.29
-95.38
-85.21
-69.16
-48.55
-25.32
-1.49
21.12
41.08
57.33
69.11
75.93
77.67
74.72
68.03
59.00
49.14
39.81
31.92
25.82
21.47
18.54
16.64
15.34
14.30
13.19
11.75
9.77
7.13
3.80
-0.26
-5.05
-10.59
-16.82
-23.57
-30.57
-37.57
-44.45
-51.27
-58.39
-66.26
-75.32
-85.73
-97.19
-108.78
-118.93
-125.62
-126.83
-121.08
-107.85
-87.87
-62.86
-35.11
-6.99
19.59
43.23
63.07
78.55
89.32
95.24
96.51
93.71
87.83
80.12
71.83
63.95
57.10
51.49
47.09
43.71
41.18
39.32
37.92
36.69
35.28
33.28
30.31
26.05
20.36
13.26
5.00
-3.95
-13.01
-21.70
-29.69
-36.95
-43.74
-50.46
-57.57
-65.50
-74.55
-84.73
-95.50
-105.65
-113.33
-116.30
-112.61
-101.19
-82.28
-57.41
-29.05
0.09
27.60
51.81
71.74
87.02
97.59
103.56
105.17
102.87
97.41
89.80
81.16
72.52
64.69
58.09
52.81
48.74
45.61
43.17
41.17
39.39
37.64
35.68
33.24
30.05
25.86
20.54
14.14
6.87
-0.89
-8.78
-16.50
-23.89
-30.92
-37.68
-44.36
-51.19
-58.53
-66.74
-76.11
-86.45
-96.96
-106.03
-111.47
-111.13
-103.51
-88.38
-66.85
-41.15
-13.86
12.60
36.47
56.65
72.50
83.65
89.90
91.33
88.48
82.34
74.21
65.41
56.98
49.52
43.25
38.14
34.10
31.05
28.91
27.54
26.68
25.90
24.69
22.54
19.06
14.09
7.79
0.60
-6.89
-14.13
-20.79
-26.94
-32.92
-39.27
-46.53
-55.01
-64.66
-74.93
-84.71
-92.43
-96.28
-94.66
-86.57
-72.06
-52.22
-28.93
-4.45
19.10
40.05
57.21
69.82
77.44
79.92
77.55
71.12
61.90
51.35
40.92
31.64
24.03
18.16
13.79
10.67
8.66
7.61
7.30
7.30
6.93
5.40
2.08
-3.27
-10.39
-18.62
-27.12
-35.17
-42.42
-48.97
-55.28
-62.06
-70.02
-79.63
-90.81
-102.66
-113.47
-120.86
-122.43
-116.37
-102.14
-80.64
-53.98
-24.92
3.92
30.53
53.68
72.71
87.28
97.09
101.94
101.88
97.43
89.61
79.85
69.63
60.16
52.18
45.88
41.00
37.18
34.05
31.44
29.31
27.59
26.05
24.26
21.62
17.56
11.82
4.52
-3.84
-12.58
-21.08
-28.96
-36.17
-42.99
-49.91
-57.50
-66.29
-76.55
-88.05
-99.87
-110.35
-117.28
-118.40
-112.05
-97.68
-76.10
-49.30
-19.94
9.33
36.34
59.66
78.51
92.58
101.81
106.27
106.26
102.35
95.43
86.64
77.20
68.21
60.42
54.16
49.38
45.73
42.80
40.30
38.12
36.27
34.70
33.14
31.11
28.02
23.39
17.09
9.33
0.62
-8.42
-17.25
-25.57
-33.28
-40.53
-47.62
-55.01
-63.22
-72.61
-83.19
-94.28
-104.42
-111.50
-113.28
-108.02
-95.11
-75.22
-50.26
-22.71
4.92
30.60
52.93
71.02
84.33
92.54
95.59
93.86
88.17
79.77
70.07
60.39
51.62
44.15
37.98
32.90
28.75
25.48
23.16
21.72
20.81
19.80
17.94
14.69
9.89
3.84
-2.94
-9.89
-16.69
-23.29
-29.86
-36.70
-44.22
-52.81
-62.70
-73.68
-84.85
-94.48
-100.40
-100.52
-93.55
-79.47
-59.56
-35.96
-11.11
12.94
34.64
52.99
67.29
76.94
81.57
81.12
76.09
67.59
57.16
46.42
36.66
28.63
22.46
17.90
14.59
12.27
10.79
10.02
9.66
9.14
7.70
4.67
-0.34
-7.20
-15.32
-23.84
-31.98
-39.28
-45.81
-52.05
-58.78
-66.75
-76.40
-87.65
-99.67
-110.97
-119.51
-123.14
-120.01
-109.14
-90.73
-66.18
-37.80
-8.22
20.12
45.42
66.58
83.03
94.56
101.08
102.72
99.92
93.59
85.00
75.60
66.63
58.83
52.39
47.03
42.34
38.05
34.12
30.70
27.91
25.69
23.65
21.19
17.66
12.64
6.03
-1.84
-10.31
-18.66
-26.34
-33.22
-39.59
-46.07
-53.41
-62.18
-72.59
-84.30
-96.32
-106.98
-114.16
-115.68
-109.92
-96.27
-75.41
-49.20
-20.17
9.05
36.25
59.86
78.97
93.16
102.35
106.75
106.81
103.22
96.84
88.69
79.80
71.12
63.42
57.17
52.49
49.21
46.98
45.36
43.97
42.49
40.70
38.42
35.45
31.59
26.69
20.68
13.68
5.95
-2.15
-10.30
-18.24
-25.84
-33.08
-40.04
-46.89
-53.95
-61.67
-70.52
-80.74
-92.04
-103.37
-112.91
-118.39
-117.67
-109.41
-93.44
-70.88
-43.88
-15.03
13.21
38.87
60.62
77.65
89.53
96.10
97.51
94.33
87.57
78.58
68.81
59.49
51.38
44.71
39.29
34.81
31.05
27.98
25.70
24.19
23.14
21.95
19.86
16.28
10.97
4.23
-3.31
-10.90
-18.07
-24.68
-31.09
-37.83
-45.50
-54.45
-64.62
-75.37
-85.51
-93.40
-97.24
-95.49
-87.25
-72.60
-52.58
-28.96
-3.87
20.59
42.58
60.69
73.88
81.56
83.62
80.55
73.35
63.42
52.28
41.26
31.33
23.01
16.47
11.65
8.40
6.48
5.57
5.19
4.68
3.40
0.76
-3.52
-9.32
-16.23
-23.63
-31.00
-38.02
-44.77
-51.59
-59.04
-67.65
-77.70
-88.96
-100.46
-110.51
-116.83
-117.20
-110.02
-94.90
-72.84
-45.98
-17.07
11.21
36.78
58.27
74.98
86.61
93.09
94.61
91.66
85.09
76.10
66.04
56.13
47.25
39.85
33.98
29.52
26.23
23.89
22.30
21.07
19.66
17.47
14.00
8.97
2.47
-5.15
-13.38
-21.77
-30.07
-38.30
-46.80
-56.09
-66.65
-78.55
-91.20
-103.10
-112.07
-115.78
-112.37
-101.11
-82.65
-58.70
-31.58
-3.57
23.42
47.96
68.93
85.47
96.91
102.97
103.90
100.53
94.04
85.73
76.69
67.67
59.06
51.11
44.07
38.20
33.72
30.66
28.75
27.37
25.72
23.02
18.75
12.82
5.52
-2.54
-10.72
-18.55
-25.91
-33.08
-40.63
-49.23
-59.32
-70.83
-82.92
-93.97
-101.82
-104.25
-99.60
-87.26
-67.99
-43.68
-16.90
9.75
34.11
54.74
70.87
82.20
88.68
90.54
88.26
82.67
74.84
65.96
57.01
48.71
41.39
35.16
30.06
26.10
23.28
21.50
20.40
19.41
17.77
14.86
10.33
4.22
-3.02
-10.80
-18.55
-25.95
-33.00
-39.97
-47.36
-55.67
-65.25
-75.99
-87.10
-96.93
-103.30
-104.00
-97.49
-83.50
-63.17
-38.67
-12.53
12.97
36.25
56.26
72.28
83.67
89.91
90.79
86.74
78.87
68.71
57.89
47.67
38.80
31.60
26.11
22.20
19.66
18.13
17.03
15.66
13.34
9.62
4.41
-2.04
-9.28
-16.79
-24.26
-31.65
-39.21
-47.44
-56.83
-67.57
-79.31
-90.92
-100.56
-106.02
-105.33
-97.24
-81.78
-60.20
-34.67
-7.78
18.06
40.97
59.70
73.56
82.27
85.86
84.73
79.67
71.81
62.45
52.81
43.77
35.84
29.24
24.03
20.20
17.59
15.91
14.60
13.01
10.53
6.80
1.81
-4.18
-10.76
-17.57
-24.41
-31.24
-38.22
-45.66
-53.92
-63.37
-74.03
-85.39
-96.21
-104.54
-108.20
-105.26
-94.76
-76.98
-53.46
-26.49
1.46
28.22
52.21
72.38
88.02
98.70
104.24
104.86
101.27
94.63
86.30
77.52
69.12
61.46
54.55
48.23
42.49
37.52
33.60
30.88
29.15
27.75
25.79
22.45
17.32
10.59
2.90
-4.88
-12.12
-18.65
-24.77
-31.12
-38.44
-47.28
-57.81
-69.60
-81.52
-91.74
-98.04
-98.27
-91.03
-76.17
-54.85
-29.26
-2.05
24.38
48.20
68.22
83.78
94.48
100.19
101.05
97.53
90.53
81.29
71.16
61.36
52.70
45.50
39.65
34.76
30.53
26.79
23.65
21.16
19.21
17.34
14.86
11.11
5.77
-0.99
-8.57
-16.24
-23.45
-30.02
-36.19
-42.47
-49.39
-57.48
-67.01
-77.91
-89.60
-100.85
-109.82
-114.35
-112.55
-103.34
-86.92
-64.68
-38.93
-12.14
13.45
36.17
54.91
68.92
77.79
81.43
80.18
74.87
66.69
56.96
46.87
37.29
28.76
21.58
15.90
11.77
9.10
7.62
6.87
6.24
5.12
3.01
-0.33
-4.88
-10.31
-16.19
-22.06
-27.68
-33.09
-38.64
-44.92
-52.46
-61.45
-71.43
-81.14
-88.65
-91.85
-88.97
-79.17
-62.80
-41.36
-17.10
7.53
30.33
49.64
64.39
74.09
78.65
78.39
73.98
66.40
56.91
46.80
37.20
28.90
22.25
17.25
13.64
11.10
9.29
7.87
6.54
4.90
2.64
-0.48
-4.52
-9.32
-14.58
-19.96
-25.26
-30.59
-36.35
-43.21
-51.80
-62.36
-74.33
-86.22
-95.81
-100.68
-98.92
-89.71
-73.55
-52.09
-27.60
-2.42
21.51
42.74
60.28
73.50
82.02
85.80
85.17
80.86
73.91
65.40
56.27
47.12
38.22
29.63
21.43
13.78
7.02
1.52
-2.52
-5.21
-7.06
-8.83
-11.26
-14.84
-19.64
-25.32
-31.34
-37.14
-42.42
-47.26
-52.12
-57.68
-64.66
-73.42
-83.70
-94.38
-103.62
-109.15
-108.87
-101.50
-86.94
-66.38
-41.91
-15.96
9.29
32.29
52.11
68.26
80.39
88.15
91.26
89.78
84.24
75.76
65.82
55.83
46.83
39.31
33.30
28.66
25.25
23.07
22.09
22.17
22.83
23.39
23.09
21.39
18.06
13.27
7.45
1.10
-5.36
-11.68
-17.78
-23.81
-30.06
-36.97
-45.02
-54.60
-65.64
-77.34
-88.12
-95.70
-97.81
-92.79
-80.18
-60.93
-37.05
-11.07
14.54
37.82
57.36
72.33
82.29
87.18
87.31
83.36
76.35
67.46
57.86
48.51
40.04
32.77
26.75
21.90
18.09
15.18
13.05
11.46
10.05
8.41
6.13
2.95
-1.20
-6.16
-11.70
-17.59
-23.78
-30.39
-37.74
-46.06
-55.26
-64.72
-73.16
-78.84
-79.97
-75.24
-64.31
-47.95
-27.82
-6.07
15.22
34.34
50.13
61.87
69.21
72.06
70.66
65.60
57.79
48.33
38.33
28.71
20.10
12.80
6.90
2.38
-0.88
-3.10
-4.64
-5.93
-7.47
-9.68
-12.77
-16.69
-21.26
-26.24
-31.50
-37.15
-43.46
-50.84
-59.54
-69.44
-79.77
-89.05
-95.29
-96.42
-90.93
-78.39
-59.65
-36.60
-11.64
12.91
35.26
54.27
69.30
80.04
86.31
88.22
86.14
80.81
73.20
64.34
55.08
46.07
37.71
30.31
24.10
19.27
15.86
13.66
12.17
10.72
8.64
5.49
1.25
-3.81
-9.20
-14.50
-19.58
-24.62
-30.13
-36.75
-44.95
-54.79
-65.63
-76.03
-83.97
-87.32
-84.37
-74.45
-58.07
-36.80
-12.83
11.56
34.49
54.55
70.82
82.73
90.06
92.88
91.64
87.08
80.16
71.88
63.14
54.63
46.84
40.00
34.24
29.60
26.09
23.66
22.09
20.95
19.63
17.48
14.02
9.13
3.12
-3.42
-9.85
-15.73
-21.03
-26.08
-31.56
-38.17
-46.44
-56.41
-67.41
-78.06
-86.40
-90.33
-88.13
-79.04
-63.50
-43.06
-19.97
3.36
24.90
43.24
57.60
67.67
73.38
74.90
72.59
67.10
59.36
50.46
41.43
33.07
25.84
19.86
15.06
11.32
8.48
6.44
4.96
3.77
2.43
0.54
-2.18
-5.82
-10.28
-15.36
-20.90
-26.89
-33.53
-41.11
-49.75
-59.16
-68.36
-75.77
-79.48
-77.83
-69.95
-56.10
-37.61
-16.56
4.76
24.40
40.95
53.57
61.81
65.53
64.86
60.26
52.63
43.20
33.34
24.25
16.73
11.04
7.01
4.24
2.24
0.58
-1.06
-2.95
-5.31
-8.24
-11.76
-15.75
-20.08
-24.69
-29.67
-35.33
-42.04
-50.06
-59.27
-68.96
-77.75
-83.82
-85.28
-80.76
-69.80
-53.11
-32.37
-9.81
12.36
32.35
48.99
61.67
70.12
74.32
74.39
70.75
64.14
55.60
46.29
37.21
29.05
22.13
16.54
12.24
9.13
7.00
5.51
4.14
2.39
-0.08
-3.34
-7.13
-11.18
-15.33
-19.64
-24.43
-30.08
-36.95
-45.19
-54.63
-64.68
-74.22
-81.60
-84.99
-82.79
-74.19
-59.43
-39.84
-17.38
5.79
27.81
47.29
63.28
75.14
82.54
85.44
84.20
79.55
72.53
64.25
55.65
47.40
39.84
33.14
27.39
22.72
19.26
17.06
15.93
15.43
14.90
13.68
11.30
7.66
2.97
-2.34
-7.81
-13.18
-18.42
-23.77
-29.64
-36.53
-44.83
-54.55
-65.11
-75.17
-82.81
-85.91
-82.81
-72.85
-56.64
-35.91
-12.95
10.00
31.19
49.45
64.12
74.76
81.15
83.27
81.50
76.66
69.83
62.12
54.40
47.16
40.55
34.56
29.24
24.77
21.41
19.32
18.35
17.97
17.39
15.82
12.74
8.09
2.22
-4.27
-10.80
-17.09
-23.17
-29.41
-36.36
-44.46
-53.83
-64.00
-73.82
-81.55
-85.25
-83.33
-75.04
-60.74
-41.84
-20.40
1.34
21.49
38.65
52.01
61.17
66.07
66.90
64.07
58.22
50.15
40.83
31.25
22.34
14.81
9.02
4.95
2.19
0.14
-1.75
-3.84
-6.19
-8.73
-11.30
-13.91
-16.70
-19.93
-23.82
-28.55
-34.16
-40.74
-48.25
-56.39
-64.42
-71.05
-74.55
-73.29
-66.29
-53.59
-36.41
-16.74
3.18
21.42
36.69
48.28
55.98
59.80
59.87
56.51
50.26
41.93
32.59
23.34
15.15
8.62
3.92
0.82
-1.21
-2.79
-4.46
-6.57
-9.21
-12.36
-15.89
-19.75
-23.97
-28.75
-34.41
-41.25
-49.53
-59.12
-69.41
-79.20
-86.81
-90.35
-88.26
-79.73
-65.02
-45.46
-23.09
-0.20
21.14
39.41
53.73
63.75
69.50
71.25
69.38
64.40
56.95
47.83
38.03
28.57
20.31
13.69
8.72
4.97
1.87
-1.06
-4.00
-6.92
-9.66
-12.19
-14.63
-17.28
-20.50
-24.57
-29.73
-36.19
-44.06
-53.22
-63.10
-72.42
-79.34
-81.84
-78.31
-68.13
-51.89
-31.23
-8.35
14.51
35.52
53.36
67.24
76.77
81.96
83.12
80.90
76.13
69.71
62.43
54.93
47.71
41.09
35.37
30.67
26.98
24.11
21.67
19.21
16.35
12.88
8.79
4.24
-0.57
-5.53
-10.69
-16.27
-22.65
-30.20
-39.19
-49.53
-60.60
-71.10
-79.18
-82.74
-80.09
-70.49
-54.46
-33.72
-10.70
12.12
32.75
49.93
63.05
71.95
76.64
77.34
74.46
68.69
60.99
52.41
43.96
36.41
30.17
25.33
21.75
19.14
17.15
15.42
13.61
11.43
8.68
5.28
1.32
-3.01
-7.52
-12.13
-17.02
-22.57
-29.26
-37.42
-46.93
-57.03
-66.31
-72.91
-75.02
-71.38
-61.66
-46.64
-27.95
-7.72
12.01
29.61
44.03
54.73
61.46
64.13
62.87
58.07
50.50
41.28
31.72
23.00
15.89
10.65
6.98
4.37
2.26
0.26
-1.78
-3.85
-5.89
-7.95
-10.17
-12.79
-16.10
-20.37
-25.81
-32.56
-40.59
-49.56
-58.68
-66.69
-71.98
-72.96
-68.53
-58.43
-43.43
-25.08
-5.25
14.25
31.98
46.94
58.41
65.82
68.77
67.17
61.37
52.34
41.44
30.25
20.12
11.99
6.23
2.71
0.92
0.19
-0.18
-0.77
-1.97
-3.94
-6.61
-9.73
-13.03
-16.48
-20.36
-25.34
-32.21
-41.48
-53.00
-65.61
-77.33
-85.69
-88.45
-84.20
-72.74
-55.09
-33.17
-9.28
14.33
35.78
53.71
67.28
76.09
80.15
79.86
75.94
69.44
61.53
53.33
45.79
39.45
34.48
30.70
27.82
25.57
23.74
22.21
20.77
19.05
16.47
12.45
6.69
-0.66
-8.96
-17.34
-25.10
-32.05
-38.66
-45.87
-54.57
-65.10
-76.82
-88.07
-96.53
-99.90
-96.61
-86.21
-69.52
-48.29
-24.74
-1.10
20.61
38.79
52.32
60.74
64.28
63.94
61.18
57.53
54.15
51.55
49.66
48.04
46.33
44.44
42.59
41.16
40.50
40.70
41.55
42.57
42.99
41.93
38.53
32.24
23.05
11.59
-1.02
-13.56
-25.20
-35.73
-45.38
-54.37
-62.32
-67.87
-68.76
-62.24
-45.60
-16.69
25.61
80.90
146.84
219.02
291.17
356.17
407.45
440.39
453.18
446.82
424.40
389.97
347.65
301.01
252.85
205.16
159.14
115.09
72.53
30.27
-13.30
-59.65
-109.50
-162.16
-215.16
-264.56
-306.00
-335.98
-353.09
-358.25
-354.17
-344.15
-330.90
-316.05
-300.30
-284.14
-268.34
-254.07
-242.52
-234.39
-229.44
-226.51
-223.69
-218.80
-209.86
-195.55
-175.55
-150.55
-121.95
-91.57
-61.13
-32.13
-5.81
16.74
34.58
46.99
53.82
55.59
53.49
49.06
43.80
38.84
34.81
31.88
30.00
29.03
28.83
29.21
29.85
30.31
30.11
28.84
26.31
22.58
17.90
12.58
6.90
0.95
-5.32
-12.12
-19.76
-28.43
-37.98
-47.67
-56.16
-61.68
-62.46
-57.28
-45.92
-29.24
-8.98
12.66
33.62
52.19
67.26
78.20
84.79
87.11
85.51
80.61
73.24
64.39
55.12
46.37
38.85
32.94
28.73
25.98
24.26
23.08
21.93
20.40
18.16
15.02
10.91
5.95
0.39
-5.42
-11.17
-16.79
-22.48
-28.71
-35.98
-44.54
-54.03
-63.37
-70.80
-74.35
-72.37
-64.10
-49.92
-31.23
-10.09
11.39
31.49
49.03
63.35
74.08
80.94
83.83
82.86
78.54
71.78
63.75
55.53
47.89
41.19
35.47
30.65
26.74
23.85
22.08
21.29
21.04
20.58
19.13
16.15
11.54
5.69
-0.75
-7.12
-13.05
-18.60
-24.27
-30.77
-38.69
-48.17
-58.64
-68.77
-76.67
-80.32
-78.02
-68.77
-52.59
-30.63
-5.06
21.31
45.60
65.48
79.63
87.87
90.91
89.86
85.80
79.57
71.87
63.37
54.78
46.86
40.13
34.85
30.90
28.01
25.82
24.03
22.38
20.59
18.43
15.69
12.28
8.25
3.71
-1.17
-6.25
-11.50
-17.03
-23.10
-30.06
-38.11
-47.02
-55.88
-63.15
-66.95
-65.63
-58.37
-45.45
-28.22
-8.66
11.15
29.52
45.25
57.61
66.20
70.79
71.45
68.51
62.71
55.01
46.48
38.09
30.54
24.27
19.41
15.87
13.35
11.43
9.64
7.61
5.11
2.14
-1.22
-4.83
-8.63
-12.71
-17.25
-22.55
-28.92
-36.58
-45.48
-55.13
-64.49
-71.99
-75.85
-74.54
-67.25
-54.26
-36.85
-17.03
3.04
21.49
37.02
48.98
57.13
61.48
62.17
59.44
53.70
45.66
36.28
26.62
17.66
10.14
4.37
0.28
-2.50
-4.57
-6.49
-8.78
-11.78
-15.64
-20.36
-25.80
-31.71
-37.77
-43.64
-49.15
-54.37
-59.71
-65.75
-72.89
-80.94
-88.84
-94.66
-96.09
-91.19
-79.08
-60.33
-36.82
-11.21
13.86
36.30
54.89
69.14
79.08
84.93
87.01
85.70
81.56
75.28
67.70
59.63
51.75
44.52
38.15
32.70
28.11
24.28
21.04
18.19
15.50
12.69
9.54
5.91
1.76
-2.80
-7.58
-12.46
-17.42
-22.71
-28.74
-35.98
-44.52
-53.81
-62.46
-68.41
-69.53
-64.29
-52.35
-34.75
-13.55
8.74
29.84
48.14
62.73
73.22
79.55
81.88
80.59
76.33
70.02
62.62
54.96
47.56
40.66
34.36
28.75
23.97
20.15
17.28
15.07
13.03
10.61
7.40
3.25
-1.68
-7.11
-12.70
-18.26
-23.75
-29.31
-35.23
-41.89
-49.60
-58.43
-67.80
-76.42
-82.41
-83.72
-78.86
-67.40
-50.24
-29.31
-7.05
14.26
32.92
47.94
58.91
65.77
68.62
67.77
63.70
57.19
49.17
40.58
32.24
24.69
18.17
12.63
7.93
3.87
0.30
-2.85
-5.67
-8.22
-10.68
-13.26
-16.20
-19.69
-23.88
-28.84
-34.67
-41.43
-49.13
-57.54
-65.93
-72.98
-76.92
-75.98
-68.90
-55.50
-36.87
-15.05
7.46
28.37
46.10
59.76
68.99
73.69
73.80
69.47
61.25
50.27
38.15
26.64
17.11
10.24
5.84
3.14
1.13
-0.99
-3.62
-6.86
-10.59
-14.69
-19.11
-23.80
-28.69
-33.69
-38.83
-44.39
-50.82
-58.58
-67.72
-77.53
-86.41
-92.17
-92.61
-86.25
-72.88
-53.63
-30.66
-6.55
16.38
36.45
52.69
64.71
72.44
75.97
75.58
71.77
65.33
57.28
48.66
40.36
32.92
26.59
21.33
17.06
13.64
10.98
8.91
7.17
5.46
3.46
0.98
-2.04
-5.52
-9.41
-13.72
-18.70
-24.69
-32.04
-40.88
-50.87
-61.05
-69.89
-75.50
-76.05
-70.29
-57.93
-39.83
-17.85
5.62
28.16
47.80
63.30
74.15
80.37
82.37
80.74
76.17
69.41
61.24
52.37
43.44
34.99
27.44
21.10
16.20
12.78
10.67
9.44
8.51
7.23
5.15
2.05
-1.95
-6.49
-11.19
-15.78
-20.22
-24.73
-29.77
-35.82
-43.21
-51.86
-61.04
-69.36
-74.89
-75.69
-70.37
-58.56
-41.12
-19.96
2.49
23.84
42.21
56.50
66.31
71.79
73.39
71.67
67.24
60.72
52.80
44.19
35.66
27.87
21.28
16.11
12.25
9.41
7.19
5.30
3.45
1.53
-0.58
-2.97
-5.76
-9.08
-13.07
-17.86
-23.54
-30.22
-37.95
-46.63
-55.82
-64.56
-71.37
-74.54
-72.58
-64.76
-51.44
-34.06
-14.66
4.61
21.99
36.37
47.16
54.17
57.39
56.98
53.33
47.12
39.20
30.56
22.01
14.10
7.15
1.31
-3.37
-6.90
-9.42
-11.28
-12.96
-14.88
-17.28
-20.17
-23.34
-26.59
-29.88
-33.30
-37.08
-41.46
-46.65
-52.77
-59.78
-67.21
-74.00
-78.46
-78.62
-72.86
-60.57
-42.53
-20.72
2.26
23.96
42.54
56.98
66.94
72.48
73.87
71.53
66.08
58.31
49.15
39.53
30.24
21.86
14.66
8.64
3.66
-0.54
-4.19
-7.47
-10.50
-13.40
-16.23
-19.07
-21.98
-25.01
-28.30
-32.08
-36.67
-42.45
-49.66
-58.21
-67.56
-76.56
-83.58
-86.86
-84.89
-76.87
-62.96
-44.36
-22.98
-0.96
19.70
37.52
51.59
61.60
67.64
70.01
69.15
65.52
59.69
52.37
44.50
37.07
30.99
26.86
24.73
24.27
24.85
25.78
26.48
26.56
25.75
23.95
21.18
17.60
13.49
9.15
4.75
0.26
-4.47
-9.77
-15.85
-22.73
-29.92
-36.36
-40.47
-40.43
-34.82
-23.10
-5.98
14.71
36.51
57.06
74.61
88.18
97.39
102.18
102.52
98.49
90.44
79.13
65.77
51.73
38.24
26.13
15.75
6.99
-0.43
-6.85
-12.47
-17.39
-21.66
-25.37
-28.74
-32.02
-35.40
-39.05
-43.01
-47.36
-52.21
-57.80
-64.26
-71.42
-78.49
-84.12
-86.58
-84.30
-76.42
-63.08
-45.50
-25.54
-5.27
13.53
29.63
42.22
50.78
54.96
54.63
50.06
42.12
32.13
21.64
11.97
3.98
-2.12
-6.62
-10.06
-12.95
-15.67
-18.34
-20.91
-23.29
-25.44
-27.45
-29.56
-32.13
-35.58
-40.29
-46.53
-54.25
-62.91
-71.37
-77.93
-80.68
-78.03
-69.24
-54.75
-36.02
-15.17
5.66
24.70
40.75
53.04
61.14
64.87
64.37
60.13
53.04
44.20
34.78
25.74
17.77
11.16
5.91
1.78
-1.57
-4.52
-7.33
-10.12
-12.88
-15.57
-18.20
-20.91
-23.98
-27.79
-32.76
-39.16
-46.99
-55.69
-64.13
-70.59
-73.14
-70.15
-60.88
-45.72
-26.18
-4.43
17.25
36.98
53.53
66.20
74.75
79.12
79.45
76.06
69.54
60.83
51.07
41.49
33.06
26.36
21.49
18.06
15.50
13.24
10.92
8.43
5.84
3.25
0.67
-2.09
-5.32
-9.36
-14.51
-20.96
-28.78
-37.75
-47.27
-56.19
-62.95
-65.77
-63.21
-54.58
-40.28
-21.73
-0.97
19.86
38.93
54.98
67.24
75.32
79.03
78.44
73.94
66.29
56.65
46.36
36.71
28.68
22.70
18.69
16.09
14.22
12.48
10.58
8.50
6.39
4.34
2.26
-0.10
-3.10
-7.01
-12.02
-18.15
-25.29
-33.14
-41.03
-47.87
-52.23
-52.64
-48.06
-38.24
-23.90
-6.53
11.96
29.72
45.24
57.49
65.75
69.66
69.03
64.03
55.28
43.89
31.38
19.37
9.15
1.39
-4.03
-7.77
-10.75
-13.72
-16.98
-20.43
-23.79
-26.85
-29.66
-32.54
-35.90
-40.16
-45.64
-52.54
-60.78
-69.87
-78.63
-85.31
-87.90
-84.76
-75.20
-59.80
-40.22
-18.70
2.63
22.10
38.59
51.45
60.21
64.60
64.65
60.80
53.92
45.19
35.88
27.09
19.60
13.73
9.36
5.99
3.06
0.08
-3.09
-6.25
-9.05
-11.17
-12.56
-13.56
-14.80
-17.01
-20.86
-26.74
-34.57
-43.76
-53.06
-60.73
-64.85
-63.78
-56.66
-43.59
-25.63
-4.52
17.66
38.87
57.30
71.61
80.95
85.12
84.51
79.97
72.59
63.36
53.09
42.41
31.82
21.84
12.87
5.14
-1.45
-7.24
-12.71
-18.15
-23.64
-28.99
-33.98
-38.61
-43.23
-48.53
-55.29
-64.19
-75.47
-88.83
-103.33
-117.40
-129.16
-136.71
-138.63
-134.29
-124.05
-109.08
-91.09
-71.89
-53.12
-36.09
-21.78
-10.90
-3.88
-0.79
-1.28
-4.51
-9.19
-13.66
-16.18
-15.15
-9.41
1.66
18.29
40.57
68.76
103.37
144.90
193.36
247.69
305.41
362.63
414.47
455.85
482.36
491.23
481.83
455.90
417.12
370.25
320.03
270.23
223.15
179.61
139.35
101.55
65.06
28.53
-9.51
-50.29
-94.07
-139.43
-183.12
-220.79
-248.42
-263.87
-267.65
-262.62
-252.75
-241.56
-231.05
-221.60
-212.62
-203.40
-193.75
-183.98
-174.64
-166.05
-158.21
-151.01
-144.48
-138.96
-135.13
-133.66
-134.72
-137.55
-140.28
-140.32
-135.08
-122.98
-104.03
-79.81
-52.99
-26.33
-1.96
18.90
35.81
48.57
57.02
60.89
60.18
55.41
47.73
38.74
30.03
22.79
17.48
13.92
11.51
9.55
7.62
5.63
3.76
2.19
0.91
-0.44
-2.40
-5.53
-10.20
-16.44
-24.03
-32.46
-40.96
-48.39
-53.36
-54.36
-50.18
-40.35
-25.35
-6.61
13.90
34.05
52.04
66.58
76.89
82.59
83.66
80.43
73.57
64.15
53.45
42.84
33.40
25.80
20.15
16.07
12.97
10.30
7.76
5.26
2.87
0.60
-1.70
-4.28
-7.44
-11.40
-16.33
-22.24
-29.06
-36.43
-43.60
-49.34
-52.10
-50.42
-43.44
-31.28
-15.05
3.41
22.02
39.00
53.01
63.23
69.17
70.61
67.66
60.85
51.19
40.13
29.21
19.75
12.44
7.34
3.89
1.31
-1.06
-3.55
-6.09
-8.42
-10.35
-11.94
-13.61
-15.95
-19.64
-25.16
-32.71
-42.13
-52.74
-63.33
-72.22
-77.42
-77.12
-70.16
-56.56
-37.55
-15.39
7.33
28.24
45.70
58.95
67.84
72.53
73.28
70.36
64.20
55.53
45.43
35.22
26.11
19.01
14.22
11.48
10.14
9.42
8.75
7.79
6.51
5.01
3.35
1.52
-0.66
-3.41
-7.04
-11.86
-18.18
-26.11
-35.36
-45.04
-53.61
-59.12
-59.74
-54.29
-42.70
-26.07
-6.42
13.86
32.49
47.76
58.68
64.92
66.69
64.52
59.17
51.50
42.38
32.71
23.29
14.79
7.72
2.33
-1.31
-3.37
-4.16
-4.09
-3.69
-3.49
-3.97
-5.41
-7.92
-11.37
-15.54
-20.24
-25.49
-31.47
-38.55
-47.00
-56.85
-67.58
-78.12
-86.95
-92.36
-92.89
-87.75
-77.01
-61.79
-43.97
-25.92
-10.00
1.87
8.55
9.92
6.78
0.51
-7.39
-15.81
-24.26
-32.83
-41.84
-51.43
-61.41
-71.18
-79.95
-86.87
-91.00
-91.29
-86.52
-75.44
-57.01
-30.67
3.70
46.03
96.34
154.68
220.51
291.76
364.06
430.86
484.70
519.22
531.26
521.81
495.54
459.03
418.47
378.00
339.25
302.01
265.47
229.25
193.66
159.22
126.19
93.99
61.49
27.44
-8.95
-47.88
-89.09
-132.12
-176.20
-219.90
-260.85
-295.88
-321.77
-336.38
-339.58
-333.28
-320.75
-305.42
-289.86
-275.48
-262.86
-252.25
-243.98
-238.36
-235.34
-234.06
-232.84
-229.52
-221.99
-208.80
-189.54
-164.96
-136.68
-106.69
-76.87
-48.62
-22.84
-0.16
18.83
33.47
43.18
47.76
47.59
43.73
37.68
31.09
25.29
21.07
18.55
17.25
16.45
15.40
13.62
10.97
7.61
3.89
0.11
-3.56
-7.17
-10.87
-14.92
-19.60
-25.19
-31.97
-40.04
-49.19
-58.60
-66.82
-71.93
-71.96
-65.55
-52.40
-33.45
-10.69
13.42
36.55
56.89
73.25
85.02
92.01
94.32
92.43
87.11
79.40
70.43
61.20
52.44
44.60
37.88
32.40
28.22
25.30
23.43
22.15
20.87
18.93
15.93
11.77
6.72
1.26
-4.17
-9.33
-14.31
-19.47
-25.32
-32.29
-40.60
-50.03
-59.76
-68.37
-73.94
-74.56
-68.81
-56.38
-38.26
-16.49
6.34
27.84
46.27
60.71
70.85
76.74
78.56
76.66
71.62
64.30
55.82
47.22
39.31
32.53
26.96
22.53
19.11
16.65
15.08
14.25
13.82
13.36
12.37
10.47
7.52
3.62
-0.92
-5.73
-10.51
-15.19
-19.92
-25.09
-31.09
-38.27
-46.50
-55.11
-62.75
-67.68
-68.19
-63.09
-52.18
-36.31
-17.14
3.23
22.81
39.94
53.50
62.80
67.51
67.66
63.67
56.36
46.92
36.75
27.15
19.11
13.11
9.16
6.85
5.61
4.90
4.31
3.56
2.44
0.84
-1.35
-4.15
-7.52
-11.36
-15.60
-20.30
-25.63
-31.88
-39.20
-47.46
-56.02
-63.69
-68.87
-69.93
-65.63
-55.56
-40.31
-21.33
-0.58
19.94
38.52
53.89
65.18
71.82
73.61
70.75
64.00
54.53
43.77
33.05
23.35
15.25
8.97
4.55
1.88
0.67
0.36
0.22
-0.55
-2.51
-5.77
-9.97
-14.51
-18.81
-22.67
-26.39
-30.58
-35.99
-43.13
-52.10
-62.33
-72.70
-81.47
-86.63
-86.16
-78.74
-64.16
-43.65
-19.59
5.08
27.70
46.51
60.76
70.48
76.04
77.78
76.03
71.22
64.13
55.80
