1626188199.00
64.000000
-0.00
-0.00
-0.00
-0.00
-0.00
-0.00
-0.00
-0.00
-0.00
-0.00
0.00
0.01
0.01
-0.00
-0.03
-0.05
-0.05
0.00
0.13
0.36
0.66
1.01
1.37
1.72
2.06
2.40
2.79
3.24
3.80
4.42
5.06
5.66
6.20
6.68
7.15
7.68
8.31
9.14
10.09
11.04
11.88
12.56
13.14
13.76
14.65
15.96
17.91
20.32
22.90
25.38
27.58
29.57
31.68
34.32
37.81
42.54
48.15
54.10
59.83
64.97
69.58
74.14
79.34
85.71
93.76
103.00
112.62
121.73
129.77
136.75
143.30
150.75
157.77
166.64
177.95
191.79
206.97
220.57
228.25
225.36
208.53
176.87
132.76
80.05
23.07
-34.94
-92.44
-149.16
-205.23
-260.37
-313.74
-363.87
-409.83
-450.91
-486.50
-515.74
-537.23
-549.22
-549.96
-538.37
-514.21
-478.67
-433.88
-382.45
-327.02
-269.84
-212.63
-156.66
-102.95
-52.37
-5.90
35.58
71.43
101.35
125.50
144.38
158.69
169.15
176.37
180.75
182.57
182.07
179.51
175.23
169.65
163.18
156.15
148.81
141.30
133.69
126.02
118.33
110.69
103.16
95.80
88.68
81.83
75.25
68.95
62.95
57.25
51.86
46.78
42.03
37.59
33.45
29.61
26.07
22.81
19.83
17.11
14.67
12.48
10.54
8.83
7.35
6.07
4.97
4.05
3.27
2.62
2.09
1.65
1.30
1.01
0.79
0.61
0.47
0.37
0.29
0.23
0.19
0.17
0.16
0.16
0.17
0.18
0.21
0.24
0.27
0.31
0.35
0.39
0.44
0.48
0.53
0.58
0.63
0.69
0.75
0.81
0.88
0.96
1.05
1.14
1.24
1.35
1.48
1.63
1.81
2.01
2.24
2.47
2.68
2.87
3.04
3.23
3.47
3.78
4.19
4.68
5.21
5.75
6.27
6.77
7.29
7.87
8.55
9.36
10.26
11.19
12.07
12.87
13.60
14.34
15.21
16.29
17.59
19.00
20.30
21.20
21.49
21.08
20.04
18.52
16.71
14.64
12.15
8.93
4.65
-0.77
-7.07
-13.66
-19.77
-24.74
-28.25
-30.51
-32.10
-33.78
-36.04
-38.91
-41.92
-44.30
-45.47
-45.24
-43.97
-42.43
-41.46
-41.72
-43.66
-47.45
-52.75
-58.38
-62.17
-61.41
-53.82
-38.80
-18.16
4.28
24.03
37.70
44.20
44.76
41.89
38.00
34.45
31.42
28.56
25.71
23.22
21.71
21.55
22.51
23.81
24.49
23.81
21.66
18.56
15.42
13.06
11.89
11.71
11.83
11.51
10.21
7.92
5.05
2.21
-0.05
-1.57
-2.54
-3.45
-4.84
-6.93
-9.72
-13.02
-16.51
-19.90
-23.03
-26.00
-29.03
-32.42
-36.34
-40.63
-44.80
-48.03
-49.36
-47.97
-43.33
-35.42
-24.67
-11.94
1.68
15.04
27.15
37.30
45.10
50.49
53.63
54.76
54.19
52.23
49.29
45.84
42.34
39.20
36.53
34.27
32.19
30.09
27.89
25.64
23.49
21.54
19.71
17.82
15.68
13.17
10.38
7.54
4.91
2.64
0.70
-1.09
-2.99
-5.19
-7.81
-10.80
-14.04
-17.41
-20.78
-24.09
-27.30
-30.54
-33.97
-37.84
-42.27
-47.12
-51.89
-55.75
-57.80
-57.19
-53.50
-46.73
-37.35
-26.15
-14.09
-2.11
8.94
18.37
25.66
30.55
33.02
33.35
32.04
29.77
27.19
24.83
22.96
21.61
20.63
19.83
19.05
18.21
17.29
16.26
15.05
13.57
11.67
9.19
6.07
2.28
-2.06
-6.74
-11.49
-16.11
-20.44
-24.46
-28.25
-31.95
-35.73
-39.75
-44.13
-48.80
-53.51
-57.62
-60.31
-60.65
-57.92
-51.88
-42.78
-31.34
-18.55
-5.40
7.26
18.78
28.66
36.54
42.17
45.45
46.50
45.68
43.54
40.73
37.86
35.34
33.33
31.69
30.19
28.62
26.89
25.08
23.31
21.67
20.05
18.23
15.87
12.71
8.60
3.61
-2.01
-7.92
-13.80
-19.39
-24.61
-29.52
-34.38
-39.54
-45.29
-51.74
-58.69
-65.52
-71.32
-75.04
-75.68
-72.59
-65.58
-54.94
-41.40
-25.98
-9.75
6.24
21.10
34.14
44.86
53.01
58.53
61.64
62.73
62.30
60.89
58.89
56.57
54.09
51.53
48.98
46.51
44.18
41.96
39.75
37.42
34.84
31.92
28.63
25.02
21.17
17.12
12.93
8.58
4.03
-0.75
-5.69
-10.66
-15.48
-20.01
-24.33
-28.63
-33.23
-38.40
-44.30
-50.84
-57.77
-64.61
-70.71
-75.25
-77.27
-75.88
-70.51
-61.17
-48.47
-33.51
-17.55
-1.67
13.36
27.02
38.95
48.78
56.13
60.76
62.73
62.48
60.68
58.13
55.42
52.95
50.83
49.04
47.49
46.13
44.90
43.72
42.50
41.09
39.35
37.15
34.44
31.18
27.37
23.09
18.45
13.63
8.82
4.20
-0.19
-4.40
-8.55
-12.80
-17.19
-21.62
-25.92
-29.92
-33.57
-36.98
-40.47
-44.40
-49.06
-54.56
-60.71
-67.03
-72.85
-77.30
-79.50
-78.68
-74.26
-66.02
-54.21
-39.54
-23.09
-6.11
10.21
24.92
37.40
47.35
54.72
59.60
62.19
62.78
61.74
59.46
56.39
52.92
49.44
46.25
43.54
41.44
39.94
38.91
38.12
37.28
36.07
34.28
31.76
28.50
24.62
20.36
15.95
11.65
7.60
3.80
0.18
-3.41
-7.10
-10.96
-15.03
-19.33
-23.87
-28.64
-33.69
-39.00
-44.57
-50.31
-55.91
-60.85
-64.34
-65.50
-63.64
-58.45
-50.12
-39.31
-26.92
-13.89
-1.03
11.01
21.64
30.35
36.66
40.34
41.41
40.30
37.67
34.35
31.10
28.39
26.37
24.94
23.84
22.83
21.78
20.67
19.50
18.20
16.62
14.59
12.02
8.92
5.46
1.80
-1.93
-5.67
-9.46
-13.35
-17.34
-21.39
-25.46
-29.53
-33.63
-37.84
-42.20
-46.59
-50.57
-53.44
-54.31
-52.36
-47.16
-38.76
-27.75
-15.08
-1.83
11.00
22.51
32.05
39.08
43.37
44.94
44.17
41.68
38.20
34.42
30.83
27.73
25.23
23.31
21.89
20.81
19.89
18.91
17.68
16.07
14.05
11.61
8.81
5.69
2.31
-1.28
-4.98
-8.71
-12.43
-16.16
-20.00
-24.10
-28.55
-33.46
-38.84
-44.70
-50.94
-57.36
-63.51
-68.67
-71.95
-72.46
-69.54
-63.00
-53.12
-40.64
-26.53
-11.83
2.48
15.53
26.64
35.28
41.16
44.28
44.98
43.78
41.39
38.51
35.70
33.36
31.65
30.52
29.82
29.34
28.94
28.54
28.18
27.86
27.51
26.97
26.04
24.59
22.58
20.06
17.04
13.47
9.24
4.27
-1.40
-7.54
-13.82
-19.93
-25.74
-31.31
-36.84
-42.61
-48.81
-55.41
-62.10
-68.19
-72.75
-74.74
-73.28
-67.93
-58.83
-46.64
-32.39
-17.22
-2.14
11.97
24.42
34.65
42.24
47.08
49.32
49.43
48.06
45.81
43.18
40.49
37.93
35.59
33.55
31.82
30.39
29.21
28.22
27.34
26.44
25.32
23.76
21.55
18.65
15.20
11.47
7.72
4.03
0.33
-3.59
-7.86
-12.46
-17.20
-21.86
-26.29
-30.54
-34.79
-39.29
-44.23
-49.57
-55.00
-59.92
-63.52
-64.96
-63.55
-58.94
-51.23
-40.93
-28.82
-15.77
-2.66
9.76
20.84
30.04
36.96
41.45
43.64
43.91
42.87
41.16
39.31
37.61
36.12
34.75
33.40
32.05
30.79
29.72
28.86
28.03
26.95
25.30
22.85
19.62
15.76
11.51
7.10
2.66
-1.82
-6.29
-10.66
-14.78
-18.51
-21.79
-24.72
-27.58
-30.73
-34.47
-38.98
-44.21
-49.79
-55.09
-59.28
-61.41
-60.68
-56.58
-49.10
-38.71
-26.31
-12.99
0.19
12.39
22.98
31.56
37.86
41.73
43.15
42.34
39.75
36.02
31.81
27.67
23.94
20.74
18.05
15.81
13.93
12.36
10.99
9.69
8.26
6.48
4.22
1.38
-2.02
-5.83
-9.83
-13.81
-17.62
-21.24
-24.70
-28.12
-31.60
-35.24
-39.12
-43.25
-47.45
-51.23
-53.84
-54.39
-52.11
-46.64
-38.17
-27.43
-15.39
-3.05
8.75
19.39
28.43
35.47
40.22
42.45
42.22
39.85
35.96
31.32
26.64
22.46
19.00
16.29
14.20
12.60
11.41
10.54
9.79
8.89
7.51
5.41
2.51
-1.03
-4.89
-8.81
-12.64
-16.48
-20.51
-24.98
-30.02
-35.64
-41.76
-48.15
-54.38
-59.75
-63.31
-64.12
-61.43
-55.04
-45.39
-33.41
-20.28
-7.02
5.60
17.10
27.11
35.30
41.35
45.08
46.57
46.16
44.38
41.80
38.87
35.90
33.04
30.39
28.03
26.03
24.42
23.16
22.11
21.06
19.74
17.94
15.44
12.19
8.21
3.63
-1.34
-6.48
-11.57
-16.50
-21.23
-25.89
-30.80
-36.30
-42.71
-50.05
-57.90
-65.40
-71.37
-74.61
-74.26
-69.94
-61.88
-50.74
-37.47
-23.11
-8.61
5.19
17.67
28.34
36.81
42.85
46.41
47.66
47.08
45.38
43.28
41.36
39.89
38.78
37.81
36.69
35.29
33.64
31.82
29.88
27.83
25.60
23.06
20.13
16.70
12.72
8.13
2.96
-2.68
-8.57
-14.44
-20.04
-25.25
-30.13
-34.91
-39.96
-45.67
-52.31
-59.93
-68.19
-76.39
-83.43
-88.07
-89.15
-85.93
-78.27
-66.71
-52.38
-36.64
-20.86
-6.10
6.98
18.05
27.09
34.26
39.83
44.13
47.50
50.15
52.18
53.56
54.20
54.02
53.09
51.64
50.00
48.48
47.25
46.25
45.21
43.81
41.89
39.63
37.64
36.75
37.70
40.82
45.84
51.88
57.77
62.34
64.71
64.37
61.16
55.14
46.53
35.75
23.24
9.54
-4.80
-19.29
-33.33
-46.14
-56.70
-63.92
-66.80
-64.82
-58.07
-47.28
-33.59
-18.33
-2.77
12.04
25.20
36.07
44.21
49.47
51.99
52.18
50.61
47.90
44.63
41.28
38.18
35.42
32.95
30.61
28.19
25.59
22.84
19.99
17.03
13.81
10.06
5.55
0.26
-5.55
-11.40
-16.69
-20.95
-23.98
-25.82
-26.80
-27.33
-27.85
-28.72
-30.17
-32.39
-35.41
-39.20
-43.50
-47.78
-51.24
-52.88
-51.73
-47.14
-39.04
-27.94
-14.90
-1.24
11.78
23.14
32.18
38.54
42.06
42.77
40.89
36.86
31.38
25.32
19.56
14.70
11.04
8.49
6.75
5.45
4.33
3.27
2.24
1.20
0.07
-1.29
-3.07
-5.44
-8.46
-12.03
-15.92
-19.78
-23.35
-26.52
-29.42
-32.43
-35.96
-40.34
-45.56
-51.32
-57.01
-61.84
-64.97
-65.70
-63.48
-58.08
-49.59
-38.47
-25.43
-11.38
2.70
15.91
27.51
36.97
43.98
48.43
50.40
50.19
48.24
45.11
41.45
37.84
34.68
32.18
30.32
28.86
27.56
26.24
24.83
23.35
21.83
20.18
18.23
15.77
12.63
8.81
4.43
-0.33
-5.27
-10.31
-15.45
-20.70
-26.17
-31.91
-38.03
-44.62
-51.77
-59.36
-67.06
-74.17
-79.74
-82.65
-81.92
-77.00
-67.87
-55.17
-39.91
-23.34
-6.60
9.28
23.54
35.54
44.85
51.28
54.97
56.37
56.09
54.77
52.86
50.63
48.23
45.77
43.46
41.49
39.98
38.86
37.89
36.79
35.31
33.33
30.83
27.89
24.50
20.69
16.44
11.79
6.82
1.66
-3.61
-8.96
-14.36
-19.77
-25.06
-30.12
-34.84
-39.26
-43.56
-48.05
-53.07
-58.77
-65.03
-71.35
-76.84
-80.37
-80.79
-77.25
-69.39
-57.51
-42.46
-25.42
-7.72
9.47
25.20
38.83
49.93
58.26
63.78
66.59
67.04
65.63
62.94
59.61
56.14
52.89
49.99
47.43
45.10
42.91
40.84
38.90
37.08
35.31
33.39
31.07
28.21
24.79
21.02
17.12
13.34
9.71
6.16
2.58
-1.14
-5.04
-9.13
-13.42
-17.89
-22.51
-27.14
-31.60
-35.72
-39.46
-42.99
-46.61
-50.71
-55.57
-61.22
-67.42
-73.63
-78.99
-82.49
-83.09
-79.95
-72.64
-61.30
-46.62
-29.73
-11.92
5.55
21.60
35.47
46.68
54.97
60.35
62.96
63.15
61.44
58.47
54.99
51.66
48.95
47.00
45.69
44.70
43.71
42.57
41.26
39.85
38.34
36.61
34.40
31.51
27.87
23.64
19.12
14.63
10.31
6.15
1.93
-2.56
-7.39
-12.50
-17.65
-22.63
-27.27
-31.59
-35.71
-39.77
-43.91
-48.27
-52.91
-57.89
-63.13
-68.32
-72.85
-75.80
-76.19
-73.20
-66.42
-56.00
-42.61
-27.27
-11.20
4.39
18.45
30.18
39.11
45.06
48.19
48.85
47.56
44.87
41.37
37.58
33.96
30.87
28.49
26.84
25.75
24.96
24.15
23.10
21.71
19.98
17.98
15.72
13.18
10.25
6.86
3.09
-0.86
-4.68
-8.10
-11.04
-13.62
-16.11
-18.86
-22.10
-25.96
-30.46
-35.62
-41.35
-47.45
-53.44
-58.50
-61.59
-61.69
-58.17
-50.98
-40.74
-28.46
-15.21
-1.92
10.63
21.73
30.65
36.68
39.40
38.87
35.79
31.31
26.63
22.69
19.91
18.24
17.39
17.06
17.11
17.44
17.97
18.46
18.56
17.90
16.22
13.47
9.80
5.47
0.76
-4.14
-9.12
-14.16
-19.23
-24.36
-29.60
-35.08
-40.95
-47.28
-53.96
-60.53
-66.21
-70.00
-70.84
-67.97
-61.07
-50.42
-36.90
-21.73
-6.28
8.29
21.14
31.78
39.97
45.55
48.48
48.78
46.76
43.07
38.57
34.19
30.63
28.09
26.38
25.04
23.64
22.02
20.25
18.49
16.76
14.79
12.13
8.34
3.31
-2.69
-9.05
-15.23
-20.89
-26.09
-31.16
-36.49
-42.30
-48.64
-55.41
-62.44
-69.50
-76.19
-81.87
-85.61
-86.34
-83.16
-75.66
-64.07
-49.22
-32.41
-14.93
2.04
17.70
31.52
43.14
52.31
58.82
62.61
63.85
62.98
60.68
57.70
54.67
51.97
49.68
47.72
45.95
44.25
42.63
41.07
39.46
37.59
35.17
31.96
27.86
22.96
17.45
11.52
5.32
-1.06
-7.48
-13.75
-19.59
-24.76
-29.23
-33.21
-37.14
-41.52
-46.81
-53.20
-60.47
-67.97
-74.58
-78.95
-79.72
-75.95
-67.33
-54.33
-38.03
-19.82
-1.05
17.15
33.94
48.66
60.80
69.94
75.88
78.74
78.98
77.36
74.67
71.60
68.60
65.88
63.49
61.40
59.58
57.94
56.37
54.71
52.73
50.13
46.69
42.21
36.67
30.20
23.10
15.65
8.04
0.39
-7.34
-15.13
-22.89
-30.42
-37.45
-43.77
-49.31
-54.20
-58.73
-63.20
-67.95
-73.22
-79.18
-85.84
-92.91
-99.81
-105.51
-108.78
-108.38
-103.36
-93.41
-78.90
-60.81
-40.57
-19.65
0.59
19.11
35.12
48.14
57.88
64.29
67.64
68.43
67.40
65.35
62.98
60.75
58.86
57.31
56.03
55.01
54.24
53.72
53.36
52.88
51.86
49.95
46.86
42.59
37.36
31.55
25.59
19.83
14.47
9.48
4.64
-0.32
-5.63
-11.34
-17.25
-23.03
-28.34
-33.00
-37.04
-40.78
-44.64
-49.07
-54.33
-60.41
-66.94
-73.16
-77.99
-80.17
-78.59
-72.55
-61.95
-47.40
-30.05
-11.37
7.12
24.09
38.51
49.70
57.37
61.52
62.48
60.82
57.29
52.77
48.11
44.02
40.96
39.06
38.11
37.71
37.42
36.93
36.08
34.85
33.21
31.10
28.34
24.81
20.54
15.71
10.64
5.58
0.70
-3.98
-8.48
-12.84
-17.09
-21.22
-25.35
-29.69
-34.50
-40.04
-46.41
-53.45
-60.66
-67.29
-72.33
-74.70
-73.45
-67.98
-58.20
-44.60
-28.17
-10.28
7.64
24.26
38.56
49.90
57.92
62.57
64.01
62.64
59.13
54.32
49.12
44.30
40.30
37.17
34.68
32.52
30.44
28.31
26.09
23.72
21.10
18.15
14.86
11.38
7.85
4.36
0.83
-2.94
-7.17
-11.94
-17.08
-22.26
-27.12
-31.46
-35.30
-38.90
-42.65
-47.00
-52.28
-58.60
-65.66
-72.70
-78.52
-81.69
-80.87
-75.23
-64.63
-49.71
-31.71
-12.14
7.55
26.13
42.66
56.48
67.12
74.35
78.22
79.15
77.81
75.09
71.85
68.76
66.22
64.32
62.97
62.04
61.40
60.98
60.66
60.25
59.45
57.89
55.22
51.17
45.63
38.61
30.19
20.55
9.87
-1.53
-13.16
-24.43
-34.62
-43.09
-49.44
-53.62
-55.96
-57.12
-57.98
-59.49
-62.51
-67.54
-74.61
-83.07
-91.63
-98.58
-102.18
-101.14
-94.94
-83.97
-69.48
-53.12
-36.61
-21.35
-8.29
2.05
9.51
14.13
16.06
15.60
13.18
9.47
5.23
1.29
-1.61
-2.89
-2.20
0.60
5.40
11.85
19.39
27.32
34.95
41.63
46.85
50.28
51.71
51.08
48.48
44.12
38.32
31.50
24.09
16.48
8.99
1.82
-4.89
-11.11
-16.86
-22.22
-27.37
-32.54
-37.99
-43.89
-50.20
-56.41
-61.58
-64.45
-63.79
-58.82
-49.53
-36.76
-21.99
-6.88
7.22
19.44
29.48
37.39
43.23
46.99
48.53
47.81
44.97
40.52
35.24
30.15
26.34
24.80
26.37
31.54
40.37
52.30
66.11
79.94
91.63
99.05
100.69
95.87
84.91
68.90
49.41
28.02
6.18
-14.95
-34.57
-52.11
-67.26
-79.95
-90.31
-98.55
-104.87
-109.36
-111.84
-111.91
-109.00
-102.52
-92.20
-78.25
-61.44
-42.99
-24.32
-6.82
8.34
20.20
28.11
31.73
31.14
26.90
20.05
11.91
3.80
-3.21
-8.51
-11.97
-13.71
-13.91
-12.71
-10.24
-6.68
-2.35
2.31
6.79
10.80
14.19
16.99
19.23
20.77
21.30
20.46
17.95
13.74
7.94
0.85
-7.16
-15.55
-23.55
-30.16
-34.23
-34.83
-31.51
-24.41
-14.23
-1.97
11.26
24.48
36.79
47.42
55.69
61.12
63.60
63.37
61.07
57.45
53.22
48.84
44.52
40.25
36.06
31.92
27.90
23.97
19.99
15.76
11.05
5.83
0.23
-5.47
-11.00
-16.22
-21.23
-26.38
-32.22
-39.33
-48.25
-59.23
-71.98
-85.63
-98.69
-109.30
-115.69
-116.64
-111.74
-101.49
-87.07
-69.96
-51.70
-33.68
-17.08
-3.01
7.67
14.33
16.84
15.57
11.45
5.74
-0.27
-5.42
-8.97
-10.55
-10.14
-7.91
-4.10
1.01
7.08
13.63
20.03
25.51
29.37
31.05
30.31
27.20
22.04
15.17
6.85
-2.69
-13.24
-24.48
-35.78
-46.24
-54.79
-60.30
-61.84
-58.75
-50.83
-38.38
-22.21
-3.49
16.31
35.74
53.59
69.03
81.65
91.41
98.48
103.17
105.80
106.61
105.77
103.28
99.08
93.13
85.46
76.31
66.10
55.50
45.18
35.77
27.79
21.51
16.99
14.11
12.57
11.99
11.86
11.69
10.94
9.18
6.02
1.30
-4.86
-12.11
-19.96
-27.93
-35.75
-43.39
-51.05
-58.98
-67.27
-75.69
-83.66
-90.22
-94.18
-94.40
-89.96
-80.53
-66.48
-48.85
-29.18
-8.99
10.43
28.24
43.98
57.38
68.21
76.24
81.36
83.74
83.86
82.37
79.89
76.90
73.62
70.17
66.69
63.46
60.78
58.89
57.78
57.19
56.57
55.44
53.40
50.37
46.55
42.26
37.87
33.66
29.74
26.14
22.84
19.82
17.14
14.81
12.72
10.60
8.04
4.58
-0.15
-6.33
-13.89
-22.56
-31.93
-41.62
-51.32
-60.87
-70.24
-79.44
-88.51
-97.43
-106.06
-114.10
-121.00
-125.89
-127.69
-125.31
-117.88
-105.20
-87.79
-66.89
-44.14
-21.24
0.41
19.86
36.51
50.07
60.35
67.34
71.18
72.30
71.37
69.18
66.46
63.70
61.04
58.39
55.59
52.52
49.19
45.65
41.90
37.81
33.15
27.71
21.41
14.38
6.90
-0.63
-7.78
-14.07
-19.03
-22.22
-23.28
-22.11
-18.92
-14.22
-8.75
-3.35
1.13
4.00
4.65
2.71
-1.93
-9.11
-18.40
-29.25
-41.08
-53.34
-65.49
-76.90
-86.74
-93.97
-97.52
-96.49
-90.37
-79.25
-63.83
-45.32
-25.22
-5.11
13.56
29.69
42.56
51.84
57.41
59.39
58.02
53.73
47.22
39.42
31.31
23.78
17.38
12.32
8.56
5.95
4.39
3.83
4.20
5.40
7.20
9.31
11.41
13.12
14.12
14.11
12.88
10.39
6.76
2.26
-2.82
-8.13
-13.41
-18.46
-23.17
-27.52
-31.58
-35.53
-39.48
-43.51
-47.40
-50.67
-52.62
-52.46
-49.47
-43.22
-33.70
-21.26
-6.66
9.11
24.84
39.29
51.34
60.08
65.00
66.13
63.96
59.36
53.41
47.08
41.06
35.76
31.25
27.47
24.31
21.67
19.50
17.69
16.07
14.37
12.27
9.48
5.83
1.33
-3.82
-9.35
-14.86
-19.96
-24.38
-27.97
-30.86
-33.35
-35.98
-39.32
-43.85
-49.74
-56.75
-64.07
-70.48
-74.60
-75.20
-71.55
-63.62
-52.00
-37.80
-22.22
-6.42
8.71
22.48
34.36
43.92
50.80
54.86
56.28
55.47
53.04
49.69
46.00
42.37
39.04
36.16
33.82
32.05
30.83
30.02
29.35
28.51
27.23
25.35
22.87
19.90
16.54
12.86
8.84
4.47
-0.27
-5.29
-10.47
-15.66
-20.78
-25.85
-30.99
-36.33
-42.01
-48.11
-54.58
-61.19
-67.43
-72.57
-75.60
-75.52
-71.59
-63.60
-51.94
-37.56
-21.74
-5.71
9.44
22.96
34.31
43.17
49.31
52.73
53.61
52.45
49.91
46.75
43.58
40.82
38.59
36.85
35.44
34.16
32.83
31.26
29.35
27.01
24.28
21.30
18.19
15.05
11.92
8.73
5.37
1.77
-2.14
-6.39
-11.00
-15.86
-20.81
-25.58
-29.87
-33.50
-36.53
-39.24
-42.18
-45.88
-50.65
-56.33
-62.19
-67.03
-69.46
-68.29
-62.89
-53.30
-40.27
-24.94
-8.67
7.30
21.92
34.44
44.39
51.50
55.76
57.33
56.58
54.03
50.36
46.29
42.51
39.50
37.48
36.34
35.68
35.06
34.09
32.64
30.73
28.48
25.93
22.97
19.32
14.72
9.11
2.72
-3.94
-10.26
-15.86
-20.72
-25.11
-29.55
-34.37
-39.71
-45.38
-51.11
-56.67
-61.90
-66.61
-70.38
-72.55
-72.20
-68.53
-61.16
-50.31
-36.77
-21.71
-6.31
8.47
21.92
33.53
42.82
49.37
52.85
53.21
50.78
46.34
40.84
35.28
30.48
26.93
24.79
23.87
23.79
24.06
24.21
23.87
22.75
20.67
17.55
13.35
8.20
2.32
-3.97
-10.33
-16.48
-22.25
-27.58
-32.51
-37.19
-41.77
-46.41
-51.23
-56.28
-61.41
-66.26
-70.18
-72.30
-71.67
-67.51
-59.49
-47.90
-33.65
-18.00
-2.29
12.33
25.08
35.50
43.40
48.74
51.64
52.41
51.51
49.52
47.02
44.51
42.37
40.74
39.57
38.58
37.43
35.80
33.61
31.02
28.34
25.76
23.20
20.34
16.79
12.34
7.18
1.80
-3.22
-7.47
-10.95
-14.07
-17.47
-21.80
-27.46
-34.56
-42.87
-51.90
-61.02
-69.46
-76.28
-80.52
-81.25
-77.84
-70.21
-58.82
-44.65
-29.00
-13.06
2.22
16.14
28.23
38.10
45.44
50.05
51.97
51.53
49.26
45.87
41.96
38.03
34.50
31.59
29.43
27.98
27.02
26.23
25.29
24.02
22.36
20.39
18.16
15.70
12.97
9.96
6.70
3.24
-0.43
-4.38
-8.74
-13.56
-18.76
-24.15
-29.47
-34.65
-39.77
-44.98
-50.47
-56.20
-61.79
-66.52
-69.37
-69.22
-65.24
-57.16
-45.49
-31.38
-16.30
-1.59
11.79
23.40
33.04
40.57
45.76
48.52
49.00
47.79
45.77
43.80
42.42
41.69
41.22
40.58
39.46
37.86
36.04
34.28
32.60
30.85
28.68
25.88
22.43
18.56
14.48
10.28
5.86
1.05
-4.19
-9.64
-14.90
-19.55
-23.48
-26.91
-30.38
-34.49
-39.61
-45.72
-52.37
-58.70
-63.69
-66.31
-65.83
-61.84
-54.46
-44.25
-31.95
-18.41
-4.35
9.61
22.83
34.59
44.08
50.59
53.71
53.60
50.86
46.43
41.24
36.05
31.35
27.38
24.21
21.83
20.12
18.86
17.78
16.62
15.13
13.15
10.54
7.28
3.41
-0.89
-5.34
-9.70
-13.74
-17.45
-20.93
-24.33
-27.76
-31.25
-34.85
-38.61
-42.60
-46.80
-50.89
-54.20
-55.74
-54.55
-50.03
-42.20
-31.78
-19.89
-7.79
3.51
13.35
21.45
27.65
31.82
33.84
33.69
31.63
28.19
24.18
20.42
17.50
15.61
14.58
14.04
13.65
13.14
12.36
11.19
9.38
6.69
2.92
-1.89
-7.44
-13.27
-18.89
-23.96
-28.38
-32.25
-35.87
-39.62
-43.91
-48.93
-54.61
-60.39
-65.25
-67.93
-67.29
-62.70
-54.19
-42.44
-28.51
-13.55
1.46
15.75
28.74
39.87
48.71
54.93
58.41
59.30
57.98
54.96
50.83
46.16
41.51
37.30
33.75
30.93
28.67
26.72
24.77
22.55
19.76
16.17
11.62
6.05
-0.43
-7.57
-15.03
-22.51
-29.82
-36.95
-44.03
-51.26
-58.82
-66.85
-75.34
-84.04
-92.41
-99.45
-103.98
-104.83
-101.17
-92.83
-80.22
-64.22
-45.93
-26.33
-6.28
13.47
32.12
48.76
62.56
72.90
79.64
83.12
84.02
83.12
81.08
78.32
75.12
71.73
68.43
65.53
63.27
61.58
60.12
58.34
55.77
52.25
48.00
43.58
39.62
36.49
34.16
32.24
30.22
27.70
24.56
20.96
17.14
13.18
9.01
4.39
-0.93
-7.11
-14.21
-22.24
-31.24
-41.13
-51.59
-61.83
-70.55
-76.19
-77.37
-73.38
-64.39
-51.43
-36.06
-19.86
-4.02
10.69
23.89
35.28
44.52
51.20
55.09
56.40
55.83
54.33
52.82
51.75
51.10
50.39
49.17
47.26
44.85
42.42
40.43
39.13
38.36
37.73
36.87
35.51
33.61
31.30
28.73
25.99
22.99
19.56
15.56
10.88
5.60
-0.15
-6.12
-12.08
-17.87
-23.36
-28.57
-33.63
-38.73
-44.21
-50.38
-57.43
-65.15
-72.86
-79.39
-83.36
-83.60
-79.50
-71.24
-59.63
-45.79
-30.83
-15.62
-0.85
12.80
24.58
33.77
39.93
43.06
43.66
42.49
40.30
37.64
34.79
31.83
28.87
26.03
23.48
21.31
19.51
17.93
16.39
14.74
12.95
11.00
8.90
6.60
4.03
1.12
-2.21
-5.94
-10.02
-14.30
-18.67
-23.00
-27.13
-30.96
-34.48
-37.71
-40.82
-44.04
-47.55
-51.38
-55.31
-58.78
-60.97
-60.97
-57.97
-51.58
-41.96
-29.77
-16.09
-2.07
11.28
23.16
33.01
40.52
45.49
47.94
48.08
46.42
43.61
40.36
37.20
34.46
32.24
30.46
29.02
27.82
26.74
25.69
24.54
23.15
21.38
19.03
15.99
12.16
7.56
2.37
-3.10
-8.50
-13.59
-18.29
-22.72
-27.13
-31.84
-37.08
-43.03
-49.64
-56.58
-63.24
-68.73
-72.00
-72.10
-68.40
-60.81
-49.74
-36.09
-20.99
-5.57
9.20
22.64
34.25
43.70
50.73
55.20
57.10
56.67
54.40
50.99
47.15
43.45
40.27
37.71
35.70
34.07
32.61
31.10
29.32
27.10
24.36
21.10
17.43
13.45
9.16
4.54
-0.59
-6.27
-12.45
-18.87
-25.12
-30.79
-35.65
-39.73
-43.34
-46.95
-51.06
-55.99
-61.77
-67.96
-73.77
-78.13
-79.94
-78.28
-72.67
-63.12
-50.09
-34.49
-17.41
-0.09
16.31
30.80
42.71
51.66
57.64
60.87
61.71
60.65
58.16
54.71
50.70
46.55
42.59
39.08
36.23
34.08
32.55
31.40
30.32
29.01
27.25
24.97
22.15
18.87
15.21
11.22
6.96
2.43
-2.37
-7.42
-12.66
-17.99
-23.29
-28.49
-33.57
-38.66
-43.96
-49.66
-55.76
-61.98
-67.65
-71.74
-73.13
-70.87
-64.41
-53.85
-39.87
-23.63
-6.48
10.26
25.46
38.32
48.26
55.06
58.75
59.59
58.11
54.94
50.82
46.46
42.40
38.97
36.25
34.11
32.37
30.82
29.39
28.00
26.70
25.43
24.08
22.50
20.55
18.19
15.45
12.38
9.02
5.29
1.12
-3.55
-8.63
-13.89
-19.05
-23.88
-28.29
-32.50
-36.84
-41.70
-47.25
-53.33
-59.33
-64.27
-67.02
-66.60
-62.49
-54.78
-44.06
-31.29
-17.49
-3.69
9.30
20.75
30.08
36.83
40.78
42.03
40.95
38.20
34.55
30.68
27.14
24.21
22.00
20.43
19.35
18.60
18.01
17.41
16.60
15.41
13.73
11.54
8.93
6.00
2.89
-0.23
-3.25
-6.06
-8.68
-11.22
-13.85
-16.77
-20.12
-23.95
-28.27
-33.10
-38.40
-43.92
-49.10
-53.06
-54.74
-53.28
-48.27
-39.99
-29.25
-17.04
-4.39
7.90
19.17
28.81
36.18
40.80
42.52
41.63
38.87
35.13
31.17
27.49
24.21
21.32
18.80
16.65
14.94
13.64
12.58
11.41
9.80
7.51
4.43
0.69
-3.49
-7.81
-12.00
-15.91
-19.51
-23.00
-26.66
-30.77
-35.53
-40.91
-46.66
-52.28
-57.10
-60.34
-61.26
-59.24
-53.93
-45.39
-34.11
-20.92
-6.88
6.93
19.56
30.29
38.63
44.30
47.29
47.82
46.30
43.31
39.54
35.61
31.98
28.87
26.28
24.06
22.10
20.36
18.92
17.85
17.08
16.35
15.24
13.31
10.23
5.97
0.72
-5.04
-10.84
-16.25
-21.07
-25.36
-29.40
-33.60
-38.29
-43.65
-49.51
-55.44
-60.66
-64.28
-65.37
-63.25
-57.64
-48.76
-37.27
-24.12
-10.32
3.21
15.77
26.82
35.98
43.02
47.81
50.42
51.08
50.12
47.99
45.11
41.89
38.66
35.68
33.09
31.00
29.39
28.09
26.91
25.58
23.92
21.83
19.34
16.60
13.71
10.71
7.56
4.16
0.41
-3.68
-7.95
-12.16
-16.09
-19.67
-23.05
-26.58
-30.69
-35.69
-41.65
-48.23
-54.71
-60.07
-63.24
-63.31
-59.77
-52.59
-42.24
-29.64
-15.91
-2.22
10.46
21.41
30.29
36.96
41.41
43.76
44.28
43.37
41.62
39.62
37.92
36.75
36.10
35.68
35.15
34.23
32.83
31.01
28.95
26.76
24.47
21.96
19.11
15.82
12.07
7.98
3.65
-0.79
-5.30
-9.82
-14.25
-18.45
-22.23
-25.51
-28.36
-31.00
-33.76
-36.91
-40.64
-44.92
-49.49
-53.93
-57.57
-59.65
-59.42
-56.34
-50.28
-41.55
-30.92
-19.35
-7.79
2.95
12.29
19.84
25.31
28.60
29.76
29.13
27.27
24.86
22.55
20.77
19.65
19.09
18.79
18.42
17.76
16.71
15.31
13.72
12.00
10.14
7.99
5.37
2.17
-1.51
-5.39
-9.14
-12.50
-15.36
-17.84
-20.18
-22.60
-25.25
-28.26
-31.65
-35.44
-39.46
-43.33
-46.35
-47.65
-46.38
-42.03
-34.54
-24.44
-12.70
-0.40
11.43
22.05
30.95
37.77
42.29
44.38
44.14
41.96
38.49
34.50
30.63
27.29
24.61
22.53
20.93
19.77
18.99
18.50
18.13
17.61
16.62
14.95
12.53
9.39
5.62
1.33
-3.35
-8.28
-13.26
-18.10
-22.67
-26.91
-30.97
-35.08
-39.55
-44.63
-50.41
-56.69
-62.97
-68.41
-71.99
-72.65
-69.61
-62.61
-51.99
-38.56
-23.48
-7.89
7.22
21.09
33.21
43.20
50.78
55.79
58.24
58.36
56.62
53.65
50.08
46.46
43.14
40.28
37.87
35.90
34.40
33.35
32.75
32.40
31.97
31.03
29.24
26.55
23.14
19.43
15.83
12.53
9.45
6.31
2.79
-1.31
-5.96
-10.99
-16.13
-21.26
-26.35
-31.54
-37.01
-42.97
-49.52
-56.60
-63.89
-70.80
-76.39
-79.50
-79.07
-74.28
-64.88
-51.31
-34.59
-16.15
2.54
20.11
35.53
48.08
57.41
63.46
66.52
67.11
65.89
63.52
60.51
57.20
53.75
50.20
46.68
43.41
40.67
38.75
37.75
37.46
37.42
36.97
35.56
32.95
29.26
24.94
20.50
16.28
12.37
8.63
4.77
0.57
-4.05
-9.01
-14.10
-19.07
-23.78
-28.18
-32.39
-36.66
-41.24
-46.35
-52.13
-58.50
-65.12
-71.37
-76.33
-78.91
-78.10
-73.26
-64.27
-51.63
-36.33
-19.58
-2.60
13.57
28.06
40.21
49.55
55.89
59.29
60.10
58.92
56.39
53.11
49.53
45.99
42.71
39.89
37.78
36.50
36.06
36.23
36.61
36.73
36.17
34.78
32.59
29.83
26.72
23.42
19.96
16.30
12.38
8.18
3.79
-0.66
-5.01
-9.13
-12.98
-16.67
-20.35
-24.19
-28.41
-33.16
-38.56
-44.62
-51.17
-57.65
-63.19
-66.65
-66.90
-63.13
-55.20
-43.69
-29.75
-14.75
-0.06
13.31
24.68
33.69
40.21
44.21
45.90
45.64
43.97
41.49
38.81
36.37
34.38
32.82
31.54
30.33
29.04
27.59
26.01
24.33
22.49
20.43
18.01
15.19
12.01
8.58
5.06
1.50
-2.12
-5.83
-9.62
-13.38
-17.02
-20.50
-23.96
-27.70
-32.04
-37.22
-43.21
-49.71
-56.08
-61.48
-64.98
-65.68
-62.89
-56.35
-46.34
-33.67
-19.49
-5.11
8.31
19.85
28.94
35.28
38.80
39.73
38.51
35.79
32.36
28.92
25.91
23.53
21.65
20.07
18.53
16.88
15.06
13.00
10.64
7.93
4.82
1.31
-2.58
-6.72
-10.97
-15.18
-19.27
-23.20
-26.98
-30.67
-34.33
-38.03
-41.85
-45.87
-50.15
-54.54
-58.59
-61.58
-62.60
-60.90
-56.01
-47.99
-37.33
-24.80
-11.29
2.38
15.43
27.17
37.02
44.54
49.51
51.96
52.16
50.58
47.84
44.57
41.39
38.72
36.76
35.44
34.47
33.49
32.19
30.40
28.06
25.25
22.01
18.43
14.49
10.21
5.53
0.45
-4.96
-10.55
-16.10
-21.38
-26.30
-30.90
-35.44
-40.25
-45.62
-51.73
-58.40
-65.17
-71.27
-75.68
-77.33
-75.38
-69.41
-59.48
-46.21
-30.59
-13.81
2.97
18.70
32.52
43.75
51.93
56.94
58.93
58.40
56.09
52.72
48.94
45.17
41.62
38.33
35.35
32.75
30.65
29.09
28.03
27.26
26.49
25.41
23.81
21.59
18.73
15.32
11.48
7.35
3.09
-1.25
-5.61
-9.94
-14.18
-18.23
-21.97
-25.40
-28.65
-32.12
-36.32
-41.68
-48.34
-55.94
-63.64
-70.21
-74.34
-74.93
-71.30
-63.39
-51.70
-37.21
-21.13
-4.69
11.02
25.17
37.18
46.65
53.40
57.45
59.07
58.73
57.08
54.69
51.99
49.16
46.21
43.18
40.21
37.60
35.60
34.28
33.46
32.70
31.55
29.63
26.87
23.42
19.57
15.58
11.67
7.92
4.30
0.69
-3.03
-6.99
-11.26
-15.80
-20.43
-24.93
-29.07
-32.78
-36.14
-39.41
-42.90
-46.88
-51.49
-56.57
-61.75
-66.42
-69.74
-70.78
-68.66
-62.84
-53.27
-40.57
-25.87
-10.64
3.79
16.46
26.94
35.15
41.28
45.48
47.87
48.60
47.93
46.34
44.39
42.57
41.21
40.35
39.87
39.59
39.34
39.00
38.55
37.95
37.16
36.15
34.88
33.24
31.07
28.28
24.88
21.06
17.14
13.46
10.19
7.25
4.38
1.26
-2.31
-6.31
-10.58
-14.85
-18.92
-22.67
-26.10
-29.36
-32.76
-36.65
-41.45
-47.36
-54.30
-61.76
-68.84
-74.46
-77.50
-77.19
-73.10
-65.33
-54.48
-41.52
-27.64
-13.95
-1.31
9.76
19.05
26.46
31.91
35.32
36.74
36.51
35.19
33.49
32.08
31.29
31.13
31.34
31.63
31.81
31.85
31.79
31.59
31.05
29.90
27.91
25.06
21.51
17.72
14.06
10.84
8.09
5.62
3.17
0.52
-2.36
-5.33
-8.21
-10.85
-13.31
-15.84
-18.79
-22.47
-27.03
-32.41
-38.34
-44.41
-50.09
-54.69
-57.43
-57.57
-54.59
-48.39
-39.40
-28.49
-16.72
-5.11
5.55
14.75
22.16
27.56
30.79
31.92
31.25
29.32
26.83
24.43
22.51
21.12
20.06
19.03
17.85
16.46
14.94
13.41
11.83
10.07
7.97
5.42
2.44
-0.81
-4.18
-7.55
-10.91
-14.29
-17.71
-21.05
-24.13
-26.73
-28.74
-30.21
-31.38
-32.55
-34.02
-36.05
-38.73
-41.91
-45.15
-47.69
-48.54
-46.80
-41.87
-33.73
-23.04
-10.87
1.53
13.09
23.07
31.07
36.94
40.74
42.64
42.93
42.01
40.29
38.07
35.61
33.06
30.59
28.41
26.80
25.99
26.10
27.02
28.46
29.98
31.12
31.54
31.09
29.85
28.05
25.98
23.79
21.51
19.01
16.05
12.46
8.12
3.09
-2.50
-8.46
-14.56
-20.58
-26.34
-31.79
-37.03
-42.24
-47.60
-53.11
-58.44
-62.96
-65.88
-66.51
-64.44
-59.58
-52.24
-42.92
-32.25
-20.90
-9.59
0.97
10.10
17.28
22.24
25.07
26.12
25.93
25.03
23.86
22.65
21.47
20.39
19.42
18.59
18.00
17.69
17.71
17.99
18.42
18.82
18.95
18.64
17.78
16.39
14.63
12.64
10.53
8.34
6.03
3.57
0.94
-1.81
-4.61
-7.36
-9.98
-12.40
-14.66
-16.93
-19.48
-22.69
-26.88
-32.24
-38.69
-45.88
-53.11
-59.48
-63.94
-65.59
-63.81
-58.51
-50.14
-39.55
-27.85
-16.02
-4.82
5.30
14.09
21.37
26.97
30.74
32.67
33.00
32.18
30.80
29.39
28.28
27.54
27.03
26.55
25.93
25.20
24.45
23.76
23.13
22.40
21.42
20.06
18.36
16.50
14.65
12.93
11.30
9.55
7.44
4.78
1.59
-1.97
-5.65
-9.14
-12.30
-15.14
-17.85
-20.69
-23.92
-27.74
-32.25
-37.46
-43.22
-49.23
-54.91
-59.36
-61.59
-60.77
-56.44
-48.78
-38.50
-26.65
-14.29
-2.31
8.64
18.15
25.90
31.58
35.06
36.39
35.93
34.29
32.20
30.21
28.63
27.48
26.64
26.01
25.60
25.44
25.56
25.85
26.09
26.03
25.53
24.62
23.41
22.06
20.65
19.13
17.39
15.20
12.46
9.10
5.20
0.90
-3.65
-8.37
-13.24
-18.33
-23.73
-29.48
-35.50
-41.65
-47.66
-53.08
-57.33
-59.76
-59.72
-56.79
-50.95
-42.61
-32.52
-21.63
-10.82
-0.80
7.92
15.00
20.24
23.58
25.12
25.16
24.20
22.69
21.08
19.62
18.46
17.67
17.35
17.61
18.59
20.23
22.28
24.22
25.39
25.31
23.75
20.86
17.14
13.20
9.47
6.08
2.83
-0.68
-4.81
-9.79
-15.56
-21.91
-28.46
-34.74
-40.14
-43.93
-45.37
-43.92
-39.38
-32.04
-22.63
-12.08
-1.32
8.98
18.37
26.51
33.00
37.41
39.39
38.96
36.58
33.09
29.37
26.01
23.19
20.74
18.40
16.12
14.02
12.23
10.72
9.15
7.01
3.89
-0.26
-5.10
-10.14
-14.90
-19.13
-22.84
-26.18
-29.30
-32.37
-35.58
-39.15
-43.24
-47.86
-52.61
-56.74
-59.22
-59.04
-55.56
-48.66
-38.76
-26.69
-13.39
0.18
13.23
25.06
35.08
42.82
48.01
50.70
51.17
50.00
47.82
45.21
42.58
40.14
37.99
36.12
34.47
33.03
31.72
30.41
28.90
26.94
24.26
20.62
16.02
10.62
4.77
-1.11
-6.72
-11.96
-16.96
-22.09
-27.73
-34.17
-41.43
-49.12
-56.45
-62.39
-65.87
-66.07
-62.65
-55.69
-45.70
-33.42
-19.67
-5.35
8.77
21.92
33.45
42.85
49.84
54.34
56.52
56.77
55.66
53.81
51.78
49.91
48.24
46.61
44.84
42.88
40.89
39.13
37.79
36.90
36.25
35.54
34.43
32.63
29.95
26.27
21.57
15.91
9.48
2.58
-4.38
-11.06
-17.23
-22.94
-28.47
-34.22
-40.58
-47.69
-55.28
-62.76
-69.19
-73.58
-75.00
-72.79
-66.66
-56.70
-43.47
-27.93
-11.25
5.28
20.53
33.71
44.28
52.10
57.23
59.95
60.78
60.23
58.92
57.27
55.56
53.84
52.11
50.36
48.63
47.01
45.57
44.22
42.70
40.65
37.81
34.01
29.41
24.25
18.91
13.64
8.52
3.46
-1.68
-7.01
-12.46
-17.78
-22.69
-26.94
-30.50
-33.57
-36.46
-39.54
-43.09
-47.24
-51.91
-56.79
-61.34
-64.84
-66.41
-65.20
-60.66
-52.72
-41.87
-29.02
-15.25
-1.50
11.44
23.07
33.06
41.18
47.25
51.20
53.12
53.26
52.01
49.89
47.37
44.84
42.53
40.51
38.77
37.23
35.87
34.69
33.70
32.76
31.64
30.03
27.72
24.62
20.88
16.73
12.42
8.13
3.92
-0.18
-4.19
-8.11
-11.99
-15.92
-20.01
-24.36
-29.01
-33.93
-39.09
-44.55
-50.44
-56.83
-63.42
-69.46
-73.76
-75.03
-72.36
-65.62
-55.48
-43.15
-29.88
-16.62
-3.85
8.14
18.99
28.16
35.00
39.07
40.36
39.45
37.24
34.66
32.39
30.72
29.58
28.74
28.00
27.25
26.48
25.69
24.79
23.61
21.93
19.56
16.45
12.68
8.45
3.93
-0.72
-5.43
-10.14
-14.70
-18.98
-22.86
-26.37
-29.73
-33.31
-37.48
-42.34
-47.60
-52.60
-56.42
-58.16
-57.21
-53.35
-46.73
-37.77
-27.00
-15.02
-2.56
9.56
20.42
29.12
35.01
37.88
38.01
36.07
32.91
29.33
25.92
23.01
20.72
18.96
17.60
16.45
15.34
14.19
12.90
11.43
9.66
7.41
4.56
0.99
-3.23
-7.87
-12.66
-17.30
-21.64
-25.68
-29.58
-33.53
-37.75
-42.42
-47.64
-53.32
-59.12
-64.33
-67.96
-69.02
-66.76
-60.91
-51.73
-40.02
-26.77
-13.02
0.28
12.40
22.75
30.93
36.75
40.24
41.67
41.50
40.26
38.47
36.52
34.68
33.02
31.50
29.99
28.37
26.58
24.57
22.41
20.11
17.60
14.78
11.45
7.47
2.74
-2.64
-8.40
-14.14
-19.49
-24.24
-28.43
-32.31
-36.20
-40.39
-45.04
-50.18
-55.64
-61.00
-65.58
-68.46
-68.66
-65.45
-58.59
-48.43
-35.82
-21.87
-7.66
5.92
18.25
28.87
37.42
43.62
47.36
48.73
48.09
46.09
43.40
40.66
38.29
36.43
35.06
34.01
33.17
32.47
31.91
31.48
31.09
30.51
29.43
27.55
24.66
20.78
16.11
10.99
5.81
0.85
-3.78
-8.16
-12.56
-17.28
-22.61
-28.66
-35.41
-42.66
-50.02
-56.87
-62.46
-65.87
-66.26
-63.00
-55.95
-45.45
-32.32
-17.61
-2.41
12.32
25.77
37.29
46.42
52.85
56.58
57.85
57.16
55.17
52.49
49.61
46.78
44.06
41.40
38.73
36.04
33.41
31.01
28.94
27.20
25.60
23.83
21.51
18.38
14.35
9.50
4.13
-1.49
-7.11
-12.67
-18.27
-24.06
-30.20
-36.72
-43.52
-50.38
-56.95
-62.68
-66.94
-68.96
-67.96
-63.37
-55.04
-43.33
-29.13
-13.67
1.73
15.88
27.87
37.08
43.21
46.20
46.29
44.01
40.12
35.47
30.79
26.56
22.91
19.73
16.87
14.26
12.02
10.32
9.16
8.30
7.26
5.55
2.90
-0.58
-4.51
-8.48
-12.28
-16.01
-20.01
-24.59
-29.87
-35.68
-41.60
-47.12
-51.67
-54.76
-55.88
-54.56
-50.41
-43.26
-33.28
-21.03
-7.36
6.69
20.11
31.98
41.60
48.48
52.35
53.25
51.49
47.74
42.82
37.67
32.98
29.18
26.30
24.12
22.31
20.60
18.82
16.91
14.85
12.61
10.03
6.96
3.25
-1.14
-6.10
-11.37
-16.57
-21.37
-25.60
-29.41
-33.24
-37.60
-42.92
-49.29
-56.30
-63.13
-68.68
-71.81
-71.58
-67.48
-59.52
-48.17
-34.17
-18.48
-2.02
14.24
29.35
42.40
52.62
59.60
63.29
64.09
62.66
59.71
55.88
51.66
47.36
43.23
39.44
36.05
33.06
30.39
27.94
25.61
23.31
20.86
18.03
14.60
10.47
5.72
0.53
-4.82
-10.10
-15.21
-20.13
-24.99
-29.92
-35.07
-40.55
-46.35
-52.34
-58.19
-63.32
-66.92
-68.12
-66.09
-60.38
-51.00
-38.50
-23.89
-8.39
6.76
20.51
32.13
41.20
47.65
51.69
53.72
54.21
53.52
51.92
49.52
46.48
43.05
39.59
36.50
34.04
32.25
31.04
30.22
29.52
28.70
27.47
25.53
22.54
18.34
12.98
6.86
0.48
-5.61
-11.09
-16.00
-20.63
-25.37
-30.58
-36.40
-42.72
-49.28
-55.70
-61.48
-65.99
-68.52
-68.29
-64.69
-57.48
-46.88
-33.66
-18.90
-3.76
10.65
23.50
34.15
42.22
47.45
49.85
49.69
47.50
44.03
40.07
36.30
33.18
30.84
29.22
28.07
27.10
26.07
24.83
23.33
21.53
19.42
16.96
14.05
10.65
6.79
2.57
-1.85
-6.35
-10.85
-15.37
-20.03
-24.93
-30.17
-35.76
-41.62
-47.49
-52.94
-57.26
-59.60
-59.17
-55.47
-48.55
-39.03
-27.94
-16.38
-5.35
4.48
12.71
19.03
23.18
25.07
24.85
22.98
20.27
17.50
15.26
13.72
12.75
12.01
11.19
10.15
8.85
7.33
5.57
3.48
0.93
-2.18
-5.83
-9.90
-14.12
-18.27
-22.17
-25.82
-29.49
-33.52
-38.27
-43.83
-49.88
-55.64
-60.03
-61.90
-60.41
-55.17
-46.38
-34.66
-20.92
-6.23
8.42
22.00
33.67
42.73
48.78
51.74
51.86
49.65
45.73
40.82
35.54
30.36
25.63
21.50
17.99
15.01
12.41
10.04
7.71
5.24
2.44
-0.73
-4.22
-7.82
-11.31
-14.56
-17.68
-20.87
-24.41
-28.52
-33.24
-38.56
-44.37
-50.50
-56.56
-61.89
-65.50
-66.25
-63.27
-56.18
-45.34
-31.72
-16.53
-0.98
13.96
27.59
39.34
48.75
55.48
59.39
60.74
60.06
58.07
55.40
52.47
49.43
46.25
42.89
39.41
35.95
32.70
29.79
27.17
24.69
22.15
19.35
16.21
12.65
8.58
3.95
-1.34
-7.22
-13.45
-19.69
-25.55
-30.88
-35.78
-40.58
-45.69
-51.31
-57.34
-63.27
-68.39
-71.85
-72.81
-70.56
-64.63
-54.96
-41.99
-26.62
-10.07
6.34
21.48
34.51
44.90
52.34
56.80
58.59
58.32
56.79
54.80
52.83
50.95
49.02
46.83
44.45
42.17
40.34
39.16
38.44
37.70
36.46
34.37
31.39
27.73
23.64
19.30
14.72
9.90
4.78
-0.53
-5.85
-10.95
-15.63
-19.84
-23.70
-27.49
-31.59
-36.34
-42.00
-48.54
-55.70
-62.88
-69.21
-73.63
-75.12
-72.84
-66.37
-55.83
-41.90
-25.68
-8.48
8.41
23.87
37.12
47.73
55.46
60.35
62.54
62.37
60.29
56.86
52.81
48.75
45.18
42.30
40.06
38.19
36.36
34.32
31.93
29.12
25.94
22.40
18.62
14.71
10.84
7.16
3.74
0.54
-2.59
-5.80
-9.19
-12.76
-16.38
-19.92
-23.32
-26.61
-29.93
-33.47
-37.48
-42.13
-47.37
-52.93
-58.13
-61.98
-63.40
-61.45
-55.69
-46.26
-33.92
-19.73
-4.91
9.40
22.25
32.82
40.55
45.13
46.66
45.62
42.82
39.16
35.52
32.44
30.17
28.64
27.65
26.93
26.25
25.47
24.48
23.23
21.63
19.59
17.03
13.88
10.13
5.90
1.30
-3.49
-8.34
-13.15
-17.86
-22.47
-26.96
-31.41
-35.93
-40.73
-45.96
-51.63
-57.41
-62.71
-66.72
-68.54
-67.46
-63.03
-55.21
-44.35
-31.07
-16.26
-0.91
13.93
27.35
38.52
46.85
51.98
53.89
52.90
49.70
45.26
40.64
36.74
34.06
32.72
32.44
32.75
33.19
33.39
33.10
32.14
30.35
27.65
24.09
19.78
14.91
9.69
4.28
-1.22
-6.71
-12.09
-17.21
-21.93
-26.14
-29.87
-33.26
-36.65
-40.40
-44.90
-50.24
-56.16
-61.93
-66.50
-68.70
-67.59
-62.67
-54.02
-42.23
-28.24
-13.14
1.97
16.10
28.38
38.09
44.82
48.55
49.61
48.64
46.43
43.72
41.01
38.64
36.74
35.34
34.37
33.67
32.94
31.89
30.20
27.77
24.65
21.06
17.28
13.52
9.83
6.16
2.43
-1.42
-5.30
-9.06
-12.57
-15.80
-18.86
-21.96
-25.36
-29.29
-33.89
-39.25
-45.29
-51.76
-58.13
-63.54
-66.88
-67.07
-63.32
-55.53
-44.27
-30.64
-15.91
-1.24
12.50
24.71
34.95
42.87
48.14
50.68
50.67
48.59
45.22
41.34
37.66
34.58
32.22
30.49
29.14
27.99
26.95
25.99
25.10
24.11
22.76
20.73
17.80
14.05
9.75
5.28
0.98
-3.10
-7.08
-11.15
-15.40
-19.75
-24.00
-27.92
-31.41
-34.49
-37.40
-40.42
-43.88
-48.05
-52.95
-58.25
-63.18
-66.62
-67.33
-64.23
-56.90
-45.62
-31.36
-15.48
0.63
15.76
29.04
39.93
48.10
53.40
55.91
55.93
53.98
50.77
47.01
43.24
39.75
36.59
33.68
30.89
28.15
25.36
22.40
19.18
15.65
11.88
8.07
4.43
1.12
-1.89
-4.72
-7.56
-10.46
-13.31
-15.90
-18.09
-19.91
-21.66
-23.75
-26.54
-30.23
-34.72
-39.65
-44.48
-48.58
-51.29
-51.98
-50.13
-45.43
-37.84
-27.73
-15.85
-3.27
8.86
19.40
27.51
32.78
35.21
35.22
33.48
30.72
27.63
24.69
22.23
20.38
19.12
18.28
17.64
17.01
16.27
15.38
14.34
13.09
11.46
9.22
6.23
2.54
-1.53
-5.50
-8.98
-11.91
-14.61
-17.73
-21.91
-27.57
-34.65
-42.60
-50.54
-57.40
-62.17
-64.05
-62.55
-57.57
-49.37
-38.56
-25.98
-12.68
0.25
11.76
21.01
27.41
30.78
31.24
29.23
25.39
20.43
15.05
9.93
5.50
2.05
-0.39
-1.91
-2.66
-2.79
-2.37
-1.38
0.16
2.17
4.50
6.83
8.81
10.06
10.31
9.44
7.53
4.75
1.28
-2.76
-7.41
-12.80
-19.00
-25.92
-33.21
-40.30
-46.38
-50.65
-52.33
-50.84
-45.87
-37.49
-26.17
-12.73
1.76
16.11
29.24
40.32
48.86
54.73
58.12
59.43
59.22
58.03
56.39
54.70
53.14
51.69
50.20
48.50
46.51
44.39
42.37
40.72
39.51
38.57
37.55
35.98
33.56
30.14
25.82
20.83
15.41
9.74
3.94
-1.98
-8.02
-14.13
-20.24
-26.26
-32.16
-38.00
-43.95
-50.21
-56.95
-64.16
-71.60
-78.78
-84.96
-89.21
-90.56
-88.22
-81.77
-71.36
-57.72
-41.96
-25.41
-9.19
5.88
19.31
30.82
40.19
47.16
51.54
53.39
53.16
51.59
49.53
47.61
46.10
44.88
43.65
42.20
40.46
38.58
36.75
35.04
33.33
31.38
28.96
25.95
22.43
18.68
15.04
11.80
9.12
6.89
4.84
2.55
-0.25
-3.59
-7.27
-10.94
-14.37
-17.58
-20.80
-24.43
-28.76
-33.87
-39.64
-45.85
-52.25
-58.56
-64.37
-68.98
-71.46
-70.82
-66.36
-58.01
-46.36
-32.56
-17.89
-3.52
9.77
21.45
31.24
38.89
44.25
47.36
48.45
47.99
46.57
44.73
42.91
41.35
40.13
39.23
38.60
38.15
37.77
37.27
36.40
34.87
32.48
29.10
24.86
20.02
15.00
10.12
5.61
1.51
-2.26
-5.89
-9.53
-13.25
-17.05
-20.84
-24.56
-28.15
-31.65
-35.20
-38.97
-43.06
-47.40
-51.61
-55.00
-56.66
-55.68
-51.46
-43.89
-33.41
-20.91
-7.54
5.58
17.44
27.25
34.45
38.75
40.12
38.90
35.76
31.59
27.26
23.48
20.58
18.56
17.21
16.28
15.61
15.11
14.72
14.37
13.90
13.12
11.80
9.83
7.15
3.84
0.03
-4.11
-8.37
-12.55
-16.50
-20.20
-23.69
-27.17
-30.89
-35.07
-39.84
-45.06
-50.29
-54.79
-57.60
-57.76
-54.53
-47.65
-37.44
-24.76
-10.78
3.25
16.30
27.65
36.91
43.94
48.69
51.17
51.46
49.78
46.56
42.43
38.06
34.01
30.52
27.57
24.89
22.23
19.47
16.69
14.11
11.89
10.04
8.42
6.69
4.59
1.94
-1.26
-4.86
-8.60
-12.24
-15.71
-19.11
-22.68
-26.75
-31.62
-37.46
-44.26
-51.78
-59.56
-66.81
-72.56
-75.72
-75.43
-71.22
-63.18
-51.97
-38.55
-23.99
-9.20
5.05
18.19
29.69
39.08
45.98
50.19
51.82
51.24
49.11
46.15
43.01
40.07
37.47
35.17
33.05
31.09
29.41
28.11
27.20
26.51
25.72
24.49
22.57
19.89
16.59
12.80
8.63
4.10
-0.76
-5.88
-11.09
-16.19
-21.09
-25.86
-30.70
-35.88
-41.59
-47.82
-54.24
-60.27
-65.07
-67.72
-67.37
-63.48
-56.01
-45.43
-32.66
-18.80
-4.89
8.25
20.10
30.31
38.61
44.77
48.60
50.10
49.56
47.52
44.72
41.86
39.52
37.99
37.33
37.33
37.69
37.98
37.78
36.74
34.59
31.29
26.92
21.77
16.11
10.29
4.55
-0.90
-5.94
-10.53
-14.69
-18.49
-21.98
-25.19
-28.15
-30.88
-33.48
-36.17
-39.18
-42.78
-47.06
-51.92
-56.96
-61.44
-64.49
-65.13
-62.61
-56.55
-47.08
-34.82
-20.75
-6.05
8.12
20.77
31.18
38.94
43.96
46.48
46.93
45.90
43.98
41.68
39.35
37.19
35.30
33.70
32.44
31.55
31.01
30.68
30.26
29.44
27.95
25.69
22.78
19.40
15.76
11.99
8.14
4.28
0.48
-3.21
-6.80
-10.40
-14.19
-18.33
-22.86
-27.75
-32.91
-38.26
-43.74
-49.06
-53.62
-56.54
-56.78
-53.54
-46.57
-36.28
-23.69
-10.08
3.27
15.33
25.35
32.86
37.62
39.65
39.26
37.07
33.87
30.48
27.54
25.37
24.00
23.23
22.78
22.40
21.91
21.16
19.95
18.06
15.26
11.51
6.94
1.90
-3.15
-7.88
-12.11
-15.87
-19.35
-22.72
-26.19
-29.97
-34.25
-39.26
-45.04
-51.38
-57.62
-62.72
-65.48
-64.83
-60.20
-51.72
-40.06
-26.29
-11.53
3.25
17.21
29.61
39.78
47.17
51.50
52.93
52.03
49.61
46.47
43.21
40.14
37.37
34.86
32.53
30.29
28.10
25.86
23.52
20.99
18.16
14.85
10.80
5.88
0.13
-6.12
-12.33
-17.93
-22.60
-26.35
-29.56
-32.79
-36.57
-41.26
-47.01
-53.74
-61.04
-68.22
-74.22
-77.78
-77.69
-73.16
-64.07
-51.08
-35.43
-18.56
-1.82
13.85
27.93
40.13
50.23
57.97
63.03
65.22
64.69
61.96
57.96
53.64
49.76
46.65
44.14
41.86
39.46
36.79
33.93
31.10
28.41
25.82
23.15
20.17
16.77
12.94
8.73
4.25
-0.44
-5.29
-10.29
-15.43
-20.74
-26.27
-32.11
-38.35
-45.07
-52.30
-59.94
-67.56
-74.45
-79.56
-81.74
-79.97
-73.71
-63.07
-48.73
-31.81
-13.55
4.84
22.27
37.74
50.42
59.67
65.23
67.35
66.70
64.27
61.01
57.67
54.61
51.96
49.63
47.56
45.70
44.08
42.70
41.47
40.26
38.85
37.03
34.65
31.63
28.01
23.84
19.21
14.16
8.73
2.94
-3.12
-9.30
-15.40
-21.25
-26.83
-32.28
-37.82
-43.77
-50.35
-57.61
-65.33
-73.01
-79.70
-84.28
-85.48
-82.33
-74.37
-61.90
-45.95
-27.99
-9.61
7.83
23.33
36.27
46.28
53.18
56.99
57.98
56.69
53.85
50.26
46.63
43.44
40.91
39.11
37.96
37.33
37.01
36.79
36.40
35.48
33.77
31.10
27.43
22.90
17.74
12.18
6.44
0.63
-5.16
-10.87
-16.37
-21.54
-26.22
-30.35
-34.00
-37.45
-41.03
-45.14
-49.96
-55.34
-60.68
-64.98
-67.01
-65.69
-60.38
-51.12
-38.61
-23.99
-8.56
6.51
20.28
32.05
41.33
47.78
51.24
51.81
49.93
46.39
42.10
37.97
34.66
32.47
31.33
30.94
30.88
30.72
30.15
28.94
27.04
24.43
21.22
17.50
13.40
8.99
4.32
-0.61
-5.75
-10.96
-16.06
-20.87
-25.31
-29.38
-33.20
-36.96
-40.89
-45.27
-50.35
-56.20
-62.57
-68.71
-73.42
-75.32
-73.25
-66.71
-56.03
-42.24
-26.68
-10.62
4.95
19.29
31.77
41.74
48.72
52.51
53.29
51.69
48.58
44.86
41.22
38.16
35.88
34.41
33.59
33.18
32.97
32.72
32.29
31.62
30.57
29.01
26.80
23.87
20.28
16.22
11.91
7.48
2.92
-1.93
-7.18
-12.89
-18.88
-24.86
-30.52
-35.65
-40.21
-44.35
-48.32
-52.45
-57.00
-62.07
-67.56
-73.00
-77.60
-80.28
-79.93
-75.72
-67.26
-54.97
-39.78
-22.97
-5.90
10.34
24.95
37.40
47.32
54.47
58.81
60.54
60.13
58.28
55.76
53.19
50.98
49.22
47.85
46.70
45.68
44.75
43.96
43.27
42.59
41.66
40.19
37.96
34.92
31.17
26.98
22.58
18.12
13.68
9.24
4.81
0.40
-3.95
-8.25
-12.58
-17.02
-21.61
-26.29
-30.86
-35.08
-38.78
-41.99
-45.04
-48.40
-52.53
-57.65
-63.51
-69.38
-74.14
-76.57
-75.66
-70.90
-62.36
-50.64
-36.70
-21.60
-6.40
7.93
20.59
30.95
38.62
43.56
46.05
46.70
46.21
45.23
44.22
43.34
42.53
41.61
40.47
39.05
37.41
35.61
33.63
31.35
28.63
25.36
21.60
17.46
13.17
8.88
4.59
0.26
-4.13
-8.54
-12.82
-16.79
-20.31
-23.40
-26.18
-28.89
-31.81
-35.15
-39.07
-43.50
-48.17
-52.51
-55.67
-56.78
-55.08
-50.20
-42.29
-31.98
-20.19
-7.92
3.94
14.63
23.60
30.42
34.80
36.63
36.06
33.52
29.72
25.46
21.49
18.28
16.09
14.83
14.31
14.26
14.43
14.67
14.80
14.63
14.00
12.68
10.52
7.48
3.64
-0.75
-5.40
-10.04
-14.46
-18.64
-22.69
-26.79
-31.14
-35.91
-41.16
-46.80
-52.55
-57.87
-61.97
-63.90
-62.76
-57.94
-49.35
-37.52
-23.56
-8.82
5.40
18.12
28.75
37.09
43.13
46.92
48.57
48.25
46.32
43.29
39.84
36.66
34.32
33.15
33.12
33.97
35.25
36.52
37.41
37.74
37.45
36.60
35.32
33.78
32.10
30.34
28.52
26.56
24.39
21.94
19.20
16.20
13.00
9.58
5.82
1.48
-3.74
-10.05
-17.52
-25.91
-34.66
-42.80
-49.19
-52.63
-52.26
-47.78
-39.62
-28.85
-16.93
-5.29
4.95
13.15
19.10
22.85
24.55
24.45
22.78
19.90
16.23
12.20
8.15
4.28
0.62
-2.91
-6.34
-9.61
-12.43
-14.41
-15.15
-14.51
-12.66
-10.14
-7.68
-5.99
-5.50
-6.28
-8.08
-10.53
-13.33
-16.34
-19.61
-23.26
-27.44
-32.31
-37.94
-44.45
-51.96
-60.56
-70.23
-80.74
-91.59
-101.99
-111.01
-117.61
-120.89
-120.13
-114.93
-105.23
-91.32
-73.85
-53.74
-32.17
-10.37
10.48
29.30
45.30
57.95
67.09
72.90
75.91
76.80
76.30
75.02
73.35
71.51
69.62
67.78
66.17
64.95
64.19
63.88
63.77
63.55
62.85
61.37
58.97
55.64
51.40
46.29
40.23
33.11
24.77
15.09
4.04
-8.25
-21.36
-34.62
-47.01
-57.36
-64.55
-67.87
-67.16
-62.82
-55.62
-46.57
-36.71
-27.10
-18.76
-12.66
-9.45
-9.24
-11.53
-15.22
-18.96
-21.56
-22.21
-20.62
-16.87
-11.33
-4.53
2.80
9.77
15.44
18.97
19.86
18.08
13.96
8.08
0.96
-6.99
-15.58
-24.73
-34.37
-44.54
-55.30
-66.78
-79.05
-91.97
-105.04
-117.36
-127.76
-134.99
-138.04
-136.33
-129.75
-118.66
-103.73
-85.74
-65.54
-44.04
-22.18
-0.92
18.76
36.05
50.41
61.62
69.75
75.06
77.90
78.60
77.45
74.73
70.65
65.34
58.85
51.23
42.57
33.18
23.66
14.78
7.20
1.23
-3.33
-7.11
-10.87
-15.22
-20.36
-26.10
-32.03
-37.60
-42.23
-45.28
-46.09
-44.03
-38.67
-30.02
-18.60
-5.29
8.81
22.77
35.86
47.58
57.53
65.28
70.45
72.76
72.22
69.15
64.04
57.38
49.48
40.46
30.47
19.83
9.19
-0.64
-8.97
-15.45
-20.23
-23.65
-26.03
-27.36
-27.36
-25.67
-22.22
-17.41
-12.11
-7.42
-4.32
-3.37
-4.55
-7.31
-10.74
-13.76
-15.27
-14.33
-10.31
-2.99
7.36
19.96
33.66
47.16
59.25
69.01
75.99
80.15
81.87
81.75
80.55
78.99
77.70
77.12
77.47
78.70
80.54
82.57
84.38
85.62
86.13
85.89
84.93
83.30
80.91
77.66
73.50
68.44
62.66
56.35
49.66
42.62
35.17
27.14
18.46
9.09
-0.90
-11.41
-22.29
-33.45
-44.71
-55.82
-66.28
-75.35
-82.00
-85.23
-84.28
-78.91
-69.56
-57.23
-43.24
-28.94
-15.38
-3.36
6.64
14.22
19.14
21.35
21.19
19.45
17.27
15.76
15.70
17.26
19.99
23.02
25.47
26.73
26.61
25.32
23.20
20.63
17.84
14.91
11.86
8.73
5.62
2.75
0.40
-1.16
-1.80
-1.55
-0.69
0.30
0.88
0.54
-1.07
-3.99
-7.95
-12.39
-16.54
-19.61
-20.91
-20.00
-16.73
-11.35
-4.37
3.42
11.11
17.75
22.48
24.72
24.16
20.83
15.07
7.37
-1.64
-11.32
-21.05
-30.26
-38.48
-45.36
-50.80
-54.85
-57.77
-59.92
-61.63
-63.17
-64.71
-66.32
-68.00
-69.71
-71.32
-72.58
-73.15
-72.54
-70.38
-66.48
-61.04
-54.57
-47.78
-41.13
-34.66
-27.84
-19.87
-9.99
2.05
15.90
30.71
45.48
59.34
71.74
82.32
90.86
97.12
100.86
101.94
100.39
96.47
90.62
83.39
75.35
66.99
58.74
50.88
43.59
36.97
31.11
26.08
21.93
18.54
15.57
12.53
8.83
4.07
-1.84
-8.69
-16.08
-23.64
-31.18
-38.73
-46.46
-54.55
-62.99
-71.47
-79.40
-85.89
-89.90
-90.46
-86.89
-79.03
-67.29
-52.56
-35.99
-18.72
-1.73
14.24
28.53
40.62
50.04
56.48
59.97
60.84
59.64
57.01
53.46
49.37
44.99
40.58
36.38
32.62
29.43
26.77
24.44
22.15
19.74
17.16
14.58
12.20
10.11
8.21
6.13
3.39
-0.48
-5.74
-12.36
-20.04
-28.28
-36.50
-44.11
-50.52
-55.11
-57.26
-56.42
-52.22
-44.71
-34.29
-21.82
-8.39
4.90
17.06
27.44
35.63
41.45
44.83
45.73
44.28
40.72
35.61
29.61
23.44
17.63
12.50
8.14
4.58
1.90
0.25
-0.22
0.39
1.71
3.08
3.81
3.37
1.62
-1.21
-4.68
-8.41
-12.19
-16.06
-20.24
-24.97
-30.39
-36.54
-43.32
-50.49
-57.59
-63.85
-68.20
-69.47
-66.72
-59.58
-48.46
-34.41
-18.85
-3.17
11.58
24.72
35.74
44.24
49.86
52.44
52.18
49.66
45.79
41.49
37.44
33.91
30.88
28.07
25.29
22.41
19.52
16.74
14.13
11.60
8.95
5.97
2.55
-1.31
-5.49
-9.86
-14.34
-18.93
-23.63
-28.42
-33.18
-37.76
-42.08
-46.18
-50.22
-54.31
-58.38
-61.98
-64.33
-64.40
-61.31
-54.62
-44.50
-31.69
-17.30
-2.48
11.81
24.83
36.01
44.80
50.72
53.51
53.24
50.51
46.20
41.37
36.82
32.96
29.82
27.19
24.82
22.61
20.55
18.66
16.86
15.00
12.83
10.17
6.97
3.29
-0.74
-4.98
-9.36
-13.84
-18.46
-23.30
-28.51
-34.25
-40.57
-47.24
-53.60
-58.64
-61.23
-60.40
-55.72
-47.39
-36.18
-23.16
-9.39
4.16
16.72
27.59
36.12
41.76
44.22
43.60
40.44
35.66
30.28
25.20
21.01
17.84
15.51
13.62
11.80
9.80
7.49
4.85
1.86
-1.51
-5.29
-9.47
-13.95
-18.61
-23.37
-28.27
-33.49
-39.27
-45.81
-53.07
-60.62
-67.70
-73.18
-75.87
-74.78
-69.40
-59.84
-46.82
-31.50
-15.15
1.02
16.04
29.23
40.06
48.19
53.43
55.83
55.68
53.50
49.98
45.71
41.15
36.58
32.11
27.83
23.86
20.31
17.24
14.52
11.89
8.92
5.30
0.85
-4.31
-9.88
-15.52
-20.95
-26.14
-31.33
-36.94
-43.37
-50.75
-58.79
-66.61
-72.94
-76.35
-75.65
-70.16
-59.92
-45.58
-28.30
-9.47
9.48
27.27
42.85
55.50
64.82
70.70
73.33
73.12
70.62
66.46
61.28
55.61
49.88
44.36
39.21
34.53
30.43
27.00
24.19
21.83
19.55
16.92
13.56
9.27
4.12
-1.60
-7.53
-13.33
-18.83
-24.04
-29.20
-34.67
-40.85
-48.07
-56.36
-65.36
-74.23
-81.77
-86.63
-87.57
-83.79
-75.05
-61.73
-44.78
-25.48
-5.27
14.46
32.46
47.79
59.89
68.56
73.93
76.38
76.35
74.40
71.06
66.94
62.63
58.59
55.08
52.12
49.52
46.99
44.35
41.51
38.46
35.21
31.70
27.82
23.46
18.59
13.33
7.88
2.41
-3.04
-8.51
-14.17
-20.15
-26.44
-32.93
-39.44
-45.80
-51.96
-58.09
-64.49
-71.43
-78.92
-86.51
-93.24
-97.83
-98.89
-95.32
-86.60
-72.87
-54.93
-33.98
-11.51
10.94
31.91
50.17
64.86
75.57
82.35
85.62
86.04
84.33
81.14
77.03
72.44
67.73
63.16
58.88
54.96
51.41
48.18
45.23
42.48
39.85
37.17
34.31
31.12
27.54
23.54
19.13
14.37
9.32
4.08
-1.25
-6.54
-11.72
-16.72
-21.55
-26.24
-30.82
-35.33
-39.77
-44.22
-48.78
-53.61
-58.93
-64.96
-71.76
-79.06
-86.16
-91.88
-94.80
-93.63
-87.55
-76.56
-61.45
-43.64
-24.80
-6.42
10.39
24.94
36.89
46.11
52.59
56.45
57.95
57.49
55.58
52.77
49.55
46.33
43.41
41.02
39.31
38.26
37.74
37.42
36.92
35.91
34.21
31.79
28.81
25.44
21.80
17.95
13.89
9.62
5.20
0.70
-3.79
-8.25
-12.73
-17.29
-22.00
-26.85
-31.88
-37.18
-42.88
-49.07
-55.57
-61.76
-66.64
-69.00
-67.80
-62.59
-53.57
-41.53
-27.63
-13.04
1.25
14.40
25.75
34.70
40.81
43.87
44.03
41.86
38.20
33.97
30.00
26.84
24.73
23.68
23.46
23.74
24.09
24.08
23.38
21.81
19.41
16.37
12.99
9.64
6.65
4.36
2.91
2.29
2.20
2.22
1.86
0.76
-1.20
-3.94
-7.21
-10.79
-14.49
-18.28
-22.18
-26.26
-30.57
-35.15
-39.98
-45.09
-50.52
-56.21
-61.91
-67.02
-70.58
-71.47
-68.72
-61.93
-51.38
-38.00
-23.07
-7.80
6.89
20.36
32.10
41.58
48.24
51.62
51.61
48.62
43.54
37.55
31.80
27.05
23.57
21.13
19.29
17.65
16.03
14.40
12.83
11.26
9.46
7.13
4.01
0.06
-4.49
-9.23
-13.79
-17.97
-21.89
-25.81
-30.13
-35.12
-40.93
-47.53
-54.74
-62.21
-69.36
-75.32
-79.02
-79.38
-75.54
-67.19
-54.71
-39.10
-21.77
-4.17
12.45
27.21
39.53
49.13
55.86
59.77
61.06
60.14
57.57
54.00
50.02
46.12
42.59
39.60
37.20
35.33
33.82
32.40
30.75
28.66
26.02
22.89
19.34
15.40
10.99
5.97
0.25
-6.04
-12.52
-18.71
-24.24
-29.04
-33.42
-37.94
-43.18
-49.47
-56.74
-64.40
-71.53
-77.02
-79.81
-79.07
-74.37
-65.69
-53.45
-38.43
-21.69
-4.43
12.24
27.37
40.30
50.62
58.15
62.92
65.06
64.87
62.75
59.24
54.91
50.30
45.86
41.87
38.49
35.75
33.54
31.73
30.08
28.38
26.40
24.00
21.10
17.72
13.94
9.88
5.61
1.15
-3.52
-8.42
-13.47
-18.56
-23.57
-28.46
-33.35
-38.49
-44.14
-50.44
-57.30
-64.37
-71.02
-76.32
-79.25
-78.81
-74.30
-65.53
-52.95
-37.55
-20.62
-3.46
12.86
27.46
39.69
49.04
55.22
58.26
58.59
57.02
54.45
51.68
49.23
47.28
45.77
44.58
43.57
42.65
41.74
40.74
39.53
38.00
36.05
33.61
30.61
27.08
23.08
18.71
14.08
9.24
4.21
-0.97
-6.21
-11.29
-16.02
-20.29
-24.16
-27.85
-31.64
-35.83
-40.63
-46.16
-52.32
-58.74
-64.77
-69.45
-71.74
-70.70
-65.79
-56.99
-44.79
-30.11
-14.11
1.94
16.84
29.52
39.19
45.43
48.27
48.17
45.92
42.48
38.72
35.26
32.39
30.12
28.29
26.74
25.34
24.01
22.66
21.19
19.46
17.36
14.82
11.85
8.47
4.74
0.75
-3.35
-7.35
-11.06
-14.41
-17.51
-20.68
-24.28
-28.63
-33.89
-39.92
-46.35
-52.49
-57.43
-60.18
-59.89
-56.04
-48.60
-38.07
-25.28
-11.29
2.82
16.04
27.47
36.43
42.43
45.33
45.35
43.00
38.97
34.03
28.84
23.94
19.68
16.17
13.43
11.34
9.77
8.55
7.55
6.57
5.32
3.44
0.67
-3.07
-7.54
-12.26
-16.78
-20.87
-24.67
-28.65
-33.32
-39.04
-45.80
-53.21
-60.57
-66.98
-71.47
-73.15
-71.23
-65.33
-55.46
-42.18
-26.49
-9.65
7.04
22.44
35.65
46.03
53.23
57.16
58.03
56.33
52.80
48.25
43.46
38.97
35.01
31.58
28.47
25.56
22.80
20.28
18.12
16.29
14.56
12.59
10.02
6.72
2.79
-1.47
-5.72
-9.76
-13.60
-17.39
-21.39
-25.82
-30.88
-36.80
-43.73
-51.67
-60.19
-68.39
-74.84
-77.96
-76.41
-69.61
-57.98
-42.75
-25.63
-8.26
8.17
22.97
35.84
46.57
54.89
60.54
63.44
63.86
62.43
60.00
57.28
54.70
52.34
50.08
47.87
45.79
43.99
42.56
41.36
40.01
38.07
35.30
31.71
27.58
23.22
18.75
14.09
8.99
3.33
-2.82
-9.15
-15.27
-20.87
-25.88
-30.46
-34.94
-39.69
-45.02
-51.12
-57.96
-65.18
-72.01
-77.33
-79.92
-78.65
-72.84
-62.44
-47.99
-30.57
-11.50
7.82
26.14
42.48
56.17
66.82
74.29
78.66
80.13
79.04
75.85
71.12
65.47
59.51
53.74
48.55
44.18
40.68
37.96
35.75
33.72
31.53
28.98
25.97
22.51
18.68
14.52
10.03
5.16
-0.08
-5.60
-11.22
-16.73
-21.99
-27.02
-32.01
-37.23
-43.02
-49.48
-56.49
-63.56
-69.90
-74.53
-76.44
-74.79
-69.15
-59.54
-46.53
-31.13
-14.62
1.68
16.62
29.36
39.38
46.47
50.65
52.16
51.37
48.73
44.81
40.15
35.28
30.68
26.70
23.54
21.28
19.77
18.76
17.93
16.97
15.63
13.75
11.28
8.24
4.76
0.99
-2.91
-6.86
-10.91
-15.26
-20.18
-25.93
-32.54
-39.74
-46.89
-53.08
-57.24
-58.44
-56.02
-49.82
-40.19
-27.91
-14.08
0.13
13.65
25.61
35.40
42.68
47.27
49.23
48.84
46.59
43.11
39.11
35.13
31.52
28.40
25.73
23.43
21.46
19.79
18.34
16.93
15.32
13.24
10.47
6.99
2.95
-1.41
-5.80
-10.02
-14.07
-18.13
-22.49
-27.45
-33.18
-39.59
-46.40
-52.99
-58.56
-62.19
-63.05
-60.51
-54.35
-44.83
-32.65
-18.83
-4.54
9.15
21.32
31.35
38.90
43.93
46.59
47.22
46.19
43.95
40.94
37.66
34.61
32.23
30.73
30.07
29.93
29.85
29.39
28.25
26.35
23.85
20.93
17.79
14.49
10.94
7.03
2.63
-2.24
-7.39
-12.57
-17.52
-22.15
-26.56
-31.05
-35.93
-41.42
-47.46
-53.66
-59.35
-63.67
-65.76
-64.93
-60.83
-53.48
-43.30
-31.00
-17.50
-3.83
9.03
20.23
29.17
35.53
39.31
40.77
40.33
38.53
35.95
33.12
30.46
28.22
26.43
25.00
23.73
22.46
21.14
19.76
18.28
16.60
14.60
12.14
9.22
5.94
2.48
-1.02
-4.44
-7.79
-11.10
-14.45
-17.92
-21.64
-25.78
-30.42
-35.46
-40.47
-44.73
-47.33
-47.45
-44.63
-38.96
-31.01
-21.68
-11.96
-2.70
5.44
12.02
16.67
19.19
19.54
17.97
15.03
11.51
8.14
5.42
3.48
2.06
0.75
-0.80
-2.77
-5.12
-7.67
-10.31
-12.99
-15.80
-18.89
-22.35
-26.18
-30.29
-34.58
-39.01
-43.64
-48.69
-54.39
-60.91
-68.15
-75.66
-82.61
-87.90
-90.47
-89.62
-85.23
-77.84
-68.47
-58.35
-48.57
-39.95
-32.91
-27.71
-24.44
-23.14
-23.74
-25.99
-29.36
-33.14
-36.48
-38.45
-38.02
-34.02
-25.28
-10.83
9.62
35.20
63.86
92.61
118.34
138.54
151.87
158.13
157.89
151.99
141.27
126.55
108.80
89.22
69.11
49.55
31.22
14.39
-0.80
-14.04
-24.65
-31.70
-34.39
-32.44
-26.32
-17.22
-6.74
3.58
12.53
19.45
24.25
27.25
28.97
29.91
30.39
30.51
30.21
29.37
27.93
25.95
23.62
21.09
18.47
15.80
13.07
10.28
7.47
4.68
1.82
-1.24
-4.77
-9.00
-14.02
-19.77
-26.15
-33.09
-40.63
-48.95
-58.07
-67.75
-77.30
-85.58
-91.28
-93.22
-90.74
-83.88
-73.33
-60.16
-45.55
-30.53
-15.89
-2.21
10.03
20.44
28.64
34.46
37.90
39.19
38.77
37.16
34.88
32.36
29.89
27.63
25.65
23.99
22.71
21.83
21.33
21.01
20.56
19.59
17.83
15.21
11.90
8.21
4.44
0.76
-2.89
-6.65
-10.68
-15.08
-19.82
-24.91
-30.42
-36.50
-43.26
-50.55
-57.80
-64.01
-67.94
-68.37
-64.52
-56.25
-44.08
-29.10
-12.63
4.05
19.89
34.08
46.04
55.26
61.42
64.45
64.63
62.61
59.29
55.57
52.17
49.48
47.56
46.30
45.49
44.88
44.26
43.41
42.20
40.60
38.63
36.35
33.79
30.88
27.48
23.49
18.83
13.54
7.75
1.66
-4.41
-10.21
-15.50
-20.23
-24.56
-28.84
-33.51
-38.98
-45.47
-52.78
-60.21
-66.59
-70.44
-70.38
-65.60
-56.12
-42.87
-27.39
-11.37
3.76
17.10
28.20
36.87
43.05
46.76
48.23
47.92
46.57
44.88
43.37
42.23
41.29
40.24
38.82
36.94
34.75
32.49
30.40
28.54
26.80
24.92
22.51
19.27
15.10
10.11
4.66
-0.80
-5.86
-10.34
-14.32
-18.16
-22.33
-27.28
-33.29
-40.37
-48.16
-55.96
-62.72
-67.27
-68.59
-65.97
-59.32
-49.10
-36.22
-21.80
-6.95
7.29
19.95
30.11
37.03
40.33
40.21
37.47
33.24
28.63
24.40
20.86
17.99
15.65
13.79
12.49
11.80
11.66
11.77
11.62
10.69
8.61
5.26
0.84
-4.27
-9.56
-14.56
-18.99
-22.76
-26.08
-29.36
-33.10
-37.73
-43.41
-49.89
-56.46
-62.06
-65.43
-65.49
-61.53
-53.43
-41.68
-27.23
-11.28
4.89
20.15
33.60
44.59
52.75
58.00
60.44
60.41
58.40
54.97
50.73
46.22
41.89
38.01
34.71
31.97
29.68
27.69
25.91
24.25
22.59
20.75
18.42
15.29
11.13
5.91
-0.14
-6.59
-12.95
-18.78
-23.86
-28.23
-32.17
-36.15
-40.63
-46.00
-52.42
-59.71
-67.32
-74.29
-79.39
-81.32
-79.08
-72.23
-61.08
-46.55
-29.95
-12.69
4.06
19.40
32.72
43.55
51.59
56.73
59.15
59.36
58.12
56.21
54.17
52.20
50.20
47.99
45.49
42.89
40.53
38.70
37.46
36.50
35.37
33.60
30.99
27.65
23.93
20.13
16.39
12.59
8.39
3.44
-2.44
-9.16
-16.38
-23.58
-30.31
-36.31
-41.58
-46.41
-51.24
-56.48
-62.41
-69.00
-75.96
-82.64
-88.13
-91.33
-91.07
-86.43
-77.01
-63.10
-45.77
-26.59
-7.31
10.58
26.07
38.61
48.11
54.66
58.57
60.18
59.98
58.47
56.20
53.61
51.01
48.60
46.48
44.70
43.30
42.24
41.45
40.76
39.94
38.77
37.02
34.52
31.23
27.25
22.89
18.52
14.52
11.11
8.21
5.54
2.66
-0.79
-4.94
-9.64
-14.49
-19.10
-23.25
-27.02
-30.70
-34.72
-39.48
-45.16
-51.74
-58.94
-66.23
-72.84
-77.81
-80.13
-78.86
-73.42
-63.73
-50.29
-34.12
-16.55
1.09
17.55
31.92
43.56
52.16
57.70
60.42
60.77
59.37
56.85
53.80
50.62
47.58
44.79
42.36
40.36
38.80
37.68
36.83
36.03
35.01
33.53
31.46
28.74
25.43
21.59
17.31
12.72
7.92
3.05
-1.81
-6.61
-11.38
-16.18
-21.05
-26.01
-31.01
-36.04
-41.12
-46.34
-51.77
-57.40
-62.96
-67.87
-71.18
-71.86
-69.05
-62.32
-51.93
-38.66
-23.67
-8.13
6.93
20.67
32.36
41.35
47.18
49.66
49.05
46.08
41.75
37.06
32.75
29.18
26.39
24.21
22.44
20.93
19.59
18.37
17.16
15.84
14.19
11.99
9.06
5.32
0.84
-4.19
-9.51
-14.84
-19.95
-24.68
-29.00
-32.99
-36.95
-41.25
-46.27
-52.18
-58.78
-65.38
-70.95
-74.23
-74.13
-69.92
-61.51
-49.39
-34.57
-18.32
-1.89
13.63
27.39
38.80
47.43
53.04
55.60
55.40
53.01
49.19
44.68
40.10
35.78
31.88
28.48
25.67
23.52
22.07
21.23
20.72
20.21
19.36
17.95
15.92
13.33
10.26
6.76
2.88
-1.40
-6.01
-10.85
-15.74
-20.50
-25.02
-29.33
-33.60
-38.15
-43.29
-49.27
-56.06
-63.26
-70.04
-75.23
-77.54
-75.92
-69.82
-59.40
-45.50
-29.43
-12.59
3.70
18.44
30.95
40.81
47.82
52.04
53.73
53.40
51.68
49.20
46.42
43.65
41.02
38.58
36.39
34.51
33.00
31.89
31.09
30.44
29.66
28.52
26.83
24.48
21.52
18.04
14.23
10.19
6.01
1.61
-3.08
-8.07
-13.33
-18.71
-24.04
-29.21
-34.25
-39.29
-44.57
-50.29
-56.44
-62.71
-68.37
-72.38
-73.59
-71.07
-64.39
-53.76
-40.02
-24.37
-8.12
7.58
21.81
33.93
43.52
50.36
54.47
56.02
55.45
53.27
50.03
46.25
42.43
38.97
36.20
34.29
33.20
32.65
32.21
31.46
30.14
28.22
25.89
23.34
20.68
17.86
14.73
11.20
7.28
3.11
-1.16
-5.44
-9.74
-14.16
-18.75
-23.58
-28.59
-33.77
-39.10
-44.58
-50.21
-55.80
-60.93
-64.86
-66.68
-65.44
-60.49
-51.66
-39.43
-24.83
-9.22
6.01
19.73
31.15
39.90
45.90
49.24
50.22
49.27
46.98
44.06
41.18
38.80
37.00
35.55
34.02
32.05
29.51
26.49
23.26
20.06
16.97
13.92
10.77
7.44
3.92
0.31
-3.27
-6.73
-10.05
-13.21
-16.26
-19.29
-22.50
-26.10
-30.33
-35.27
-40.78
-46.35
-51.22
-54.47
-55.26
-52.99
-47.55
-39.25
-28.84
-17.27
-5.59
5.24
14.45
21.46
25.94
27.81
27.29
24.89
21.32
17.42
13.90
11.26
9.63
8.80
8.37
7.93
7.28
6.36
5.25
3.96
2.41
0.36
-2.35
-5.73
-9.54
-13.42
-17.06
-20.39
-23.65
-27.17
-31.20
-35.81
-40.77
-45.74
-50.27
-53.93
-56.21
-56.55
-54.44
-49.53
-41.86
-31.91
-20.50
-8.63
2.73
12.81
21.05
27.13
30.98
32.69
32.61
31.21
29.00
26.43
23.90
21.68
20.00
18.98
18.60
18.71
18.97
19.01
18.49
17.21
15.14
12.35
8.99
5.18
1.07
-3.19
-7.51
-11.88
-16.46
-21.54
-27.41
-34.22
-41.78
-49.42
-56.14
-60.76
-62.22
-59.95
-53.98
-44.89
-33.67
-21.39
-8.96
2.92
13.82
23.42
31.42
37.57
41.65
43.61
43.62
42.08
39.58
36.74
34.13
32.09
30.67
29.66
28.72
27.52
25.87
23.74
21.29
18.67
16.01
13.27
10.32
6.99
3.20
-0.99
-5.41
-9.87
-14.23
-18.50
-22.85
-27.47
-32.56
-38.19
-44.30
-50.62
-56.67
-61.71
-64.86
-65.25
-62.26
-55.73
-46.06
-34.09
-20.85
-7.30
5.79
17.88
28.49
37.27
43.92
48.31
50.67
51.42
51.19
50.49
49.67
48.82
47.88
46.83
45.76
44.82
44.23
44.03
44.13
44.29
44.21
43.68
42.69
41.33
39.75
38.00
35.99
33.56
30.52
26.83
22.53
17.80
12.84
7.87
3.07
-1.41
-5.47
-9.13
-12.52
-15.88
-19.45
-23.33
-27.50
-31.80
-36.11
-40.40
-44.83
-49.65
-55.09
-61.25
-68.03
-75.08
-81.77
-87.24
-90.48
-90.54
-86.81
-79.18
-68.11
-54.46
-39.31
-23.71
-8.56
5.40
17.62
27.73
35.62
41.40
45.39
47.94
49.40
49.98
49.88
49.29
48.43
47.49
46.57
45.69
44.80
43.92
43.06
42.25
41.36
40.19
38.50
36.21
33.43
30.41
27.46
24.69
22.07
19.41
16.59
13.56
10.42
7.26
4.12
0.92
-2.42
-5.96
-9.64
-13.33
-16.88
-20.17
-23.22
-26.15
-29.19
-32.67
-36.91
-42.17
-48.46
-55.46
-62.48
-68.48
-72.34
-73.07
-70.08
-63.32
-53.30
-40.92
-27.27
-13.35
0.00
12.20
22.83
31.63
38.46
43.28
46.22
47.56
47.67
46.98
45.92
44.86
44.01
43.41
43.00
42.67
42.26
41.71
40.97
40.03
38.89
37.52
35.93
34.09
31.95
29.42
26.41
22.97
19.28
15.65
12.41
9.78
7.69
5.86
3.88
1.38
-1.79
-5.60
-9.84
-14.21
-18.48
-22.49
-26.23
-29.92
-33.88
-38.45
-43.81
-49.83
-56.13
-62.03
-66.76
-69.48
-69.45
-66.14
-59.36
-49.42
-37.14
-23.69
-10.34
1.88
12.31
20.71
27.06
31.45
33.97
34.84
34.42
33.21
31.73
30.34
29.19
28.27
27.51
26.87
26.42
26.24
26.30
26.44
26.38
25.93
25.00
23.61
21.81
19.62
17.00
13.93
10.53
6.98
3.50
0.27
-2.67
-5.40
-8.03
-10.65
-13.36
-16.22
-19.36
-22.94
-27.14
-32.01
-37.48
-43.23
-48.78
-53.48
-56.61
-57.49
-55.60
-50.76
-43.19
-33.42
-22.26
-10.49
1.14
12.06
21.80
29.97
36.23
40.37
42.38
42.47
41.13
38.93
36.41
33.95
31.77
29.96
28.56
27.53
26.81
26.25
25.60
24.62
23.14
21.15
18.75
16.11
13.35
10.51
7.58
4.53
1.37
-1.88
-5.26
-8.84
-12.70
-16.81
-21.06
-25.21
-29.11
-32.72
-36.25
-40.02
-44.38
-49.53
-55.45
-61.77
-67.85
-72.87
-75.89
-76.09
-72.90
-66.20
-56.37
-44.18
-30.65
-16.72
-3.20
9.30
20.29
29.35
36.14
40.54
42.70
43.10
42.43
41.34
40.26
39.34
38.48
37.51
36.35
35.10
33.97
33.14
32.63
32.32
31.91
31.08
29.54
27.23
24.24
20.83
17.32
13.90
10.56
7.16
3.46
-0.70
-5.32
-10.21
-15.09
-19.75
-24.10
-28.26
-32.46
-36.95
-41.92
-47.43
-53.44
-59.70
-65.76
-70.94
-74.33
-75.02
-72.27
-65.81
-55.92
-43.38
-29.29
-14.76
-0.69
12.24
23.59
33.00
40.21
45.10
47.79
48.68
48.35
47.43
46.37
45.42
44.57
43.69
42.71
41.60
40.45
39.30
38.16
36.88
35.29
33.22
30.57
27.40
23.90
20.28
16.75
13.40
10.18
6.96
3.58
-0.10
-4.05
-8.19
-12.31
-16.20
-19.76
-23.00
-26.07
-29.24
-32.74
-36.81
-41.51
-46.72
-52.04
-56.86
-60.34
-61.68
-60.27
-55.90
-48.76
-39.40
-28.53
-16.85
-5.03
6.28
16.47
24.85
30.84
34.11
34.70
33.11
30.10
26.59
23.34
20.88
19.40
18.79
18.71
18.79
18.68
18.25
17.52
16.62
15.65
14.51
12.90
10.48
7.04
2.70
-2.20
-7.12
-11.68
-15.74
-19.48
-23.18
-27.09
-31.30
-35.80
-40.52
-45.34
-50.08
-54.31
-57.39
-58.53
-57.08
-52.72
-45.56
-36.10
-24.99
-12.95
-0.66
11.13
21.65
30.15
36.11
39.42
40.47
39.95
38.59
36.95
35.24
33.51
31.77
30.11
28.66
27.48
26.49
25.46
24.13
22.37
20.20
17.75
15.11
12.27
9.11
5.49
1.38
-3.12
-7.79
-12.41
-16.88
-21.26
-25.78
-30.77
-36.52
-43.18
-50.59
-58.29
-65.48
-71.19
-74.45
-74.45
-70.73
-63.30
-52.62
-39.53
-25.10
-10.44
3.44
15.78
26.09
34.15
39.97
43.75
45.82
46.64
46.67
46.29
45.74
45.06
44.21
43.09
41.77
40.36
39.05
37.93
36.93
35.82
34.34
32.33
29.83
26.97
23.91
20.70
17.17
13.13
8.42
3.13
-2.46
-7.98
-13.17
-17.99
-22.72
-27.74
-33.43
-39.99
-47.35
-55.14
-62.71
-69.24
-73.79
-75.51
-73.72
-68.15
-58.98
-46.89
-32.84
-17.92
-3.13
10.76
23.22
33.91
42.66
49.33
53.89
56.45
57.29
56.88
55.78
54.49
53.32
52.34
51.45
50.54
49.56
48.54
47.51
46.39
44.96
42.96
40.26
36.94
33.31
29.78
26.61
23.86
21.39
18.98
16.49
13.87
11.20
8.60
6.12
3.82
1.68
-0.37
-2.48
-4.87
-7.77
-11.34
-15.60
-20.35
-25.36
-30.33
-35.09
-39.56
-43.83
-48.11
-52.70
-57.91
-63.88
-70.36
-76.66
-81.68
-84.24
-83.39
-78.63
-70.14
-58.55
-44.87
-30.27
-15.87
-2.62
8.80
18.12
25.44
31.18
35.80
39.68
43.03
45.93
48.47
50.79
53.10
55.51
57.92
60.07
61.56
62.16
61.80
60.65
58.94
56.79
54.17
50.92
46.89
42.07
36.58
30.68
24.57
18.39
12.25
6.28
0.68
-4.39
-8.78
-12.56
-15.89
-18.95
-21.85
-24.51
-26.82
-28.68
-30.13
-31.41
-32.75
-34.37
-36.41
-38.95
-42.06
-45.69
-49.58
-53.18
-55.61
-55.94
-53.39
-47.69
-39.11
-28.43
-16.71
-4.93
6.06
15.67
23.43
28.93
31.87
32.17
30.22
26.86
23.18
20.17
18.42
17.93
18.23
18.75
19.17
19.54
20.22
21.56
23.68
26.35
29.03
31.10
32.07
31.71
30.03
27.28
23.78
19.84
15.69
11.45
7.11
2.65
-1.97
-6.72
-11.48
-16.11
-20.50
-24.65
-28.73
-32.98
-37.63
-42.84
-48.55
-54.50
-60.25
-65.23
-68.75
-70.15
-68.80
-64.31
-56.61
-45.99
-33.16
-19.02
-4.61
9.08
21.18
31.00
38.14
42.51
44.38
44.28
42.94
41.09
39.27
37.78
36.63
35.67
34.67
33.50
32.20
30.97
30.06
29.59
29.43
29.17
28.30
26.42
23.47
19.73
15.67
11.69
7.97
4.45
0.89
-2.86
-6.87
-11.08
-15.36
-19.61
-23.73
-27.66
-31.33
-34.75
-38.03
-41.50
-45.53
-50.47
-56.45
-63.23
-70.15
-76.26
-80.47
-81.78
-79.56
-73.62
-64.27
-52.22
-38.39
-23.71
-9.02
5.01
17.80
28.89
37.96
44.84
49.56
52.32
53.49
53.45
52.61
51.33
49.95
48.74
47.85
47.34
47.10
46.93
46.57
45.84
44.63
42.90
40.67
38.00
34.97
31.72
28.40
25.14
21.95
18.83
15.68
12.48
9.18
5.79
2.24
-1.57
-5.73
-10.24
-15.02
-19.92
-24.78
-29.57
-34.39
-39.42
-44.82
-50.71
-57.09
-63.82
-70.60
-76.85
-81.78
-84.44
-83.98
-79.85
-72.03
-60.96
-47.41
-32.36
-16.73
-1.41
12.82
25.33
35.63
43.49
48.90
52.19
53.74
54.05
53.53
52.50
51.18
49.72
48.26
46.92
45.86
45.10
44.59
44.13
43.49
42.45
40.95
39.07
36.98
34.82
32.59
30.18
27.44
24.29
20.81
17.20
13.68
10.34
7.08
3.70
-0.04
-4.22
-8.77
-13.46
-18.01
-22.18
-25.92
-29.32
-32.67
-36.32
-40.62
-45.83
-51.98
-58.88
-66.04
-72.65
-77.72
-80.26
-79.47
-74.99
-66.97
-56.01
-42.98
-28.81
-14.34
-0.28
12.74
24.10
33.27
39.82
43.70
45.23
45.05
43.96
42.69
41.71
41.14
40.85
40.57
40.10
39.36
38.38
37.27
36.01
34.58
32.86
30.78
28.35
25.67
22.84
19.90
16.85
13.69
10.43
7.14
3.86
0.59
-2.82
-6.52
-10.59
-14.91
-19.27
-23.45
-27.31
-30.93
-34.50
-38.30
-42.58
-47.50
-53.03
-58.94
-64.65
-69.28
-71.83
-71.40
-67.48
-60.13
-49.87
-37.56
-24.13
-10.43
2.74
14.68
24.74
32.46
37.66
40.45
41.31
40.83
39.65
38.26
36.95
35.79
34.67
33.44
32.00
30.37
28.77
27.42
26.52
26.01
25.66
25.07
23.91
22.02
19.48
16.53
13.50
10.61
8.01
5.67
3.39
0.91
-2.11
-5.86
-10.34
-15.29
-20.24
-24.78
-28.69
-32.05
-35.22
-38.64
-42.68
-47.46
-52.96
-58.93
-65.00
-70.66
-75.20
-77.85
-77.86
-74.72
-68.26
-58.76
-46.84
-33.38
-19.32
-5.57
7.15
18.31
27.61
34.96
40.37
43.96
45.93
46.60
46.39
45.75
45.08
44.59
44.27
43.90
43.24
42.20
40.80
39.22
37.60
35.95
34.16
32.05
29.46
26.38
22.89
19.18
15.43
11.82
8.47
5.43
2.71
0.17
-2.35
-5.04
-8.07
-11.50
-15.32
-19.42
-23.71
-28.09
-32.53
-37.01
-41.57
-46.30
-51.31
-56.66
-62.22
-67.56
-71.96
-74.55
-74.53
-71.43
-65.19
-56.15
-44.89
-32.10
-18.47
-4.76
8.22
19.64
28.78
35.23
39.02
40.65
40.88
40.49
40.03
39.75
39.63
39.56
39.44
39.26
39.10
39.00
38.91
38.72
38.25
37.38
36.04
34.26
32.10
29.65
26.91
23.91
20.68
17.32
14.02
10.96
8.23
5.69
3.03
-0.11
-3.97
-8.48
-13.39
-18.29
-22.98
-27.45
-31.96
-36.79
-42.17
-48.13
-54.47
-60.83
-66.65
-71.31
-74.05
-74.22
-71.40
-65.52
-56.85
-45.88
-33.26
-19.66
-5.86
7.29
18.95
28.43
35.40
39.97
42.62
43.93
44.42
44.35
43.79
42.70
41.11
39.21
37.33
35.79
34.79
34.27
33.94
33.33
32.03
29.84
26.86
23.40
19.85
16.49
13.41
10.47
7.46
4.20
0.64
-3.08
-6.75
-10.14
-13.14
-15.83
-18.40
-21.14
-24.30
-28.03
-32.37
-37.24
-42.43
-47.61
-52.32
-55.95
-57.84
-57.37
-54.12
-47.97
-39.17
-28.32
-16.22
-3.77
8.17
18.91
27.91
34.77
39.32
41.61
41.96
40.91
39.08
37.06
35.25
33.82
32.74
31.88
31.04
30.05
28.81
27.25
25.41
23.41
21.32
19.19
16.95
14.40
11.31
7.52
3.07
-1.84
-6.85
-11.63
-16.00
-19.99
-23.79
-27.65
-31.81
-36.38
-41.46
-47.13
-53.43
-60.25
-67.14
-73.23
-77.37
-78.42
-75.63
-68.95
-58.98
-46.77
-33.47
-20.05
-7.22
4.57
14.97
23.72
30.62
35.65
38.90
40.63
41.22
41.03
40.42
39.65
38.86
38.07
37.26
36.41
35.60
34.87
34.24
33.59
32.67
31.23
29.11
26.36
23.16
19.75
16.24
12.63
8.83
4.74
0.34
-4.31
-9.10
-13.93
-18.74
-23.54
-28.41
-33.49
-39.00
-45.16
-52.05
-59.42
-66.57
-72.42
-75.70
-75.33
-70.76
-62.12
-50.17
-36.04
-20.86
-5.61
9.01
22.51
34.42
44.32
51.84
56.80
59.31
59.81
58.96
57.47
55.86
54.35
52.88
51.23
49.24
46.97
44.70
42.75
41.32
40.27
39.25
37.78
35.56
32.58
29.09
25.50
22.14
19.16
16.45
13.72
10.58
6.66
1.79
-3.95
-10.16
-16.33
-21.98
-26.92
-31.34
-35.68
-40.46
-46.05
-52.52
-59.63
-66.91
-73.69
-79.13
-82.32
-82.37
-78.62
-70.88
-59.49
-45.29
-29.36
-12.88
3.12
17.79
30.45
40.64
48.12
52.94
55.41
56.04
55.44
54.16
52.61
51.08
49.71
48.53
47.55
46.72
46.02
45.42
44.86
44.28
43.55
42.53
41.12
39.24
36.90
34.20
31.23
28.11
24.90
21.60
18.17
14.51
10.50
6.05
1.12
-4.24
-9.91
-15.71
-21.46
-27.04
-32.42
-37.63
-42.72
-47.73
-52.78
-57.99
-63.49
-69.28
-75.09
-80.27
-83.84
-84.71
-82.01
-75.34
-64.94
-51.56
-36.31
-20.40
-4.92
9.21
21.32
30.95
37.90
42.23
44.24
44.46
43.52
42.13
40.91
40.26
40.29
40.81
41.46
41.86
41.81
41.40
40.89
40.57
40.51
40.54
40.23
39.20
37.18
34.17
30.37
26.00
21.19
15.98
10.33
4.34
-1.77
-7.65
-13.03
-17.83
-22.27
-26.77
-31.76
-37.56
-44.17
-51.26
-58.32
-64.72
-69.78
-72.89
-73.47
-71.12
-65.59
-56.93
-45.52
-32.08
-17.57
-2.97
10.81
23.09
33.43
41.59
47.47
51.05
52.51
52.20
50.63
48.43
46.17
44.22
42.71
41.53
40.48
39.36
38.06
36.50
34.66
32.49
29.98
27.08
23.80
20.18
16.34
12.40
8.54
4.88
1.44
-1.89
-5.32
-9.09
-13.39
-18.15
-23.16
-28.05
-32.53
-36.55
-40.31
-44.27
-48.88
-54.49
-61.11
-68.42
-75.75
-82.25
-86.90
-88.76
-87.06
-81.45
-72.05
-59.43
-44.57
-28.58
-12.55
2.65
16.36
28.09
37.55
44.61
49.36
52.10
53.27
53.39
52.91
52.13
51.18
50.11
48.93
47.71
46.60
45.70
45.06
44.63
44.22
43.60
42.53
40.80
38.28
34.94
30.91
26.42
21.78
17.30
13.13
9.26
5.53
1.74
-2.25
-6.45
-10.79
-15.15
-19.48
-23.79
-28.13
-32.58
-37.21
-42.09
-47.37
-53.21
-59.74
-66.84
-74.06
-80.53
-85.14
-86.76
-84.57
-78.24
-67.98
-54.52
-38.83
-22.08
-5.35
10.38
24.35
36.06
45.25
51.85
56.01
57.95
58.05
56.80
54.74
52.43
50.28
48.50
47.04
45.75
44.43
43.01
41.50
39.98
38.49
37.00
35.32
33.26
30.69
27.61
24.12
20.46
16.77
13.11
9.41
5.48
1.18
-3.58
-8.68
-13.90
-18.95
-23.59
-27.72
-31.46
-35.07
-38.92
-43.35
-48.55
-54.52
-60.95
-67.25
-72.57
-75.97
-76.58
-73.84
-67.62
-58.26
-46.48
-33.19
-19.34
-5.77
6.82
17.81
26.66
33.00
36.65
37.78
36.92
34.81
32.24
29.81
27.84
26.38
25.31
24.50
23.84
23.25
22.59
21.74
20.57
19.05
17.24
15.25
13.13
10.82
8.20
5.16
1.64
-2.23
-6.27
-10.28
-14.21
-18.10
-22.13
-26.48
-31.31
-36.70
-42.65
-49.07
-55.65
-61.85
-66.88
-69.80
-69.75
-66.16
-58.96
-48.60
-35.90
-21.82
-7.32
6.78
19.74
30.92
39.76
45.90
49.28
50.21
49.26
47.11
44.40
41.58
38.94
36.61
34.63
32.97
31.51
30.05
28.46
26.60
24.48
22.08
19.34
16.11
12.22
7.56
2.24
-3.47
-9.20
-14.69
-19.81
-24.71
-29.64
-34.88
-40.69
-47.23
-54.51
-62.38
-70.43
-77.97
-84.07
-87.69
-87.88
-84.01
-75.87
-63.81
-48.60
-31.32
-13.21
4.50
20.73
34.67
45.84
54.13
59.70
62.97
64.40
64.47
63.51
61.77
59.48
56.91
54.31
51.95
49.94
48.20
46.50
44.52
42.05
39.06
35.65
31.98
28.12
23.98
19.37
14.14
8.29
2.00
-4.46
-10.85
-17.03
-23.04
-28.93
-34.78
-40.64
-46.57
-52.75
-59.37
-66.52
-73.97
-81.04
-86.64
-89.51
-88.55
-83.11
-73.23
-59.54
-43.12
-25.20
-6.96
10.59
26.67
40.70
52.23
61.02
66.98
70.27
71.22
70.34
68.17
65.27
62.05
58.84
55.86
53.26
51.09
49.33
47.85
46.41
44.71
42.54
39.75
36.37
32.56
28.52
24.45
20.42
16.37
12.15
7.52
2.29
-3.60
-10.06
-16.82
-23.54
-29.92
-35.73
-40.99
-45.89
-50.78
-56.10
-62.16
-68.99
-76.21
-82.92
-87.88
-89.76
-87.51
-80.66
-69.47
-54.81
-37.92
-20.12
-2.57
13.83
28.39
40.59
50.01
56.47
60.00
60.95
59.95
57.76
55.09
52.42
49.97
47.75
45.69
43.81
42.16
40.78
39.54
38.19
36.34
33.74
30.29
26.18
21.71
17.20
12.83
8.67
4.64
0.64
-3.43
-7.70
-12.27
-17.17
-22.40
-27.84
-33.45
-39.26
-45.41
-51.94
-58.58
-64.63
-68.95
-70.31
-67.79
-61.08
-50.66
-37.56
-23.05
-8.32
5.63
18.08
28.41
36.12
40.89
42.69
41.88
39.21
35.64
32.03
28.97
26.62
24.79
23.14
21.40
19.54
17.67
15.98
14.48
12.99
11.15
8.61
5.21
1.04
-3.60
-8.37
-13.00
-17.44
-21.83
-26.45
-31.62
-37.63
-44.62
-52.47
-60.74
-68.61
-75.01
-78.71
-78.67
-74.24
-65.41
-52.78
-37.44
-20.73
-3.94
11.85
25.88
37.63
46.78
53.14
56.70
57.65
56.42
53.71
50.26
46.74
43.56
40.84
38.43
36.14
33.80
31.40
29.03
26.75
24.58
22.30
19.63
16.26
11.99
6.86
1.13
-4.83
-10.71
-16.36
-21.84
-27.40
-33.29
-39.75
-46.85
-54.58
-62.79
-71.18
-79.21
-86.05
-90.65
-91.94
-89.11
-81.84
-70.40
-55.63
-38.72
-20.94
-3.45
12.89
27.45
39.81
49.66
56.83
61.29
63.21
63.01
61.27
58.65
55.73
52.91
50.34
48.04
45.85
43.65
41.37
38.96
36.39
33.65
30.69
27.44
23.83
19.78
15.25
10.24
4.80
-0.95
-6.81
-12.55
-17.96
-22.98
-27.70
-32.39
-37.47
-43.30
-50.05
-57.63
-65.51
-72.86
-78.61
-81.66
-81.08
-76.32
-67.25
-54.28
-38.30
-20.46
-2.09
15.56
31.50
45.10
56.03
64.24
69.80
72.85
73.60
72.38
69.65
65.99
62.00
58.12
54.69
51.81
49.43
47.40
45.49
43.49
41.15
38.35
35.05
31.31
27.25
22.99
18.60
14.11
9.47
4.63
-0.48
-5.88
-11.51
-17.27
-23.01
-28.68
-34.39
-40.39
-47.01
-54.54
-62.92
-71.68
-79.84
-86.15
-89.33
-88.44
-83.10
-73.56
-60.58
-45.19
-28.45
-11.37
5.16
20.25
33.10
43.00
49.55
52.77
53.15
51.49
48.69
45.51
42.42
39.61
37.15
35.01
33.17
31.63
30.30
29.02
27.58
25.76
23.36
20.26
16.37
11.67
6.22
0.19
-6.14
-12.42
-18.38
-23.90
-29.01
-33.85
-38.57
-43.31
-48.15
-53.19
-58.33
-63.22
-67.14
-69.05
-67.82
-62.64
-53.35
-40.56
-25.44
-9.39
6.43
21.19
34.38
45.57
54.28
60.04
62.57
62.10
59.33
55.32
51.08
47.32
44.28
41.82
39.59
37.27
34.62
31.57
28.13
24.34
20.18
15.61
10.52
4.86
-1.36
-8.00
-14.78
-21.38
-27.48
-32.92
-37.72
-42.14
-46.56
-51.44
-57.12
-63.69
-70.92
-78.20
-84.59
-88.90
-89.93
-86.73
-78.86
-66.52
-50.57
-32.33
-13.29
5.25
22.30
37.26
49.78
59.63
66.64
70.71
71.87
70.45
67.05
62.49
57.60
53.06
49.25
46.23
43.83
41.78
39.76
37.50
34.82
31.65
28.05
24.22
20.49
17.21
14.63
12.81
11.62
10.81
10.06
9.15
7.94
6.31
4.21
1.64
-1.34
-4.59
-7.98
-11.38
-14.78
-18.22
-21.78
-25.44
-29.16
-32.84
-36.44
-40.02
-43.80
-48.06
-53.08
-58.99
-65.70
-72.69
-79.08
-83.71
-85.36
-83.06
-76.36
-65.43
-51.02
-34.19
-16.18
1.86
19.00
34.53
47.92
58.82
67.02
72.44
75.23
75.80
74.78
72.92
70.89
69.14
67.79
66.73
65.75
64.78
63.87
63.17
62.75
62.42
61.80
60.38
57.79
53.99
49.34
44.43
39.86
36.01
32.91
30.29
27.75
24.91
21.53
17.61
13.25
8.59
3.77
-1.19
-6.44
-12.32
-19.26
-27.73
-38.09
-50.46
-64.64
-80.07
-95.78
-110.53
-122.91
-131.70
-136.08
-135.88
-131.49
-123.75
-113.58
-101.80
-89.01
-75.73
-62.41
-49.57
-37.66
-26.97
-17.56
-9.26
-1.77
5.13
11.56
17.42
22.48
26.47
29.22
30.75
31.27
31.16
30.76
30.28
29.76
29.06
28.06
26.76
25.24
23.63
21.91
19.92
17.41
14.23
10.44
6.40
2.65
-0.26
-2.01
-2.58
-2.30
-1.84
-1.98
-3.45
-6.71
-11.73
-17.88
-24.06
-28.94
-31.26
-30.22
-25.64
-17.88
-7.72
3.88
15.93
27.46
37.65
45.75
51.25
53.93
53.95
51.80
48.19
43.96
39.86
36.49
34.16
32.90
32.51
32.59
32.73
32.55
31.86
30.56
28.72
26.42
23.67
20.37
16.36
11.47
5.73
-0.59
-7.07
-13.22
-18.73
-23.57
-27.96
-32.25
-36.77
-41.80
-47.55
-54.16
-61.64
-69.63
-77.36
-83.56
-86.77
-85.73
-79.78
-69.10
-54.54
-37.39
-18.99
-0.51
16.99
32.59
45.39
54.66
60.01
61.54
59.90
56.07
51.09
45.84
40.84
36.33
32.46
29.29
26.92
25.33
24.38
23.76
23.11
22.13
20.62
18.52
15.81
12.51
8.67
4.39
-0.16
-4.82
-9.46
-14.05
-18.69
-23.44
-28.33
-33.34
-38.44
-43.66
-49.11
-55.00
-61.46
-68.47
-75.72
-82.57
-88.00
-90.83
-89.86
-84.20
-73.58
-58.48
-40.12
-20.10
-0.04
18.72
35.24
49.01
59.73
67.26
71.66
73.19
72.38
69.95
66.60
62.94
59.30
55.81
52.50
49.41
46.67
44.40
42.70
41.48
40.51
39.45
37.94
35.73
32.72
28.98
24.69
20.06
15.32
10.62
5.98
1.28
-3.64
-8.93
-14.63
-20.69
-26.91
-33.09
-39.10
-44.94
-50.76
-56.83
-63.38
-70.51
-78.06
-85.53
-92.13
-96.88
-98.78
-97.04
-91.19
-81.21
-67.51
-50.93
-32.60
-13.79
4.27
20.55
34.36
45.32
53.35
58.59
61.45
62.46
62.30
61.60
60.81
60.09
59.38
58.57
57.64
56.71
55.96
55.51
55.23
54.88
54.15
52.94
51.34
49.63
47.94
46.18
43.85
40.30
34.97
27.55
18.13
7.06
-5.17
-18.11
-31.29
-44.22
-56.37
-67.23
-76.55
-84.39
-91.07
-96.88
-101.74
-105.01
-105.57
-102.19
-94.05
-81.15
-64.32
-44.96
-24.62
-4.61
14.12
30.80
44.72
55.17
61.61
63.97
62.86
59.41
54.99
50.69
47.08
44.16
41.66
39.27
36.88
34.52
32.22
29.92
27.37
24.25
20.40
15.86
10.87
5.78
0.82
-3.95
-8.61
-13.33
-18.20
-23.18
-28.17
-33.02
-37.63
-42.00
-46.22
-50.44
-54.78
-59.19
-63.45
-66.95
-68.85
-68.20
-64.24
-56.67
-45.76
-32.31
-17.39
-2.13
12.53
25.83
37.20
46.20
52.50
55.95
56.65
55.03
51.74
47.61
43.40
39.63
36.53
34.06
32.00
30.14
28.37
26.71
25.24
24.01
22.97
21.96
20.73
19.06
16.75
13.72
9.97
5.56
0.65
-4.55
-9.82
-14.97
-19.89
-24.61
-29.27
-34.09
-39.30
-45.11
-51.62
-58.69
-65.91
-72.49
-77.36
-79.33
-77.39
-71.09
-60.57
-46.65
-30.51
-13.48
3.31
19.00
33.00
44.86
54.26
60.88
64.57
65.45
63.94
60.77
56.81
52.86
49.46
46.80
44.78
43.10
41.44
39.61
37.52
35.24
32.82
30.29
27.60
24.72
21.56
18.09
14.31
10.19
5.69
0.76
-4.60
-10.32
-16.26
-22.22
-28.03
-33.53
-38.72
-43.68
-48.64
-53.91
-59.70
-66.03
-72.44
-78.06
-81.63
-81.92
-78.11
-69.99
-58.10
-43.46
-27.32
-10.84
4.99
19.40
31.72
41.44
48.19
51.93
53.00
52.04
49.85
47.24
44.82
42.98
41.76
41.00
40.47
39.89
39.09
37.96
36.44
34.43
31.77
28.36
24.20
19.47
14.49
9.63
5.19
1.28
-2.16
-5.29
-8.27
-11.22
-14.20
-17.21
-20.13
-22.72
-24.49
-24.78
-22.86
-18.10
-10.16
0.89
14.63
30.36
47.27
64.48
81.13
96.43
109.74
120.59
128.91
134.92
139.15
142.15
144.45
146.41
148.12
149.37
149.74
148.64
145.48
139.66
130.54
117.55
100.30
78.69
52.95
23.73
-7.92
-40.82
-73.74
-105.79
-136.18
-164.24
-189.40
-211.35
-230.06
-245.74
-258.56
-268.47
-275.42
-278.79
-277.61
-271.13
-259.45
-243.51
-224.82
-204.89
-184.92
-166.61
-150.80
-137.49
-126.28
-117.00
-109.67
-104.38
-101.06
-99.50
-100.86
-105.49
-112.63
-120.83
-129.18
-137.05
-144.11
-149.79
-153.25
-155.19
-155.28
-151.97
-143.29
-128.46
-107.61
-81.63
-51.56
-7.43
51.11
115.35
172.89
215.93
243.37
258.57
265.36
266.31
262.67
253.09
237.32
217.04
197.52
179.86
164.29
150.24
136.80
123.38
108.47
92.08
75.90
62.38
52.89
47.93
46.90
47.31
47.51
45.68
41.28
34.92
27.50
19.01
9.20
-2.13
-14.54
-26.59
-37.10
-45.07
-50.10
-52.41
-52.82
-51.95
-50.08
-47.38
-43.89
-40.03
-36.15
-32.11
-27.17
-20.35
-10.69
2.22
18.01
35.72
53.97
71.37
86.78
99.45
108.97
115.32
118.73
119.64
118.71
116.68
114.21
111.82
109.75
107.95
106.13
103.90
100.90
96.94
92.09
86.55
80.57
74.29
67.68
60.53
52.57
43.59
33.56
22.64
11.14
-0.70
-12.69
-24.80
-37.11
-49.75
-62.86
-76.55
-90.76
-105.10
-118.70
-130.32
-138.56
-142.23
-140.76
-134.32
-123.76
-110.27
-95.03
-78.97
-62.76
-46.89
-31.90
-18.43
-7.14
1.51
7.37
10.67
11.92
11.80
10.98
10.07
9.56
9.81
11.01
13.11
15.85
18.81
21.57
23.87
25.61
26.73
27.14
26.58
24.74
21.41
16.64
10.77
4.32
-2.23
-8.61
-14.76
-20.73
-26.58
-32.31
-37.88
-43.30
-48.73
-54.44
-60.74
-67.79
-75.46
-83.25
-90.34
-95.75
-98.54
-98.04
-94.00
-86.52
-76.08
-63.38
-49.28
-34.74
-20.72
-8.11
2.35
10.20
15.29
17.81
18.17
16.89
14.51
11.55
8.48
5.81
4.00
3.47
4.46
6.86
10.30
14.19
17.93
21.16
23.80
25.98
27.87
29.47
30.55
30.70
29.48
26.67
22.41
17.16
11.63
6.65
2.82
0.52
-0.29
0.05
0.85
1.31
0.66
-1.48
-4.91
-8.67
-11.22
-10.87
-6.32
2.85
16.06
31.96
48.95
65.65
81.14
94.86
106.44
115.44
121.41
123.97
123.05
118.99
112.46
104.34
95.42
86.31
77.41
68.87
60.78
53.17
46.06
39.49
33.44
27.86
22.57
17.29
11.70
5.58
-1.15
-8.36
-15.77
-23.17
-30.44
-37.66
-45.03
-52.67
-60.56
-68.51
-76.21
-83.39
-89.75
-94.89
-98.25
-99.04
-96.41
-89.73
-78.87
-64.36
-47.33
-29.20
-11.40
4.90
18.85
29.96
37.97
42.88
44.92
44.57
42.45
39.30
35.79
32.45
29.62
27.42
25.81
24.57
23.45
22.22
20.69
18.80
16.57
14.08
11.40
8.57
5.55
2.28
-1.31
-5.27
-9.60
-14.27
-19.21
-24.26
-29.31
-34.26
-39.12
-44.06
-49.34
-55.30
-62.11
-69.75
-77.81
-85.57
-92.12
-96.45
-97.72
-95.34
-89.04
-78.94
-65.50
-49.47
-31.77
-13.40
4.69
21.64
36.72
49.35
59.08
65.71
69.29
70.23
69.15
66.77
63.72
60.42
57.01
53.53
49.98
46.51
43.36
40.81
38.96
37.71
36.69
35.43
33.49
30.60
26.74
22.04
16.69
10.88
4.77
-1.53
-7.96
-14.52
-21.25
-28.14
-35.14
-42.03
-48.51
-54.25
-59.10
-63.12
-66.62
-70.03
-73.73
-77.98
-82.77
-87.75
-92.25
-95.27
-95.61
-92.15
-84.15
-71.51
-54.88
-35.51
-14.89
5.56
24.65
41.52
55.52
66.15
73.11
76.36
76.28
73.63
69.39
64.59
60.06
56.26
53.30
51.06
49.33
47.94
46.77
45.72
44.65
43.33
41.49
38.91
35.53
31.45
26.89
22.14
17.31
12.44
7.45
2.31
-2.89
-7.93
-12.60
-16.79
-20.62
-24.43
-28.60
-33.49
-39.28
-45.96
-53.30
-60.81
-67.74
-73.08
-75.80
-74.97
-70.07
-61.14
-48.70
-33.65
-17.02
0.13
16.80
32.05
44.94
54.74
61.01
63.71
63.24
60.31
55.82
50.61
45.40
40.66
36.66
33.45
30.91
28.81
26.88
24.84
22.50
19.80
16.75
13.43
9.90
6.23
2.41
-1.58
-5.79
-10.33
-15.22
-20.45
-25.96
-31.69
-37.65
-43.95
-50.73
-57.92
-65.08
-71.29
-75.27
-75.86
-72.23
-64.29
-52.59
-38.10
-21.96
-5.26
10.95
25.68
37.96
46.98
52.27
53.90
52.42
48.79
44.06
39.17
34.75
31.01
27.93
25.30
22.94
20.67
18.41
15.96
13.13
9.66
5.36
0.17
-5.75
-12.11
-18.57
-24.91
-31.08
-37.24
-43.66
-50.62
-58.31
-66.62
-75.07
-82.78
-88.54
-91.08
-89.41
-83.07
-72.24
-57.71
-40.57
-22.05
-3.29
14.67
30.84
44.33
54.45
60.86
63.67
63.42
60.92
57.03
52.41
47.56
42.77
38.28
34.27
30.85
28.01
25.54
23.12
20.37
16.97
12.72
7.60
1.76
-4.51
-10.86
-16.97
-22.72
-28.19
-33.72
-39.78
-46.82
-55.04
-64.21
-73.63
-82.09
-88.14
-90.33
-87.59
-79.51
-66.42
-49.38
-29.87
-9.43
10.57
29.16
45.61
59.44
70.27
77.86
82.14
83.30
81.83
78.39
73.77
68.62
63.49
58.65
54.24
50.26
46.65
43.33
40.16
37.02
33.74
30.14
26.09
21.49
16.36
10.78
4.86
-1.28
-7.56
-13.89
-20.18
-26.33
-32.33
-38.26
-44.41
-51.15
-58.78
-67.28
-76.15
-84.31
-90.32
-92.67
-90.18
-82.33
-69.36
-52.25
-32.47
-11.64
8.69
27.24
43.11
55.79
65.11
71.16
74.27
74.93
73.71
71.15
67.74
63.89
59.92
56.07
52.59
49.68
47.45
45.86
44.65
43.37
41.52
38.66
34.57
29.35
23.34
16.96
10.61
4.50
-1.37
-7.12
-12.94
-18.91
-24.97
-30.96
-36.72
-42.19
-47.57
-53.16
-59.32
-66.17
-73.40
-80.19
-85.34
-87.50
-85.54
-78.87
-67.52
-52.16
-33.91
-14.12
5.85
24.74
41.47
55.17
65.32
71.74
74.64
74.58
72.29
68.59
64.16
59.54
55.10
51.07
47.59
44.71
42.36
40.43
38.72
37.03
35.17
33.01
30.43
27.38
23.86
19.91
15.60
11.01
6.20
1.17
-4.08
-9.58
-15.20
-20.82
-26.26
-31.45
-36.46
-41.44
-46.70
-52.49
-58.95
-65.94
-72.93
-79.00
-82.92
-83.42
-79.56
-70.97
-58.14
-42.21
-24.69
-7.15
9.18
23.43
35.10
43.84
49.43
51.82
51.17
48.03
43.26
37.89
32.86
28.78
25.83
23.82
22.41
21.28
20.24
19.28
18.37
17.45
16.33
14.75
12.49
9.52
5.96
2.10
-1.83
-5.68
-9.42
-13.23
-17.31
-21.86
-27.07
-33.01
-39.68
-46.87
-54.09
-60.56
-65.32
-67.33
-65.79
-60.32
-51.04
-38.51
-23.62
-7.46
8.81
24.04
37.17
47.40
54.22
57.61
57.93
55.85
52.13
47.48
42.55
37.84
33.75
30.46
28.01
26.20
24.66
22.99
20.90
18.25
15.13
11.68
8.07
4.37
0.50
-3.69
-8.34
-13.52
-19.13
-24.95
-30.68
-36.15
-41.33
-46.45
-51.83
-57.77
-64.40
-71.54
-78.74
-85.29
-90.30
-92.80
-91.84
-86.75
-77.24
-63.64
-46.78
-27.94
-8.55
10.03
26.70
40.71
51.64
59.36
63.98
65.82
65.34
63.14
59.81
55.93
52.00
48.41
45.40
43.05
41.27
39.84
38.45
36.83
34.80
32.28
29.29
25.85
21.93
17.49
12.51
7.06
1.32
-4.45
-10.00
-15.18
-20.00
-24.58
-29.12
-33.85
-38.92
-44.49
-50.61
-57.34
-64.54
-71.85
-78.54
-83.57
-85.70
-83.86
-77.39
-66.31
-51.32
-33.64
-14.72
4.09
21.61
36.99
49.60
59.06
65.28
68.43
68.97
67.52
64.76
61.24
57.37
53.43
49.60
46.11
43.16
40.90
39.31
38.21
37.25
36.07
34.37
32.00
28.96
25.36
21.37
17.13
12.71
8.08
3.20
-1.94
-7.28
-12.66
-17.95
-23.06
-28.01
-32.90
-37.86
-43.02
-48.50
-54.43
-60.83
-67.48
-73.81
-78.83
-81.28
-79.93
-74.04
-63.56
-49.20
-32.22
-14.14
3.58
19.75
33.54
44.41
52.09
56.52
57.89
56.59
53.31
48.87
44.16
39.91
36.60
34.37
33.05
32.31
31.75
31.06
30.04
28.59
26.66
24.28
21.47
18.28
14.74
10.84
6.58
1.97
-2.90
-7.87
-12.80
-17.62
-22.41
-27.37
-32.78
-38.79
-45.40
-52.34
-59.14
-65.12
-69.49
-71.36
-70.00
-64.90
-56.01
-43.80
-29.14
-13.21
2.78
17.65
30.46
40.43
47.05
50.14
49.94
47.13
42.67
37.65
32.93
29.11
26.35
24.53
23.36
22.54
21.81
21.00
20.00
18.71
17.00
14.66
11.46
7.27
2.12
-3.74
-9.92
-15.98
-21.65
-26.88
-31.83
-36.83
-42.25
-48.45
-55.58
-63.52
-71.76
-79.35
-85.00
-87.40
-85.47
-78.73
-67.43
-52.41
-34.91
-16.25
2.39
20.01
35.76
48.94
58.99
65.60
68.84
69.10
67.09
63.62
59.39
54.92
50.56
46.53
43.05
40.26
38.23
36.85
35.81
34.70
33.09
30.69
27.43
23.45
18.93
14.08
8.95
3.54
-2.21
-8.29
-14.57
-20.85
-26.91
-32.65
-38.13
-43.55
-49.21
-55.41
-62.28
-69.63
-76.86
-82.99
-86.80
-87.11
-83.12
-74.58
-61.90
-45.96
-27.91
-8.97
9.71
27.10
42.31
54.62
63.58
69.07
71.35
70.96
68.66
65.20
61.27
57.38
53.86
50.88
48.45
46.51
44.97
43.72
42.68
41.72
40.75
39.58
38.03
35.92
33.15
29.71
25.69
21.28
16.67
12.04
7.48
2.98
-1.54
-6.23
-11.24
-16.63
-22.40
-28.37
-34.30
-39.94
-45.16
-50.04
-54.89
-60.15
-66.21
-73.19
-80.79
-88.27
-94.49
-98.21
-98.25
-93.85
-84.72
-71.16
-54.01
-34.52
-14.12
5.75
23.82
39.22
51.48
60.50
66.47
69.70
70.60
69.62
67.26
64.08
60.65
57.46
54.83
52.84
51.40
50.25
49.12
47.78
46.12
44.12
41.83
39.33
36.59
33.55
30.05
26.00
21.42
16.51
11.56
6.87
2.56
-1.45
-5.40
-9.50
-13.85
-18.39
-22.95
-27.42
-31.82
-36.26
-40.92
-45.92
-51.29
-57.03
-63.13
-69.56
-76.13
-82.33
-87.26
-89.73
-88.53
-82.87
-72.63
-58.37
-41.29
-22.85
-4.44
12.84
28.16
40.94
50.69
57.12
60.09
59.87
57.12
52.85
48.15
43.95
40.78
38.72
37.47
36.59
35.64
34.37
32.71
30.72
28.49
26.08
23.52
20.82
18.00
15.09
12.13
9.05
5.72
1.98
-2.27
-7.00
-12.02
-17.07
-21.95
-26.59
-31.06
-35.53
-40.22
-45.30
-50.85
-56.73
-62.49
-67.35
-70.26
-70.15
-66.21
-58.17
-46.38
-31.76
-15.52
1.07
16.89
31.08
42.97
52.07
58.04
60.72
60.27
57.20
52.38
46.87
41.64
37.36
34.26
32.18
30.75
29.54
28.26
26.69
24.72
22.25
19.19
15.47
11.08
6.11
0.72
-4.96
-10.81
-16.74
-22.71
-28.69
-34.66
-40.60
-46.59
-52.77
-59.39
-66.69
-74.74
-83.35
-91.82
-99.11
-103.93
-105.08
-101.79
-93.86
-81.73
-66.26
-48.53
-29.65
-10.71
7.25
23.25
36.50
46.48
53.08
56.60
57.59
56.71
54.51
51.46
47.93
44.26
40.75
37.64
35.03
32.91
31.17
29.65
28.21
26.75
25.15
23.35
21.23
18.77
15.92
12.69
9.06
4.97
0.30
-5.02
-11.02
-17.55
-24.31
-31.02
-37.47
-43.75
-50.18
-57.17
-64.96
-73.29
-81.38
-87.96
-91.62
-91.17
-85.95
-76.02
-62.05
-45.11
-26.42
-7.18
11.55
28.80
43.73
55.65
64.11
69.00
70.61
69.58
66.78
63.18
59.61
56.67
54.68
53.67
53.44
53.62
53.82
53.61
52.63
50.65
47.57
43.47
38.57
33.20
27.71
22.36
17.28
12.32
7.27
1.83
-4.12
-10.47
-16.96
-23.31
-29.35
-35.18
-41.05
-47.28
-54.10
-61.56
-69.45
-77.32
-84.42
-89.70
-91.93
-89.90
-82.85
-70.71
-54.26
-34.95
-14.51
5.46
23.72
39.46
52.18
61.61
67.61
70.31
70.17
67.99
64.75
61.40
58.58
56.52
55.04
53.76
52.25
50.20
47.56
44.42
41.00
37.47
33.94
30.35
26.59
22.56
18.21
13.61
8.78
3.75
-1.57
-7.31
-13.60
-20.39
-27.62
-35.15
-42.98
-51.18
-59.75
-68.38
-76.31
-82.33
-85.11
-83.61
-77.49
-67.14
-53.58
-38.00
-21.52
-4.98
10.95
25.61
38.27
48.19
54.82
57.99
58.00
55.53
51.46
46.64
41.70
37.06
32.92
29.39
26.56
24.49
23.18
22.45
21.90
20.98
19.09
15.84
11.16
5.35
-1.08
-7.62
-13.97
-20.08
-26.15
-32.41
-39.07
-46.26
-53.92
-61.83
-69.41
-75.78
-79.75
-80.14
-76.07
-67.33
-54.40
-38.43
-20.82
-2.95
14.10
29.54
42.80
53.46
61.13
65.65
67.11
65.97
62.98
58.99
54.74
50.67
46.90
43.34
39.87
36.43
33.16
30.22
27.72
25.58
23.51
21.07
17.81
13.41
7.79
1.14
-6.14
-13.55
-20.67
-27.28
-33.42
-39.40
-45.64
-52.62
-60.67
-69.84
-79.71
-89.40
-97.53
-102.51
-102.89
-97.77
-87.06
-71.56
-52.70
-32.17
-11.52
8.07
25.81
41.21
53.98
63.95
71.08
75.49
77.46
77.38
75.67
72.74
68.99
64.81
60.52
56.38
52.54
48.99
45.67
42.49
39.36
36.20
32.86
29.15
24.82
19.76
13.97
7.66
1.08
-5.51
-11.99
-18.33
-24.56
-30.69
-36.78
-42.91
-49.25
-56.03
-63.42
-71.35
-79.36
-86.58
-91.82
-93.81
-91.54
-84.46
-72.60
-56.50
-37.13
-15.72
6.33
27.53
46.51
62.10
73.63
80.97
84.44
84.69
82.44
78.40
73.22
67.59
62.17
57.55
54.10
51.84
50.51
49.61
48.64
47.21
45.08
42.15
38.40
33.87
28.66
22.90
16.70
10.20
3.43
-3.57
-10.71
-17.80
-24.61
-30.94
-36.70
-42.05
-47.33
-52.96
-59.30
-66.53
-74.53
-82.79
-90.33
-95.86
-97.94
-95.36
-87.53
-74.69
-57.88
-38.66
-18.68
0.61
18.17
33.23
45.31
54.03
59.20
60.98
59.84
56.59
52.27
47.84
44.07
41.36
39.75
38.99
38.66
38.36
37.80
36.80
35.26
33.03
29.93
25.78
20.53
14.33
7.55
0.68
-5.83
-11.73
-17.06
-22.10
-27.28
-33.03
-39.66
-47.28
-55.78
-64.78
-73.55
-81.07
-86.10
-87.40
-84.02
-75.62
-62.57
-45.86
-26.85
-6.99
12.40
30.28
45.75
58.16
67.03
72.14
73.61
71.92
67.82
62.18
55.93
49.84
44.51
40.23
37.00
34.54
32.41
30.20
27.60
24.52
20.99
17.07
12.76
8.02
2.80
-2.80
-8.58
-14.35
-20.02
-25.64
-31.41
-37.45
-43.75
-50.10
-56.29
-62.19
-67.92
-73.81
-80.09
-86.74
-93.20
-98.40
-100.94
-99.45
-92.97
-81.27
-64.85
-44.90
-22.93
-0.49
21.12
40.83
57.89
71.69
81.85
88.17
90.82
90.31
87.47
83.21
78.32
73.32
68.41
63.64
59.04
54.78
51.09
48.16
45.95
44.06
41.94
39.05
35.14
30.29
24.88
19.32
13.88
8.59
3.24
-2.41
-8.50
-15.00
-21.70
-28.28
-34.44
-40.02
-45.03
-49.67
-54.26
-59.19
-64.80
-71.34
-78.81
-86.83
-94.52
-100.53
-103.24
-101.13
-93.29
-79.65
-61.10
-39.19
-15.81
7.33
28.80
47.57
62.93
74.39
81.72
85.04
84.86
82.08
77.75
72.86
68.11
63.79
59.94
56.48
53.37
50.63
48.31
46.33
44.43
42.28
39.57
36.16
32.12
27.61
22.78
17.70
12.32
6.59
0.50
-5.79
-12.10
-18.28
-24.23
-29.94
-35.48
-40.93
-46.43
-52.12
-58.26
-65.06
-72.55
-80.40
-87.81
-93.59
-96.35
-94.91
-88.56
-77.25
-61.56
-42.63
-21.91
-1.03
18.47
35.31
48.54
57.73
62.84
64.22
62.53
58.64
53.46
47.92
42.71
38.25
34.60
31.58
28.95
26.56
24.38
22.45
20.73
18.99
16.78
13.63
9.23
3.58
-2.92
-9.69
-16.14
-21.91
-27.00
-31.68
-36.40
-41.59
-47.61
-54.63
-62.65
-71.37
-80.06
-87.51
-92.23
-92.69
-87.82
-77.37
-61.97
-42.97
-22.03
-0.78
19.46
37.68
53.11
65.15
73.41
77.76
78.41
75.97
71.28
65.30
58.91
52.76
47.26
42.60
38.80
35.73
33.19
30.88
28.47
25.63
22.17
17.99
13.18
7.94
2.46
-3.10
-8.72
-14.49
-20.48
-26.71
-33.09
-39.50
-45.81
-52.02
-58.32
-65.02
-72.43
-80.72
-89.61
-98.36
-105.68
-110.00
-109.76
-103.87
-92.06
-74.93
-53.85
-30.57
-6.90
15.67
35.97
53.13
66.56
75.84
80.93
82.17
80.35
76.54
71.84
67.09
62.70
58.72
54.96
51.25
47.49
43.80
40.35
37.27
34.48
31.75
28.69
24.95
20.36
14.94
8.93
2.72
-3.34
-8.96
-14.04
-18.64
-22.95
-27.23
-31.82
-37.08
-43.30
-50.65
-59.08
-68.22
-77.22
-84.87
-89.65
-90.14
-85.34
-75.05
-59.93
-41.31
-20.88
-0.23
19.34
36.88
51.65
63.09
70.74
74.48
74.63
72.01
67.78
63.06
58.71
55.09
52.16
49.68
47.45
45.41
43.61
42.08
40.67
39.03
36.73
33.39
28.89
23.35
17.11
10.61
4.21
-1.81
-7.41
-12.67
-17.81
-23.14
-28.92
-35.38
-42.67
-50.73
-59.21
-67.35
-73.98
-77.67
-77.03
-71.13
-59.81
-43.76
-24.42
-3.65
16.74
35.23
50.72
62.51
70.23
73.81
73.51
69.88
63.78
56.24
48.31
40.82
34.31
28.97
24.72
21.45
18.89
16.83
15.03
13.30
11.43
9.21
6.52
3.37
-0.06
-3.84
-8.04
-12.73
-17.79
-23.00
-28.29
-33.73
-39.39
-45.13
-51.05
-56.80
-61.44
-63.35
-60.78
-52.72
-39.16
-20.97
0.40
22.29
42.07
57.54
67.87
73.27
74.31
71.69
66.12
58.33
47.63
33.21
14.12
-9.51
-36.95
-67.68
-101.59
-138.59
-170.28
-187.83
-186.94
-172.04
-151.17
-130.67
-113.39
-99.59
-87.99
-76.88
-69.00
-63.87
-61.80
-62.31
-64.02
-65.29
-64.55
-60.49
-52.30
-40.72
-25.28
-7.26
12.48
33.49
55.18
76.56
96.40
113.43
125.98
133.03
133.81
128.90
119.80
108.22
95.58
82.95
71.04
60.04
50.16
41.18
33.14
26.11
19.95
14.33
8.93
3.65
-1.52
-6.37
-10.92
-15.20
-19.27
-23.23
-27.22
-31.44
-36.23
-41.98
-48.97
-57.24
-66.17
-74.44
-80.38
-82.47
-79.89
-72.86
-62.59
-51.01
-40.27
-32.35
-28.79
-30.55
-37.86
-50.14
-65.91
-82.86
-98.27
-109.55
-114.94
-113.95
-107.49
-97.52
-86.36
-76.02
-67.70
-61.68
-57.42
-53.89
-49.90
-44.35
-36.42
-25.68
-12.08
4.01
21.89
40.62
59.15
76.40
91.46
103.68
112.63
118.07
119.77
117.55
111.48
102.23
91.28
80.98
74.00
72.54
77.59
88.52
103.30
119.20
133.58
144.54
151.18
153.44
151.88
147.28
140.47
132.18
123.04
113.59
104.38
95.92
88.41
81.61
74.73
66.64
56.39
43.79
29.61
15.39
2.87
-6.73
-13.08
-16.71
-18.61
-19.74
-20.79
-22.15
-24.18
-27.28
-31.86
-38.21
-46.22
-55.52
-65.59
-76.06
-86.69
-97.25
-107.32
-116.18
-122.95
-126.81
-127.31
-124.36
-118.04
-108.41
-95.44
-79.20
-60.24
-39.74
-19.38
-0.86
14.60
26.67
35.83
43.08
49.40
55.42
61.25
66.50
70.61
73.04
73.51
72.06
69.07
65.09
60.66
56.20
51.94
48.02
44.53
41.60
39.39
38.02
37.55
37.96
39.25
41.39
44.27
47.53
50.43
51.89
50.85
46.64
39.37
30.04
20.26
11.89
6.42
4.61
6.37
10.96
17.23
24.03
30.38
35.57
39.10
40.69
40.29
38.21
35.09
31.82
29.24
27.84
27.60
28.01
28.38
28.15
27.05
25.12
22.48
19.14
14.88
9.40
2.50
-5.77
-15.00
-24.63
-34.13
-43.10
-51.42
-59.20
-66.70
-74.19
-81.89
-89.91
-98.08
-105.92
-112.55
-116.83
-117.60
-114.01
-105.75
-93.12
-76.97
-58.45
-38.86
-19.38
-1.10
15.09
28.48
38.58
45.10
48.04
47.67
44.56
39.53
33.47
27.23
21.35
16.09
11.40
7.17
3.38
0.10
-2.54
-4.64
-6.50
-8.66
-11.60
-15.53
-20.26
-25.35
-30.29
-34.76
-38.78
-42.70
-47.03
-52.29
-58.81
-66.57
-75.06
-83.31
-89.95
-93.52
-92.76
-86.93
-75.99
-60.58
-41.88
-21.35
-0.47
19.45
37.40
52.65
64.79
73.60
79.06
81.35
80.80
77.92
73.34
67.74
61.74
55.86
50.46
45.77
41.93
38.95
36.74
35.04
33.51
31.76
29.47
26.46
22.74
18.40
13.57
8.31
2.62
-3.55
-10.16
-17.09
-24.16
-31.16
-37.98
-44.65
-51.26
-58.04
-65.20
-72.95
-81.28
-89.92
-98.15
-104.79
-108.38
-107.52
-101.27
-89.50
-72.89
-52.77
-30.73
-8.22
13.64
34.04
52.35
67.99
80.39
89.12
94.11
95.67
94.54
91.60
87.68
83.38
79.07
74.93
71.12
67.79
65.09
63.04
61.53
60.28
58.98
57.35
55.19
52.39
48.94
44.86
40.20
35.00
29.34
23.28
16.88
10.14
3.10
-4.16
-11.44
-18.43
-24.80
-30.33
-35.04
-39.16
-43.10
-47.28
-51.94
-57.08
-62.52
-67.93
-73.03
-77.65
-81.88
-85.99
-90.45
-95.76
-102.23
-109.74
-117.57
-124.43
-128.61
-128.40
-122.57
-110.63
-93.00
-70.88
-45.96
-20.01
5.38
28.89
49.54
66.60
79.58
88.23
92.64
93.27
90.95
86.68
81.49
76.21
71.30
66.90
62.95
59.35
56.13
53.41
51.39
50.13
49.47
48.96
48.04
46.18
43.12
38.94
34.01
28.82
23.81
19.23
15.05
11.07
6.99
2.56
-2.35
-7.68
-13.30
-19.01
-24.68
-30.25
-35.84
-41.66
-47.98
-55.04
-62.95
-71.50
-80.12
-87.78
-93.19
-95.02
-92.20
-84.28
-71.48
-54.71
-35.36
-15.02
4.80
22.81
38.04
49.88
58.12
62.81
64.31
63.15
59.95
55.43
50.29
45.13
40.45
36.61
33.72
31.75
30.48
29.56
28.59
27.23
25.28
22.66
19.42
15.65
11.46
6.90
2.00
-3.23
-8.74
-14.48
-20.38
-26.39
-32.48
-38.63
-44.82
-51.10
-57.56
-64.40
-71.84
-79.92
-88.30
-96.17
-102.22
-104.95
-103.01
-95.61
-82.80
-65.44
-45.04
-23.38
-2.15
17.34
34.22
48.05
58.64
66.01
70.32
71.86
71.13
68.69
65.19
61.20
57.15
53.36
49.98
47.11
44.71
42.69
40.82
38.83
36.45
33.52
29.99
25.91
21.39
16.50
11.25
5.66
-0.27
-6.48
-12.85
-19.29
-25.69
-32.03
-38.30
-44.51
-50.72
-57.05
-63.68
-70.81
-78.50
-86.46
-93.97
-99.90
-102.92
-101.80
-95.73
-84.50
-68.61
-49.05
-27.25
-4.75
16.96
36.57
53.10
65.96
74.91
80.11
82.02
81.32
78.75
75.03
70.75
66.39
62.26
58.54
55.28
52.44
49.91
47.58
45.36
43.20
41.05
38.83
36.34
33.35
29.65
25.20
20.06
14.47
8.71
2.99
-2.57
-7.98
-13.30
-18.67
-24.13
-29.81
-35.78
-42.17
-48.96
-55.87
-62.12
-66.44
-67.21
-62.90
-52.56
-36.16
-14.72
9.99
35.90
61.17
84.41
104.73
121.63
134.71
143.70
148.40
148.82
145.26
138.17
128.02
115.17
99.81
82.13
62.58
42.06
21.91
3.59
-11.68
-23.32
-31.44
-36.67
-39.77
-41.27
-41.32
-39.78
-36.51
-31.51
-25.16
-18.08
-11.00
-4.65
0.26
2.98
2.68
-1.30
-9.26
-20.90
-35.31
-51.30
-67.71
-83.76
-99.03
-113.19
-125.71
-135.80
-142.51
-145.08
-143.24
-137.34
-128.18
-116.88
-104.54
-92.19
-80.60
-70.35
-61.71
-54.75
-49.51
-45.91
-43.98
-43.77
-45.21
-48.05
-51.77
-55.70
-59.29
-62.42
-65.59
-69.78
-75.93
-84.37
-94.32
-104.14
-111.87
-116.16
-116.74
-114.33
-110.15
-105.47
-101.41
-98.91
-98.66
-100.77
-104.46
-108.08
-109.60
-107.67
-102.12
-94.20
-85.78
-78.11
-71.05
-63.17
-52.70
-38.57
-21.10
-1.65
17.86
35.76
51.02
63.35
72.96
80.19
85.32
88.54
90.23
90.74
90.45
89.87
89.74
90.93
94.15
99.80
107.84
118.37
130.74
143.56
155.38
165.39
173.52
180.14
185.77
190.73
196.47
203.28
210.23
216.03
220.05
222.26
222.83
222.00
219.79
218.37
218.55
219.46
219.69
218.73
216.87
214.78
213.20
212.46
215.20
221.43
227.93
229.95
223.78
207.52
181.66
148.86
95.28
22.79
-54.05
-119.23
-166.51
-198.25
-219.20
-233.61
-242.84
-246.69
-242.66
-231.46
-217.19
-205.04
-195.19
-187.50
-181.09
-174.98
-168.79
-160.69
-150.52
-139.88
-130.65
-123.43
-118.10
-114.03
-110.69
-108.13
-105.40
-102.39
-99.64
-97.48
-95.19
-91.60
-85.48
-76.10
-63.69
-48.44
-31.33
-13.84
2.62
17.13
29.13
38.37
44.92
48.94
50.98
51.55
50.95
49.35
46.95
43.87
40.34
36.64
33.00
29.55
26.28
23.10
19.88
16.54
13.02
9.30
5.36
1.12
-3.51
-8.56
-13.98
-19.59
-25.14
-30.44
-35.38
-39.97
-44.29
-48.42
-52.46
-56.52
-60.80
-65.48
-70.63
-75.96
-80.78
-84.05
-84.70
-81.91
-75.44
-65.58
-53.00
-38.47
-22.74
-6.45
9.72
25.03
38.64
49.83
58.20
63.74
66.81
67.94
67.64
66.26
64.06
61.25
58.17
55.22
52.80
51.10
50.01
49.16
48.05
46.28
43.70
40.38
36.55
32.44
28.16
23.70
19.00
14.02
8.81
3.50
-1.81
-7.08
-12.36
-17.77
-23.43
-29.40
-35.70
-42.30
-49.19
-56.33
-63.51
-70.22
-75.66
-78.82
-78.73
-74.73
-66.67
-54.96
-40.48
-24.37
-7.84
8.01
22.31
34.51
44.36
51.93
57.43
61.16
63.41
64.44
64.53
64.00
63.28
62.79
62.82
63.49
64.67
66.10
67.45
68.43
68.80
68.37
66.90
64.20
60.16
54.82
48.41
41.27
33.72
25.97
18.11
10.17
2.21
-5.63
-13.19
-20.32
-27.02
-33.42
-39.73
-46.22
-53.08
-60.31
-67.67
-74.61
-80.35
-83.98
-84.71
-82.02
-75.82
-66.32
-54.05
-39.65
-23.89
-7.65
8.05
22.18
33.82
42.36
47.62
49.87
49.75
47.99
45.31
42.30
39.35
36.72
34.61
33.10
32.13
31.56
31.12
30.49
29.41
27.71
25.41
22.65
19.62
16.52
13.37
10.09
6.49
2.42
-2.14
-7.06
-12.09
-17.01
-21.78
-26.52
-31.51
-37.04
-43.18
-49.73
-56.20
-61.88
-66.00
-67.74
-66.40
-61.49
-52.95
-41.21
-27.22
-12.25
2.31
15.30
25.88
33.65
38.51
40.63
40.39
38.33
35.12
31.50
28.07
25.20
23.05
21.48
20.28
19.25
18.28
17.32
16.35
15.31
14.08
12.48
10.29
7.40
3.76
-0.48
-5.16
-10.07
-15.11
-20.24
-25.52
-30.96
-36.66
-42.67
-49.09
-56.03
-63.38
-70.80
-77.49
-82.31
-84.06
-81.73
-74.90
-63.84
-49.37
-32.66
-14.94
2.67
19.22
33.92
46.13
55.40
61.60
64.89
65.70
64.60
62.19
59.01
55.45
51.83
48.35
45.19
42.46
40.19
38.30
36.55
34.62
32.18
29.02
25.15
20.83
16.40
12.12
8.03
3.96
-0.38
-5.20
-10.51
-16.08
-21.60
-26.82
-31.67
-36.31
-41.08
-46.33
-52.36
-59.23
-66.67
-74.03
-80.32
-84.31
-84.82
-80.98
-72.49
-59.77
-43.82
-26.03
-7.86
9.42
24.90
37.98
48.37
55.95
60.76
62.98
62.99
61.33
58.67
55.66
52.77
50.29
48.22
46.42
44.75
43.13
41.55
40.07
38.66
37.21
35.51
33.40
30.76
27.62
24.07
20.24
16.25
12.19
8.13
4.08
-0.01
-4.27
-8.86
-13.86
-19.28
-24.97
-30.67
-36.14
-41.25
-46.01
-50.64
-55.41
-60.58
-66.26
-72.36
-78.45
-83.82
-87.52
-88.46
-85.75
-78.86
-67.85
-53.37
-36.53
-18.66
-0.95
15.58
30.28
42.68
52.51
59.63
64.10
66.20
66.37
65.18
63.20
60.86
58.41
56.00
53.67
51.45
49.40
47.56
45.92
44.42
42.87
41.04
38.72
35.79
32.26
28.29
24.09
19.85
15.69
11.64
7.72
3.90
0.18
-3.49
-7.16
-10.90
-14.80
-18.86
-23.03
-27.16
-31.12
-34.84
-38.41
-42.02
-45.92
-50.36
-55.47
-61.20
-67.22
-72.91
-77.34
-79.45
-78.29
-73.25
-64.33
-52.09
-37.55
-21.90
-6.24
8.50
21.65
32.64
41.09
46.81
49.91
50.80
50.11
48.49
46.48
44.42
42.44
40.62
38.98
37.55
36.30
35.18
34.03
32.70
31.08
29.07
26.68
23.92
20.83
17.48
13.94
10.20
6.24
1.99
-2.60
-7.46
-12.46
-17.36
-22.04
-26.49
-30.90
-35.55
-40.66
-46.21
-51.87
-57.00
-60.77
-62.35
-61.13
-56.82
-49.57
-39.87
-28.52
-16.37
-4.25
7.07
17.01
25.06
30.85
34.16
35.04
33.84
31.17
27.83
24.54
21.85
19.94
18.70
17.86
17.16
16.40
15.52
14.46
13.18
11.60
9.66
7.36
4.72
1.77
-1.53
-5.28
-9.45
-13.95
-18.55
-23.04
-27.28
-31.32
-35.31
-39.46
-43.93
-48.82
-54.15
-59.87
-65.76
-71.31
-75.69
-77.83
-76.74
-71.80
-63.07
-51.19
-37.27
-22.46
-7.76
6.09
18.60
29.36
38.05
44.48
48.62
50.69
51.10
50.29
48.66
46.51
44.05
41.52
39.16
37.19
35.73
34.73
33.96
33.06
31.75
29.80
27.21
24.11
20.66
17.02
13.21
9.19
4.87
0.20
-4.74
-9.87
-15.08
-20.30
-25.54
-30.84
-36.21
-41.65
-47.21
-52.97
-59.06
-65.52
-72.15
-78.36
-83.15
-85.41
-84.16
-78.90
-69.77
-57.48
-43.08
-27.68
-12.20
2.64
16.28
28.26
38.17
45.71
50.80
53.66
54.76
54.64
53.83
52.65
51.25
49.64
47.90
46.13
44.51
43.18
42.11
41.15
40.06
38.64
36.81
34.57
31.99
29.11
25.96
22.54
18.87
14.95
10.79
6.31
1.47
-3.76
-9.30
-14.94
-20.43
-25.58
-30.37
-34.99
-39.78
-45.09
-51.10
-57.76
-64.62
-70.95
-75.79
-78.11
-77.07
-72.24
-63.68
-51.98
-38.07
-23.03
-7.87
6.57
19.68
30.95
40.02
46.66
50.84
52.73
52.74
51.39
49.22
46.68
44.11
41.72
39.69
38.14
37.13
36.59
36.32
36.03
35.38
34.12
32.20
29.71
26.87
23.89
20.89
17.83
14.57
10.98
7.01
2.72
-1.77
-6.31
-10.87
-15.44
-20.11
-24.95
-30.06
-35.53
-41.42
-47.63
-53.81
-59.23
-62.89
-63.72
-60.94
-54.34
-44.39
-32.01
-18.38
-4.56
8.62
20.57
30.77
38.75
44.10
46.64
46.59
44.56
41.43
38.10
35.21
33.00
31.41
30.17
28.99
27.69
26.20
24.54
22.74
20.84
18.80
16.56
14.06
11.25
8.15
4.85
1.47
-1.88
-5.18
-8.51
-12.04
-15.95
-20.38
-25.40
-30.97
-36.97
-43.10
-48.84
-53.49
-56.19
-56.18
-52.93
-46.35
-36.76
-24.84
-11.55
2.05
14.86
25.91
34.39
39.88
42.32
42.07
39.76
36.15
31.98
27.80
24.00
20.74
18.04
15.76
13.77
11.86
9.92
7.82
5.48
2.83
-0.26
-3.89
-8.10
-12.84
-17.94
-23.17
-28.33
-33.35
-38.32
-43.44
-48.97
-55.06
-61.68
-68.46
-74.69
-79.38
-81.44
-79.91
-74.28
-64.64
-51.57
-36.11
-19.43
-2.71
13.00
26.84
38.17
46.59
52.00
54.65
55.00
53.67
51.27
48.26
44.99
41.68
38.45
35.38
32.52
29.86
27.36
24.94
22.42
19.61
16.27
12.23
7.41
1.91
-4.01
-9.99
-15.72
-21.06
-26.10
-31.15
-36.63
-42.92
-50.20
-58.35
-66.93
-75.22
-82.24
-86.89
-88.09
-85.01
-77.32
-65.29
-49.79
-32.06
-13.46
4.84
22.00
37.47
50.89
61.93
70.30
75.83
78.59
78.95
77.56
75.12
72.29
69.44
66.73
64.10
61.47
58.76
55.99
53.15
50.19
46.99
43.38
39.27
34.67
29.73
24.57
19.31
13.88
8.14
1.90
-4.87
-12.03
-19.25
-26.19
-32.63
-38.60
-44.42
-50.52
-57.36
-65.11
-73.56
-82.00
-89.23
-93.83
-94.46
-90.19
-80.84
-66.92
-49.57
-30.22
-10.24
9.26
27.50
43.96
58.19
69.76
78.28
83.54
85.66
85.14
82.76
79.43
75.94
72.80
70.22
68.19
66.56
65.16
63.80
62.31
60.55
58.38
55.78
52.78
49.49
46.00
42.37
38.63
34.80
30.95
27.14
23.38
19.55
15.43
10.85
5.81
0.54
-4.61
-9.32
-13.53
-17.41
-21.38
-25.78
-30.80
-36.37
-42.21
-48.02
-53.55
-58.69
-63.48
-68.09
-72.74
-77.73
-83.33
-89.68
-96.63
-103.56
-109.38
-112.69
-112.07
-106.48
-95.59
-79.85
-60.42
-38.80
-16.57
4.91
24.58
41.66
55.62
66.14
73.16
76.95
78.04
77.19
75.22
72.81
70.44
68.31
66.40
64.59
62.76
60.85
58.89
56.93
54.98
52.98
50.83
48.40
45.63
42.48
38.97
35.13
30.98
26.58
22.00
17.33
12.68
8.11
3.60
-0.94
-5.59
-10.43
-15.42
-20.47
-25.42
-30.12
-34.52
-38.67
-42.73
-46.92
-51.51
-56.68
-62.59
-69.13
-75.90
-82.09
-86.57
-88.08
-85.59
-78.58
-67.24
-52.46
-35.51
-17.74
-0.38
15.65
29.65
41.09
49.58
54.95
57.29
57.04
54.95
51.78
48.27
44.87
41.81
39.17
36.94
35.12
33.71
32.68
31.88
31.09
30.04
28.46
26.19
23.21
19.60
15.53
11.23
6.87
2.56
-1.70
-6.04
-10.57
-15.36
-20.34
-25.38
-30.27
-34.91
-39.34
-43.68
-48.22
-53.18
-58.73
-64.82
-71.07
-76.82
-81.10
-82.87
-81.20
-75.60
-66.09
-53.24
-38.03
-21.58
-5.03
10.66
24.69
36.45
45.53
51.73
55.12
56.02
54.95
52.55
49.44
46.17
43.14
40.59
38.59
37.11
35.99
35.02
33.98
32.64
30.87
28.60
25.87
22.74
19.33
15.72
12.01
8.25
4.43
0.46
-3.80
-8.49
-13.63
-19.08
-24.60
-29.85
-34.63
-38.90
-42.83
-46.75
-51.07
-56.15
-62.21
-69.18
-76.67
-83.87
-89.65
-92.74
-92.07
-87.00
-77.58
-64.44
-48.66
-31.47
-14.00
2.86
18.40
32.08
43.47
52.22
58.21
61.51
62.51
61.77
59.96
57.64
55.27
53.03
50.99
49.10
47.29
45.60
44.06
42.68
41.36
39.87
37.93
35.31
31.92
27.92
23.58
19.21
15.00
10.97
6.95
2.71
-1.93
-7.06
-12.62
-18.38
-24.03
-29.27
-33.94
-38.04
-41.83
-45.77
-50.34
-55.95
-62.66
-70.09
-77.38
-83.30
-86.52
-85.94
-80.99
-71.77
-58.95
-43.58
-26.81
-9.73
6.76
21.91
35.13
45.93
53.99
59.22
61.80
62.16
60.89
58.65
56.03
53.43
51.07
49.03
47.30
45.84
44.65
43.67
42.81
41.90
40.71
39.04
36.74
33.79
30.22
26.15
21.75
17.22
12.77
8.54
4.59
0.80
-3.04
-7.14
-11.65
-16.49
-21.45
-26.23
-30.62
-34.59
-38.33
-42.22
-46.64
-51.88
-57.99
-64.70
-71.39
-77.10
-80.67
-81.07
-77.60
-70.12
-59.09
-45.41
-30.16
-14.38
1.01
15.30
27.85
38.18
45.98
51.21
54.07
54.97
54.45
52.96
50.93
48.65
46.33
44.13
42.21
40.65
39.52
38.78
38.27
37.73
36.81
35.18
32.69
29.42
25.65
21.78
18.10
14.70
11.49
8.24
4.73
0.88
-3.27
-7.58
-11.91
-16.18
-20.32
-24.34
-28.32
-32.41
-36.88
-41.94
-47.57
-53.40
-58.60
-62.08
-62.81
-60.10
-53.88
-44.70
-33.53
-21.44
-9.40
1.90
11.98
20.42
26.88
31.08
32.92
32.62
30.71
27.91
24.98
22.46
20.61
19.36
18.53
17.83
17.06
16.11
14.93
13.48
11.77
9.78
7.51
4.94
2.06
-1.15
-4.67
-8.46
-12.39
-16.38
-20.26
-23.96
-27.51
-31.06
-34.90
-39.37
-44.69
-50.77
-57.16
-63.01
-67.26
-68.91
-67.24
-62.05
-53.64
-42.71
-30.24
-17.19
-4.45
7.35
17.80
26.64
33.75
39.06
42.51
44.14
44.13
42.79
40.56
37.94
35.32
32.94
30.87
29.07
27.48
26.03
24.69
23.36
21.85
19.96
17.44
14.18
10.19
5.60
0.60
-4.60
-9.84
-14.93
-19.72
-24.14
-28.25
-32.28
-36.55
-41.39
-46.89
-52.84
-58.68
-63.57
-66.56
-66.80
-63.74
-57.32
-47.97
-36.51
-23.97
-11.32
0.66
11.46
20.72
28.22
33.74
37.22
38.71
38.50
37.06
34.92
32.51
30.09
27.73
25.41
23.06
20.75
18.57
16.59
14.83
13.14
11.27
9.01
6.30
3.16
-0.33
-4.08
-8.13
-12.55
-17.37
-22.49
-27.71
-32.78
-37.55
-42.03
-46.42
-51.00
-56.06
-61.76
-68.06
-74.67
-81.04
-86.30
-89.46
-89.57
-86.00
-78.60
-67.80
-54.41
-39.44
-23.83
-8.27
6.67
20.56
32.93
43.33
51.36
56.81
59.74
60.49
59.63
57.79
55.50
53.12
50.69
48.08
45.02
41.40
37.30
32.99
28.90
25.35
22.48
20.24
18.59
17.63
17.66
19.01
21.81
25.76
30.20
34.30
37.38
39.10
39.36
38.12
35.18
30.13
22.58
12.39
-0.09
-14.00
-28.15
-41.24
-52.12
-59.87
-63.88
-63.88
-59.97
-52.60
-42.60
-31.00
-18.89
-7.26
3.15
11.86
18.62
23.38
26.26
27.54
27.60
26.95
26.10
25.49
25.42
26.08
27.50
29.63
32.29
35.17
37.90
40.11
41.58
42.31
42.48
42.42
42.32
42.27
42.17
41.88
41.25
40.23
38.80
36.90
34.41
31.13
26.85
21.38
14.60
6.51
-2.68
-12.56
-22.41
-31.32
-38.25
-42.31
-42.93
-40.00
-33.94
-25.56
-15.95
-6.26
2.50
9.52
14.28
16.57
16.47
14.34
10.78
6.51
2.23
-1.47
-4.30
-6.26
-7.54
-8.41
-9.07
-9.60
-9.98
-10.21
-10.36
-10.62
-11.24
-12.48
-14.47
-17.20
-20.46
-23.99
-27.55
-31.05
-34.56
-38.25
-42.37
-47.05
-52.31
-57.96
-63.64
-68.83
-72.75
-74.55
-73.34
-68.47
-59.78
-47.69
-33.18
-17.48
-1.83
12.79
25.68
36.37
44.55
50.05
52.92
53.49
52.30
50.03
47.32
44.61
42.12
39.91
37.93
36.13
34.44
32.74
30.90
28.80
26.32
23.45
20.14
16.38
12.15
7.48
2.47
-2.70
-7.83
-12.78
-17.57
-22.39
-27.56
-33.44
-40.32
-48.33
-57.34
-66.95
-76.41
-84.66
-90.48
-92.67
-90.36
-83.22
-71.59
-56.37
-38.87
-20.48
-2.42
14.36
29.23
41.86
52.01
59.58
64.56
67.14
67.71
66.85
65.17
63.17
61.15
59.21
57.33
55.46
53.58
51.66
49.65
47.43
44.91
41.99
38.63
34.86
30.63
25.90
20.57
14.58
7.95
0.87
-6.38
-13.54
-20.40
-26.95
-33.35
-39.90
-46.92
-54.64
-63.03
-71.69
-79.82
-86.32
-89.98
-89.74
-85.02
-75.76
-62.51
-46.29
-28.35
-9.99
7.70
23.87
37.96
49.61
58.64
64.95
68.58
69.78
69.00
66.86
64.03
61.06
58.26
55.78
53.62
51.76
50.15
48.66
47.07
45.11
42.53
39.22
35.25
30.77
25.92
20.73
15.18
9.19
2.81
-3.79
-10.42
-16.90
-23.17
-29.27
-35.29
-41.31
-47.39
-53.61
-60.07
-66.77
-73.48
-79.56
-83.98
-85.55
-83.19
-76.34
-65.13
-50.33
-33.17
-14.98
3.02
19.79
34.54
46.64
55.68
61.45
64.13
64.21
62.46
59.76
56.86
54.27
52.17
50.48
48.96
47.41
45.75
44.01
42.25
40.49
38.61
36.42
33.68
30.23
26.06
21.25
15.97
10.35
4.50
-1.57
-7.80
-14.19
-20.73
-27.47
-34.56
-42.13
-50.16
-58.28
-65.69
-71.26
-73.83
-72.46
-66.77
-56.99
-43.93
-28.77
-12.79
2.74
16.78
28.48
37.31
42.98
45.55
45.36
43.02
39.28
34.95
30.72
27.10
24.28
22.24
20.73
19.48
18.29
17.03
15.63
14.01
12.01
9.41
5.94
1.47
-3.92
-9.95
-16.20
-22.25
-27.83
-32.95
-37.87
-42.99
-48.77
-55.45
-63.08
-71.27
-79.26
-86.00
-90.25
-90.90
-87.15
-78.75
-66.01
-49.79
-31.31
-11.92
7.03
24.47
39.59
51.88
61.15
67.38
70.77
71.62
70.39
67.64
64.00
60.04
56.22
52.75
49.62
46.64
43.60
40.34
36.89
33.39
29.95
26.59
23.15
19.33
14.91
9.79
4.09
-1.97
-8.12
-14.21
-20.20
-26.11
-32.00
-37.91
-43.93
-50.24
-57.02
-64.36
-72.08
-79.52
-85.63
-89.10
-88.70
-83.63
-73.77
-59.65
-42.41
-23.44
-4.14
14.29
30.94
45.17
56.53
64.77
69.86
72.01
71.74
69.72
66.65
63.06
59.31
55.59
51.96
48.50
45.23
42.15
39.17
36.15
33.01
29.69
26.20
22.56
18.73
14.67
10.35
5.77
0.97
-4.04
-9.28
-14.72
-20.33
-25.95
-31.40
-36.58
-41.61
-46.84
-52.76
-59.72
-67.64
-75.91
-83.34
-88.46
-89.86
-86.63
-78.49
-65.91
-49.91
-31.76
-12.87
5.57
22.53
37.24
49.20
58.18
64.18
67.41
68.25
67.13
64.59
61.16
57.37
53.62
50.16
47.00
44.06
41.20
38.35
35.57
32.92
30.40
27.85
25.01
21.61
17.49
12.63
7.22
1.47
-4.34
-10.03
-15.45
-20.52
-25.26
-29.80
-34.38
-39.25
-44.70
-50.84
-57.59
-64.56
-71.00
-75.87
-78.02
-76.37
-70.35
-60.02
-46.16
-30.05
-13.11
3.33
18.36
31.31
41.74
49.33
53.86
55.43
54.47
51.76
48.22
44.61
41.36
38.54
36.01
33.59
31.20
28.88
26.74
24.80
23.01
21.16
19.03
16.43
13.25
9.52
5.35
0.89
-3.74
-8.51
-13.48
-18.76
-24.49
-30.76
-37.50
-44.50
-51.29
-57.15
-61.21
-62.54
-60.46
-54.70
-45.52
-33.63
-20.01
-5.76
8.11
20.69
31.20
39.01
43.76
45.40
44.34
41.29
37.14
32.71
28.62
25.12
22.26
19.87
17.70
15.55
13.22
10.58
7.59
4.24
0.57
-3.37
-7.53
-11.90
-16.47
-21.25
-26.22
-31.38
-36.77
-42.48
-48.61
-55.19
-62.04
-68.69
-74.33
-77.94
-78.48
-75.25
-68.01
-57.14
-43.51
-28.28
-12.65
2.30
15.71
26.96
35.58
41.35
44.30
44.72
43.13
40.21
36.60
32.82
29.18
25.86
22.93
20.45
18.37
16.61
14.93
12.98
10.43
7.08
2.91
-1.91
-7.10
-12.43
-17.75
-23.04
-28.41
-33.99
-39.95
-46.37
-53.19
-60.08
-66.36
-71.06
-73.11
-71.59
-66.05
-56.60
-43.89
-28.97
-12.96
3.06
18.17
31.59
42.72
51.12
56.60
59.23
59.40
57.73
54.96
51.72
48.44
45.22
41.98
38.51
34.77
30.84
27.00
23.46
20.29
17.32
14.21
10.61
6.30
1.24
-4.41
-10.39
-16.43
-22.33
-27.99
-33.46
-38.89
-44.54
-50.63
-57.33
-64.56
-71.95
-78.82
-84.20
-87.02
-86.29
-81.38
-72.14
-59.03
-42.98
-25.21
-6.96
10.64
26.70
40.55
51.75
60.07
65.44
68.04
68.23
66.61
63.84
60.51
57.08
53.76
50.58
47.50
44.51
41.65
38.96
36.45
33.99
31.35
28.26
24.49
19.99
14.90
9.44
3.82
-1.85
-7.55
-13.35
-19.32
-25.45
-31.71
-38.12
-44.77
-51.83
-59.44
-67.55
-75.73
-83.22
-89.00
-91.97
-91.24
-86.27
-76.97
-63.71
-47.28
-28.77
-9.40
9.60
27.12
42.29
54.56
63.67
69.72
73.04
74.13
73.54
71.79
69.30
66.44
63.51
60.76
58.36
56.35
54.65
53.10
51.50
49.67
47.41
44.58
41.07
36.83
32.00
26.83
21.66
16.72
12.07
7.50
2.69
-2.60
-8.44
-14.62
-20.86
-26.87
-32.57
-38.09
-43.75
-49.88
-56.72
-64.29
-72.18
-79.60
-85.43
-88.38
-87.38
-81.82
-71.74
-57.75
-40.86
-22.29
-3.23
15.16
31.82
45.82
56.46
63.44
66.90
67.36
65.60
62.42
58.48
54.30
50.23
46.51
43.24
40.43
37.94
35.58
33.15
30.50
27.62
24.54
21.30
17.91
14.28
10.27
5.75
0.71
-4.77
-10.52
-16.35
-22.13
-27.84
-33.54
-39.36
-45.47
-51.92
-58.66
-65.34
-71.35
-75.78
-77.57
-75.77
-69.78
-59.60
-45.80
-29.46
-11.85
5.76
22.22
36.61
48.22
56.57
61.54
63.35
62.57
59.97
56.36
52.37
48.43
44.71
41.25
38.04
35.05
32.23
29.57
26.99
24.43
21.75
18.80
15.40
11.32
6.40
0.60
-5.96
-12.96
-19.99
-26.68
-32.83
-38.44
-43.70
-48.91
-54.34
-60.24
-66.71
-73.68
-80.79
-87.27
-92.02
-93.75
-91.33
-84.15
-72.24
-56.36
-37.71
-17.69
2.37
21.33
38.23
52.29
62.93
69.88
73.22
73.40
71.17
67.37
62.78
58.01
53.45
49.35
45.83
42.91
40.52
38.43
36.33
33.91
30.95
27.40
23.33
18.87
14.10
8.99
3.43
-2.68
-9.25
-16.04
-22.70
-28.88
-34.43
-39.45
-44.22
-49.11
-54.43
-60.34
-66.81
-73.59
-80.16
-85.73
-89.19
-89.37
-85.24
-76.26
-62.59
-45.08
-25.10
-4.26
15.93
34.26
49.82
62.07
70.73
75.79
77.51
76.40
73.13
68.50
63.29
58.15
53.54
49.65
46.48
43.85
41.55
39.37
37.19
34.95
32.60
30.05
27.17
23.84
19.97
15.59
10.76
5.61
0.22
-5.35
-11.02
-16.74
-22.41
-28.02
-33.65
-39.46
-45.69
-52.52
-59.94
-67.65
-74.97
-80.96
-84.48
-84.48
-80.21
-71.41
-58.45
-42.21
-23.95
-5.03
13.21
29.63
43.28
53.45
59.77
62.26
61.34
57.86
52.88
47.43
42.30
37.86
34.16
31.04
28.34
26.02
24.11
22.61
21.40
20.17
18.47
15.85
12.05
7.06
1.15
-5.23
-11.62
-17.75
-23.58
-29.27
-35.07
-41.17
-47.67
-54.55
-61.66
-68.64
-74.87
-79.38
-81.00
-78.64
-71.59
-59.85
-44.08
-25.57
-5.85
13.58
31.41
46.63
58.50
66.57
70.75
71.30
68.84
64.25
58.48
52.37
46.53
41.33
36.90
33.25
30.26
27.74
25.46
23.20
20.77
18.04
14.94
11.38
7.29
2.54
-2.92
-9.05
-15.64
-22.41
-29.05
-35.39
-41.43
-47.35
-53.51
-60.29
-67.89
-76.18
-84.54
-91.86
-96.67
-97.52
-93.30
-83.60
-68.81
-50.01
-28.75
-6.72
14.55
33.84
50.23
63.13
72.21
77.44
79.10
77.78
74.36
69.77
64.84
60.15
55.94
52.27
49.06
46.22
43.66
41.27
38.87
36.21
33.08
29.36
25.04
20.23
15.03
9.46
3.48
-2.94
-9.75
-16.72
-23.56
-30.00
-35.94
-41.57
-47.29
-53.51
-60.56
-68.46
-76.87
-85.11
-92.14
-96.71
-97.50
-93.41
-83.88
-69.06
-50.00
-28.34
-6.00
15.25
34.12
49.83
62.05
70.70
75.86
77.80
76.96
74.01
69.72
64.89
60.14
55.87
52.25
49.25
46.77
44.65
42.67
40.64
38.35
35.67
32.58
29.11
25.36
21.38
17.11
12.40
7.10
1.08
-5.62
-12.80
-20.12
-27.22
-33.81
-39.80
-45.32
-50.68
-56.33
-62.60
-69.62
-77.03
-84.02
-89.30
-91.42
-89.09
-81.56
-68.87
-51.87
-32.03
-11.02
9.57
28.45
44.69
57.65
66.94
72.42
74.26
73.03
69.55
64.80
59.70
54.89
50.68
47.12
44.10
41.47
39.12
36.93
34.84
32.72
30.44
27.86
24.78
21.08
16.65
11.47
5.66
-0.58
-6.95
-13.16
-19.06
-24.62
-29.97
-35.35
-41.00
-47.12
-53.76
-60.75
-67.71
-73.94
-78.48
-80.20
-78.07
-71.43
-60.21
-45.06
-27.22
-8.25
10.22
26.84
40.63
51.02
57.82
61.08
61.11
58.42
53.77
48.07
42.27
37.19
33.27
30.53
28.66
27.13
25.56
23.72
21.59
19.23
16.68
13.88
10.66
6.81
2.23
-3.09
-8.97
-15.17
-21.42
-27.47
-33.20
-38.60
-43.79
-49.05
-54.66
-60.91
-67.88
-75.34
-82.65
-88.75
-92.28
-91.95
-86.83
-76.64
-61.85
-43.57
-23.29
-2.61
17.08
34.65
49.31
60.58
68.27
72.45
73.40
71.65
67.89
62.90
57.46
52.19
47.55
43.74
40.74
38.38
36.41
34.57
32.63
30.41
27.78
24.71
21.19
17.28
13.05
8.55
3.79
-1.23
-6.53
-12.10
-17.89
-23.81
-29.69
-35.43
-40.94
-46.27
-51.62
-57.26
-63.51
-70.48
-77.96
-85.23
-91.07
-94.03
-92.74
-86.35
-74.76
-58.71
-39.60
-19.08
1.26
20.17
36.77
50.48
60.91
67.87
71.41
71.92
70.09
66.75
62.69
58.48
54.45
50.74
47.41
44.53
42.17
40.33
38.91
37.69
36.40
34.71
32.40
29.33
25.50
21.05
16.27
11.49
6.95
2.69
-1.49
-5.91
-10.87
-16.47
-22.54
-28.74
-34.71
-40.26
-45.43
-50.46
-55.73
-61.57
-68.12
-75.19
-82.20
-88.16
-91.81
-91.89
-87.43
-78.04
-64.07
-46.54
-26.92
-6.79
12.47
29.78
44.44
55.96
64.08
68.76
70.23
69.03
65.98
62.00
57.87
54.11
50.87
48.09
45.65
43.46
41.50
39.80
38.31
36.88
35.24
33.16
30.45
27.07
23.10
18.68
13.98
9.05
3.96
-1.28
-6.57
-11.77
-16.76
-21.45
-25.98
-30.61
-35.67
-41.45
-48.01
-55.16
-62.36
-68.78
-73.39
-75.09
-73.00
-66.64
-56.13
-42.22
-26.04
-8.94
7.79
23.02
35.83
45.53
51.70
54.25
53.56
50.36
45.68
40.51
35.65
31.54
28.32
25.86
23.97
22.46
21.20
20.06
18.88
17.42
15.47
12.81
9.38
5.27
0.64
-4.30
-9.38
-14.50
-19.63
-24.79
-30.00
-35.30
-40.79
-46.60
-52.85
-59.45
-66.02
-71.80
-75.71
-76.58
-73.47
-65.96
-54.29
-39.34
-22.36
-4.67
12.49
28.13
41.47
51.92
59.07
62.80
63.31
61.20
57.31
52.61
47.88
43.68
40.20
37.40
35.12
33.10
31.16
29.13
26.90
24.40
21.55
18.29
14.56
10.30
5.49
0.18
-5.49
-11.32
-17.09
-22.61
-27.80
-32.68
-37.40
-42.22
-47.45
-53.40
-60.24
-67.80
-75.53
-82.39
-87.07
-88.21
-84.83
-76.55
-63.78
-47.57
-29.35
-10.60
7.41
23.78
37.88
49.33
57.87
63.35
65.86
65.75
63.65
60.36
56.59
52.87
49.42
46.25
43.31
40.59
38.13
35.93
33.90
31.86
29.56
26.78
23.38
19.34
14.68
9.49
3.87
-1.99
-7.93
-13.78
-19.43
-24.87
-30.17
-35.43
-40.76
-46.30
-52.18
-58.54
-65.30
-72.03
-77.86
-81.53
-81.73
-77.50
-68.54
-55.36
-39.14
-21.38
-3.55
13.19
28.09
40.71
50.84
58.38
63.26
65.51
65.31
63.06
59.34
54.86
50.31
46.18
42.74
39.97
37.73
35.85
34.18
32.59
30.90
28.90
26.35
23.12
19.18
14.67
9.83
4.83
-0.20
-5.18
-10.08
-14.86
-19.50
-24.04
-28.60
-33.38
-38.54
-44.23
-50.46
-57.05
-63.61
-69.43
-73.56
-74.94
-72.66
-66.19
-55.66
-41.75
-25.60
-8.52
8.23
23.56
36.57
46.55
53.07
56.06
55.85
53.20
49.08
44.49
40.19
36.61
33.80
31.58
29.65
27.80
25.97
24.23
22.68
21.30
19.92
18.16
15.65
12.17
7.76
2.70
-2.60
-7.81
-12.77
-17.54
-22.30
-27.23
-32.46
-38.04
-43.89
-49.79
-55.25
-59.53
-61.63
-60.54
-55.49
-46.24
-33.24
-17.53
-0.51
16.41
32.07
45.66
56.65
64.76
69.85
71.99
71.47
68.88
65.03
60.73
56.66
53.10
50.03
47.13
43.99
40.26
35.79
30.58
24.75
18.49
11.94
5.18
-1.79
-8.97
-16.33
-23.73
-31.01
-38.02
-44.67
-50.98
-57.06
-63.08
-69.19
-75.55
-82.30
-89.44
-96.74
-103.64
-109.18
-112.22
-111.71
-107.01
-98.08
-85.53
-70.43
-54.03
-37.52
-21.91
-7.99
3.68
12.75
19.09
22.83
24.37
24.32
23.40
22.27
21.43
21.11
21.25
21.62
21.87
21.63
20.60
18.57
15.39
10.98
5.39
-1.17
-8.36
-15.69
-22.67
-28.77
-33.60
-36.86
-38.40
-38.25
-36.64
-34.04
-31.09
-28.49
-26.81
-26.20
-26.31
-26.31
-25.16
-21.85
-15.78
-6.90
4.28
16.91
29.99
42.62
54.05
63.71
71.13
75.89
77.77
76.73
73.09
67.49
60.79
53.95
47.81
42.98
39.77
38.21
38.14
39.20
40.99
43.04
44.87
46.04
46.18
45.01
42.40
38.35
33.03
26.68
19.56
11.87
3.71
-4.90
-13.99
-23.59
-33.68
-44.06
-54.31
-63.73
-71.35
-76.10
-77.11
-73.98
-66.90
-56.65
-44.36
-31.23
-18.31
-6.40
3.92
12.25
18.35
22.11
23.58
22.95
20.54
16.73
11.96
6.68
1.38
-3.55
-7.86
-11.49
-14.60
-17.44
-20.27
-23.21
-26.19
-28.90
-30.78
-31.13
-29.20
-24.48
-16.92
-7.12
3.68
13.85
21.84
26.66
28.17
27.12
24.82
22.68
21.84
22.91
26.10
31.29
38.11
46.02
54.26
61.92
68.12
72.18
73.82
73.14
70.47
66.16
60.44
53.50
45.47
36.63
27.29
17.80
8.46
-0.53
-9.03
-16.85
-23.80
-29.63
-34.18
-37.36
-39.23
-39.96
-39.79
-39.05
-38.08
-37.29
-37.09
-37.82
-39.57
-42.08
-44.68
-46.35
-46.04
-42.90
-36.51
-27.04
-15.15
-1.85
11.72
24.47
35.50
44.21
50.26
53.54
54.15
52.30
48.29
42.53
35.46
27.65
19.64
12.03
5.37
0.09
-3.63
-5.93
-7.30
-8.41
-9.96
-12.40
-15.86
-20.10
-24.76
-29.47
-34.04
-38.44
-42.74
-47.16
-51.87
-57.01
-62.53
-67.95
-72.39
-74.64
-73.46
-67.96
-57.94
-43.91
-27.03
-8.68
9.76
27.14
42.62
55.59
65.66
72.59
76.45
77.57
76.50
73.96
70.59
66.87
63.00
59.01
54.87
50.60
46.30
42.10
38.05
34.07
29.93
25.40
20.36
14.81
8.94
2.94
-3.05
-9.02
-15.12
-21.56
-28.57
-36.23
-44.47
-52.86
-60.57
-66.43
-69.10
-67.40
-60.79
-49.49
-34.55
-17.54
-0.14
16.22
30.53
42.20
50.90
56.47
58.92
58.42
55.43
50.58
44.65
38.39
32.40
27.06
22.55
18.85
15.78
13.08
10.44
7.58
4.28
0.43
-4.01
-8.98
-14.37
-20.06
-25.94
-31.95
-38.12
-44.63
-51.60
-59.08
-66.76
-73.89
-79.31
-81.67
-79.80
-73.06
-61.56
-46.17
-28.19
-9.13
9.68
27.16
42.46
54.97
64.31
70.32
73.21
73.45
71.76
68.85
65.31
61.46
57.47
53.41
49.36
45.54
42.12
39.25
36.85
34.62
32.14
28.96
24.89
19.99
14.55
8.93
3.31
-2.37
-8.43
-15.26
-23.21
-32.37
-42.59
-53.37
-63.98
-73.40
-80.48
-84.12
-83.52
-78.38
-69.03
-56.41
-41.86
-26.82
-12.56
-0.02
10.17
17.66
22.32
24.22
23.65
21.17
17.61
13.91
10.91
9.17
8.87
9.86
11.80
14.30
17.02
19.68
22.06
23.95
25.12
25.36
24.47
22.32
18.87
14.24
8.65
2.41
-4.15
-10.75
-17.24
-23.58
-29.89
-36.35
-43.23
-50.77
-59.10
-68.01
-76.89
-84.69
-90.05
-91.62
-88.43
-80.18
-67.28
-50.74
-31.86
-12.01
7.59
25.92
42.17
55.68
66.01
72.97
76.65
77.42
75.87
72.71
68.62
64.14
59.62
55.24
51.04
47.07
43.30
39.73
36.34
33.08
29.92
26.88
24.06
21.55
19.39
17.51
15.66
13.54
10.85
7.43
3.24
-1.68
-7.29
-13.58
-20.59
-28.33
-36.80
-45.90
-55.39
-64.82
-73.44
-80.22
-84.01
-83.81
-79.06
-69.84
-56.85
-41.32
-24.66
-8.26
6.71
19.35
29.08
35.64
39.12
39.94
38.76
36.38
33.57
30.89
28.71
27.15
26.21
25.78
25.74
25.92
26.13
26.17
25.79
24.79
22.92
20.07
16.14
11.21
5.43
-0.94
-7.62
-14.39
-21.20
-28.16
-35.53
-43.59
-52.56
-62.36
-72.55
-82.23
-90.18
-95.04
-95.61
-91.18
-81.63
-67.57
-50.09
-30.62
-10.68
8.27
24.94
38.29
47.68
52.90
54.26
52.48
48.54
43.41
37.89
32.52
27.56
23.13
19.35
16.29
14.08
12.75
12.22
12.21
12.34
12.18
11.37
9.73
7.24
4.04
0.27
-4.01
-8.83
-14.33
-20.68
-28.01
-36.44
-46.02
-56.64
-67.85
-78.72
-87.85
-93.61
-94.51
-89.68
-79.16
-63.88
-45.47
-25.85
-6.78
10.33
24.53
35.36
42.69
46.62
47.47
45.75
42.18
37.68
33.23
29.70
27.64
27.25
28.32
30.45
33.16
36.07
38.93
41.52
43.66
45.10
45.56
44.82
42.72
39.29
34.67
29.14
22.99
16.53
9.91
3.20
-3.70
-10.91
-18.65
-27.10
-36.40
-46.50
-56.98
-67.02
-75.35
-80.53
-81.25
-76.74
-66.99
-52.77
-35.45
-16.66
2.01
19.28
34.23
46.33
55.36
61.35
64.49
65.17
63.86
61.16
57.72
54.15
50.97
48.44
46.61
45.28
44.21
43.18
42.12
41.09
40.19
39.40
38.57
37.38
35.45
32.52
28.53
23.66
18.30
12.83
7.59
2.73
-1.75
-6.01
-10.35
-15.09
-20.56
-26.91
-33.95
-41.11
-47.39
-51.54
-52.45
-49.41
-42.41
-32.17
-19.85
-6.85
5.60
16.49
25.15
31.17
34.36
34.78
32.70
28.65
23.31
17.43
11.65
6.40
1.89
-1.81
-4.76
-7.00
-8.56
-9.50
-9.96
-10.17
-10.42
-10.99
-12.05
-13.62
-15.61
-17.80
-20.07
-22.37
-24.81
-27.66
-31.31
-36.17
-42.52
-50.29
-58.87
-67.15
-73.70
-77.02
-76.07
-70.42
-60.43
-47.06
-31.61
-15.50
0.03
13.88
25.18
33.33
38.03
39.40
37.95
34.50
29.91
24.93
20.07
15.61
11.67
8.42
5.96
4.32
3.31
2.51
1.35
-0.67
-3.81
-8.00
-12.87
-17.94
-22.76
-27.08
-30.86
-34.29
-37.71
-41.43
-45.61
-50.05
-54.08
-56.66
-56.61
-52.93
-45.19
-33.59
-19.05
-2.85
13.59
28.98
42.33
52.98
60.58
65.06
66.55
65.41
62.11
57.20
51.28
44.91
38.59
32.71
27.54
23.16
19.52
16.41
13.57
10.69
7.53
3.91
-0.24
-4.89
-9.92
-15.14
-20.35
-25.48
-30.55
-35.77
-41.47
-47.99
-55.43
-63.50
-71.34
-77.65
-80.92
-79.83
-73.69
-62.57
-47.30
-29.24
-9.89
9.35
27.37
43.32
56.62
66.83
73.75
77.47
78.32
76.93
74.04
70.38
66.48
62.67
59.06
55.64
52.36
49.24
46.31
43.62
41.16
38.86
36.58
34.11
31.26
27.87
23.87
19.30
14.26
8.92
3.49
-1.85
-6.92
-11.61
-15.88
-19.85
-23.71
-27.66
-31.88
-36.35
-40.99
-45.65
-50.32
-55.17
-60.49
-66.57
-73.49
-81.00
-88.42
-94.79
-98.93
-99.69
-96.16
-87.86
-74.88
-57.84
-37.90
-16.48
4.94
25.01
42.69
57.27
68.36
75.88
80.00
81.16
79.97
77.17
73.53
69.77
66.40
63.65
61.51
59.73
57.96
55.88
53.26
49.98
46.02
41.46
36.41
31.06
25.61
20.21
14.88
9.52
3.92
-2.10
-8.61
-15.47
-22.43
-29.17
-35.51
-41.43
-47.09
-52.86
-59.16
-66.38
-74.71
-83.84
-92.89
-100.37
-104.56
-103.91
-97.54
-85.55
-68.95
-49.37
-28.65
-8.39
10.22
26.38
39.68
49.91
57.03
61.23
62.89
62.55
60.83
58.30
55.41
52.46
49.62
47.03
44.80
42.99
41.55
40.37
39.24
37.91
36.23
34.12
31.62
28.80
25.74
22.52
19.18
15.76
12.28
8.68
4.84
0.59
-4.22
-9.67
-15.80
-22.53
-29.78
-37.44
-45.29
-52.92
-59.65
-64.54
-66.56
-64.86
-59.06
-49.34
-36.47
-21.56
-5.82
9.68
24.07
36.68
47.01
54.68
59.50
61.54
61.18
59.05
55.91
52.44
49.09
46.01
43.09
40.12
36.92
33.46
29.85
26.25
22.82
19.47
15.98
12.04
7.42
2.07
-3.80
-9.80
-15.55
-20.86
-25.77
-30.56
-35.58
-41.11
-47.28
-53.97
-60.78
-67.10
-72.09
-74.81
-74.43
-70.39
-62.63
-51.61
-38.19
-23.49
-8.67
5.21
17.21
26.68
33.19
36.68
37.43
36.07
33.36
30.06
26.80
23.93
21.53
19.50
17.61
15.64
13.44
11.03
8.52
6.08
3.74
1.36
-1.38
-4.80
-9.11
-14.20
-19.73
-25.21
-30.33
-35.07
-39.72
-44.73
-50.44
-56.97
-64.04
-71.05
-77.16
-81.39
-82.77
-80.54
-74.28
-64.08
-50.53
-34.68
-17.75
-0.92
14.83
28.80
40.48
49.52
55.74
59.20
60.25
59.45
57.45
54.85
52.04
49.23
46.46
43.77
41.16
38.65
36.25
33.89
31.46
28.85
25.94
22.66
18.92
14.73
10.08
5.03
-0.30
-5.79
-11.29
-16.67
-21.85
-26.81
-31.63
-36.49
-41.70
-47.56
-54.22
-61.54
-68.86
-75.14
-79.08
-79.56
-75.89
-68.01
-56.51
-42.38
-26.78
-10.78
4.72
19.02
31.56
41.91
49.82
55.22
58.28
59.36
58.92
57.43
55.28
52.74
50.01
47.28
44.69
42.39
40.42
38.71
37.06
35.22
32.98
30.20
26.92
23.25
19.30
15.16
10.85
6.33
1.58
-3.41
-8.54
-13.71
-18.76
-23.61
-28.19
-32.58
-36.95
-41.58
-46.77
-52.74
-59.42
-66.33
-72.56
-76.89
-78.10
-75.33
-68.36
-57.59
-43.93
-28.54
-12.53
3.14
17.72
30.57
41.18
49.18
54.44
57.06
57.49
56.29
54.15
51.65
49.18
46.93
44.97
43.23
41.64
40.11
38.54
36.84
34.90
32.69
30.17
27.39
24.41
21.30
18.08
14.68
11.01
6.96
2.49
-2.31
