31.55
28.98
25.95
22.46
18.57
14.31
9.77
5.01
0.09
-4.95
-10.04
-15.18
-20.33
-25.56
-30.93
-36.59
-42.64
-49.12
-55.89
-62.53
-68.31
-72.24
-73.32
-70.76
-64.22
-53.95
-40.71
-25.6
-9.79
5.64
19.81
31.95
41.46
47.97
51.4
52.07
50.6
47.81
44.51
41.29
38.45
36.09
34.14
32.48
30.99
29.53
27.98
26.21
24.12
21.67
18.85
15.73
12.31
8.58
4.46
-0.12
-5.18
-10.67
-16.43
-22.25
-27.9
-33.26
-38.35
-43.32
-48.48
-54.16
-60.67
-68.08
-76.16
-84.19
-91.06
-95.42
-95.97
-91.89
-83.03
-69.92
-53.66
-35.54
-16.82
1.44
18.41
33.39
45.87
55.48
62.11
65.93
67.35
66.92
65.22
62.77
59.96
57.06
54.26
51.62
49.16
46.85
44.65
42.44
40.11
37.52
34.57
31.26
27.63
23.78
19.75
15.52
11
6.1
0.82
-4.76
-10.47
-16.13
-21.62
-26.92
-32.06
-37.12
-42.25
-47.64
-53.52
-60.02
-67.07
-74.19
-80.48
-84.75
-85.78
-82.7
-75.21
-63.69
-49.09
-32.65
-15.59
1.07
16.59
30.42
42.16
51.49
58.2
62.26
63.89
63.54
61.74
59.03
55.89
52.61
49.43
46.54
44.06
42.08
40.6
39.52
38.6
37.54
36.09
34.07
31.48
28.42
25.08
21.61
18.03
14.22
10.04
5.39
0.29
-5.06
-10.41
-15.58
-20.53
-25.36
-30.24
-35.35
-40.83
-46.79
-53.24
-60.02
-66.62
-72.16
-75.51
-75.52
-71.47
-63.24
-51.4
-37.01
-21.33
-5.52
9.46
22.84
34
42.47
47.94
50.45
50.35
48.37
45.31
41.97
38.91
36.39
34.43
32.86
31.49
30.13
28.74
27.3
25.81
24.26
22.56
20.53
18.04
15
11.42
7.45
3.29
-0.91
-5.04
-9.1
-13.17
-17.32
-21.61
-26.14
-30.93
-36
-41.22
-46.27
-50.61
-53.47
-54.05
-51.69
-46.12
-37.5
-26.47
-13.97
-1.07
11.2
22.01
30.78
37.21
41.22
42.95
42.75
41.1
38.56
35.66
32.78
30.04
27.4
24.7
21.88
18.95
16.09
13.45
11.1
8.95
6.73
4.15
0.99
-2.87
-7.34
-12.25
-17.29
-22.19
-26.73
-30.85
-34.66
-38.49
-42.66
-47.41
-52.57
-57.63
-61.71
-63.85
-63.22
-59.34
-52.22
-42.21
-29.98
-16.38
-2.32
11.23
23.38
33.34
40.67
45.25
47.37
47.57
46.42
44.46
42.02
39.31
36.43
33.49
30.58
27.8
25.22
22.9
20.8
18.85
16.89
14.71
12.09
8.87
5.05
0.76
-3.76
-8.29
-12.75
-17.23
-21.96
-27.24
-33.28
-40.11
-47.51
-54.92
-61.53
-66.34
-68.38
-66.95
-61.8
-53.16
-41.77
-28.58
-14.6
-0.84
11.86
22.72
31.13
36.72
39.47
39.72
38.05
35.11
31.4
27.25
22.81
18.19
13.55
9.13
5.12
1.56
-1.65
-4.8
-8.16
-11.93
-16.13
-20.66
-25.31
-29.86
-34.16
-38.12
-41.79
-45.38
-49.19
-53.6
-58.85
-64.86
-71.05
-76.41
-79.64
-79.59
-75.52
-67.34
-55.54
-40.99
-24.69
-7.66
9.19
24.98
38.94
50.41
59.01
64.63
67.5
68.08
66.93
64.6
61.62
58.4
55.26
52.43
49.98
47.81
45.77
43.63
41.2
38.38
35.13
31.43
27.33
22.84
17.95
12.69
7.07
1.18
-4.94
-11.17
-17.45
-23.71
-29.93
-36.23
-42.79
-49.84
-57.56
-65.87
-74.34
-82.11
-87.99
-90.74
-89.33
-83.24
-72.55
-57.9
-40.36
-21.14
-1.51
17.43
34.76
49.73
61.89
70.95
76.92
80.08
80.92
80.08
78.26
76.02
73.77
71.68
69.79
68.1
66.65
65.48
64.58
63.83
62.94
61.57
59.48
56.61
53.1
49.26
45.35
41.53
37.8
33.99
29.92
25.43
20.47
15.11
9.5
3.87
-1.61
-6.86
-11.95
-17.06
-22.37
-27.94
-33.64
-39.24
-44.53
-49.4
-53.94
-58.37
-63.02
-68.21
-74.23
-81.19
-88.99
-97.06
-104.36
-109.53
-111.12
-108.04
-99.81
-86.71
-69.61
-49.7
-28.31
-6.62
14.28
33.47
50.13
63.63
73.6
80.03
83.24
83.87
82.66
80.34
77.45
74.33
71.15
68
65.01
62.32
60.08
58.27
56.72
55.13
53.15
50.61
47.48
43.89
40.04
36.05
31.96
27.75
23.39
18.88
14.27
9.6
4.87
0.01
-5.05
-10.34
-15.82
-21.38
-26.86
-32.13
-37.14
-41.9
-46.49
-50.99
-55.54
-60.32
-65.5
-71.21
-77.36
-83.46
-88.62
-91.66
-91.44
-87.17
-78.63
-66.21
-50.78
-33.38
-15.12
2.95
19.86
34.73
46.92
56.05
62.09
65.3
66.15
65.12
62.71
59.37
55.56
51.69
48.1
45.01
42.47
40.39
38.6
36.93
35.28
33.63
32.01
30.46
28.94
27.3
25.31
22.81
19.71
16.12
12.22
8.24
4.3
0.43
-3.47
-7.52
-11.74
-16.12
-20.58
-25.06
-29.54
-34.02
-38.49
-42.91
-47.25
-51.5
-55.8
-60.36
-65.43
-71.09
-77.12
-82.86
-87.26
-89.14
-87.4
-81.46
-71.32
-57.64
-41.48
-24.13
-6.76
9.62
24.23
36.52
46.09
52.72
56.44
57.53
56.51
54.02
50.67
47.02
43.4
40.02
36.98
34.29
31.97
30
28.32
26.84
25.4
23.8
21.85
19.42
16.47
13.06
9.38
5.57
1.73
-2.12
-6.04
-10.11
-14.32
-18.61
-22.89
-27.07
-31.15
-35.19
-39.35
-43.76
-48.55
-53.75
-59.24
-64.67
-69.47
-72.83
-73.82
-71.64
-65.79
-56.26
-43.58
-28.65
-12.66
3.24
17.98
30.69
40.7
47.59
51.2
51.72
49.69
45.91
41.24
36.49
32.18
28.58
25.73
23.57
21.98
20.79
19.76
18.64
17.21
15.35
13.08
10.51
7.71
4.68
1.31
-2.58
-7.05
-12.05
-17.4
-22.85
-28.19
-33.35
-38.34
-43.16
-47.83
-52.35
-56.82
-61.54
-66.86
-73.04
-79.93
-86.75
-92.17
-94.61
-92.73
-85.78
-73.91
-57.97
-39.32
-19.46
0.19
18.45
34.36
47.29
56.87
63.05
66.04
66.28
64.34
60.91
56.64
52.15
47.9
44.18
41.1
38.63
36.64
34.97
33.48
31.98
30.32
28.35
25.91
22.9
19.28
15.13
10.52
5.55
0.28
-5.33
-11.36
-17.85
-24.75
-31.89
-39.05
-46.01
-52.69
-59.2
-65.86
-73.07
-81.11
-89.9
-98.74
-106.4
-111.34
-112.11
-107.79
-98.24
-84.08
-66.46
-46.76
-26.33
-6.42
11.85
27.54
39.91
48.56
53.48
55.03
53.81
50.49
45.64
39.82
33.49
27.21
21.55
17.07
14.16
12.9
13.06
14.12
15.46
16.59
17.21
17.27
16.82
15.89
14.41
12.27
9.45
6.18
2.97
0.48
-0.8
-0.72
0.39
1.84
2.81
2.59
0.75
-2.94
-8.42
-15.37
-23.1
-30.42
-35.74
-37.37
-34.01
-25.09
-11.09
6.71
26.5
46.41
64.85
80.63
93
101.56
106.17
106.95
104.22
98.57
90.82
81.92
72.89
64.54
57.4
51.62
47.04
43.31
40.1
37.16
34.39
31.74
29.18
26.59
23.82
20.81
17.57
14.29
11.18
8.48
6.23
4.33
2.55
0.6
-1.72
-4.54
-7.95
-11.94
-16.44
-21.13
-25.35
-28.19
-28.62
-25.86
-19.61
-10.12
1.79
15.05
28.45
40.77
50.86
57.64
60.28
58.35
52.03
42.09
29.81
16.59
3.8
-7.57
-16.95
-24.15
-29.34
-32.91
-35.32
-37
-38.28
-39.42
-40.62
-42.09
-44.03
-46.59
-49.82
-53.58
-57.6
-61.61
-65.4
-68.97
-72.5
-76.32
-80.8
-86.12
-92.22
-98.55
-104.05
-107.29
-106.69
-100.89
-89.13
-71.55
-49.14
-23.6
3.08
28.96
52.48
72.45
88.17
99.28
105.74
107.84
106.2
101.67
95.24
87.78
79.95
72.18
64.75
57.9
51.85
46.73
42.51
38.88
35.38
31.52
26.92
21.5
15.35
8.71
1.82
-5.13
-12.03
-18.83
-25.49
-32
-38.38
-44.69
-51.05
-57.65
-64.72
-72.5
-81.03
-90
-98.6
-105.47
-108.96
-107.45
-99.87
-85.97
-66.41
-42.62
-16.44
10.14
35.39
57.88
76.61
91.01
100.95
106.64
108.65
107.69
104.59
100.16
95.16
90.27
86.06
82.9
80.9
79.94
79.67
79.69
79.62
79.13
77.95
75.85
72.68
68.43
63.23
57.4
51.27
45.11
38.98
32.79
26.36
19.54
12.32
4.81
-2.84
-10.49
-18.12
-25.82
-33.83
-42.38
-51.63
-61.43
-71.21
-79.92
-86.16
-88.44
-85.54
-76.81
-62.45
-43.44
-21.38
1.84
24.36
44.68
61.69
74.76
83.66
88.46
89.52
87.47
83.12
77.36
71.03
64.79
59.05
54.02
49.76
46.35
43.77
42
40.91
40.25
39.71
38.92
37.6
35.52
32.64
29.03
24.92
20.56
16.15
11.68
6.94
1.5
-5.15
-13.38
-23.28
-34.55
-46.56
-58.59
-70.08
-80.89
-91.21
-101.43
-111.75
-121.82
-130.75
-137.12
-139.51
-136.86
-128.83
-115.89
-99.26
-80.59
-61.73
-44.36
-29.84
-19
-12.28
-9.7
-11.06
-15.95
-23.75
-33.6
-44.45
-55.19
-64.8
-72.61
-78.24
-81.54
-82.49
-80.99
-76.95
-70.44
-61.85
-51.94
-41.76
-32.38
-24.56
-18.64
-14.42
-11.37
-8.88
-6.47
-3.98
-1.61
0.17
0.76
-0.35
-3.44
-8.35
-14.38
-20.37
-24.9
-26.67
-24.78
-18.98
-9.66
2.38
16.23
31.1
46.37
61.45
75.63
87.97
97.39
102.97
104.22
101.23
94.72
85.75
75.53
65.06
55.04
45.78
37.24
29.15
21.09
12.59
3.16
-7.56
-19.79
-33.46
-48.09
-62.92
-76.98
-89.41
-99.62
-107.39
-112.76
-115.86
-116.86
-115.95
-113.39
-109.63
-105.2
-100.55
-95.78
-90.47
-83.73
-74.39
-61.4
-44.1
-22.51
2.66
30.16
58.41
85.89
111.23
133.46
151.85
165.95
175.38
179.97
179.69
174.78
165.72
153.19
137.98
120.8
102.29
82.9
63.1
43.4
24.45
6.95
-8.45
-21.31
-31.45
-38.9
-43.82
-46.39
-46.82
-45.4
-42.62
-39.17
-35.91
-33.68
-33.27
-35.29
-40.17
-48.12
-59.01
-72.2
-86.42
-99.85
-110.39
-116.09
-115.62
-108.61
-95.64
-78.05
-57.53
-35.83
-14.46
5.4
22.83
37.23
48.23
55.77
60.07
61.54
60.74
58.23
54.56
50.22
45.67
41.32
37.46
34.24
31.57
29.12
26.46
23.08
18.6
12.79
5.64
-2.63
-11.69
-21.12
-30.58
-39.86
-48.94
-57.88
-66.69
-75.09
-82.46
-87.78
-89.85
-87.55
-80.19
-67.74
-50.87
-30.84
-9.21
12.46
32.91
51.24
66.93
79.69
89.39
95.99
99.53
100.25
98.57
95.07
90.41
85.11
79.56
73.94
68.29
62.61
56.82
50.8
44.4
37.43
29.74
21.33
12.4
3.27
-5.68
-14.2
-22.22
-29.92
-37.61
-45.63
-54.15
-63.02
-71.63
-78.93
-83.66
-84.59
-80.96
-72.66
-60.29
-45.02
-28.23
-11.3
4.67
18.87
30.78
40.07
46.62
50.45
51.82
51.16
49.09
46.27
43.28
40.53
38.18
36.18
34.44
32.84
31.37
29.99
28.63
27.08
25
21.96
17.66
11.94
4.91
-3.16
-11.86
-20.83
-29.72
-38.31
-46.5
-54.33
-61.97
-69.69
-77.69
-85.96
-93.99
-100.78
-104.91
-104.95
-99.82
-89.16
-73.43
-53.77
-31.68
-8.75
13.57
34.1
51.87
66.23
76.76
83.41
86.47
86.59
84.62
81.46
77.78
73.99
70.12
65.98
61.39
56.34
51.07
45.96
41.37
37.41
33.93
30.54
26.81
22.4
17.12
10.96
4.07
-3.26
-10.73
-18.07
-25.19
-32.18
-39.29
-46.87
-55.13
-64.09
-73.45
-82.53
-90.27
-95.4
-96.54
-92.57
-82.93
-67.82
-48.28
-26
-2.97
18.88
37.95
53.09
63.67
69.54
71.01
68.79
63.86
57.32
50.24
43.44
37.45
32.51
28.57
25.42
22.82
20.53
18.33
16.08
13.6
10.67
7.02
2.4
-3.26
-9.79
-16.76
-23.63
-29.95
-35.56
-40.65
-45.7
-51.26
-57.66
-64.81
-72.09
-78.32
-82.04
-81.82
-76.66
-66.25
-51.1
-32.43
-11.89
8.81
28.16
45
58.48
68.11
73.68
75.32
73.56
69.22
63.36
56.95
50.75
45.15
40.17
35.66
31.43
27.43
23.69
20.34
17.4
14.75
12.12
9.11
5.41
0.84
-4.56
-10.58
-16.96
-23.46
-29.98
-36.56
-43.37
-50.69
-58.81
-67.93
-78.01
-88.58
-98.58
-106.43
-110.31
-108.61
-100.4
-85.78
-65.86
-42.47
-17.66
6.72
29.19
48.77
64.8
76.87
84.78
88.64
88.89
86.23
81.58
75.82
69.68
63.65
58.03
52.94
48.42
44.4
40.76
37.39
34.16
30.97
27.72
24.27
20.43
15.99
10.8
4.86
-1.71
-8.68
-15.79
-22.88
-29.85
-36.7
-43.54
-50.54
-57.96
-66.09
-75.05
-84.64
-94.09
-102.1
-107.01
-107.22
-101.63
-89.96
-72.84
-51.59
-27.9
-3.52
20
41.37
59.6
73.96
84.11
90.11
92.41
91.76
88.99
84.9
80.08
74.93
69.73
64.69
60.04
55.97
52.63
50.03
47.96
46.07
43.91
41.06
37.27
32.55
27.08
21.17
15.1
9.01
2.89
-3.31
-9.7
-16.28
-23.02
-29.8
-36.5
-43.05
-49.35
-55.46
-61.48
-67.68
-74.43
-82.06
-90.62
-99.65
-108.06
-114.2
-116.22
-112.59
-102.58
-86.47
-65.47
-41.43
-16.34
8.08
30.47
49.87
65.58
77.15
84.42
87.61
87.34
84.58
80.4
75.7
71.05
66.7
62.68
58.97
55.61
52.69
50.31
48.47
47.02
45.64
43.96
41.61
38.38
34.24
29.3
23.8
18
12.08
6.14
0.19
-5.8
-11.85
-17.95
-24.04
-30.11
-36.09
-41.97
-47.73
-53.43
-59.17
-65.18
-71.7
-78.92
-86.71
-94.53
-101.29
-105.54
-105.74
-100.72
-89.98
-73.87
-53.51
-30.53
-6.78
16.02
36.44
53.51
66.66
75.77
81
82.79
81.76
78.63
74.13
68.97
63.72
58.79
54.37
50.58
47.39
44.72
42.38
40.11
37.65
34.79
31.46
27.76
23.81
19.75
15.53
11.02
6.03
0.47
-5.56
-11.81
-18.01
-23.96
-29.62
-35.11
-40.63
-46.44
-52.75
-59.7
-67.28
-75.19
-82.72
-88.78
-92.01
-91.16
-85.38
-74.57
-59.35
-41
-21.1
-1.21
17.34
33.55
46.74
56.46
62.48
64.89
64.05
60.74
55.89
50.52
45.48
41.33
38.26
36.18
34.8
33.77
32.79
31.59
30.02
27.92
25.19
21.76
17.59
12.75
7.38
1.67
-4.19
-10.09
-15.99
-21.89
-27.78
-33.64
-39.47
-45.33
-51.43
-58.03
-65.29
-73.1
-80.86
-87.47
-91.52
-91.6
-86.71
-76.55
-61.66
-43.29
-23.08
-2.7
16.34
32.93
46.31
56.09
62.21
64.89
64.64
62.11
58.08
53.28
48.36
43.8
39.9
36.81
34.5
32.85
31.63
30.57
29.42
27.91
25.88
23.2
19.85
15.86
11.3
6.26
0.81
-4.96
-10.98
-17.14
-23.36
-29.49
-35.43
-41.1
-46.6
-52.14
-58.07
-64.67
-71.89
-79.24
-85.68
-89.82
-90.29
-86.13
-77.03
-63.51
-46.67
-27.94
-8.81
9.46
25.88
39.73
50.54
58.06
62.3
63.57
62.46
59.7
56.07
52.17
48.39
44.91
41.76
38.94
36.47
34.33
32.47
30.71
28.85
26.66
24.02
20.9
17.38
13.47
9.17
4.37
-0.93
-6.64
-12.52
-18.26
-23.63
-28.64
-33.46
-38.43
-43.86
-50.01
-56.89
-64.34
-71.9
-78.8
-83.97
-86.25
-84.55
-78.27
-67.39
-52.62
-35.11
-16.3
2.4
19.78
34.85
46.88
55.39
60.22
61.57
59.99
56.34
51.55
46.51
41.81
37.76
34.39
31.62
29.32
27.43
25.92
24.75
23.77
22.72
21.26
19.1
16.11
12.31
7.89
3.13
-1.75
-6.58
-11.33
-16.03
-20.78
-25.77
-31.22
-37.32
-44.19
-51.67
-59.24
-65.98
-70.7
-72.2
-69.59
-62.55
-51.39
-37.02
-20.73
-3.91
12.11
26.23
37.66
45.95
50.93
52.76
51.89
48.99
44.84
40.23
35.8
31.94
28.78
26.19
23.98
21.93
19.96
18.01
16.01
13.75
10.94
7.32
2.77
-2.54
-8.26
-13.95
-19.32
-24.3
-29.1
-34.06
-39.55
-45.88
-53.12
-61.09
-69.24
-76.64
-82.06
-84.17
-81.9
-74.71
-62.81
-47.12
-29.03
-10.05
8.4
25.23
39.66
51.16
59.41
64.3
65.97
64.85
61.64
57.2
52.33
47.66
43.47
39.8
36.5
33.44
30.51
27.73
25.13
22.68
20.23
17.52
14.25
10.17
5.19
-0.6
-6.9
-13.37
-19.66
-25.61
-31.31
-37.06
-43.29
-50.38
-58.46
-67.34
-76.39
-84.59
-90.59
-93.02
-90.73
-83.19
-70.6
-53.92
-34.58
-14.18
5.86
24.41
40.68
54.08
64.25
71.08
74.72
75.64
74.49
72.04
68.93
65.65
62.47
59.46
56.59
53.75
50.86
47.86
44.73
41.44
37.96
34.23
30.13
25.58
20.54
15.02
9.07
2.76
-3.8
-10.47
-17.09
-23.46
-29.52
-35.35
-41.24
-47.57
-54.72
-62.84
-71.66
-80.46
-88.06
-93.05
-94.08
-90.15
-80.88
-66.67
-48.56
-28.03
-6.69
14
32.9
49.21
62.49
72.53
79.29
82.92
83.75
82.25
79.06
74.83
70.23
65.77
61.76
58.38
55.61
53.38
51.56
49.94
48.31
46.36
43.78
40.35
36.03
30.95
25.47
19.95
14.68
9.75
5.02
0.2
-4.98
-10.67
-16.86
-23.3
-29.63
-35.5
-40.72
-45.36
-49.76
-54.44
-59.9
-66.46
-73.99
-81.83
-88.86
-93.67
-94.9
-91.54
-83.19
-70.14
-53.29
-33.92
-13.44
6.84
25.75
42.37
55.98
66.06
72.42
75.22
74.99
72.53
68.74
64.48
60.36
56.79
53.92
51.74
50.1
48.77
47.46
45.91
43.98
41.58
38.75
35.53
31.98
28.13
23.96
19.43
14.5
9.14
3.36
-2.73
-8.94
-15.02
-20.83
-26.33
-31.7
-37.18
-43.06
-49.52
-56.54
-63.85
-70.84
-76.55
-79.84
-79.61
-75.09
-66.12
-53.25
-37.61
-20.63
-3.77
11.79
25.11
35.56
42.76
46.61
47.28
45.28
41.38
36.46
31.42
26.95
23.52
21.3
20.17
19.8
19.78
19.67
19.15
18.01
16.18
13.68
10.53
6.72
2.23
-2.9
-8.55
-14.44
-20.24
-25.67
-30.61
-35.14
-39.56
-44.27
-49.7
-56.11
-63.49
-71.5
-79.37
-85.97
-89.93
-89.99
-85.24
-75.46
-61.15
-43.39
-23.63
-3.33
16.23
34.03
49.34
61.65
70.68
76.4
79
78.91
76.67
72.91
68.28
63.38
58.68
54.5
50.93
47.93
45.37
43.14
41.11
39.15
37.02
34.43
31.09
26.86
21.85
16.38
10.89
5.7
0.91
-3.66
-8.36
-13.48
-19.12
-25.12
-31.1
-36.69
-41.69
-46.18
-50.53
-55.19
-60.6
-66.95
-74.11
-81.61
-88.61
-94
-96.53
-95.06
-88.84
-77.74
-62.38
-43.92
-23.83
-3.55
15.71
33.09
47.94
59.84
68.54
73.98
76.41
76.33
74.44
71.5
68.16
64.84
61.75
58.92
56.32
53.9
51.73
49.87
48.37
47.14
45.96
44.54
42.61
40.1
37.05
33.64
30.04
26.35
22.6
18.79
14.92
10.99
7.01
2.98
-1.12
-5.21
-9.16
-12.81
-16.09
-19.08
-22.04
-25.28
-29.05
-33.34
-37.96
-42.6
-47.02
-51.17
-55.19
-59.33
-63.89
-69.12
-75.13
-81.91
-89.15
-96.22
-102.06
-105.33
-104.69
-99.14
-88.41
-73.08
-54.48
-34.32
-14.18
4.68
21.56
36.09
48.08
57.38
63.81
67.37
68.32
67.2
64.78
61.8
58.78
56.03
53.6
51.49
49.71
48.3
47.3
46.63
46.06
45.33
44.17
42.48
40.32
37.83
35.15
32.27
29.03
25.29
20.98
16.25
11.43
6.84
2.69
-1.07
-4.67
-8.39
-12.39
-16.67
-21.09
-25.48
-29.75
-33.93
-38.12
-42.44
-47.02
-51.98
-57.41
-63.25
-69.24
-74.78
-78.97
-80.76
-79.19
-73.7
-64.3
-51.63
-36.81
-21.18
-5.99
7.83
19.65
29.15
36.15
40.53
42.33
41.78
39.43
36.07
32.54
29.51
27.34
26.01
25.34
25.08
25.05
25.13
25.17
24.97
24.26
22.86
20.74
18.01
14.92
11.69
8.48
5.27
1.94
-1.7
-5.78
-10.33
-15.23
-20.25
-25.14
-29.72
-33.97
-38.09
-42.39
-47.2
-52.72
-58.8
-64.85
-69.89
-72.74
-72.3
-67.9
-59.52
-47.78
-33.8
-18.87
-4.18
9.35
21.15
30.88
38.43
43.83
47.22
48.84
48.99
48.02
46.24
43.99
41.5
38.97
36.63
34.6
33
31.8
30.81
29.75
28.29
26.2
23.42
20.08
16.4
12.62
8.89
5.22
1.54
-2.22
-6.14
-10.25
-14.54
-18.99
-23.49
-27.96
-32.3
-36.47
-40.59
-44.89
-49.71
-55.31
-61.7
-68.46
-74.73
-79.29
-80.91
-78.66
-72.21
-61.93
-48.75
-33.91
-18.63
-3.87
9.73
21.82
32.15
40.48
46.61
50.41
51.95
51.57
49.79
47.2
44.36
41.57
38.99
36.62
34.45
32.49
30.82
29.48
28.43
27.48
26.38
24.83
22.65
19.84
16.58
13.18
9.86
6.67
3.46
-0.05
-4.04
-8.54
-13.34
-18.17
-22.78
-27.18
-31.51
-36.05
-41.05
-46.66
-52.87
-59.49
-66.05
-71.8
-75.68
-76.57
-73.63
-66.55
-55.75
-42.31
-27.56
-12.73
1.27
13.94
25.02
34.29
41.57
46.74
49.84
51.15
51.1
50.16
48.68
46.9
44.95
42.94
40.97
39.13
37.51
36.16
35.05
34.13
33.21
32.08
30.44
28.09
24.99
21.33
17.46
13.7
10.27
7.14
4.07
0.81
-2.88
-7.06
-11.61
-16.36
-21.08
-25.68
-30.16
-34.67
-39.47
-44.83
-50.92
-57.65
-64.54
-70.67
-74.92
-76.16
-73.65
-67.21
-57.29
-44.77
-30.72
-16.17
-1.96
11.23
22.83
32.36
39.47
44.01
46.11
46.15
44.73
42.52
40.1
37.93
36.21
34.97
34.08
33.43
32.89
32.44
32.01
31.5
30.76
29.62
27.9
25.59
22.74
19.48
15.92
12.15
8.17
3.95
-0.49
-5.06
-9.62
-14.05
-18.32
-22.55
-27
-31.95
-37.53
-43.58
-49.6
-54.78
-58.18
-58.97
-56.63
-51.05
-42.6
-32.01
-20.16
-8
3.6
13.92
22.37
28.52
32.13
33.25
32.17
29.48
25.9
22.15
18.76
16.02
13.94
12.37
11.08
9.93
8.86
7.85
6.85
5.69
4.07
1.67
-1.7
-5.96
-10.78
-15.7
-20.32
-24.44
-28.11
-31.61
-35.27
-39.46
-44.43
-50.24
-56.73
-63.38
-69.35
-73.57
-75
-72.82
-66.73
-56.97
-44.27
-29.7
-14.37
0.66
14.54
26.61
36.41
43.67
48.32
50.47
50.48
48.87
46.27
43.29
40.37
37.77
35.57
33.68
31.93
30.17
28.31
26.26
23.98
21.47
18.67
15.56
12.05
8.06
3.52
-1.62
-7.27
-13.25
-19.32
-25.29
-31.1
-36.93
-43.14
-50.11
-58.09
-66.99
-76.2
-84.72
-91.21
-94.37
-93.18
-87.18
-76.61
-62.23
-45.24
-26.92
-8.44
9.21
25.35
39.43
51.09
60.11
66.4
70.07
71.42
70.96
69.25
66.88
64.32
61.86
59.62
57.59
55.68
53.8
51.88
49.82
47.52
44.86
41.73
38.06
33.82
29.06
23.78
18.01
11.81
5.27
-1.46
-8.2
-14.79
-21.2
-27.5
-33.93
-40.78
-48.3
-56.62
-65.55
-74.54
-82.62
-88.56
-91.03
-88.97
-81.87
-69.98
-54.2
-35.88
-16.45
2.86
21.14
37.75
52.17
63.99
72.84
78.57
81.37
81.8
80.62
78.63
76.37
74.09
71.78
69.34
66.77
64.2
61.82
59.78
58.02
56.3
54.22
51.42
47.68
43.04
37.71
32.05
26.35
20.74
15.19
9.57
3.68
-2.56
-9.14
-15.93
-22.7
-29.25
-35.37
-40.98
-46.14
-51.07
-56.17
-61.94
-68.8
-76.89
-85.82
-94.61
-101.79
-105.72
-104.99
-98.79
-87.2
-71.02
-51.64
-30.67
-9.58
10.46
28.66
44.44
57.49
67.59
74.67
78.86
80.46
79.94
77.89
74.93
71.59
68.29
65.29
62.7
60.48
58.56
56.85
55.32
53.89
52.43
50.66
48.27
45.03
40.88
36.06
30.96
25.92
21.09
16.37
11.52
6.32
0.69
-5.26
-11.35
-17.42
-23.39
-29.26
-34.99
-40.58
-45.99
-51.3
-56.71
-62.57
-69.2
-76.7
-84.7
-92.3
-98.14
-100.75
-98.87
-91.86
-79.86
-63.76
-44.94
-24.96
-5.28
12.92
28.82
41.81
51.53
57.76
60.53
60.17
57.3
52.86
47.84
43.12
39.29
36.51
34.66
33.39
32.3
31.09
29.58
27.71
25.48
22.9
19.88
16.32
12.07
7.09
1.45
-4.6
-10.73
-16.59
-22.04
-27.08
-31.93
-36.89
-42.25
-48.22
-54.9
-62.18
-69.69
-76.7
-82.13
-84.74
-83.37
-77.32
-66.54
-51.73
-34.09
-15.09
3.86
21.57
37.09
49.73
59
64.69
66.9
66.07
62.96
58.43
53.36
48.46
44.19
40.78
38.2
36.29
34.8
33.46
32.02
30.29
28.11
25.4
22.11
18.25
13.88
9.06
3.86
-1.69
-7.57
-13.78
-20.23
-26.79
-33.3
-39.64
-45.85
-52.21
-59.17
-67.19
-76.52
-86.96
-97.66
-107.21
-113.82
-115.78
-111.83
-101.58
-85.58
-65.27
-42.54
-19.29
2.9
22.99
40.42
54.98
66.56
75.17
80.81
83.61
83.85
81.94
78.44
73.98
69.19
64.61
60.6
57.31
54.67
52.45
50.37
48.18
45.68
42.67
39.06
34.77
29.86
24.48
18.84
13.09
7.24
1.18
-5.25
-12.07
-19.17
-26.28
-33.11
-39.5
-45.5
-51.39
-57.59
-64.59
-72.7
-81.86
-91.46
-100.24
-106.46
-108.27
-104.23
-93.88
-77.83
-57.63
-35.3
-12.67
8.85
28.46
45.73
60.35
71.98
80.29
85.12
86.63
85.36
82.12
77.8
73.15
68.63
64.46
60.66
57.19
54
51.12
48.51
46.06
43.5
40.51
36.79
32.22
26.89
21.04
14.99
8.94
2.89
-3.24
-9.59
-16.19
-22.87
-29.35
-35.34
-40.73
-45.68
-50.58
-56.03
-62.55
-70.4
-79.41
-88.86
-97.55
-103.97
-106.61
-104.29
-96.46
-83.35
-65.89
-45.49
-23.67
-1.82
19.03
38.08
54.71
68.32
78.37
84.5
86.67
85.31
81.3
75.74
69.75
64.18
59.54
55.94
53.19
50.93
48.77
46.39
43.62
40.45
36.97
33.28
29.37
25.07
20.17
14.49
8.01
1
-6.21
-13.26
-19.99
-26.45
-32.88
-39.57
-46.77
-54.63
-63.12
-72.09
-81.08
-89.27
-95.45
-98.16
-96.05
-88.32
-74.97
-56.96
-35.9
-13.72
7.73
26.95
42.86
54.82
62.5
65.95
65.57
62.14
56.71
50.42
44.28
38.98
34.78
31.61
29.23
27.34
25.72
24.26
22.86
21.32
19.35
16.6
12.75
7.69
1.52
-5.44
-12.71
-19.88
-26.64
-32.95
-39.05
-45.36
-52.38
-60.48
-69.78
-79.79
-89.49
-97.35
-101.61
-100.81
-94.07
-81.44
-63.85
-42.83
-20.17
2.44
23.63
42.38
57.95
69.81
77.66
81.48
81.61
78.77
73.91
68.06
62.09
56.6
51.87
47.92
44.62
41.76
39.14
36.54
33.76
30.69
27.21
23.26
18.78
13.7
7.96
1.57
-5.35
-12.56
-19.78
-26.77
-33.41
-39.75
-46.04
-52.63
-59.92
-68.23
-77.63
-87.82
-97.96
-106.65
-112.16
-112.75
-107.21
-95.16
-77.26
-55.01
-30.4
-5.41
18.34
39.69
57.9
72.52
83.22
89.91
92.76
92.29
89.32
84.77
79.54
74.25
69.27
64.76
60.76
57.25
54.22
51.56
49.08
46.47
43.41
39.64
35.05
29.72
23.85
17.68
11.34
4.83
-1.95
-9.11
-16.63
-24.28
-31.71
-38.6
-44.79
-50.39
-55.77
-61.44
-67.86
-75.33
-83.76
-92.65
-100.9
-106.97
-109.13
-105.85
-96.29
-80.63
-60.02
-36.36
-11.67
12.25
34.15
53.27
69.15
81.43
89.84
94.32
95.13
92.96
88.76
83.58
78.27
73.38
69.07
65.26
61.78
58.52
55.42
52.52
49.85
47.3
44.67
41.61
37.82
33.12
27.6
21.55
15.4
9.5
3.96
-1.37
-6.81
-12.71
-19.21
-26.18
-33.25
-39.93
-45.89
-51.1
-55.9
-60.87
-66.67
-73.78
-82.23
-91.51
-100.52
-107.71
-111.43
-110.25
-103.32
-90.57
-72.72
-51.11
-27.39
-3.32
19.51
39.77
56.53
69.23
77.72
82.23
83.25
81.43
77.56
72.44
66.85
61.48
56.77
52.98
50.1
47.98
46.33
44.86
43.27
41.31
38.82
35.72
32.02
27.77
23.03
17.85
12.22
6.23
0.02
-6.2
-12.27
-18.13
-23.9
-29.81
-36.09
-42.88
-50.19
-57.9
-65.76
-73.26
-79.61
-83.7
-84.28
-80.28
-71.26
-57.55
-40.3
-21.14
-1.8
16.21
31.73
43.94
52.31
56.62
57
54.07
48.86
42.6
36.47
31.29
27.41
24.71
22.84
21.37
20.01
18.61
17.13
15.55
13.75
11.52
8.57
4.69
-0.18
-5.94
-12.28
-18.9
-25.48
-31.89
-38.14
-44.43
-51.06
-58.31
-66.37
-75.14
-84.13
-92.41
-98.65
-101.43
-99.48
-92.07
-79.22
-61.69
-40.87
-18.41
4.02
24.96
43.29
58.2
69.23
76.27
79.59
79.77
77.59
73.91
69.47
64.83
60.34
56.23
52.58
49.47
46.9
44.76
42.83
40.79
38.29
35.1
31.13
26.47
21.32
15.89
10.24
4.33
-2.04
-8.99
-16.55
-24.55
-32.63
-40.43
-47.69
-54.32
-60.55
-66.73
-73.34
-80.76
-89.09
-98.02
-106.67
-113.7
-117.46
-116.46
-109.77
-97.25
-79.65
-58.35
-35.02
-11.27
11.6
32.59
50.97
66.14
77.72
85.56
89.8
90.89
89.51
86.42
82.32
77.77
73.22
68.98
65.23
62.11
59.64
57.81
56.5
55.55
54.7
53.66
52.13
49.84
46.7
42.8
38.39
33.82
29.34
25.03
20.8
16.44
11.79
6.84
1.75
-3.24
-7.93
-12.29
-16.41
-20.54
-24.93
-29.75
-35.06
-40.8
-46.8
-52.81
-58.6
-63.96
-68.87
-73.49
-78.19
-83.48
-89.84
-97.49
-106.15
-114.95
-122.43
-126.9
-126.78
-121.07
-109.57
-92.94
-72.48
-49.85
-26.67
-4.36
16.05
33.86
48.66
60.32
68.84
74.39
77.21
77.66
76.21
73.44
69.99
66.45
63.29
60.78
58.98
57.77
56.92
56.18
55.29
54.11
52.52
50.5
48.05
45.2
41.95
38.33
34.32
29.97
25.27
20.3
15.12
9.81
4.47
-0.87
-6.23
-11.63
-17.11
-22.69
-28.32
-33.88
-39.21
-44.29
-49.14
-53.96
-59.03
-64.65
-71.02
-78.18
-85.85
-93.35
-99.62
-103.37
-103.37
-98.72
-89.13
-75.01
-57.39
-37.66
-17.3
2.39
20.35
35.81
48.28
57.53
63.52
66.5
66.96
65.57
63.1
60.24
57.5
55.16
53.23
51.6
50.14
48.76
47.43
46.12
44.74
43.17
41.21
38.68
35.48
31.65
27.35
22.78
18.14
13.49
8.8
3.91
-1.28
-6.79
-12.51
-18.2
-23.66
-28.76
-33.51
-38.02
-42.41
-46.88
-51.71
-57.2
-63.67
-71.16
-79.27
-87.05
-93.07
-95.83
-94.18
-87.63
-76.53
-61.81
-44.74
-26.55
-8.33
9.03
24.75
38.13
48.61
55.87
59.94
61.22
60.39
58.27
55.61
52.97
50.7
48.91
47.63
46.8
46.35
46.15
46.01
45.67
44.82
43.23
40.71
37.25
32.94
28.04
22.82
17.57
12.5
7.68
2.98
-1.81
-6.95
-12.6
-18.76
-25.22
-31.69
-37.85
-43.5
-48.59
-53.3
-57.97
-63.05
-68.91
-75.77
-83.47
-91.41
-98.54
-103.55
-105.12
-102.24
-94.46
-82.01
-65.69
-46.73
-26.53
-6.46
12.32
28.87
42.59
53.17
60.62
65.18
67.27
67.41
66.13
63.95
61.35
58.69
56.24
54.12
52.34
50.84
49.53
48.31
47.1
45.77
44.16
42.1
39.48
36.24
32.4
28.08
23.43
18.64
13.83
9.1
4.45
-0.21
-5.01
-10.08
-15.5
-21.18
-26.93
-32.5
-37.69
-42.48
-47.03
-51.74
-57.06
-63.36
-70.76
-78.9
-86.88
-93.42
-97.03
-96.46
-91.02
-80.73
-66.3
-48.9
-29.87
-10.48
8.18
25.22
39.95
51.87
60.7
66.35
69.04
69.17
67.33
64.2
60.47
56.77
53.54
51
49.18
47.88
46.88
45.99
45.1
44.09
42.86
41.26
39.07
36.15
32.45
28.12
23.44
18.76
14.32
10.14
6.01
1.61
-3.4
-9.1
-15.36
-21.84
-28.14
-34.02
-39.42
-44.51
-49.56
-54.85
-60.67
-67.16
-74.29
-81.7
-88.55
-93.63
-95.53
-93.05
-85.6
-73.4
-57.41
-39.01
-19.73
-0.91
16.4
31.37
43.49
52.42
58.12
60.87
61.17
59.66
56.98
53.71
50.31
47.17
44.58
42.71
41.63
41.16
41.02
40.83
40.26
39.08
37.22
34.72
31.68
28.17
24.3
20.14
15.71
11.03
6.07
0.76
-4.93
-10.98
-17.26
-23.55
-29.66
-35.49
-41.09
-46.72
-52.73
-59.38
-66.62
-73.96
-80.38
-84.52
-85.06
-81.07
-72.33
-59.42
-43.53
-26.11
-8.57
7.96
22.54
34.49
43.31
48.69
50.73
49.9
47.01
43.02
38.85
35.15
32.32
30.45
29.41
28.92
28.62
28.1
27.08
25.38
23
20.03
16.58
12.71
8.34
3.41
-2.15
-8.26
-14.73
-21.28
-27.68
-33.82
-39.71
-45.52
-51.46
-57.8
-64.74
-72.41
-80.7
-89.17
-96.89
-102.55
-104.71
-102.16
-94.27
-81.24
-64.02
-44.04
-22.89
-2
17.55
34.96
49.66
61.23
69.38
74.07
75.53
74.33
71.25
67.12
62.7
58.48
54.73
51.51
48.79
46.45
44.39
42.41
40.31
37.9
35.07
31.76
27.99
23.78
19.13
13.97
8.25
1.99
-4.72
-11.72
-18.79
-25.78
-32.56
-39.15
-45.66
-52.35
-59.63
-67.83
-77.07
-86.91
-96.3
-103.65
-107.15
-105.34
-97.46
-83.75
-65.32
-43.83
-21.05
1.44
22.4
40.98
56.56
68.74
77.28
82.2
83.81
82.78
79.99
76.36
72.66
69.31
66.39
63.79
61.35
58.99
56.8
54.88
53.23
51.63
49.67
46.89
42.99
37.98
32.13
25.89
19.62
13.5
7.44
1.23
-5.29
-12.19
-19.35
-26.57
-33.64
-40.4
-46.82
-53.01
-59.21
-65.75
-73
-81.12
-89.93
-98.7
-106.15
-110.63
-110.51
-104.64
-92.67
-75.2
-53.63
-29.78
-5.51
17.59
38.36
56.05
70.15
80.39
86.69
89.24
88.53
85.36
80.62
75.19
69.73
64.62
60.04
56.01
52.49
49.39
46.62
44.02
41.31
38.22
34.46
29.87
24.42
18.22
11.52
4.62
-2.16
-8.6
-14.63
-20.31
-25.81
-31.23
-36.56
-41.58
-46
-49.57
-52.16
-53.87
-54.84
-55.21
-55.1
-54.58
-53.7
-52.39
-50.38
-47.03
-41.3
-32.11
-18.63
-0.73
20.91
44.91
69.54
93.14
114.37
132.2
145.85
154.56
157.67
154.71
145.62
130.95
111.8
89.69
66.39
43.57
22.69
4.85
-9.26
-19.46
-26.09
-29.88
-31.83
-32.9
-33.84
-35.02
-36.49
-38.11
-39.71
-41.22
-42.7
-44.35
-46.35
-48.79
-51.63
-54.74
-57.95
-61.19
-64.51
-68.11
-72.3
-77.38
-83.62
-91.12
-99.71
-108.71
-117.01
-123.02
-125.09
-121.88
-112.74
-97.96
-78.64
-56.37
-32.85
-9.57
12.26
31.77
48.27
61.32
70.8
76.95
80.43
82.21
83.36
84.79
87.04
90.18
93.95
97.84
101.33
104
105.55
105.69
104.17
100.81
95.56
88.64
80.46
71.57
62.41
53.19
43.92
34.48
24.75
14.73
4.51
-5.73
-15.82
-25.65
-35.09
-44.05
-52.55
-60.71
-68.83
-77.29
-86.34
-95.89
-105.39
-113.85
-120.01
-122.63
-120.77
-113.93
-102.16
-86.03
-66.49
-44.83
-22.43
-0.6
19.56
37.25
51.95
63.35
71.37
76.12
78
77.68
76
73.81
71.77
70.22
69.16
68.44
67.84
67.15
66.26
65.03
63.35
61.07
58.1
54.39
49.93
44.74
38.85
32.3
25.17
17.58
9.7
1.69
-6.33
-14.33
-22.38
-30.52
-38.64
-46.54
-53.89
-60.48
-66.27
-71.55
-76.85
-82.8
-89.93
-98.37
-107.75
-117.03
-124.65
-128.81
-127.83
-120.67
-107.17
-88.19
-65.34
-40.55
-15.65
7.95
29.34
47.94
63.34
75.19
83.3
87.72
88.87
87.56
84.74
81.29
77.85
74.71
71.96
69.56
67.48
65.69
64.15
62.72
61.19
59.31
56.81
53.56
49.54
44.93
39.94
34.79
29.55
24.2
18.59
12.64
6.38
-0.04
-6.44
-12.7
-18.84
-25.02
-31.32
-37.7
-44.02
-49.97
-55.42
-60.37
-65.11
-70.11
-75.87
-82.78
-90.87
-99.72
-108.3
-115.08
-118.35
-116.52
-108.67
-94.81
-75.91
-53.67
-30.03
-6.8
14.63
33.3
48.57
60.08
67.66
71.45
71.92
69.89
66.36
62.32
58.48
55.27
52.83
51.13
50.05
49.45
49.12
48.76
47.96
46.32
43.53
39.47
34.29
28.31
21.89
15.25
8.48
1.49
-5.8
-13.35
-20.9
-28.15
-34.83
-40.91
-46.56
-52.12
-57.96
-64.39
-71.54
-79.4
-87.61
-95.45
-101.74
-104.97
-103.66
-96.8
-84.2
-66.64
-45.66
-23.15
-0.95
19.4
36.82
50.62
60.45
66.27
68.38
67.41
64.2
59.74
54.91
50.42
46.65
43.71
41.52
39.91
38.7
37.74
36.85
35.81
34.35
32.22
29.28
25.54
21.1
16.13
10.66
4.67
-1.9
-9.08
-16.71
-24.52
-32.16
-39.39
-46.15
-52.61
-59.13
-66.15
-74.08
-83.05
-92.93
-103.08
-112.38
-119.33
-122.25
-119.71
-110.88
-95.83
-75.58
-51.82
-26.57
-1.7
21.34
41.61
58.57
71.93
81.54
87.42
89.74
88.99
85.86
81.15
75.66
70.06
64.84
60.28
56.52
53.52
51.13
49.06
46.95
44.45
41.32
37.44
32.91
27.95
22.89
17.95
13.25
8.67
3.99
-1.08
-6.67
-12.71
-18.95
-25.1
-30.97
-36.64
-42.51
-49.11
-56.96
-66.28
-76.8
-87.6
-97.27
-104.03
-106.18
-102.5
-92.51
-76.69
-56.29
-33.11
-9.04
14.2
35.29
53.3
67.7
78.24
84.96
88.14
88.33
86.19
82.4
77.62
72.36
67.08
62.11
57.69
53.91
50.7
47.85
45.08
42.12
38.77
34.9
30.49
25.54
20.1
14.24
8.05
1.64
-4.9
-11.45
-17.86
-23.99
-29.67
-34.81
-39.45
-43.75
-48.04
-52.71
-58.16
-64.5
-71.43
-78.08
-83.02
-84.6
-81.41
-72.7
-58.69
-40.51
-19.86
1.4
21.57
39.36
53.82
64.32
70.5
72.35
70.18
64.72
56.98
48.07
39.01
30.54
23.04
16.58
11.03
6.22
2.04
-1.51
-4.45
-6.85
-8.96
-11.2
-14.07
-17.93
-22.9
-28.78
-35.13
-41.45
-47.34
-52.64
-57.45
-62.08
-66.92
-72.27
-78.22
-84.48
-90.24
-94.23
-94.95
-91.03
-81.68
-66.95
-47.75
-25.61
-2.22
20.86
42.34
61.17
76.51
87.66
94.31
96.6
95.24
91.34
86.1
80.54
75.28
70.55
66.32
62.47
58.92
55.66
52.66
49.8
46.85
43.45
39.27
34.03
27.66
20.28
12.19
3.81
-4.53
-12.57
-20.28
-27.82
-35.58
-44.01
-53.53
-64.28
-75.85
-87.2
-96.73
-102.57
-103.13
-97.43
-85.47
-68.11
-46.88
-23.58
0.05
22.52
42.66
59.6
72.72
81.74
86.68
87.9
86.08
82.05
76.73
70.94
65.31
60.2
55.74
51.82
48.24
44.83
41.48
38.16
34.8
31.25
27.27
22.53
16.79
9.97
2.22
-6.18
-14.87
-23.57
-32.06
-40.26
-48.16
-55.86
-63.56
-71.57
-80.12
-89.26
-98.6
-107.2
-113.69
-116.52
-114.33
-106.41
-92.89
-74.81
-53.82
-31.83
-10.62
8.49
24.65
37.47
46.91
53.09
56.28
56.83
55.24
52.06
47.9
43.31
38.71
34.46
30.85
28.18
26.71
26.56
27.61
29.43
31.39
32.85
33.4
33
31.99
30.86
30.05
29.68
29.6
29.37
28.59
27.02
24.76
22.21
19.9
18.22
17.27
16.76
16.07
14.47
11.37
6.53
0.28
-6.43
-12.11
-15.01
-13.5
-6.5
6.18
23.81
44.87
67.5
89.93
110.72
128.84
143.58
154.35
160.58
161.74
157.48
147.87
133.53
115.6
95.63
75.21
55.64
37.67
21.44
6.68
-7.02
-19.89
-32
-43.24
-53.54
-63.01
-71.91
-80.57
-89.18
-97.7
-105.84
-113.16
-119.25
-123.87
-127.01
-128.92
-130.01
-130.76
-131.68
-133.21
-135.61
-138.85
-142.56
-145.91
-147.74
-146.7
-141.59
-131.66
-116.82
-97.78
-75.75
-52.26
-28.82
-6.66
13.27
30.26
43.84
53.74
60.03
63.09
63.67
62.67
61
59.31
57.94
56.93
56.13
55.3
54.19
52.57
50.26
47.11
43.03
38.02
32.12
25.39
17.94
9.9
1.45
-7.15
-15.61
-23.66
-31.14
-38.06
-44.63
-51.22
-58.23
-66.06
-74.88
-84.56
-94.48
-103.54
-110.3
-113.28
-111.36
-104.05
-91.76
-75.55
-57
-37.75
-19.28
-2.64
11.52
22.85
31.23
36.69
39.36
39.55
37.71
34.42
30.29
25.85
21.44
17.22
13.25
9.64
6.56
4.34
3.27
3.53
5.05
7.53
10.55
13.65
16.57
19.23
21.8
24.56
27.72
31.31
35.03
38.39
40.81
41.84
41.28
39.2
35.83
31.38
25.94
19.43
11.61
2.25
-8.78
-21.35
-34.88
-48.39
-60.45
-69.42
-73.84
-72.71
-65.86
-53.92
-38.24
-20.48
-2.26
15.12
30.8
44.33
55.51
64.3
70.68
74.7
76.45
76.17
74.23
71.09
67.26
63.1
58.86
54.67
50.57
46.62
42.92
39.55
36.58
33.94
31.53
29.2
26.88
24.58
22.32
20.07
17.62
14.69
11.05
6.6
1.48
-4
-9.52
-14.91
-20.19
-25.52
-31.11
-37.11
-43.53
-50.19
-56.65
-62.17
-65.69
-66.08
-62.45
-54.51
-42.8
-28.47
-13.01
2.23
16.3
28.65
38.93
46.79
51.86
53.89
52.97
49.63
44.72
39.17
33.71
28.69
24.15
19.97
16.03
12.27
8.71
5.34
2.12
-1.02
-4.21
-7.5
-10.93
-14.49
-18.16
-21.89
-25.57
-29.04
-32.2
-35.06
-37.83
-40.85
-44.59
-49.35
-55.19
-61.73
-68.21
-73.63
-76.91
-77.17
-73.88
-66.92
-56.61
-43.61
-28.77
-13.1
2.38
16.7
29
38.64
45.33
49.14
50.53
50.17
48.82
47.05
45.16
43.13
40.83
38.07
34.88
31.42
27.97
24.69
21.52
18.19
14.32
9.62
4.06
-2.15
-8.65
-15.09
-21.2
-26.91
-32.26
-37.43
-42.67
-48.35
-54.81
-62.21
-70.4
-78.65
-85.75
-90.18
-90.6
-86.18
-76.9
-63.44
-47.04
-29.14
-11.02
6.33
22.22
36.23
48.12
57.7
64.88
69.64
72.11
72.55
71.35
68.98
65.87
62.4
58.87
55.46
52.3
49.42
46.77
44.17
41.39
38.22
34.52
30.25
25.45
20.19
14.48
8.32
1.68
-5.46
-13.06
-20.99
-28.99
-36.72
-43.81
-50.01
-55.34
-60.15
-65.04
-70.67
-77.37
-84.96
-92.52
-98.66
-101.78
-100.57
-94.35
-83.19
-67.86
-49.57
-29.63
-9.31
10.35
28.47
44.4
57.67
68.03
75.46
80.14
82.44
82.77
81.6
79.33
76.36
73.02
69.58
66.2
62.94
59.79
56.73
53.81
51.06
48.52
46.07
43.46
40.41
36.7
32.35
27.54
22.6
17.78
13.08
8.33
3.24
-2.37
-8.48
-14.91
-21.36
-27.63
-33.61
-39.34
-44.95
-50.6
-56.49
-62.89
-70.06
-78.19
-87.17
-96.41
-104.79
-110.78
-112.82
-109.76
-101.14
-87.3
-69.26
-48.42
-26.26
-4.14
16.78
35.53
51.36
63.75
72.5
77.74
79.89
79.6
77.62
74.64
71.26
67.91
64.83
62.09
59.67
57.49
55.49
53.6
51.78
49.95
48.01
45.8
43.22
40.18
36.68
32.74
28.39
23.68
18.69
13.52
8.25
2.94
-2.51
-8.24
-14.39
-20.95
-27.7
-34.31
-40.45
-45.94
-50.91
-55.72
-60.86
-66.8
-73.75
-81.52
-89.42
-96.34
-100.9
-101.74
-97.89
-88.97
-75.31
-57.89
-38.07
-17.38
2.77
21.19
36.97
49.52
58.49
63.83
65.79
64.9
61.93
57.75
53.19
48.88
45.18
42.2
39.85
37.96
36.28
34.61
32.83
30.83
28.61
26.13
23.32
20.06
16.19
11.65
6.46
0.77
-5.19
-11.22
-17.18
-22.98
-28.63
-34.12
-39.53
-45.02
-50.83
-57.11
-63.77
-70.25
-75.53
-78.36
-77.55
-72.37
-62.79
-49.38
-33.21
-15.55
2.31
19.18
33.96
45.78
54.07
58.63
59.76
58.09
54.48
49.85
44.99
40.46
36.57
33.39
30.74
28.38
26.07
23.7
21.26
18.83
16.37
13.74
10.61
6.63
1.65
-4.24
-10.71
-17.27
-23.52
-29.27
-34.58
-39.73
-45.18
-51.39
-58.74
-67.38
-76.98
-86.69
-95.1
-100.54
-101.46
-96.87
-86.61
-71.41
-52.62
-31.9
-10.8
9.38
27.65
43.28
55.71
64.64
69.99
72.02
71.28
68.52
64.6
60.24
55.98
52.07
48.49
45.16
41.92
38.73
35.61
32.62
29.74
26.84
23.62
19.77
15.05
9.43
3.1
-3.57
-10.2
-16.59
-22.68
-28.65
-34.72
-41.16
-48.25
-56.22
-65.14
-74.78
-84.4
-92.68
-97.96
-98.62
-93.61
-82.78
-66.94
-47.57
-26.42
-5.03
15.35
33.85
49.76
62.58
71.91
77.67
80.07
79.63
77.08
73.15
68.48
63.58
58.82
54.47
50.71
47.59
45.01
42.74
40.45
37.83
34.67
30.92
26.6
21.79
16.53
10.83
4.7
-1.8
-8.5
-15.22
-21.77
-28.09
-34.22
-40.36
-46.79
-53.78
-61.51
-69.92
-78.53
-86.47
-92.46
-95.04
-92.94
-85.43
-72.54
-55.08
-34.47
-12.44
9.34
29.47
46.9
60.92
71.17
77.56
80.33
79.99
77.33
73.24
68.55
63.91
59.71
56.12
53.13
50.62
48.42
46.32
44.13
41.72
39.03
36.01
32.6
28.68
24.14
18.91
13.09
6.9
0.65
-5.41
-11.23
-16.94
-22.8
-29.06
-35.88
-43.34
-51.42
-59.89
-68.31
-75.82
-81.25
-83.31
-80.92
-73.54
-61.41
-45.53
-27.35
-8.51
9.51
25.6
38.94
48.98
55.42
58.17
57.55
54.27
49.37
43.93
38.88
34.71
31.46
28.88
26.64
24.49
22.33
20.14
17.85
15.31
12.32
8.71
4.42
-0.48
-5.87
-11.58
-17.46
-23.41
-29.37
-35.32
-41.33
-47.53
-54.07
-61.03
-68.26
-75.23
-81.02
-84.44
-84.21
-79.38
-69.58
-55.22
-37.37
-17.54
2.65
21.74
38.55
52.26
62.3
68.45
70.8
69.89
66.55
61.84
56.75
51.99
47.83
44.19
40.8
37.43
33.99
30.5
27.06
23.62
19.97
15.8
10.79
4.85
-1.9
-9.1
-16.32
-23.22
-29.7
-35.89
-42.14
-48.79
-56.15
-64.3
-73.02
-81.75
-89.49
-94.95
-96.76
-93.81
-85.58
-72.37
-55.22
-35.63
-15.22
4.62
22.91
38.96
52.31
62.63
69.68
73.4
74.09
72.36
69.04
65.02
60.99
57.37
54.3
51.7
49.38
47.13
44.75
42.08
39.03
35.61
31.87
27.88
23.66
19.1
14.02
8.27
1.86
-5.05
-12.1
-18.91
-25.25
-31.12
-36.75
-42.57
-49.02
-56.44
-64.89
-74.07
-83.24
-91.22
-96.58
-97.94
-94.26
-85.22
-71.29
-53.63
-33.75
-13.19
6.76
25.11
41.15
54.39
64.51
71.43
75.33
76.66
75.99
73.95
71.06
67.72
64.23
60.84
57.73
55.01
52.75
50.88
49.29
47.83
46.27
44.37
41.84
38.49
34.24
29.22
23.74
18.17
12.83
7.78
2.91
-2.1
-7.56
-13.61
-20.19
-27
-33.64
-39.78
-45.32
-50.42
-55.47
-60.98
-67.38
-74.86
-83.24
-91.87
-99.73
-105.5
-107.78
-105.41
-97.77
-84.96
-67.78
-47.64
-26.14
-4.8
15.15
32.87
47.83
59.76
68.59
74.39
77.42
78.08
76.92
74.56
71.61
68.6
65.92
63.72
61.97
60.47
58.98
57.31
55.36
53.16
50.76
48.16
45.26
41.93
38.03
33.56
28.65
23.54
18.5
13.7
9.17
4.81
0.43
-4.15
-9.04
-14.2
-19.49
-24.73
-29.8
-34.66
-39.39
-44.15
-49.15
-54.63
-60.77
-67.69
-75.23
-82.86
-89.56
-93.96
-94.66
-90.59
-81.44
-67.79
-51
-32.8
-14.86
1.48
15.35
26.22
33.74
37.68
38.05
35.17
29.81
23.01
15.95
9.58
4.49
0.84
-1.44
-2.58
-2.78
-2.26
-1.27
-0.1
0.95
1.61
1.76
1.43
0.75
-0.05
-0.83
-1.44
-1.87
-2.15
-2.4
-2.79
-3.5
-4.72
-6.64
-9.45
-13.31
-18.29
-24.27
-30.82
-37.17
-42.3
-45.04
-44.42
-39.82
-31.22
-19.17
-4.72
10.82
26.18
40.23
52.16
61.46
67.85
71.33
72.07
70.49
67.18
62.83
58.09
53.49
49.41
46.02
43.37
41.37
39.88
38.62
37.26
35.48
33.05
29.89
26.09
21.85
17.3
12.55
7.6
2.42
-2.93
-8.31
-13.55
-18.51
-23.12
-27.48
-31.71
-36.03
-40.64
-45.8
-51.76
-58.62
-66.21
-73.84
-80.43
-84.6
-85.03
-80.92
-72.1
-59.16
-43.21
-25.66
-7.87
8.97
23.96
36.48
46.12
52.7
56.2
56.81
54.96
51.32
46.63
41.67
37
32.94
29.55
26.73
24.4
22.51
21.06
19.99
19.13
18.16
16.65
14.32
11.02
6.88
2.16
-2.82
-7.86
-12.95
-18.21
-23.84
-30.01
-36.85
-44.37
-52.4
-60.57
-68.21
-74.35
-77.87
-77.75
-73.31
-64.53
-51.97
-36.7
-19.96
-2.91
13.53
28.7
42.13
53.45
62.36
68.62
72.16
73.07
71.65
68.37
63.8
58.46
52.77
47.06
41.5
36.18
31.08
26.15
21.24
16.16
10.77
5.03
-0.97
-7.02
-12.87
-18.34
-23.46
-28.39
-33.48
-39.03
-45.24
-51.99
-58.8
-64.77
-68.81
-69.82
-66.97
-59.99
-49.23
-35.52
-20.01
-3.86
11.88
26.36
38.91
48.98
56.17
60.29
61.44
60.01
56.59
51.89
46.47
40.71
34.77
28.74
22.7
16.85
11.42
6.56
2.23
-1.84
-6.07
-10.8
-16.18
-22.06
-28.12
-34.01
-39.45
-44.34
-48.77
-52.88
-56.92
-61.09
-65.53
-70.14
-74.51
-77.81
-78.92
-76.69
-70.26
-59.41
-44.61
-26.88
-7.6
11.85
30.28
46.76
60.59
71.29
78.61
82.5
83.19
81.11
76.92
71.27
64.76
57.84
50.79
43.77
36.88
30.3
24.2
18.74
13.96
9.68
5.61
1.48
-2.86
-7.31
-11.63
-15.55
-18.95
-21.91
-24.78
-28.05
-32.2
-37.6
-44.34
-52.18
-60.48
-68.28
-74.41
-77.69
-77.27
-72.83
-64.68
-53.71
-41.14
-28.2
-15.9
-4.92
4.32
11.56
16.68
19.61
20.51
19.71
17.76
15.21
12.57
10.14
7.99
6.13
4.5
3.1
1.9
0.87
-0.13
-1.27
-2.79
-4.86
-7.56
-10.78
-14.28
-17.77
-21.04
-24.11
-27.25
-30.88
-35.36
-40.71
-46.46
-51.62
-54.95
-55.3
-51.89
-44.6
-33.89
-20.66
-5.98
9.09
23.61
36.81
48.1
57.01
63.29
66.89
68.05
67.22
64.97
61.86
58.31
54.54
50.64
46.64
42.58
38.59
34.77
31.2
27.8
24.39
20.69
16.51
11.79
6.64
1.3
-4.06
-9.33
-14.57
-19.89
-25.46
-31.4
-37.84
-44.83
-52.28
-59.88
-66.93
-72.41
-75.13
-74.08
-68.71
-59.17
-46.21
-31
-14.9
0.89
15.39
27.94
38.19
46.05
51.53
54.77
55.96
55.34
53.25
50.18
46.63
43.06
39.82
37.02
34.65
32.61
30.79
29.1
27.42
25.59
23.46
20.9
17.86
14.37
10.52
6.39
2.03
-2.6
-7.53
-12.77
-18.29
-23.98
-29.78
-35.64
-41.59
-47.75
-54.27
-61.17
-68.22
-74.84
-80.07
-82.81
-82.06
-77.24
-68.36
-56.01
-41.2
-25.11
-8.87
6.58
20.55
32.58
42.38
49.82
54.94
57.9
58.99
58.6
57.15
55.05
52.65
50.18
47.8
45.58
43.59
41.88
40.46
39.25
38.02
36.5
34.42
31.62
28.15
24.17
19.93
15.61
11.28
6.87
2.29
-2.52
-7.5
-12.5
-17.38
-22.08
-26.67
-31.31
-36.2
-41.52
-47.39
-53.85
-60.82
-67.95
-74.52
-79.49
-81.62
-79.88
-73.8
-63.6
-50.22
-34.96
-19.16
-3.84
10.29
22.79
33.4
41.86
48.03
51.93
53.76
53.92
52.85
50.97
48.64
46.09
43.5
41.05
38.89
37.08
35.64
34.44
33.32
32.08
30.5
28.49
25.98
22.95
19.43
15.47
11.1
6.37
1.37
-3.78
-8.96
-14.07
-19.12
-24.15
-29.26
-34.59
-40.22
-46.23
-52.66
-59.36
-65.98
-71.8
-75.81
-76.9
-74.21
-67.42
-56.86
-43.44
-28.35
-12.82
2.11
15.59
26.98
35.74
41.55
44.36
44.44
42.39
39.02
35.12
31.34
28.1
25.55
23.61
22.1
20.77
19.43
17.92
16.17
14.15
11.81
9.1
5.96
2.36
-1.65
-5.99
-10.52
-15.11
-19.7
-24.25
-28.8
-33.47
-38.42
-43.86
-49.94
-56.68
-63.76
-70.5
-75.91
-78.84
-78.26
-73.5
-64.43
-51.51
-35.7
-18.27
-0.56
16.17
30.95
43.08
52.23
58.32
61.51
62.15
60.74
57.87
54.17
50.22
46.44
43.05
40.15
37.73
35.73
34.03
32.46
30.78
28.77
26.19
22.97
19.15
14.84
10.16
5.19
-0.07
-5.67
-11.56
-17.72
-24.03
-30.34
-36.55
-42.62
-48.63
-54.79
-61.4
-68.7
-76.73
-85.11
-93.05
-99.34
-102.67
-101.83
-96.07
-85.26
-69.88
-50.93
-29.78
-7.96
13.06
32.02
47.98
60.41
69.13
74.31
76.38
75.95
73.73
70.43
66.64
62.77
59.1
55.76
52.86
50.45
48.53
46.99
45.64
44.2
42.37
39.89
36.66
32.68
28.11
23.17
18.05
12.88
7.64
2.18
-3.63
-9.83
-16.31
-22.75
-28.88
-34.55
-39.85
-45.08
-50.66
-56.96
-64.1
-71.92
-79.82
-86.86
-91.78
-93.25
-90.11
-81.71
-68.11
-50.13
-29.21
-7.1
14.53
34.29
51.23
64.73
74.55
80.64
83.25
82.87
80.24
76.14
71.38
66.58
62.1
58.15
54.77
51.92
49.51
47.37
45.31
43.18
40.82
38.13
35.05
31.51
27.52
23.11
18.39
13.49
8.48
3.36
-1.96
-7.56
-13.43
-19.46
-25.41
-31.06
-36.29
-41.24
-46.24
-51.75
-58.19
-65.67
-73.91
-82.05
-88.76
-92.51
-91.88
-85.96
-74.59
-58.47
-38.97
-17.83
3.24
22.74
39.58
52.99
62.51
67.97
69.5
67.59
63.09
57.11
50.77
45.02
40.42
37.08
34.75
33.01
31.46
29.88
28.22
26.58
25.03
23.56
21.99
20.06
17.52
14.24
10.26
5.78
0.98
-4.03
-9.2
-14.62
-20.42
-26.71
-33.57
-41.05
-49.13
-57.62
-66.04
-73.53
-78.87
-80.73
-77.98
-70.11
-57.33
-40.6
-21.34
-1.22
18.18
35.54
49.82
60.35
66.83
69.38
68.44
64.84
59.57
53.68
48.06
43.3
39.66
37.11
35.35
34.02
32.77
31.29
29.44
27.15
24.47
21.4
17.95
14
9.41
4.1
-1.91
-8.44
-15.2
-21.95
-28.51
-34.84
-41.02
-47.2
-53.62
-60.53
-68.16
-76.55
-85.36
-93.69
-100.16
-103.14
-101.19
-93.52
-80.19
-62.12
-40.84
-18.12
4.37
25.25
43.51
58.5
69.89
77.58
81.73
82.76
81.23
77.85
73.28
68.1
62.8
57.71
53.11
49.18
46.01
43.54
41.5
39.51
37.17
34.18
30.44
26.08
21.34
16.48
11.66
6.88
2.02
-3.1
-8.6
-14.44
-20.49
-26.54
-32.43
-38.21
-44.05
-50.31
-57.3
-65.1
-73.4
-81.37
-87.8
-91.26
-90.48
-84.67
-73.74
-58.33
-39.65
-19.21
1.5
21.17
38.8
53.62
65.11
73.03
77.41
78.59
77.22
74.09
70.01
65.68
61.52
57.74
54.38
51.41
48.83
46.69
45.02
43.77
42.68
41.39
39.46
36.6
32.71
27.93
22.54
16.89
11.28
5.93
0.91
-3.81
-8.38
-13.03
-17.96
-23.29
-28.99
-34.84
-40.54
-45.89
-50.89
-55.83
-61.18
-67.38
-74.51
-82.15
-89.3
-94.58
-96.57
-94.17
-86.86
-74.83
-58.91
-40.37
-20.7
-1.32
16.54
31.98
44.44
53.7
59.79
62.97
63.65
62.38
59.8
56.51
53.06
49.8
46.94
44.53
42.51
40.74
39.08
37.35
35.42
33.16
30.49
27.37
23.8
19.77
15.28
10.36
5.04
-0.54
-6.2
-11.73
-17
-21.91
-26.53
-30.98
-35.45
-40.15
-45.26
-50.86
-56.85
-62.81
-68.03
-71.52
-72.25
-69.44
-62.79
-52.57
-39.53
-24.73
-9.35
5.49
18.82
29.86
38.04
43.14
45.25
44.79
42.38
38.76
34.67
30.76
27.49
25.07
23.47
22.43
21.54
20.45
18.92
16.94
14.6
11.99
9.12
5.87
2.11
-2.26
-7.14
-12.33
-17.61
-22.77
-27.73
-32.54
-37.3
-42.19
-47.41
-53.16
-59.62
-66.71
-74.09
-80.93
-86.1
-88.33
-86.52
-80.13
-69.26
-54.72
-37.75
-19.8
-2.19
14.02
28.14
39.79
48.84
55.32
59.37
61.21
61.17
59.67
57.16
54.16
51.05
48.09
45.39
42.88
40.52
38.3
36.24
34.35
32.57
30.7
28.48
25.71
22.37
18.65
14.84
11.18
7.67
4.11
0.16
-4.4
-9.56
-15.05
-20.5
-25.59
-30.29
-34.8
-39.5
-44.71
-50.68
-57.41
-64.7
-72.07
-78.74
-83.71
-85.8
-84.01
-77.8
-67.26
-53.18
-36.79
-19.51
-2.55
13.13
26.95
38.53
47.67
54.3
58.47
60.4
60.46
59.18
57.11
54.72
52.36
50.18
48.21
46.43
44.84
43.46
42.3
41.27
40.23
38.93
37.21
34.91
32.04
28.69
25.01
21.18
17.33
13.54
9.82
6.06
2.13
-2.1
-6.64
-11.44
-16.33
-21.17
-25.86
-30.42
-34.93
-39.52
-44.31
-49.46
-55.17
-61.59
-68.67
-76.02
-82.75
-87.63
-89.38
-87.01
-80.25
-69.52
-55.82
-40.37
-24.33
-8.65
6
19.1
30.23
39.11
45.63
49.87
52.12
52.82
52.45
51.43
50.08
48.62
47.21
45.92
44.82
43.96
43.33
42.87
42.43
41.78
40.73
39.1
36.81
33.97
30.73
27.3
23.83
20.39
16.96
13.49
9.91
6.15
2.16
-2.12
-6.71
-11.6
-16.67
-21.79
-26.84
-31.78
-36.72
-41.91
-47.57
-53.81
-60.45
-66.93
-72.4
-75.8
-76.21
-73.03
-66.25
-56.39
-44.37
-31.3
-18.16
-5.72
5.46
14.98
22.49
27.78
30.75
31.57
30.68
28.7
26.35
24.23
22.72
21.94
21.76
21.95
22.22
22.35
22.16
21.53
20.39
18.66
16.3
13.36
9.94
6.18
2.21
-1.85
-5.98
-10.14
-14.37
-18.71
-23.21
-27.89
-32.87
-38.22
-44.06
-50.37
-56.89
-63.08
-68.05
-70.77
-70.29
-66
-57.89
-46.49
-32.77
-17.9
-2.98
11.09
23.66
34.23
42.49
48.21
51.41
52.27
51.26
48.98
46.1
43.15
40.43
38.04
35.96
34.16
32.64
31.47
30.62
29.94
29.1
27.75
25.66
22.79
19.39
15.79
12.27
8.9
5.56
2.01
-1.92
-6.25
-10.81
-15.38
-19.78
-23.99
-28.12
-32.4
-37.04
-42.17
-47.85
-54.03
-60.5
-66.86
-72.43
-76.31
-77.58
-75.47
-69.56
-59.96
-47.23
-32.31
-16.3
-0.33
14.62
27.79
38.65
46.9
52.47
55.46
56.18
55.14
52.96
50.28
47.62
45.24
43.2
41.4
39.77
38.36
37.22
36.39
35.74
34.98
33.75
31.75
28.92
25.36
21.36
17.2
13.11
9.2
5.38
1.51
-2.59
-7.06
-11.9
-16.97
-22.05
-26.88
-31.3
-35.35
-39.26
-43.41
-48.18
-53.87
-60.49
-67.73
-74.86
-80.84
-84.46
-84.62
-80.6
-72.29
-60.16
-45.2
-28.65
-11.76
4.44
19.16
31.88
42.29
50.22
55.66
58.76
59.84
59.38
57.89
55.84
53.62
51.52
49.73
48.38
47.47
46.89
46.42
45.76
44.62
42.85
40.5
37.7
34.64
31.42
28.03
24.38
20.37
15.99
11.27
6.29
1.09
-4.28
-9.77
-15.31
-20.75
-26
-31.05
-36.12
-41.53
-47.62
-54.41
-61.53
-68.07
-72.82
-74.57
-72.42
-66.11
-56.01
-42.97
-28.15
-12.7
2.31
15.97
27.5
36.3
42.01
44.63
44.54
42.5
39.42
36.15
33.27
31.02
29.37
28.08
26.92
25.7
24.36
22.9
21.33
19.6
17.58
15.06
11.85
7.82
3.03
-2.32
-7.87
-13.34
-18.53
-23.38
-27.95
-32.37
-36.81
-41.46
-46.5
-52
-57.78
-63.31
-67.69
-69.85
-68.84
-64.06
-55.55
-43.9
-30.13
-15.44
-0.97
12.3
23.67
32.57
38.7
42.01
42.75
41.5
39.06
36.25
33.77
31.97
30.88
30.21
29.61
28.81
27.69
26.3
24.72
22.94
20.8
18.03
14.39
9.74
4.19
-2.01
-8.53
-15.11
-21.58
-27.93
-34.3
-40.93
-48.13
-56.18
-65.12
-74.6
-83.76
-91.29
-95.73
-95.8
-90.83
-80.86
-66.67
-49.46
-30.59
-11.33
7.3
24.42
39.33
51.47
60.48
66.29
69.14
69.51
68.02
65.3
61.88
58.22
54.7
51.56
48.93
46.78
44.91
43.07
41.08
38.78
36.19
33.31
30.11
26.46
22.2
17.17
11.33
4.78
-2.26
-9.5
-16.63
-23.46
-29.91
-36.12
-42.42
-49.22
-56.91
-65.61
-75.03
-84.3
-92.11
-96.93
-97.37
-92.58
-82.44
-67.59
-49.23
-28.8
-7.73
12.77
31.76
48.49
62.4
73.13
80.56
84.87
86.49
86.04
84.16
81.44
78.3
75.03
71.82
68.77
65.95
63.38
61.01
58.81
56.68
54.42
51.76
48.43
44.15
38.9
32.87
26.41
19.9
13.59
7.41
1.15
-5.47
-12.59
-20.11
-27.75
-35.14
-42.02
-48.35
-54.32
-60.26
-66.58
-73.61
-81.47
-89.94
-98.28
-105.26
-109.36
-109.08
-103.33
-91.85
-75.23
-54.84
-32.44
-9.8
11.61
30.78
47.08
60.14
69.81
76.12
79.29
79.8
78.32
75.54
72.12
68.5
64.91
61.48
58.26
55.35
52.82
50.74
48.97
47.27
45.29
42.74
39.48
35.56
31.15
26.44
21.51
16.34
10.86
5.05
-1.02
-7.17
-13.24
-19.09
-24.75
-30.36
-36.17
-42.51
-49.63
-57.65
-66.3
-74.89
-82.29
-87.16
-88.19
-84.54
-76.01
-63.1
-46.88
-28.72
-10.08
7.66
23.34
36.07
45.25
50.71
52.68
51.75
48.78
44.73
40.47
36.65
33.66
31.59
30.28
29.44
28.71
27.75
26.36
24.47
22.11
19.36
16.23
12.68
8.6
3.9
-1.4
-7.12
-12.94
-18.53
-23.72
-28.48
-33.02
-37.64
-42.63
-48.24
-54.62
-61.79
-69.59
-77.46
-84.43
-89.08
-89.92
-85.78
-76.19
-61.59
-43.25
-22.87
-2.18
17.41
34.9
49.68
61.4
69.86
75.06
77.19
76.71
74.31
70.75
66.71
62.69
58.97
55.67
52.8
50.34
48.26
46.46
44.78
43.04
41.04
38.62
35.63
32.01
27.77
23
17.89
12.61
7.27
1.8
-3.98
-10.26
-17.08
-24.24
-31.34
-37.93
-43.69
-48.62
-52.96
-57.13
-61.54
-66.6
-72.52
-79.27
-86.44
-93.11
-97.9
-99.2
-95.68
-86.68
-72.52
-54.39
-34
-13.07
7
25.27
41.19
54.39
64.62
71.69
75.65
76.82
75.77
73.24
69.98
66.51
63.17
60.11
57.35
54.91
52.8
51.05
49.59
48.34
47.13
45.82
44.29
42.46
40.26
37.6
34.36
30.45
25.92
20.92
15.68
10.4
5.11
-0.3
-6.04
-12.22
-18.76
-25.37
-31.72
-37.53
-42.79
-47.67
-52.44
-57.42
-62.86
-68.93
-75.73
-83.12
-90.58
-97.08
-101.16
-101.31
-96.35
-85.88
-70.44
-51.37
-30.43
-9.39
10.33
27.73
42.17
53.31
60.99
65.25
66.39
64.94
61.67
57.39
52.88
48.71
45.18
42.4
40.29
38.73
37.55
36.55
35.5
34.17
32.36
29.96
26.96
23.39
19.36
14.93
10.13
5
-0.41
-5.97
-11.54
-16.96
-22.13
-27.08
-31.92
-36.84
-42.1
-47.89
-54.34
-61.33
-68.43
-74.81
-79.36
-80.83
-78.26
-71.18
-59.89
-45.3
-28.76
-11.74
4.46
18.83
30.65
39.46
45.02
47.34
46.74
43.84
39.49
34.64
30.11
26.4
23.67
21.77
20.36
19.15
17.95
16.72
15.47
14.15
12.57
10.46
7.52
3.6
-1.21
-6.64
-12.32
-17.95
-23.36
-28.6
-33.82
-39.27
-45.18
-51.76
-59.11
-67.15
-75.47
-83.27
-89.41
-92.54
-91.51
-85.61
-74.79
-59.69
-41.49
-21.64
-1.6
17.42
34.44
48.78
59.98
67.77
72.12
73.22
71.59
68.05
63.51
58.88
54.72
51.24
48.33
45.71
43.19
40.68
38.25
35.93
33.61
31.05
27.98
24.21
19.77
14.85
9.69
4.4
-1.06
-6.85
-13.16
-20.03
-27.26
-34.47
-41.24
-47.27
-52.58
-57.53
-62.71
-68.77
-76.06
-84.39
-92.95
-100.41
-105.15
-105.7
-101.02
-90.79
-75.46
-56.16
-34.43
-11.98
9.69
29.41
46.47
60.53
71.48
79.36
84.29
86.48
86.32
84.33
81.11
77.27
73.24
69.34
65.77
62.64
60.06
58.08
56.7
55.74
54.91
53.84
52.2
49.83
46.71
43.04
39.07
35.07
31.18
27.38
23.58
19.59
15.3
10.7
5.85
0.88
-4.05
-8.84
-13.41
-17.74
-21.94
-26.17
-30.64
-35.51
-40.83
-46.43
-52.03
-57.3
-62.09
-66.55
-71.12
-76.41
-82.95
-90.91
-99.87
-108.8
-116.15
-120.27
-119.76
-113.78
-102.27
-85.88
-65.8
-43.47
-20.43
1.94
22.5
40.41
55.17
66.6
74.79
80
82.67
83.24
82.21
80.07
77.27
74.22
71.26
68.6
66.34
64.48
62.89
61.42
59.88
58.11
55.97
53.37
50.25
46.63
42.58
38.26
33.81
29.36
24.92
20.5
16.02
11.48
6.86
2.23
-2.45
-7.23
-12.2
-17.41
-22.84
-28.36
-33.78
-38.98
-43.93
-48.82
-53.96
-59.73
-66.44
-74.12
-82.4
-90.42
-96.92
-100.53
-100.01
-94.68
-84.53
-70.21
-52.91
-33.99
-14.83
3.39
19.72
33.45
44.14
51.62
55.98
57.61
57.1
55.15
52.46
49.57
46.85
44.42
42.3
40.43
38.79
37.32
35.97
34.6
33
30.96
28.37
25.21
21.58
17.64
13.61
9.64
5.84
2.27
-1.16
-4.59
-8.23
-12.26
-16.73
-21.58
-26.6
-31.61
-36.53
-41.42
-46.56
-52.19
-58.47
-65.25
-71.96
-77.68
-81.22
-81.44
-77.53
-69.27
-57.08
-41.91
-25
-7.61
9.16
24.4
37.42
47.74
55.1
59.53
61.33
61.03
59.25
56.59
53.5
50.31
47.21
44.36
41.89
39.88
38.41
37.41
36.73
36.11
35.19
33.66
31.29
28
23.96
19.44
14.82
10.43
6.37
2.56
-1.33
-5.63
-10.6
-16.25
-22.28
-28.27
-33.79
-38.62
-42.82
-46.68
-50.67
-55.19
-60.57
-66.85
-73.81
-80.87
-87.09
-91.29
-92.3
-89.23
-81.71
-70.01
-54.97
-37.84
-19.94
-2.53
13.42
27.24
38.56
47.29
53.48
57.34
59.13
59.22
58.06
56.12
53.9
51.72
49.77
48.07
46.53
45.11
43.81
42.67
41.67
40.72
39.61
38.12
36.1
33.47
30.3
26.68
22.73
18.59
14.39
10.16
5.94
1.64
-2.81
-7.51
-12.44
-17.5
-22.51
-27.27
-31.68
-35.76
-39.65
-43.58
-47.81
-52.62
-58.17
-64.42
-70.97
-77.06
-81.58
-83.36
-81.51
-75.67
-66.06
-53.43
-38.83
-23.3
-7.75
7.1
20.62
32.34
41.85
48.93
53.61
56.12
56.91
56.45
55.2
53.53
51.71
49.92
48.31
46.99
46.02
45.35
44.84
44.26
43.4
42.07
40.24
37.96
35.32
32.41
29.27
25.87
22.18
18.24
14.15
10.03
5.97
1.97
-2.08
-6.28
-10.65
-15.08
-19.42
-23.47
-27.19
-30.67
-34.1
-37.69
-41.67
-46.18
-51.34
-57.12
-63.22
-68.98
-73.42
-75.46
-74.21
-69.31
-60.99
-50.08
-37.62
-24.67
-12.11
-0.63
9.27
17.2
22.93
26.49
28.17
28.43
27.8
26.72
25.48
24.27
23.21
22.43
22
21.89
21.96
21.97
21.71
21.06
20.04
18.72
17.18
15.41
13.35
10.91
8.06
4.84
1.34
-2.34
-6.1
-9.84
-13.45
-16.89
-20.15
-23.31
-26.51
-29.92
-33.74
-38.11
-43.09
-48.51
-53.93
-58.59
-61.51
-61.75
-58.69
-52.23
-42.82
-31.3
-18.67
-5.82
6.48
17.67
27.24
34.84
40.25
43.45
44.7
44.42
43.14
41.36
39.49
37.84
36.53
35.59
34.96
34.49
34.05
33.49
32.74
31.67
30.2
28.2
25.6
22.41
18.7
14.62
10.35
5.99
1.59
-2.89
-7.53
-12.41
-17.52
-22.77
-27.98
-32.94
-37.55
-41.81
-45.88
-50.03
-54.57
-59.77
-65.73
-72.27
-78.88
-84.65
-88.45
-89.21
-86.15
-79.12
-68.54
-55.32
-40.55
-25.29
-10.35
3.66
16.26
27.07
35.78
42.23
46.47
48.79
49.65
49.55
48.98
48.23
47.47
46.7
45.89
45
44.08
43.18
42.37
41.63
40.81
39.69
38.01
35.59
32.38
28.51
24.23
19.88
15.72
11.88
8.27
4.7
0.88
-3.39
-8.13
-13.22
-18.47
-23.71
-28.88
-34.04
-39.31
-44.8
-50.64
-56.93
-63.73
-70.96
-78.25
-84.87
-89.76
-91.78
-89.96
-83.8
-73.46
-59.66
-43.55
-26.34
-9.13
7.28
22.33
35.63
46.84
55.63
61.8
65.35
66.6
66.17
64.8
63.2
61.79
60.72
59.89
59.08
58.18
57.14
56.02
54.87
53.67
52.35
50.75
48.73
46.17
43.03
39.29
35.03
30.36
25.46
20.51
15.66
10.91
6.13
1.16
-4.13
-9.69
-15.3
-20.71
-25.71
-30.29
-34.63
-39.09
-44.04
-49.85
-56.65
-64.35
-72.41
-79.93
-85.68
-88.35
-86.89
-80.83
-70.38
-56.46
-40.35
-23.46
-7
8.08
21.17
31.85
39.85
45.06
47.6
47.84
46.42
44.12
41.69
39.66
38.28
37.51
37.14
36.91
36.65
36.24
35.56
34.51
32.96
30.82
28.15
25.04
21.67
18.19
14.6
10.8
6.61
1.9
-3.31
-8.85
-14.43
-19.76
-24.72
-29.36
-33.94
-38.83
-44.37
-50.75
-57.92
-65.49
-72.7
-78.48
-81.62
-81.01
-75.92
-66.19
-52.36
-35.54
-17.16
1.36
18.79
34.3
47.41
57.86
65.51
70.31
72.37
71.99
69.74
66.32
62.48
58.78
55.54
52.85
50.65
48.85
47.4
46.23
45.2
44.08
42.57
40.36
37.31
33.43
28.89
23.97
18.96
14.01
9.18
4.34
-0.7
-6.13
-12.04
-18.33
-24.78
-31.09
-37.03
-42.59
-47.96
-53.53
-59.7
-66.72
-74.55
-82.72
-90.37
-96.31
-99.24
-98.05
-92.05
-81.16
-66.02
-47.76
-27.84
-7.7
11.36
28.38
42.68
53.84
61.77
66.6
68.74
68.78
67.35
65.06
62.37
59.59
56.91
54.46
52.34
50.61
49.29
48.3
47.45
46.45
45.05
43.02
40.3
36.95
33.11
28.95
24.64
20.26
15.86
11.47
7.02
2.39
-2.55
-7.94
-13.78
-19.96
-26.23
-32.3
-37.98
-43.25
-48.3
-53.51
-59.3
-66.01
-73.69
-81.9
-89.69
-95.69
-98.4
-96.6
-89.67
-77.81
-61.91
-43.31
-23.52
-3.89
14.49
30.81
44.51
55.26
62.92
67.57
69.55
69.41
67.78
65.35
62.63
60.01
57.66
55.64
53.94
52.51
51.35
50.35
49.38
48.17
46.44
43.98
40.69
36.63
32.03
27.18
22.38
17.8
13.47
9.31
5.12
0.71
-4.07
-9.25
-14.77
-20.49
-26.22
-31.79
-37.1
-42.15
-47.11
-52.25
-57.93
-64.41
-71.72
-79.46
-86.75
-92.34
-94.89
-93.32
-87.07
-76.29
-61.76
-44.68
-26.4
-8.19
8.89
24.02
36.57
46.08
52.32
55.37
55.64
53.86
50.86
47.45
44.17
41.31
38.9
36.84
35.07
33.53
32.14
30.78
29.25
27.35
24.98
22.2
19.16
16.01
12.82
9.51
5.91
1.86
-2.7
-7.67
-12.89
-18.14
-23.24
-28.11
-32.73
-37.2
-41.73
-46.62
-52.15
-58.38
-65
-71.17
-75.62
-76.95
-74.06
-66.51
-54.68
-39.61
-22.73
-5.46
10.99
25.72
38.07
47.6
54.06
57.49
58.19
56.73
53.81
50.11
46.19
42.48
39.24
36.64
34.74
33.5
32.75
32.21
31.57
30.49
28.75
26.22
22.88
18.82
14.19
9.19
3.97
-1.35
-6.79
-12.37
-18.12
-24.01
-29.92
-35.75
-41.47
-47.19
-53.17
-59.74
-67.18
-75.51
-84.34
-92.75
-99.49
-103.08
-102.3
-96.43
-85.5
-70.29
-52.1
-32.41
-12.6
6.25
23.37
38.3
50.71
60.43
67.35
71.5
73.07
72.43
70.1
66.7
62.83
58.95
55.41
52.36
49.84
47.76
46.01
44.37
42.6
40.42
37.58
33.93
29.49
24.46
19.13
13.78
8.53
3.32
-2.01
-7.6
-13.5
-19.58
-25.63
-31.43
-36.84
-41.91
-46.85
-52.12
-58.15
-65.21
-73.06
-80.76
-86.82
-89.53
-87.58
-80.41
-68.36
-52.52
-34.26
-14.92
4.4
22.76
39.32
53.3
64.1
71.4
75.31
76.32
75.24
72.9
70.03
67.09
64.25
61.49
58.7
55.84
52.98
50.26
47.85
45.8
44.01
42.25
40.25
37.72
34.52
30.66
26.29
21.65
17
12.53
8.28
4.17
-0
-4.43
-9.23
-14.34
-19.56
-24.67
-29.48
-34.03
-38.5
-43.22
-48.49
-54.51
-61.3
-68.68
-76.27
-83.47
-89.47
-93.2
-93.57
-89.67
-81.07
-68.04
-51.54
-32.98
-13.9
4.31
20.62
34.39
45.28
53.23
58.31
60.79
61.07
59.64
57.03
53.77
50.3
46.98
44.04
41.64
39.8
38.39
37.18
35.83
34.04
31.58
28.44
24.78
20.83
16.81
12.77
8.64
4.31
-0.31
-5.16
-10.11
-15.04
-19.92
-24.83
-29.88
-35.14
-40.64
-46.33
-52.14
-57.91
-63.33
-67.78
-70.42
-70.29
-66.66
-59.21
-48.29
-34.68
-19.48
-3.77
11.42
25.21
36.82
45.61
51.18
53.57
53.23
50.95
47.6
43.94
40.47
37.45
34.99
33.11
31.8
30.91
30.19
29.32
28.04
26.2
23.83
21.04
17.93
14.52
10.71
6.43
1.61
-3.68
-9.28
-15.03
-20.72
-26.21
-31.39
-36.25
-40.86
-45.45
-50.39
-56.04
-62.6
-69.83
-77.02
-83.04
-86.6
-86.59
-82.35
-73.82
-61.52
-46.39
-29.61
-12.38
4.23
19.37
32.43
43.05
51.08
56.57
59.74
60.96
60.73
59.53
57.76
55.69
53.45
51.13
48.78
46.49
44.42
42.62
41.1
39.72
38.28
36.52
34.26
31.39
27.94
24.07
20
15.97
12.14
8.55
5.1
1.52
-2.45
-7.03
-12.29
-18.07
-24
-29.65
-34.71
-39.12
-43.09
-47.07
-51.52
-56.75
-62.81
-69.46
-76.19
-82.23
-86.61
-88.28
-86.29
-80.09
-69.73
-55.86
-39.64
-22.44
-5.49
10.29
24.38
36.52
46.55
54.36
59.83
62.95
63.91
63.16
61.31
58.94
56.47
54.1
51.84
49.68
47.7
46.05
44.82
44.02
43.42
42.7
41.6
40.03
38.08
35.92
33.68
31.41
29.06
26.57
23.93
21.16
18.24
15.06
11.5
7.5
3.15
-1.26
-5.41
-9.07
-12.24
-15.17
-18.16
-21.49
-25.25
-29.31
-33.49
-37.6
-41.55
-45.42
-49.34
-53.5
-58.06
-63.14
-68.75
-74.75
-80.67
-85.73
-88.92
-89.25
-86.07
-79.28
-69.32
-57.04
-43.34
-29.07
-14.84
-1.17
11.36
22.17
30.69
36.55
39.76
40.74
40.17
38.75
36.99
35.16
33.3
31.43
29.61
28
26.75
25.92
25.37
24.8
23.91
22.51
20.64
18.48
16.24
14.04
11.87
9.66
7.32
4.81
2.14
-0.65
-3.6
-6.73
-10.08
-13.63
-17.27
-20.84
-24.2
-27.37
-30.51
-33.92
-37.96
-42.79
-48.26
-53.79
-58.42
-61.05
-60.71
-56.89
-49.71
-39.86
-28.33
-16.16
-4.17
7.13
17.41
26.44
33.98
39.73
43.51
45.27
45.29
44.05
42.16
40.23
38.67
37.64
37.07
36.74
36.42
35.92
35.12
33.94
32.31
30.12
27.34
24.03
20.42
16.75
13.19
9.75
6.32
2.73
-1.01
-4.78
-8.38
-11.75
-15.02
-18.49
-22.42
-26.89
-31.7
-36.51
-40.99
-45.11
-49.13
-53.54
-58.77
-64.93
-71.67
-78.24
-83.63
-86.86
-87.12
-83.98
-77.34
-67.5
-55.02
-40.7
-25.5
-10.39
3.73
16.17
26.56
34.78
40.92
45.19
47.85
49.16
49.43
48.91
47.83
46.36
44.71
43.08
41.78
41.01
40.91
41.39
42.18
42.85
42.96
42.18
40.43
37.79
34.5
30.82
26.98
23.14
19.38
15.73
12.19
8.73
5.27
1.71
-2.04
-5.99
-10.13
-14.32
-18.5
-22.54
-26.4
-30.11
-33.73
-37.39
-41.28
-45.6
-50.53
-56.16
-62.36
-68.76
-74.64
-79.01
-80.85
-79.29
-73.93
-64.91
-52.91
-38.9
-23.95
-8.95
5.4
18.53
29.95
39.26
46.27
51.01
53.8
55.15
55.56
55.46
55.04
54.41
53.59
52.62
51.54
50.36
49.12
47.82
46.48
45.14
43.8
42.43
40.9
39.03
36.7
33.88
30.69
27.32
24
20.85
17.89
15.06
12.26
9.43
6.54
3.55
0.37
-3.1
-6.95
-11.17
-15.6
-20.01
-24.13
-27.83
-31.18
-34.43
-37.97
-42.19
-47.32
-53.3
-59.73
-65.85
-70.65
-73.09
-72.34
-67.99
-60.21
-49.63
-37.22
-24.02
-10.96
1.28
12.19
21.47
28.85
34.22
37.63
39.27
39.5
38.72
37.34
35.67
33.98
32.44
31.22
30.4
29.96
29.78
29.66
29.38
28.74
27.59
25.84
23.44
20.47
17.04
13.38
9.72
6.25
3.05
0.06
-2.84
-5.81
-8.92
-12.16
-15.4
-18.51
-21.39
-24.04
-26.59
-29.24
-32.23
-35.72
-39.75
-44.13
-48.38
-51.82
-53.65
-53.18
-50.01
-44.11
-35.88
-25.94
-15.03
-3.79
7.18
17.34
26.15
33.12
37.91
40.49
41.16
40.47
39.03
37.37
35.8
34.43
33.25
32.21
31.28
30.43
29.63
28.81
27.84
26.6
25
22.97
20.56
17.83
14.92
11.93
8.89
5.7
2.23
-1.63
-5.89
-10.38
-14.88
-19.19
-23.26
-27.14
-30.98
-34.89
-38.93
-43.17
-47.67
-52.57
-57.92
-63.49
-68.72
-72.73
-74.52
-73.31
-68.73
-60.92
-50.47
-38.22
-25.14
-12.07
0.3
11.54
21.39
29.72
36.43
41.42
44.61
46.07
46.05
44.97
43.33
41.6
40.04
38.73
37.62
36.61
35.64
34.69
33.76
32.8
31.68
30.29
28.52
26.3
23.68
20.8
17.82
14.89
12.11
9.48
6.88
4.17
1.19
-2.1
-5.65
-9.32
-12.96
-16.51
-19.99
-23.52
-27.22
-31.2
-35.53
-40.25
-45.43
-51.08
-57.09
-63.09
-68.34
-71.88
-72.72
-70.12
-63.83
-54.19
-42.03
-28.47
-14.65
-1.51
10.29
20.4
28.74
35.37
40.41
43.99
46.21
47.19
47.08
46.14
44.69
43.07
41.59
40.42
39.63
39.13
38.78
38.4
37.83
36.92
35.62
33.91
31.84
29.52
27.1
24.69
22.37
20.15
17.94
15.6
13.02
10.16
7.1
3.97
0.88
-2.14
-5.22
-8.51
-12.14
-16.04
-20.05
-23.96
-27.64
-31.19
-34.83
-38.84
-43.46
-48.79
-54.69
-60.84
-66.66
-71.39
-74.16
-74.18
-70.92
-64.28
-54.65
-42.78
-29.67
-16.28
-3.48
8.1
17.98
25.89
31.71
35.47
37.44
38
37.62
36.73
35.68
34.68
33.84
33.17
32.61
32.07
31.47
30.7
29.73
28.5
27.01
25.25
23.24
20.97
18.45
15.65
12.59
9.36
6.06
2.86
-0.11
-2.82
-5.38
-7.95
-10.72
-13.73
-16.85
-19.96
-22.93
-25.75
-28.54
-31.47
-34.64
-38.14
-42.07
-46.51
-51.55
-57.13
-62.88
-68.14
-71.99
-73.44
-71.78
-66.73
-58.44
-47.55
-34.94
-21.59
-8.39
3.88
14.67
23.57
30.31
34.85
37.34
38.21
38.03
37.38
36.73
36.28
36.06
35.94
35.86
35.79
35.77
35.8
35.79
35.62
35.11
34.21
32.91
31.21
29.12
26.62
23.67
20.29
16.54
12.52
8.33
3.99
-0.47
-5.06
-9.77
-14.58
-19.48
-24.46
-29.49
-34.5
-39.47
-44.39
-49.32
-54.41
-59.88
-65.91
-72.62
-79.9
-87.35
-94.2
-99.41
-101.78
-100.3
-94.4
-84.13
-70.16
-53.62
-35.73
-17.68
-0.39
15.44
29.29
40.81
49.84
56.41
60.78
63.31
64.46
64.62
64.11
63.22
62.15
61.1
60.24
59.66
59.38
59.32
59.29
59.04
58.34
57.01
55.02
52.43
49.41
46.09
42.51
38.62
34.34
29.61
24.51
19.24
14.01
8.96
4.09
-0.74
-5.72
-10.98
-16.48
-22.12
-27.71
-33.13
-38.36
-43.48
-48.69
-54.25
-60.43
-67.39
-75.12
-83.24
-91
-97.26
-100.73
-100.22
-94.93
-84.7
-70.03
-51.99
-31.97
-11.38
8.57
26.96
43.15
56.71
67.38
75.07
79.93
82.3
82.7
81.72
79.86
77.53
75
72.5
70.27
68.46
67.14
66.21
65.43
64.47
63.09
61.17
58.73
55.84
52.57
48.94
44.98
40.71
36.19
31.49
26.62
21.6
16.41
11.06
5.61
0.12
-5.36
-10.81
-16.25
-21.69
-27.13
-32.49
-37.68
-42.69
-47.61
-52.71
-58.36
-64.84
-72.23
-80.16
-87.77
-93.86
-97.07
-96.23
-90.65
-80.28
-65.76
-48.21
-29.01
-9.58
8.84
25.23
38.85
49.2
56.07
59.6
60.24
58.77
56.14
53.17
50.48
48.3
46.63
45.31
44.25
43.41
42.78
42.3
41.72
40.7
38.92
36.24
32.73
28.68
24.42
20.17
15.98
11.72
7.2
2.31
-2.94
-8.43
-13.95
-19.33
-24.48
-29.41
-34.25
-39.2
-44.51
-50.47
-57.26
-64.89
-73.04
-80.99
-87.65
-91.69
-91.87
-87.32
-77.83
-63.89
-46.56
-27.22
-7.31
11.86
29.3
44.28
56.38
65.4
71.33
74.42
75.06
73.83
71.42
68.46
65.46
62.74
60.39
58.36
56.53
54.76
52.95
51.05
49.04
46.89
44.52
41.81
38.56
34.66
30.11
25.09
19.89
14.82
10.02
5.42
0.78
-4.2
-9.69
-15.71
-22.11
-28.65
-35.08
-41.21
-46.94
-52.32
-57.49
-62.77
-68.54
-75.12
-82.61
-90.67
-98.49
-104.82
-108.17
-107.16
-100.94
-89.36
-73.06
-53.33
-31.8
-10.07
10.54
29.09
45.04
58.04
67.96
74.74
78.53
79.67
78.71
76.31
73.13
69.66
66.22
62.97
59.97
57.32
55.15
53.51
52.37
51.5
50.54
49.12
46.96
43.96
40.21
35.95
31.39
26.74
22.11
17.51
12.93
8.32
3.64
-1.16
-6.09
-11.16
-16.33
-21.56
-26.79
-31.92
-36.86
-41.55
-45.97
-50.25
-54.63
-59.48
-65.18
-71.92
-79.56
-87.46
-94.53
-99.41
-100.72
-97.42
-89.08
-75.95
-58.93
-39.38
-18.81
1.32
19.88
36.09
49.49
59.94
67.41
72.08
74.23
74.31
72.83
70.32
67.28
64.04
60.83
57.83
55.18
52.99
51.29
50.01
48.96
47.83
46.31
44.13
41.18
37.44
33.05
28.26
23.28
18.31
13.45
8.72
4.07
-0.55
-5.16
-9.79
-14.44
-19.12
-23.81
-28.45
-32.97
-37.27
-41.38
-45.39
-49.53
-54.08
-59.28
-65.25
-71.81
-78.45
-84.33
-88.38
-89.48
-86.76
-79.82
-68.86
-54.69
-38.45
-21.42
-4.79
10.56
23.98
35
43.29
48.64
51.08
50.97
48.95
45.86
42.52
39.52
37.19
35.56
34.52
33.9
33.53
33.22
32.77
31.92
30.44
28.21
25.25
21.76
18
14.24
10.64
7.2
3.78
0.11
-4.05
-8.8
-14.06
-19.57
-24.99
-30.02
-34.58
-38.81
-43.04
-47.75
-53.35
-59.98
-67.45
-75.05
-81.71
-86.1
-87.05
-83.77
-76.14
-64.71
-50.49
-34.69
-18.45
-2.66
12.06
25.24
36.52
45.59
52.23
56.38
58.2
58.05
56.39
53.76
50.66
47.49
44.59
42.17
40.3
38.9
37.78
36.73
35.57
34.19
32.57
30.74
28.66
26.27
23.5
20.3
16.73
12.84
8.73
4.4
-0.2
-5.12
-10.38
-15.86
-21.39
-26.83
-32.05
-37.04
-41.85
-46.54
-51.24
-56.1
-61.35
-67.15
-73.47
-79.88
-85.48
-89.02
-89.22
-85.23
-76.81
-64.49
-49.36
-32.71
-15.78
0.49
15.43
28.62
39.77
48.67
55.2
59.36
61.36
61.56
60.44
58.48
56.12
53.61
51.14
48.76
46.56
44.63
43.05
41.82
40.83
39.81
38.45
36.48
33.85
30.69
27.25
23.78
20.4
17.12
13.85
10.48
6.93
3.17
-0.83
-5.1
-9.63
-14.38
-19.23
-24.01
-28.54
-32.78
-36.82
-40.9
-45.33
-50.43
-56.41
-63.29
-70.81
-78.35
-84.96
-89.47
-90.79
-88.1
-81.14
-70.27
-56.37
-40.61
-24.16
-8.06
6.87
19.98
30.83
39.17
44.95
48.37
49.84
49.84
48.89
47.45
45.88
44.44
43.27
42.41
41.84
41.48
41.22
40.89
40.33
39.38
37.9
35.86
33.35
30.52
27.57
24.59
21.56
18.32
14.74
10.7
6.22
1.41
-3.6
-8.67
-13.73
-18.76
-23.76
-28.78
-33.85
-39.1
-44.69
-50.79
-57.41
-64.25
-70.67
-75.66
-78.18
-77.31
-72.59
-64.11
-52.48
-38.74
-24.08
-9.63
3.7
15.29
24.79
32.04
37.02
39.86
40.8
40.27
38.81
36.97
35.2
33.74
32.64
31.85
31.32
31.02
30.95
30.97
30.81
30.15
28.69
26.33
23.2
19.55
15.68
11.75
7.76
3.62
-0.76
-5.38
-10.12
-14.86
-19.53
-24.12
-28.75
-33.51
-38.54
-43.94
-49.84
-56.36
-63.47
-70.83
-77.7
-82.97
-85.42
-84.06
-78.44
-68.78
-55.88
-40.89
-25.01
-9.3
5.42
18.56
29.7
38.61
45.17
49.43
51.63
52.15
51.48
50.11
48.45
46.76
45.12
43.56
42.05
40.63
39.28
38.02
36.76
35.34
33.57
31.27
28.37
24.92
21.11
17.16
13.25
9.42
5.57
1.49
-3
-7.97
-13.32
-18.81
-24.16
-29.18
-33.86
-38.4
-43.12
-48.4
-54.5
-61.33
-68.42
-74.9
-79.66
-81.58
-79.87
-74.21
-64.84
-52.46
-38.03
-22.61
-7.16
7.51
20.76
32.09
41.16
47.79
52.02
54.04
54.23
53.04
50.97
48.47
45.9
43.53
41.51
39.91
38.77
38.03
37.59
37.25
36.74
35.77
34.1
31.62
28.4
24.62
20.54
16.33
12.04
7.6
2.89
-2.08
-7.21
-12.31
-17.19
-21.8
-26.23
-30.67
-35.33
-40.39
-45.94
-51.99
-58.4
-64.8
-70.53
-74.67
-76.23
-74.41
-68.82
-59.64
-47.52
-33.41
-18.35
-3.27
11.07
24.05
35.2
44.17
50.76
54.96
56.98
57.26
56.34
54.73
52.82
50.8
48.69
46.48
44.2
42.01
40.11
38.6
37.4
36.27
34.86
32.89
30.3
27.22
23.85
20.38
16.83
13.08
8.98
4.45
-0.41
-5.35
-10.14
-14.61
-18.77
-22.71
-26.66
-30.81
-35.43
-40.73
-46.86
-53.7
-60.82
-67.42
-72.43
-74.85
-73.92
-69.34
-61.28
-50.29
-37.16
-22.83
-8.28
5.58
17.99
28.41
36.55
42.33
45.83
47.26
46.97
45.38
43.05
40.52
38.26
36.49
35.24
34.32
33.47
32.46
31.11
29.41
27.38
25.12
22.7
20.14
17.41
14.42
11.05
7.23
2.98
-1.63
-6.46
-11.4
-16.38
-21.48
-26.76
-32.39
-38.43
-44.84
-51.35
-57.42
-62.27
-65
-64.78
-61.08
-53.84
-43.53
-30.99
-17.24
-3.28
10.02
21.94
31.88
39.34
44.09
46.15
45.93
44.12
41.49
38.68
36.1
33.89
31.97
30.22
28.48
26.64
24.62
22.37
19.91
17.3
14.58
11.71
8.56
4.96
0.77
-3.99
-9.16
-14.49
-19.75
-24.82
-29.75
-34.68
-39.81
-45.36
-51.43
-58
-64.7
-70.9
-75.61
-77.79
-76.52
-71.31
-62.25
-49.98
-35.49
-19.93
-4.33
10.43
23.7
34.99
43.94
50.33
54.17
55.7
55.34
53.68
51.3
48.64
46.01
43.61
41.53
39.84
38.53
37.53
36.69
35.79
34.61
32.95
30.73
27.91
24.57
20.84
16.87
12.79
8.68
4.47
0.03
-4.82
-10.15
-15.93
-21.97
-28.06
-34.05
-39.95
-45.91
-52.23
-59.14
-66.63
-74.34
-81.47
-86.9
-89.4
-88.02
-82.32
-72.51
-59.37
-44.02
-27.62
-11.17
4.58
19.1
31.97
42.83
51.37
57.39
60.9
62.22
61.84
60.45
58.64
56.87
55.33
54.05
52.98
52.11
51.46
51.05
50.83
50.6
50.09
49.03
47.26
44.79
41.81
38.6
35.41
32.4
29.57
26.79
23.92
20.82
17.48
13.95
10.35
6.69
2.99
-0.86
-4.94
-9.29
-13.89
-18.65
-23.52
-28.47
-33.53
-38.7
-43.91
-49
-53.83
-58.35
-62.71
-67.24
-72.41
-78.47
-85.36
-92.49
-98.81
-103
-103.81
-100.39
-92.51
-80.59
-65.56
-48.6
-30.8
-13.06
3.95
19.69
33.65
45.32
54.36
60.66
64.45
66.26
66.67
66.22
65.23
63.84
62.13
60.19
58.18
56.3
54.65
53.24
51.96
50.6
48.98
46.91
44.28
41.07
37.36
33.33
29.19
25.11
21.09
17.06
12.91
8.54
3.99
-0.61
-5.13
-9.57
-13.99
-18.52
-23.24
-28.12
-33.04
-37.92
-42.83
-47.98
-53.66
-59.96
-66.63
-72.93
-77.77
-79.94
-78.47
-72.92
-63.46
-50.81
-36.03
-20.3
-4.72
9.77
22.41
32.67
40.27
45.2
47.75
48.34
47.5
45.71
43.42
40.99
38.75
36.93
35.65
34.85
34.34
33.83
33.05
31.79
29.96
27.56
24.69
21.44
17.93
14.22
10.34
6.21
1.8
-2.93
-7.96
-13.16
-18.38
-23.46
-28.34
-33.04
-37.73
-42.6
-47.89
-53.74
-60.18
-66.97
-73.56
-79.06
-82.39
-82.49
-78.61
-70.56
-58.8
-44.29
-28.21
-11.74
4.17
18.79
31.55
42.04
49.94
55.16
57.84
58.37
57.3
55.24
52.72
50.1
47.57
45.2
43.01
41.07
39.44
38.13
37.04
35.93
34.43
32.24
29.25
25.54
21.38
17.05
12.7
8.33
3.81
-1.02
-6.26
-11.93
-17.92
-24.05
-30.12
-35.95
-41.47
-46.72
-51.89
-57.22
-62.98
-69.27
-75.96
-82.53
-88.09
-91.5
-91.6
-87.55
-79.15
-66.86
-51.7
-34.86
-17.48
-0.47
15.44
29.63
41.54
50.68
56.87
60.25
61.35
60.84
59.35
57.32
54.95
52.35
49.58
46.81
44.22
41.98
40.17
38.72
37.44
36.05
34.29
31.96
28.99
25.39
21.32
16.9
12.26
7.42
2.32
-3.08
-8.75
-14.49
-20.09
-25.33
-30.16
-34.73
-39.34
-44.41
-50.27
-57.03
-64.48
-72.04
-78.77
-83.5
-85.01
-82.37
-75.11
-63.38
-48.02
-30.32
-11.79
6.17
22.48
36.52
48.01
56.95
63.41
67.49
69.27
68.98
67.01
63.89
60.2
56.41
52.84
49.65
46.91
44.62
42.75
41.13
39.49
37.52
34.93
31.59
27.57
23.06
18.27
13.36
8.34
3.2
-2.08
-7.45
-12.81
-18.05
-23.14
-28.12
-33.15
-38.45
-44.23
-50.7
-57.9
-65.66
-73.45
-80.33
-85.1
-86.52
-83.67
-76.23
-64.49
-49.38
-32.12
-14.02
3.76
20.23
34.62
46.31
54.89
60.25
62.53
62.19
59.92
56.44
52.49
48.68
45.42
42.87
41
39.58
38.29
36.86
35.15
33.09
30.69
27.93
24.7
20.87
16.36
11.29
5.93
0.6
-4.49
-9.29
-13.96
-18.77
-23.94
-29.65
-35.93
-42.76
-49.97
-57.13
-63.48
-67.99
-69.51
-67.16
-60.61
-50.13
-36.6
-21.21
-5.29
9.94
23.37
34.12
41.59
45.54
46.13
43.94
39.86
34.83
29.71
25.09
21.26
18.21
15.8
13.78
11.94
10.09
8.08
5.75
2.95
-0.47
-4.58
-9.34
-14.61
-20.15
-25.68
-31.06
-36.26
-41.4
-46.72
-52.49
-58.89
-65.89
-73.07
-79.65
-84.45
-86.19
-83.78
-76.67
-65.03
-49.72
-32.13
-13.79
3.84
19.58
32.61
42.45
48.97
52.32
52.9
51.26
48.03
43.77
38.99
34.16
29.64
25.72
22.54
20.02
17.95
15.94
13.64
10.73
7.03
2.52
-2.73
-8.52
-14.64
-20.84
-26.98
-33.12
-39.54
-46.68
-54.91
-64.24
-74.06
-83.11
-89.67
-92.07
-89.1
-80.48
-66.83
-49.53
-30.24
-10.51
8.42
25.78
41.09
54.04
64.48
72.24
77.29
79.74
79.82
77.9
74.45
69.96
64.9
59.68
54.61
49.87
45.52
41.54
37.84
34.24
30.5
26.31
21.36
15.46
8.6
0.98
-7.03
-15.03
-22.73
-30.05
-37.17
-44.48
-52.44
-61.45
-71.6
-82.47
-93.01
-101.68
-106.71
-106.53
-100.24
-87.78
-69.97
-48.21
-24.22
0.34
24
45.6
64.24
79.32
90.48
97.64
101.05
101.25
98.97
95.01
90.1
84.79
79.48
74.42
69.82
65.82
62.48
59.72
57.27
54.74
51.71
47.87
43.12
37.53
31.34
24.84
18.25
11.66
5.03
-1.78
-8.95
-16.55
-24.52
-32.64
-40.62
-48.19
-55.26
-62.02
-68.85
-76.3
-84.79
-94.42
-104.69
-114.47
-122.08
-125.65
-123.56
-114.89
-99.66
-78.84
-54.1
-27.39
-0.62
24.72
47.54
67.1
82.94
94.78
102.58
106.59
107.32
105.53
102.03
97.5
92.42
87.13
81.86
76.84
72.31
68.41
65.11
62.21
59.43
56.49
53.17
49.39
45.13
40.4
35.19
29.54
23.51
17.25
10.92
4.72
-1.26
-7.04
-12.75
-18.55
-24.57
-30.84
-37.27
-43.69
-49.92
-55.92
-61.82
-67.92
-74.61
-82.24
-90.94
-100.48
-110.11
-118.58
-124.27
-125.5
-120.98
-110.08
-93.13
-71.33
-46.42
-20.33
5.18
28.69
49.22
66.05
78.76
87.19
91.44
91.99
89.61
85.25
79.89
74.35
69.21
64.81
61.23
58.41
56.13
54.11
52.06
49.74
47
43.79
40.11
35.96
31.39
26.41
21.06
15.41
9.52
3.45
-2.76
-9.04
-15.38
-21.76
-28.22
-34.85
-41.79
-49.19
-57.11
-65.48
-73.97
-81.87
-88.17
-91.59
-90.84
-85
-73.81
-57.87
-38.5
-17.49
3.31
22.34
38.44
50.96
59.59
64.34
65.51
63.65
59.51
54.01
47.98
42.09
36.76
32.18
28.33
25.15
22.53
20.35
18.5
16.77
14.91
12.6
9.57
5.67
0.9
-4.58
-10.52
-16.68
-22.92
-29.19
-35.52
-42.02
-48.87
-56.31
-64.57
-73.66
-83.17
-92.12
-99.05
-102.28
-100.41
-92.7
-79.26
-61.06
-39.63
-16.71
6.01
27.11
45.5
60.41
71.38
78.27
81.27
80.89
77.94
73.33
67.92
62.37
57.07
52.21
47.81
43.88
40.37
37.19
34.16
31.05
27.71
24.07
20.17
16.05
11.69
6.97
1.69
-4.27
-10.91
-18.05
-25.39
-32.63
-39.56
-46.1
-52.32
-58.47
-64.9
-72.06
-80.25
-89.45
-99.06
-107.84
-114.01
-115.72
-111.55
-100.9
-84.22
-62.83
-38.55
-13.31
11.14
33.47
52.7
68.26
79.86
87.53
91.55
92.43
90.8
87.41
82.97
78.09
73.22
68.59
64.26
60.21
56.44
52.98
49.86
47.06
44.37
41.46
37.97
33.67
28.57
22.87
16.88
10.81
4.74
-1.47
-7.97
-14.86
-22.05
-29.34
-36.45
-43.21
-49.54
-55.51
-61.33
-67.27
-73.69
-80.89
-88.98
-97.64
-105.99
-112.58
-115.71
-113.82
-105.99
-92.21
-73.37
-50.97
-26.76
-2.37
20.83
41.81
59.77
74.12
84.55
91.05
93.95
93.87
91.61
87.94
83.5
78.78
74.1
69.71
65.77
62.43
59.74
57.66
56.03
54.61
53.16
51.4
49.15
46.28
42.8
38.8
34.49
30.11
25.84
21.72
17.64
13.34
8.57
3.2
-2.66
-8.71
-14.56
-19.93
-24.77
-29.32
-33.93
-38.91
-44.36
-50.14
-55.92
-61.39
-66.39
-71.02
-75.56
-80.41
-85.94
-92.39
-99.75
-107.63
-115.23
-121.29
-124.25
-122.65
-115.43
-102.35
-84.02
-61.8
-37.46
-12.77
10.73
31.82
49.58
63.39
72.94
78.36
80.17
79.24
76.53
72.93
69.06
65.22
61.51
57.97
54.69
51.85
49.61
48.01
46.84
45.71
44.13
41.76
38.47
34.37
29.75
24.89
20.01
15.15
10.21
5.07
-0.42
-6.28
-12.47
-18.85
-25.22
-31.34
-37.07
-42.35
-47.3
-52.16
-57.29
-62.92
-69.07
-75.35
-80.89
-84.52
-84.96
-81.24
-72.96
-60.45
-44.7
-27.08
-9
8.26
23.62
36.25
45.47
50.93
52.65
51.11
47.21
42.09
36.83
32.27
28.87
26.66
25.4
24.68
24
22.97
21.33
19.03
16.15
12.89
9.36
5.59
1.45
-3.22
-8.54
-14.44
-20.71
-27.04
-33.19
-39.07
-44.77
-50.5
-56.55
-63.16
-70.51
-78.54
-86.87
-94.62
-100.51
-103.08
-100.97
-93.43
-80.48
-62.95
-42.27
-20.15
1.77
22.12
39.83
54.18
64.75
71.45
74.49
74.41
71.95
67.97
63.28
58.52
54.07
50.04
46.35
42.89
39.58
36.39
33.39
30.59
27.92
25.23
22.21
18.52
13.92
8.35
1.97
-4.9
-11.9
-18.72
-25.26
-31.59
-37.9
-44.45
-51.52
-59.29
-67.84
-77.04
-86.39
-94.94
-101.38
-104.21
-102.11
-94.36
-81
-62.92
-41.58
-18.71
4.03
25.26
43.93
59.32
70.96
78.67
82.52
82.92
80.55
76.3
71.07
65.62
60.4
55.63
51.31
47.32
43.55
39.94
36.53
33.35
30.38
27.49
24.39
20.65
15.93
10.04
3.12
-4.39
-11.91
-18.99
-25.47
-31.61
-37.92
-44.98
-53.2
-62.64
-72.91
-83.17
-92.14
-98.28
-100.04
-96.21
-86.29
-70.68
-50.6
-27.85
-4.38
18.09
38.29
55.38
68.86
78.46
84.11
85.98
84.58
80.7
75.34
69.47
63.8
58.7
54.24
50.25
46.58
43.09
39.72
36.46
33.2
29.74
25.82
21.15
15.54
8.96
1.63
-6.11
-13.83
-21.2
-28.13
-34.74
-41.36
-48.38
-56.13
-64.81
-74.36
-84.44
-94.25
-102.6
-107.96
-108.81
-104.12
-93.64
-78.04
-58.7
-37.32
-15.52
5.32
24.17
40.19
52.72
61.33
65.94
66.92
65.02
61.26
56.67
52.15
48.29
45.42
43.62
42.7
42.37
42.2
41.75
40.66
38.72
35.89
32.25
28.04
23.52
18.92
14.46
10.19
6.07
1.93
-2.51
-7.54
-13.45
-20.52
-28.79
-38.01
-47.45
-55.93
-61.93
-64
-61.11
-52.97
-40.14
-23.87
-5.73
12.62
29.67
44.13
54.98
61.5
63.36
60.75
54.39
45.43
35.17
24.82
15.21
6.72
-0.65
-7.14
-12.96
-18.21
-22.84
-26.78
-30.09
-33
-35.94
-39.36
-43.57
-48.57
-54.06
-59.53
-64.42
-68.24
-70.76
-72.01
-72.32
-72.25
-72.49
-73.6
-75.77
-78.58
-80.92
-81.18
-77.75
-69.45
-55.95
-37.87
-16.55
6.26
28.95
50.19
69.08
85.02
97.58
106.43
111.45
112.84
111.28
107.8
103.61
99.74
96.84
95.06
94.23
94.03
94.21
94.69
95.47
96.59
97.93
99.27
100.25
100.48
99.62
97.43
93.84
88.97
83.04
76.4
69.33
62.03
54.59
46.98
39.13
30.99
22.5
13.65
4.54
-4.48
-12.79
-19.44
-23.27
-23.27
-18.76
-9.77
3.04
18.44
34.95
51.17
65.91
78.23
87.42
92.9
94.29
91.52
84.9
75.15
63.22
50.12
36.63
23.27
10.34
-1.95
-13.33
-23.45
-31.98
-38.75
-43.86
-47.71
-50.84
-53.8
-56.93
-60.29
-63.7
-66.88
-69.69
-72.15
-74.46
-76.86
-79.48
-82.23
-84.87
-87.14
-88.87
-90.1
-91.05
-92.07
-93.45
-95.44
-98.12
-101.42
-105.08
-108.49
-110.81
-110.9
-107.63
-100.17
-88.28
-72.44
-53.79
-33.8
-13.93
4.7
21.32
35.48
46.86
55.25
60.48
62.61
61.98
59.19
55.03
50.23
45.4
40.94
36.98
33.58
30.66
28.11
25.8
23.55
21.21
18.61
15.63
12.26
8.6
4.86
1.41
-1.36
-3.16
-3.88
-3.75
-3.21
-2.88
-3.29
-4.8
-7.52
-11.39
-16.33
-22.28
-29.16
-36.74
-44.52
-51.66
-57.2
-60.25
-60.29
-57.26
-51.54
-43.81
-34.83
-25.33
-15.93
-7.13
0.65
7.07
11.94
15.22
17.09
18
18.55
19.45
21.3
24.48
28.98
34.52
40.56
46.53
51.91
56.31
59.46
61.23
61.52
60.31
57.59
53.38
47.67
40.43
31.58
21.11
9.14
-3.95
-17.58
-31.05
-43.71
-55.1
-65.07
-73.77
-81.51
-88.58
-95.09
-100.83
-105.21
-107.41
-106.5
-101.73
-92.67
-79.36
-62.29
-42.31
-20.48
2
23.89
43.97
61.14
74.59
83.93
89.23
91.02
90.02
87.08
82.88
77.94
72.61
67.09
61.56
56.19
51.16
46.58
42.44
38.67
35.12
31.66
28.17
24.57
20.81
16.82
12.54
7.97
3.17
-1.78
-6.85
-12.09
-17.58
-23.4
-29.48
-35.61
-41.44
-46.71
-51.3
-55.33
-59.13
-63.1
-67.57
-72.68
-78.22
-83.65
-88.14
-90.74
-90.6
-87.11
-80.11
-69.83
-56.89
-42.12
-26.46
-10.84
3.91
17.11
28.22
36.87
42.87
46.2
47.08
45.96
43.45
40.26
37.02
34.19
32
30.41
29.25
28.2
26.86
24.78
21.54
16.83
10.53
2.81
-5.96
-15.27
-24.57
-33.43
-41.55
-48.75
-54.94
-60.05
-64.05
-66.99
-68.97
-70.22
-70.98
-71.45
-71.75
-71.86
-71.7
-71.27
-70.69
-70.3
-70.52
-71.68
-73.8
-76.44
-78.71
-79.44
-77.46
-71.87
-62.31
-49.03
-32.85
-14.93
3.49
21.36
37.94
52.76
65.56
76.15
84.39
90.28
93.99
95.92
96.61
96.53
96.03
95.21
93.97
92.14
89.6
86.32
82.41
78.04
73.33
68.26
62.68
56.34
49.12
41.01
32.26
23.22
14.22
5.46
-3.06
-11.42
-19.71
-27.9
-35.83
-43.36
-50.42
-57.14
-63.83
-70.72
-77.73
-84.31
-89.39
-91.71
-90.18
-84.26
-74.09
-60.44
-44.44
-27.3
-10.11
6.15
20.66
32.75
41.96
48.18
51.65
52.93
52.79
51.94
50.97
50.27
49.96
50.02
50.29
50.5
50.38
49.67
48.18
45.76
42.37
38.08
32.98
27.23
20.97
14.29
7.24
-0.16
-7.88
-15.88
-24.01
-32.15
-40.12
-47.86
-55.33
-62.58
-69.8
-77.14
-84.69
-92.29
-99.39
-105.05
-108.11
-107.48
-102.45
-92.84
-79.08
-62.03
-42.79
-22.45
-2.06
17.39
35.01
49.99
61.77
70.1
75.17
77.51
77.82
76.8
74.99
72.71
70.17
67.52
65.02
62.91
61.38
60.39
59.66
58.72
57.13
54.6
51.1
46.74
41.76
36.39
30.76
24.97
19.09
13.11
7.06
0.86
-5.54
-12.16
-18.92
-25.66
-32.17
-38.37
-44.36
-50.38
-56.74
-63.57
-70.57
-77.01
-81.76
-83.57
-81.41
-74.76
-63.72
-49.05
-31.88
-13.53
4.71
21.78
36.87
49.4
59.05
65.72
69.48
70.61
69.55
66.87
63.18
59.1
55.17
51.8
49.2
47.44
46.43
45.96
45.73
45.46
44.89
43.86
42.29
40.2
37.64
34.69
31.46
28.05
24.54
20.98
17.36
13.65
9.83
5.87
1.8
-2.34
-6.58
-11.06
-15.98
-21.5
-27.54
-33.6
-38.76
-41.92
-42.07
-38.69
-31.88
-22.28
-10.94
1.02
12.56
22.78
30.92
36.38
38.79
38.09
34.63
29.09
22.38
15.39
8.82
3.04
-1.86
-5.95
-9.39
-12.28
-14.64
-16.51
-17.97
-19.17
-20.32
-21.65
-23.27
-25.26
-27.56
-30.11
-32.86
-35.79
-38.9
-42.21
-45.8
-49.74
-54.11
-58.97
-64.27
-69.76
-74.88
-78.82
-80.56
-79.1
-73.71
-64.2
-50.96
-34.92
-17.32
0.58
17.67
33.07
46.09
56.17
62.97
66.39
66.72
64.63
61.02
56.79
52.62
48.84
45.5
42.47
39.66
36.98
34.4
31.84
29.14
26.13
22.67
18.7
14.25
9.36
4.06
-1.58
-7.42
-13.29
-18.95
-24.3
-29.36
-34.36
-39.69
-45.73
-52.71
-60.61
-69.08
-77.33
-84.27
-88.6
-89.1
-84.93
-75.88
-62.47
-45.82
-27.37
-8.51
9.57
26.01
40.21
51.76
60.4
66.01
68.68
68.74
66.72
63.32
59.23
55.04
51.16
47.74
44.75
42.04
39.47
36.99
34.6
32.27
29.9
27.25
24.07
20.16
15.54
10.38
4.9
-0.71
-6.36
-12.07
-17.89
-23.84
-29.91
-36.12
-42.52
-49.25
-56.41
-63.94
-71.42
-78.06
-82.7
-84.16
-81.48
-74.27
-62.81
-47.94
-30.87
-12.83
5.07
21.91
36.92
49.4
58.81
64.84
67.57
67.42
65.17
61.67
57.73
53.95
50.67
47.95
45.62
43.42
41.11
38.56
35.74
32.71
29.54
26.21
22.59
18.49
13.73
8.24
2.06
-4.6
-11.49
-18.33
-24.93
-31.17
-37.09
-42.8
-48.53
-54.51
-60.89
-67.57
-74.2
-80.07
-84.22
-85.65
-83.55
-77.47
-67.47
-54.16
-38.51
-21.69
-4.86
10.92
24.74
35.89
43.86
48.45
49.83
48.51
45.33
41.22
36.97
33.07
29.66
26.65
23.87
21.25
18.81
16.57
14.51
12.48
10.24
7.55
4.27
0.44
-3.78
-8.17
-12.58
-16.93
-21.27
-25.74
-30.51
-35.77
-41.65
-48.23
-55.34
-62.45
-68.64
-72.67
-73.24
-69.39
-60.76
-47.77
-31.46
-13.22
5.57
23.67
40.16
54.33
65.6
73.61
78.23
79.68
78.45
75.24
70.78
65.72
60.51
55.44
50.63
46.11
41.88
37.91
34.13
30.44
26.73
22.87
18.73
14.25
9.36
4.01
-1.77
-7.97
-14.45
-21.03
-27.45
-33.46
-38.96
-44.04
-49.07
-54.55
-60.95
-68.47
-76.81
-85.12
-92.1
-96.23
-96.14
-90.92
-80.35
-64.93
-45.79
-24.38
-2.22
19.32
39.12
56.39
70.6
81.48
88.99
93.28
94.7
93.78
91.1
87.3
82.97
78.56
74.39
70.61
67.23
64.26
61.63
59.3
57.19
55.16
52.97
50.38
47.22
43.48
39.29
34.89
30.48
26.16
21.93
17.7
13.38
8.9
4.24
-0.56
-5.42
-10.22
-14.85
-19.26
-23.54
-27.89
-32.5
-37.5
-42.77
-48.04
-52.98
-57.43
-61.52
-65.64
-70.36
-76.19
-83.36
-91.63
-100.23
-107.94
-113.24
-114.62
-110.95
-101.69
-87.05
-67.99
-45.95
-22.57
0.63
22.41
41.95
58.75
72.48
82.99
90.25
94.45
96.02
95.69
94.23
92.37
90.53
88.86
87.26
85.63
83.84
81.83
79.49
76.63
73.04
68.5
62.92
56.32
48.82
40.57
31.73
22.47
12.99
3.54
-5.7
-14.53
-22.9
-30.77
-38.14
-44.99
-51.31
-57.09
-62.34
-67.09
-71.41
-75.32
-78.86
-82.07
-85.05
-87.98
-91.09
-94.55
-98.33
-102.03
-104.86
-105.77
-103.67
-97.76
-87.77
-74.01
-57.34
-38.92
-20.01
-1.79
14.76
28.86
39.99
47.91
52.7
54.77
54.76
53.37
51.28
49
46.82
44.87
43.2
41.83
40.78
40.01
39.45
38.92
38.17
36.94
35.08
32.52
29.38
25.83
22.07
18.19
14.2
10.01
5.54
0.75
-4.3
-9.46
-14.57
-19.5
-24.16
-28.57
-32.82
-37.13
-41.76
-46.94
-52.78
-59.14
-65.54
-71.17
-74.98
-75.89
-73.1
-66.26
-55.65
-42.11
-26.79
-10.88
4.58
18.81
31.23
41.39
49.01
53.95
56.31
56.47
55
52.52
49.58
46.57
43.71
41.11
38.84
36.94
35.41
34.19
33.14
32.08
30.79
29.1
26.92
24.25
21.14
17.7
14.03
10.23
6.34
2.38
-1.66
-5.8
-10.05
-14.41
-18.84
-23.27
-27.6
-31.72
-35.61
-39.27
-42.82
-46.48
-50.53
-55.27
-60.89
-67.28
-73.9
-79.78
-83.66
-84.33
-80.95
-73.29
-61.77
-47.33
-31.16
-14.46
1.73
16.51
29.23
39.42
46.88
51.67
54.08
54.6
53.77
52.11
50.07
47.98
46.03
44.29
42.75
41.37
40.16
39.13
38.3
37.6
36.9
35.96
34.52
32.44
29.68
26.34
22.63
18.77
14.9
11.12
7.4
3.66
-0.2
-4.29
-8.64
-13.19
-17.77
-22.18
-26.24
-29.88
-33.14
-36.19
-39.3
-42.79
-46.97
-52.02
-57.86
-64.02
-69.62
-73.52
-74.56
-71.93
-65.39
-55.31
-42.53
-28.11
-13.1
1.58
15.17
27.05
36.73
43.89
48.42
50.54
50.67
49.41
47.35
44.98
42.58
40.27
38.07
35.95
34
32.34
31.11
30.36
30
29.79
29.38
28.47
26.88
24.63
21.84
18.7
15.39
12
8.57
5.14
1.7
-1.76
-5.31
-9.03
-13
-17.25
-21.7
-26.21
-30.65
-34.91
-39.05
-43.21
-47.65
-52.56
-57.98
-63.61
-68.77
-72.49
-73.74
-71.71
-66.04
-56.97
-45.2
-31.72
-17.58
-3.77
8.92
19.77
28.31
34.23
37.5
38.41
37.49
35.43
32.86
30.28
28.01
26.2
24.91
24.13
23.75
23.69
23.78
23.87
23.86
23.7
23.32
22.67
21.64
20.12
18.09
15.59
12.77
9.82
6.87
4.01
1.24
-1.41
-4
-6.58
-9.36
-12.56
-16.45
-21.12
-26.39
-31.67
-36.08
-38.77
-39.31
-37.93
-35.58
-33.61
-33.23
-35.14
-39.31
-45.1
-51.62
-57.93
-63.17
-66.53
-67.17
-64.38
-57.74
-47.44
-34.28
-19.51
-4.47
9.7
22.23
32.71
40.91
46.76
50.25
51.55
50.97
49.02
46.3
43.33
40.5
38
35.84
34.01
32.48
31.22
30.2
29.32
28.39
27.14
25.35
22.91
19.87
16.43
12.84
9.28
5.8
2.26
-1.56
-5.84
-10.64
-15.85
-21.25
-26.59
-31.67
-36.46
-41.09
-45.88
-51.16
-57.17
-63.85
-70.73
-76.88
-81.1
-82.19
-79.21
-71.86
-60.48
-46.01
-29.75
-12.99
3.15
17.88
30.71
41.28
49.38
54.87
57.79
58.46
57.45
55.44
53.1
50.86
48.88
47.12
45.46
43.81
42.23
40.78
39.55
38.47
37.36
35.96
33.97
31.26
27.82
23.81
19.53
15.28
11.27
7.56
3.99
0.29
-3.82
-8.48
-13.6
-18.93
-24.12
-28.92
-33.27
-37.34
-41.46
-45.99
-51.25
-57.32
-64.06
-70.94
-77.03
-81.14
-81.96
-78.5
-70.34
-57.83
-42.04
-24.43
-6.53
10.41
25.54
38.36
48.64
56.29
61.35
63.99
64.59
63.61
61.59
59.02
56.28
53.69
51.45
49.74
48.6
47.97
47.66
47.37
46.83
45.85
44.39
42.49
40.25
37.76
35.06
32.13
28.98
25.64
22.16
18.55
14.79
10.81
6.52
1.9
-3
-8.09
-13.21
-18.27
-23.18
-27.89
-32.38
-36.71
-41
-45.5
-50.58
-56.51
-63.39
-70.9
-78.24
-84.25
-87.65
-87.31
-82.59
-73.48
-60.63
-45.14
-28.35
-11.53
4.26
18.31
30.15
39.53
46.26
50.32
51.87
51.32
49.3
46.58
43.83
41.51
39.76
38.47
37.45
36.52
35.67
34.98
34.51
34.22
33.87
33.19
31.9
29.85
27.11
23.83
20.23
16.42
12.47
8.38
4.14
-0.22
-4.65
-9.12
-13.58
-17.98
-22.23
-26.22
-29.95
-33.53
-37.27
-41.52
-46.57
-52.42
-58.67
-64.55
-69.02
-71.02
-69.69
-64.58
-55.78
-43.88
-29.8
-14.65
0.51
14.75
27.32
37.59
45.15
49.77
51.59
51.11
49.1
46.47
43.98
42.11
40.99
40.43
40.11
39.71
39.04
38.07
36.82
35.34
33.59
31.43
28.75
25.44
21.61
17.45
13.24
9.2
5.38
1.69
-2.14
-6.36
-11.11
-16.34
-21.82
-27.27
-32.41
-37.15
-41.58
-45.96
-50.65
-55.98
-62.15
-69.09
-76.37
-83.19
-88.45
-90.96
-89.68
-84.09
-74.25
-60.83
-44.94
-27.78
-10.52
5.92
20.81
33.61
43.94
51.56
56.42
58.71
58.85
57.45
55.23
52.83
50.68
48.98
47.64
46.49
45.34
44.1
42.81
41.55
40.32
39.01
37.35
35.05
31.95
28.07
23.71
19.27
15.13
11.43
8.02
4.6
0.77
-3.71
-8.82
-14.28
-19.69
-24.71
-29.16
-33.1
-36.76
-40.52
-44.77
-49.84
-55.89
-62.8
-70.05
-76.67
-81.39
-82.93
-80.36
-73.35
-62.35
-48.31
-32.48
-16.05
0.01
14.94
28.22
39.39
48.12
54.24
57.79
59.05
58.54
56.86
54.6
52.24
50.11
48.35
47.03
46.13
45.55
45.16
44.8
44.26
43.38
42.02
40.1
37.62
34.58
31.05
27.18
23.11
19.05
15.14
11.43
7.85
4.26
0.51
-3.49
-7.75
-12.19
-16.65
-20.98
-25.1
-28.97
-32.63
-36.24
-40.02
-44.24
-49.16
-54.86
-61.19
-67.6
-73.21
-76.86
-77.43
-74.09
-66.58
-55.32
-41.31
-25.85
-10.26
4.39
17.38
28.25
36.69
42.55
45.78
46.58
45.49
43.21
40.49
37.86
35.59
33.66
31.94
30.41
29.14
28.25
27.8
27.62
27.39
26.68
25.19
22.79
19.64
16.02
12.29
8.72
5.43
2.36
-0.68
-3.89
-7.43
-11.28
-15.3
-19.29
-23.08
-26.59
-29.96
-33.42
-37.28
-41.79
-47.04
-52.87
-58.78
-63.97
-67.39
-68
-64.96
-58.01
-47.52
-34.43
-20
-5.49
8.08
20.05
29.97
37.67
43.03
46.16
47.29
46.82
45.24
43.02
40.56
38.16
36.03
34.31
33.02
32.13
31.51
30.98
30.33
29.3
27.68
25.28
22.08
18.19
13.91
9.61
5.58
1.91
-1.57
-5.2
-9.35
-14.19
-19.63
-25.38
-31.06
-36.39
-41.29
-45.93
-50.58
-55.58
-61.13
-67.29
-73.82
-80.18
-85.5
-88.74
-88.85
-84.99
-76.91
-64.92
-49.92
-33.16
-16
0.41
15.19
27.86
38.18
46.12
51.71
55.06
56.35
55.89
54.09
51.45
48.42
45.42
42.68
40.36
38.52
37.18
36.33
35.85
35.6
35.34
34.77
33.62
31.69
28.92
25.34
21.19
16.72
12.19
7.75
3.41
-1
-5.65
-10.67
-16.07
-21.71
-27.34
-32.77
-37.91
-42.84
-47.84
-53.27
-59.45
-66.51
-74.23
-82.02
-88.86
-93.52
-94.79
-91.75
-84.04
-71.87
-56.07
-37.83
-18.5
0.69
18.7
34.81
48.52
59.59
68.04
74.09
78.18
80.84
82.62
83.9
84.89
85.55
85.73
85.26
84.1
82.36
80.25
78
75.72
73.3
70.5
67
62.6
57.3
51.29
44.91
38.46
32.13
25.99
20.03
14.23
8.57
3.03
-2.46
-8.05
-13.93
-20.21
-26.84
-33.61
-40.23
-46.39
-51.94
-56.89
-61.45
-66
-70.91
-76.51
-82.86
-89.62
-95.98
-100.7
-102.44
-100.05
-92.93
-81.2
-65.69
-47.74
-28.85
-10.43
6.41
20.93
32.72
41.61
47.63
50.96
51.93
51
48.76
45.84
42.82
40.14
38.04
36.57
35.64
35.14
34.94
34.96
35.13
35.3
35.21
34.52
32.96
30.42
26.99
22.95
18.63
14.21
9.71
5.01
-0
-5.35
-10.91
-16.46
-21.74
-26.57
-30.89
-34.81
-38.49
-42.25
-46.4
-51.17
-56.6
-62.34
-67.68
-71.55
-72.78
-70.4
-63.9
-53.44
-39.8
-24.18
-7.91
7.84
22.14
34.36
44.09
51.08
55.3
56.92
56.35
54.13
50.92
47.3
43.74
40.58
38.04
36.25
35.24
34.88
34.95
35.17
35.24
34.96
34.2
32.88
30.93
28.3
24.99
21.11
16.88
12.57
8.34
4.17
-0.18
-5.03
-10.59
-16.85
-23.53
-30.23
-36.58
-42.38
-47.66
-52.6
-57.5
-62.67
-68.38
-74.78
-81.75
-88.74
-94.73
-98.39
-98.39
-93.78
-84.31
-70.47
-53.41
-34.56
-15.37
2.94
19.54
33.88
45.72
54.93
61.54
65.61
67.35
67.13
65.44
62.91
60.1
57.39
54.98
52.84
50.87
48.98
47.16
45.43
43.83
42.33
40.79
39.02
36.79
33.97
30.53
26.54
22.15
17.52
12.76
7.94
3.07
-1.8
-6.6
-11.28
-15.85
-20.4
-25.03
-29.83
-34.76
-39.72
-44.55
-49.21
-53.83
-58.74
-64.32
-70.88
-78.34
-86.14
-93.18
-98.05
-99.33
-96
-87.75
-75.03
-58.91
-40.81
-22.13
-4.04
12.61
27.29
39.61
49.37
56.52
61.23
63.83
64.86
64.85
64.23
63.23
61.89
60.14
57.89
55.13
51.97
48.58
45.08
41.51
37.77
33.71
29.18
24.09
18.49
12.48
6.26
0.03
-6.05
-11.88
-17.45
-22.72
-27.7
-32.31
-36.37
-39.58
-41.51
-41.65
-39.54
-34.92
-27.82
-18.56
-7.85
3.34
13.84
22.45
28.21
30.62
29.9
26.89
22.84
18.94
15.97
14.09
13.03
12.42
12.13
12.3
13.21
14.99
17.41
19.82
21.52
21.96
21
18.87
16.05
13.01
10.05
7.31
4.83
2.63
0.82
-0.47
-1.13
-1.21
-0.89
-0.52
-0.47
-1.08
-2.52
-4.75
-7.58
-10.71
-13.88
-16.93
-19.82
-22.56
-25.26
-28
-30.87
-33.98
-37.37
-41.07
-45.1
-49.44
-54.14
-59.29
-64.95
-71.02
-77.15
-82.62
-86.43
-87.47
-84.8
-77.91
-66.83
-52.2
-35.09
-16.76
1.54
18.7
33.9
46.56
56.38
63.25
67.3
68.86
68.43
66.65
64.16
61.51
59.05
56.92
55.05
53.36
51.79
50.36
49.09
47.89
46.52
44.59
41.76
37.89
33.12
27.81
22.34
16.96
11.71
6.44
0.93
-4.98
-11.33
-18.03
-24.95
-31.94
-38.87
-45.69
-52.4
-59.09
-65.93
-73.05
-80.53
-88.16
-95.37
-101.2
-104.4
-103.76
-98.42
-88.15
-73.44
-55.38
-35.42
-15
4.66
22.7
38.57
51.89
62.41
70
74.7
76.79
76.76
75.26
72.86
70.03
67.04
64
61
58.17
55.69
53.71
52.26
51.16
50.11
48.72
46.73
44.03
40.71
36.93
32.88
28.68
24.39
20.02
15.5
10.76
5.75
0.39
-5.31
-11.31
-17.46
-23.59
-29.56
-35.28
-40.8
-46.32
-52.18
-58.7
-66.13
-74.44
-83.15
-91.34
-97.7
-100.72
-99.17
-92.39
-80.57
-64.72
-46.38
-27.21
-8.59
8.54
23.64
36.35
46.38
53.45
57.4
58.39
56.91
53.72
49.63
45.28
41.05
37.1
33.44
30.11
27.18
24.76
22.83
21.25
19.73
17.92
15.55
12.57
9.21
5.95
3.38
1.98
1.94
3.07
4.9
6.82
8.27
8.95
8.75
7.81
6.31
4.45
2.33
0.02
-2.45
-5.13
-8.15
-11.8
-16.32
-21.8
-27.97
-34.13
-39.27
-42.38
-42.73
-40.14
-34.97
-27.98
-20.04
-11.95
-4.37
2.26
7.65
11.68
14.4
16.1
17.25
18.38
20
22.48
25.94
30.25
35.1
40.09
44.79
48.87
52.09
54.3
55.36
55.11
53.35
49.94
44.86
38.18
30.08
20.71
10.16
-1.49
-13.99
-26.78
-38.98
-49.55
-57.63
-62.9
-65.62
-66.56
-66.79
-67.28
-68.71
-71.3
-74.81
-78.52
-81.34
-82.01
-79.41
-72.89
-62.51
-49
-33.58
-17.5
-1.78
12.98
26.5
38.58
48.98
57.39
63.56
67.47
69.41
69.81
69.19
67.85
65.95
63.48
60.49
57.1
53.59
50.26
47.35
44.92
42.84
40.86
38.68
36.07
32.97
29.4
25.57
21.65
17.75
13.87
9.87
5.57
0.75
-4.76
-11.03
-18.01
-25.53
-33.26
-40.8
-47.86
-54.37
-60.51
-66.71
-73.56
-81.47
-90.54
-100.35
-109.89
-117.78
-122.49
-122.83
-118.21
-108.83
-95.57
-79.66
-62.35
-44.72
-27.56
-11.52
2.79
14.84
24.23
30.9
35.13
37.54
38.84
39.67
40.37
40.99
41.37
41.37
41.03
40.62
40.57
41.33
43.1
45.81
49.23
53.08
57.09
61.01
64.41
66.73
67.48
66.5
64.26
61.73
60.02
59.82
61.05
62.93
64.47
65
64.52
63.54
62.62
61.85
60.71
58.39
54.2
48.09
40.65
32.79
25.32
18.56
12.41
6.65
1.43
-2.67
-4.78
-4.22
-0.85
4.81
11.8
19.03
25.51
30.39
32.91
32.44
28.76
22.27
14.11
5.85
-1.13
-6.15
-9.46
-11.96
-14.58
-17.78
-21.37
-24.8
-27.53
-29.4
-30.6
-31.56
-32.6
-33.82
-35.18
-36.58
-38
-39.52
-41.25
-43.32
-45.8
-48.69
-51.93
-55.35
-58.74
-61.8
-64.29
-66.05
-67.04
-67.42
-67.46
-67.56
-68
-68.85
-69.81
-70.25
-69.4
-66.67
-61.83
-55.11
-47.07
-38.28
-29.25
-20.29
-11.74
-4.01
2.33
6.71
8.72
8.32
5.86
2.06
-2.25
-6.27
-9.45
-11.5
-12.41
-12.37
-11.66
-10.57
-9.4
-8.33
-7.51
-6.98
-6.79
-6.99
-7.7
-9.06
-11.19
-14.07
-17.56
-21.43
-25.46
-29.5
-33.54
-37.68
-42.09
-46.99
-52.64
-59.17
-66.52
-74.24
-81.46
-86.97
-89.58
-88.41
-83.19
-74.28
-62.5
-48.86
-34.26
-19.45
-5
8.58
20.79
31.22
39.6
45.88
50.22
52.93
54.29
54.52
53.85
52.48
50.66
48.71
46.85
45.13
43.45
41.62
39.46
36.88
33.95
30.75
27.38
23.85
20.12
16.2
12.08
7.79
3.34
-1.29
-6.08
-11.02
-15.99
-20.95
-25.94
-31.14
-36.86
-43.44
-51.02
-59.4
-67.93
-75.6
-81.15
-83.39
-81.5
-75.26
-65.1
-52.04
-37.32
-22.13
-7.35
6.46
18.99
29.98
39.21
46.52
51.91
55.63
58.1
59.74
60.88
61.62
61.97
61.93
61.66
61.43
61.56
62.24
63.39
64.69
65.67
65.92
65.19
63.51
61.07
58.14
54.94
51.55
48
44.25
40.31
36.19
31.92
27.48
22.88
18.09
13.09
7.78
2.04
-4.31
-11.32
-18.8
-26.21
-32.71
-37.29
-39.1
-37.65
-32.98
-25.62
-16.38
-6.15
4.3
14.4
23.67
31.74
38.26
43.01
45.98
47.38
47.68
47.43
47.11
47.02
47.19
47.48
47.69
47.67
47.38
46.91
46.38
45.8
45.05
43.89
42.02
39.29
35.7
31.5
27.04
22.65
18.49
14.56
10.71
6.71
2.4
-2.4
-7.78
-13.75
-20.13
-26.5
-32.13
-36.16
-37.76
-36.43
-32.09
-25.16
-16.36
-6.48
3.74
13.68
22.84
30.76
37.04
41.37
43.65
44.02
42.85
40.67
38.01
35.33
32.93
30.92
29.21
27.61
25.86
23.79
21.35
18.66
15.95
13.41
11.09
8.84
6.36
3.33
-0.39
-4.75
-9.5
-14.38
-19.22
-24.04
-29.03
-34.45
-40.51
-47.29
-54.64
-62.16
-69.17
-74.79
-78.1
-78.36
-75.19
-68.68
-59.3
-47.83
-35.12
-22.03
-9.32
2.42
12.71
21.25
27.88
32.59
35.53
36.94
37.15
36.53
35.44
34.09
32.6
30.91
28.95
26.71
24.29
21.91
19.76
17.97
16.48
15.12
13.74
12.32
10.93
9.71
8.71
7.74
6.44
4.44
1.48
-2.39
-6.91
-11.7
-16.47
-21.19
-26.05
-31.39
-37.54
-44.62
-52.42
-60.38
-67.59
-73
-75.65
-74.92
-70.7
-63.38
-53.72
-42.57
-30.7
-18.64
-6.77
4.56
15
24.15
31.7
37.48
41.53
44.02
45.23
45.41
44.77
43.51
41.85
39.99
38.16
36.49
35.03
33.66
32.18
30.37
28.08
25.24
21.95
18.37
14.73
11.2
7.86
4.71
1.71
-1.18
-3.98
-6.62
-9.06
-11.27
-13.34
-15.39
-17.59
-20.04
-22.75
-25.6
-28.41
-31.06
-33.57
-36.1
-38.94
-42.4
-46.67
-51.76
-57.33
-62.78
-67.31
-70.05
-70.26
-67.46
-61.57
-52.86
-41.97
-29.77
-17.18
-5.09
5.79
14.95
22.14
27.31
30.56
32.14
32.36
31.61
30.36
29.01
27.87
27.04
26.48
26.04
25.57
24.96
24.14
23.04
21.62
19.87
17.81
15.5
12.97
10.19
7.07
3.54
-0.38
-4.53
-8.68
-12.65
-16.39
-20.02
-23.75
-27.78
-32.28
-37.29
-42.77
-48.5
-54.11
-58.96
-62.24
-63.13
-61.02
-55.71
-47.51
-37.12
-25.45
-13.43
-1.86
8.65
17.65
24.85
30.08
33.36
34.84
34.85
33.81
32.15
30.26
28.4
26.78
25.49
24.56
23.9
23.3
22.51
21.26
19.36
16.79
13.66
10.15
6.44
2.64
-1.25
-5.29
-9.56
-14.05
-18.73
-23.5
-28.22
-32.77
-37.08
-41.11
-44.92
-48.67
-52.63
-57.08
-62.19
-67.81
-73.38
-77.91
-80.17
-79.06
-73.99
-65.02
-52.87
-38.64
-23.5
-8.4
5.98
19.16
30.72
40.3
47.56
52.44
55.1
56
55.7
54.66
53.19
51.44
49.48
47.43
45.5
43.9
42.73
41.9
41.13
40.01
38.21
35.56
32.12
28.14
23.94
19.79
15.77
11.85
7.87
3.68
-0.77
-5.42
-10.13
-14.79
-19.37
-23.89
-28.45
-33.13
-38.06
-43.36
-49.2
-55.65
-62.58
-69.48
-75.47
-79.41
-80.21
-77.16
-70.06
-59.36
-45.89
-30.7
-14.83
0.79
15.45
28.58
39.79
48.85
55.65
60.22
62.72
63.4
62.56
60.59
57.88
54.84
51.87
49.27
47.22
45.73
44.68
43.86
43.03
42.03
40.72
39.02
36.9
34.29
31.14
27.41
23.1
18.29
13.11
7.76
2.34
-3.07
-8.52
-14.1
-19.89
-26
-32.46
-39.26
-46.34
-53.41
-59.95
-65.14
-67.99
-67.64
-63.6
-55.93
-45.26
-32.6
-19.02
-5.55
6.96
17.81
26.39
32.26
35.22
35.41
33.32
29.76
25.63
21.8
18.88
17.16
16.52
16.58
16.82
16.8
16.26
15.19
13.73
12
10.03
7.69
4.83
1.4
-2.48
-6.51
-10.38
-13.96
-17.35
-20.89
-24.95
-29.85
-35.67
-42.22
-49.06
-55.52
-60.74
-63.8
-63.83
-60.24
-52.88
-42.08
-28.65
-13.66
1.78
16.67
30.26
41.97
51.33
57.99
61.69
62.44
60.59
56.86
52.17
47.42
43.23
39.86
37.2
34.98
32.93
30.85
28.64
26.2
23.47
20.39
16.99
13.34
9.54
5.61
1.51
-2.88
-7.71
-12.97
-18.58
-24.28
-29.83
-35.05
-39.94
-44.73
-49.75
-55.36
-61.72
-68.67
-75.66
-81.79
-85.94
-87
-84.1
-76.82
-65.3
-50.28
-32.93
-14.64
3.3
19.91
34.6
47.08
57.21
64.88
70.01
72.6
72.85
71.21
68.33
64.85
61.28
57.9
54.79
51.94
49.33
46.94
44.77
42.71
40.59
38.16
35.22
31.68
27.59
23.18
18.64
14.08
9.5
4.79
-0.14
-5.27
-10.46
-15.49
-20.17
-24.44
-28.38
-32.24
-36.36
-41.07
-46.62
-53.09
-60.24
-67.43
-73.62
-77.59
-78.16
-74.56
-66.62
-54.87
-40.34
-24.3
-7.99
7.61
21.84
34.24
44.5
52.39
57.74
60.54
61.05
59.71
57.13
53.92
50.49
47.11
43.87
40.85
38.13
35.88
34.17
32.95
32.02
31.04
29.67
27.66
24.95
21.64
17.99
14.28
10.77
7.61
4.77
2.09
-0.65
-3.7
-7.2
-11.17
-15.51
-20.12
-24.85
-29.66
-34.54
-39.58
-44.83
-50.27
-55.66
-60.45
-63.79
-64.68
-62.25
-56.04
-46.26
-33.73
-19.68
-5.43
7.97
19.79
29.62
37.22
42.44
45.22
45.7
44.29
41.69
38.69
35.97
33.94
32.65
31.85
31.18
30.36
29.21
27.74
26.03
24.1
21.92
19.35
16.21
12.36
7.78
2.58
-3
-8.65
-14.12
-19.26
-24.09
-28.76
-33.45
-38.4
-43.73
-49.49
-55.51
-61.32
-66.18
-69.09
-69.09
-65.5
-58.19
-47.66
-34.87
-20.98
-7.1
5.9
17.38
26.81
33.78
38
39.45
38.49
35.85
32.4
28.94
25.95
23.52
21.45
19.47
17.43
15.35
13.42
11.74
10.24
8.67
6.66
3.95
0.42
-3.8
-8.44
-13.22
-17.94
-22.49
-26.91
-31.35
-36.07
-41.37
-47.45
-54.3
-61.57
-68.57
-74.29
-77.66
-77.77
-74.05
-66.44
-55.34
-41.61
-26.32
-10.61
4.53
18.37
30.38
40.25
47.78
52.9
55.73
56.54
55.82
54.12
51.95
49.7
47.54
45.56
43.78
42.2
40.8
39.5
38.12
36.44
34.26
31.53
28.34
24.87
21.28
17.57
13.6
9.14
4.07
-1.57
-7.51
-13.36
-18.83
-23.86
-28.64
-33.58
-39.14
-45.63
-53.06
-61.01
-68.68
-74.95
-78.69
-78.94
-75.2
-67.53
-56.51
-43.07
-28.28
-13.14
1.5
15.01
26.93
36.97
44.94
50.79
54.6
56.56
57.02
56.38
55.08
53.52
51.94
50.56
49.44
48.64
48.15
47.94
47.92
47.99
48.04
47.91
47.43
46.45
44.81
42.49
39.55
36.17
32.52
28.7
24.67
20.24
15.2
9.44
3.03
-3.83
-10.82
-17.67
-24.17
-30.27
-36.02
-41.63
-47.37
-53.56
-60.38
-67.74
-75.1
-81.52
-85.86
-87.08
-84.55
-78.23
-68.65
-56.66
-43.2
-29.09
-15
-1.55
10.67
21.05
29.11
34.63
37.76
38.94
38.76
37.76
36.34
34.71
33.02
31.39
29.97
28.89
28.19
27.73
27.33
26.75
25.84
24.59
23.06
21.32
19.32
16.96
14.09
10.61
6.55
2.05
-2.69
-7.52
-12.32
-17.02
-21.59
-26.02
-30.39
-34.81
-39.48
-44.54
-49.89
-55.08
-59.27
-61.45
-60.74
-56.69
-49.44
-39.68
-28.38
-16.53
-4.96
5.71
14.99
22.43
27.61
30.35
30.74
29.25
26.58
23.5
20.55
18.03
15.95
14.17
12.53
10.92
9.35
7.9
6.61
5.51
4.55
3.55
2.24
0.32
-2.42
-6.05
-10.4
-15.11
-19.76
-24.01
-27.76
-31.12
-34.45
-38.1
-42.43
-47.59
-53.53
-59.83
-65.77
-70.31
-72.32
-70.82
-65.31
-55.95
-43.51
-29.16
-14.12
0.59
14.3
26.63
37.27
45.99
52.53
56.78
58.83
59.01
57.84
55.85
53.49
50.99
48.38
45.65
42.79
39.91
37.18
34.76
32.72
30.96
29.27
27.37
24.97
21.96
18.27
13.97
9.12
3.79
-1.96
-8.02
-14.26
-20.5
-26.62
-32.52
-38.27
-44.07
-50.17
-56.75
-63.77
-70.85
-77.19
-81.75
-83.42
-81.35
-75.16
-65.07
-51.78
-36.34
-19.85
-3.3
12.46
26.83
39.35
49.77
58
64.13
68.36
70.97
72.24
72.42
71.68
70.13
67.92
65.2
62.26
59.38
56.84
54.74
52.95
51.16
49.01
46.22
42.74
38.75
34.59
30.57
26.85
23.42
20.11
16.73
13.14
9.32
5.32
1.21
-2.98
-7.3
-11.81
-16.56
-21.53
-26.66
-31.91
-37.22
-42.55
-47.87
-53.1
-58.17
-63.07
-67.89
-72.94
-78.52
-84.84
-91.69
-98.43
-103.97
-107.09
-106.76
-102.41
-94.05
-82.18
-67.63
-51.38
-34.37
-17.49
-1.58
12.65
24.62
33.99
40.73
45.15
47.77
49.22
50.09
50.77
51.43
52.06
52.56
52.88
53.13
53.45
54.03
54.84
55.67
56.12
55.76
54.32
51.82
48.54
44.89
41.24
37.65
33.98
29.91
25.19
19.81
13.96
7.94
1.96
-3.97
-10.02
-16.43
-23.35
-30.76
-38.5
-46.39
-54.27
-62.05
-69.5
-76.12
-81.12
-83.52
-82.48
-77.63
-69.21
-58.01
-45.1
-31.48
-17.91
-4.93
6.98
17.27
25.38
30.85
33.59
34
32.89
31.22
29.76
28.98
28.97
29.63
30.83
32.54
34.76
37.45
40.42
43.26
45.49
46.59
46.19
44.09
40.31
35
28.39
20.78
12.47
3.77
-5.03
-13.59
-21.65
-29.03
-35.69
-41.77
-47.56
-53.43
-59.68
-66.46
-73.61
-80.61
-86.59
-90.34
-90.7
-86.79
-78.32
-65.72
-50.01
-32.56
-14.71
2.45
18.14
31.84
43.17
51.81
57.66
60.83
61.74
61.09
59.61
57.9
56.26
54.7
53.02
51.04
48.77
46.42
44.29
42.61
41.37
40.23
38.69
36.31
32.93
28.69
24.02
19.32
14.83
10.56
6.33
1.97
-2.58
-7.26
-11.88
-16.25
-20.24
-23.76
-26.84
-29.68
-32.56
-35.91
-40.18
-45.69
-52.48
-60.25
-68.31
-75.66
-81.12
-83.51
-81.92
-75.96
-65.85
-52.51
-37.24
-21.42
-6.13
7.97
20.56
31.45
40.36
46.92
50.83
52.07
51.11
48.72
45.79
43.03
40.79
39.09
37.81
36.83
36.14
35.75
35.69
35.83
35.85
35.37
34.03
31.67
28.36
24.4
20.21
16.16
12.48
9.2
6.19
3.24
0.21
-2.99
-6.33
-9.7
-13.06
-16.36
-19.64
-22.97
-26.44
-30.2
-34.43
-39.33
-45.02
-51.38
-57.91
-63.62
-67.26
-67.62
-63.95
-56.23
-45.19
-31.94
-17.69
-3.37
10.37
23.04
34.07
42.76
48.48
50.88
50.1
46.79
41.88
36.21
30.34
24.56
18.99
13.76
9.09
5.2
2.17
-0.15
-2.02
-3.79
-5.72
-7.89
-10.26
-12.66
-14.84
-16.51
-17.31
-16.96
-15.23
-12.02
-7.38
-1.62
4.77
11.15
16.85
21.45
24.87
