1626693318.00
64.000000
-0.00
-0.00
-0.00
-0.00
-0.00
-0.00
-0.00
-0.00
-0.00
-0.00
0.00
0.01
0.01
-0.00
-0.03
-0.05
-0.05
0.00
0.13
0.36
0.66
1.01
1.37
1.72
2.06
2.40
2.79
3.24
3.80
4.42
5.06
5.66
6.20
6.68
7.15
7.68
8.31
9.14
10.09
11.04
11.88
12.56
13.14
13.76
14.65
15.96
17.91
20.32
22.90
25.38
27.58
29.57
31.68
34.32
37.81
42.54
48.15
54.10
59.83
64.97
69.58
74.14
79.34
85.71
93.76
103.00
112.62
121.73
129.77
136.75
143.30
150.75
157.77
166.64
177.95
191.79
206.97
220.57
228.25
225.36
208.53
176.87
132.76
80.05
23.07
-34.94
-92.44
-149.16
-205.23
-260.37
-313.74
-363.87
-409.83
-450.91
-486.50
-515.74
-537.23
-549.22
-549.96
-538.37
-514.21
-478.67
-433.88
-382.45
-327.02
-269.84
-212.63
-156.66
-102.95
-52.37
-5.90
35.58
71.43
101.35
125.50
144.38
158.69
169.15
176.37
180.75
182.57
182.07
179.50
175.23
169.66
163.20
156.18
148.83
141.29
133.63
125.87
118.10
110.39
102.82
95.46
88.36
81.51
74.92
68.57
62.49
56.70
51.24
46.14
41.41
37.00
32.88
28.98
25.30
21.84
18.64
15.78
13.28
11.15
9.30
7.62
5.98
4.31
2.66
1.13
-0.13
-0.99
-1.47
-1.74
-2.03
-2.60
-3.56
-4.84
-6.16
-7.22
-7.76
-7.78
-7.51
-7.39
-7.79
-8.91
-10.62
-12.50
-14.08
-14.97
-15.13
-14.78
-14.38
-14.36
-15.13
-16.95
-19.91
-23.68
-27.33
-29.31
-27.91
-21.96
-11.63
1.37
14.34
24.59
30.55
32.29
31.15
28.88
26.75
25.08
23.55
21.69
19.44
17.18
15.49
14.66
14.56
14.68
14.41
13.38
11.64
9.49
7.36
5.51
4.07
3.13
2.92
3.80
6.11
9.92
14.83
19.99
24.39
27.23
28.19
27.56
25.98
24.13
22.44
21.00
19.65
18.23
16.68
15.16
13.85
12.82
11.94
10.94
9.34
6.87
3.57
-0.24
-4.12
-7.67
-10.66
-13.13
-15.21
-17.07
-18.76
-20.16
-21.10
-21.40
-20.97
-19.90
-18.46
-16.96
-15.71
-14.86
-14.39
-14.06
-13.59
-12.72
-11.40
-9.80
-8.26
-7.11
-6.57
-6.64
-7.18
-7.95
-8.74
-9.22
-9.02
-7.66
-4.80
-0.41
5.06
10.71
15.49
18.57
19.61
18.83
16.82
14.18
11.38
8.59
5.89
3.34
1.11
-0.56
-1.44
-1.42
-0.53
1.02
2.94
4.92
6.68
8.02
8.80
8.97
8.52
7.63
6.43
5.10
3.72
2.30
0.75
-1.03
-3.02
-5.09
-6.99
-8.47
-9.35
-9.67
-9.64
-9.53
-9.62
-10.07
-10.92
-12.03
-13.26
-14.42
-15.38
-16.14
-16.77
-17.51
-18.72
-20.80
-24.04
-28.38
-33.20
-37.33
-39.28
-37.73
-32.07
-22.66
-10.78
1.78
13.35
22.82
29.81
34.45
37.11
38.10
37.58
35.65
32.49
28.47
24.11
19.97
16.55
14.14
12.82
12.45
12.78
13.48
14.25
14.90
15.34
15.54
15.47
14.99
13.93
12.19
9.80
6.99
4.13
1.53
-0.65
-2.43
-4.01
-5.51
-6.97
-8.35
-9.58
-10.69
-11.83
-13.17
-14.84
-16.82
-18.95
-20.97
-22.62
-23.75
-24.42
-24.89
-25.68
-27.34
-30.26
-34.37
-38.98
-42.81
-44.37
-42.44
-36.54
-27.13
-15.44
-3.07
8.53
18.39
26.12
31.76
35.54
37.65
38.22
37.33
35.12
31.92
28.22
24.58
21.47
19.17
17.77
17.14
17.11
17.49
18.13
18.86
19.49
19.73
19.34
18.17
16.27
13.85
11.22
8.61
6.17
3.87
1.66
-0.54
-2.72
-4.81
-6.74
-8.47
-10.02
-11.42
-12.70
-13.84
-14.78
-15.48
-15.97
-16.38
-16.86
-17.60
-18.77
-20.50
-22.84
-25.66
-28.55
-30.86
-31.76
-30.43
-26.37
-19.58
-10.60
-0.39
9.94
19.36
27.15
32.94
36.61
38.20
37.82
35.67
32.09
27.64
23.06
19.08
16.27
14.80
14.46
14.78
15.26
15.62
15.82
15.94
16.04
16.05
15.72
14.76
12.99
10.43
7.30
3.93
0.61
-2.45
-5.14
-7.46
-9.42
-11.15
-12.82
-14.66
-16.85
-19.41
-22.18
-24.83
-27.06
-28.70
-29.89
-30.96
-32.39
-34.62
-37.86
-42.04
-46.72
-51.08
-54.06
-54.57
-51.81
-45.53
-36.16
-24.74
-12.60
-0.99
9.16
17.39
23.57
27.77
30.16
30.87
30.04
27.92
24.84
21.30
17.82
14.96
13.05
12.22
12.28
12.86
13.51
13.88
13.82
13.36
12.62
11.74
10.74
9.56
8.09
6.27
4.14
1.85
-0.40
-2.38
-3.97
-5.19
-6.14
-7.02
-8.05
-9.37
-11.00
-12.88
-14.88
-16.84
-18.65
-20.24
-21.58
-22.78
-24.07
-25.81
-28.43
-32.23
-37.16
-42.65
-47.60
-50.66
-50.57
-46.65
-39.00
-28.47
-16.37
-4.13
7.10
16.62
24.11
29.55
33.02
34.68
34.64
33.10
30.31
26.66
22.67
18.95
16.08
14.46
14.14
14.88
16.24
17.76
19.14
20.26
21.08
21.56
21.54
20.83
19.35
17.18
14.60
11.99
9.61
7.58
5.84
4.23
2.64
1.06
-0.46
-1.86
-3.14
-4.40
-5.80
-7.49
-9.52
-11.84
-14.32
-16.78
-19.12
-21.29
-23.38
-25.58
-28.19
-31.53
-35.80
-40.94
-46.40
-51.17
-54.01
-53.75
-49.73
-42.05
-31.53
-19.51
-7.39
3.64
12.87
20.03
25.11
28.23
29.48
28.98
26.95
23.87
20.43
17.43
15.53
15.06
15.89
17.57
19.54
21.40
23.03
24.50
25.95
27.32
28.38
28.73
28.02
26.13
23.24
19.75
16.16
12.88
10.08
7.74
5.69
3.69
1.63
-0.56
-2.83
-5.04
-7.11
-8.99
-10.67
-12.27
-13.95
-16.01
-18.79
-22.58
-27.48
-33.14
-38.71
-42.92
-44.41
-42.20
-36.03
-26.51
-14.90
-2.74
8.64
18.37
26.10
31.81
35.60
37.54
37.67
36.09
33.11
29.21
25.04
21.24
18.34
16.58
15.95
16.18
16.84
17.46
17.69
17.40
16.63
15.57
14.35
13.01
11.43
9.47
7.05
4.21
1.17
-1.86
-4.68
-7.17
-9.33
-11.14
-12.65
-13.92
-15.07
-16.27
-17.62
-19.18
-20.84
-22.46
-23.90
-25.13
-26.25
-27.55
-29.36
-32.02
-35.67
-40.13
-44.75
-48.48
-50.02
-48.25
-42.62
-33.36
-21.47
-8.44
4.25
15.50
24.73
31.84
36.95
40.22
41.69
41.43
39.59
36.57
32.99
29.55
26.80
25.05
24.20
23.96
23.98
24.04
24.06
24.12
24.21
24.23
23.91
22.95
21.19
18.65
15.62
12.53
9.75
7.52
5.86
4.62
3.57
2.50
1.32
0.04
-1.19
-2.25
-3.08
-3.72
-4.35
-5.18
-6.40
-8.07
-10.12
-12.35
-14.54
-16.51
-18.25
-19.92
-21.79
-24.18
-27.31
-31.31
-36.01
-40.98
-45.42
-48.26
-48.40
-45.03
-37.97
-27.80
-15.78
-3.43
7.88
17.29
24.54
29.77
33.26
35.22
35.69
34.69
32.41
29.25
25.87
22.92
20.92
20.05
20.19
21.00
22.11
23.23
24.22
25.04
25.65
25.96
25.77
24.92
23.30
21.01
18.31
15.53
12.95
10.69
8.69
6.79
4.86
2.88
0.95
-0.82
-2.38
-3.83
-5.35
-7.13
-9.23
-11.58
-13.98
-16.20
-18.13
-19.80
-21.42
-23.34
-25.85
-29.17
-33.23
-37.69
-41.90
-44.98
-46.00
-44.17
-39.12
-31.03
-20.66
-9.17
2.14
12.21
20.40
26.51
30.67
33.11
34.00
33.44
31.59
28.70
25.26
21.82
18.89
16.76
15.45
14.83
14.66
14.82
15.21
15.72
16.17
16.32
15.87
14.69
12.81
10.46
7.97
5.63
3.57
1.79
0.20
-1.32
-2.86
-4.47
-6.12
-7.75
-9.27
-10.62
-11.77
-12.77
-13.78
-15.02
-16.62
-18.63
-20.92
-23.27
-25.42
-27.20
-28.67
-30.04
-31.73
-34.15
-37.57
-42.01
-47.00
-51.66
-54.82
-55.28
-52.18
-45.27
-34.99
-22.42
-8.94
4.03
15.42
24.60
31.41
35.99
38.62
39.56
38.99
37.08
34.10
30.46
26.73
23.45
21.04
19.59
18.96
18.86
19.01
19.29
19.72
20.32
20.98
21.44
21.34
20.38
18.47
15.78
12.70
9.69
7.09
4.98
3.25
1.63
-0.14
-2.14
-4.26
-6.24
-7.82
-8.86
-9.42
-9.78
-10.25
-11.09
-12.40
-14.11
-16.04
-17.95
-19.67
-21.14
-22.45
-23.85
-25.70
-28.33
-31.98
-36.53
-41.51
-46.02
-48.90
-49.04
-45.64
-38.51
-28.14
-15.65
-2.51
9.85
20.37
28.50
34.20
37.71
39.33
39.32
37.91
35.37
32.10
28.68
25.67
23.47
22.18
21.64
21.53
21.56
21.59
21.64
21.72
21.80
21.69
21.16
20.01
18.22
15.91
13.26
10.44
7.52
4.52
1.51
-1.41
-4.10
-6.38
-8.20
-9.62
-10.78
-11.88
-13.04
-14.34
-15.75
-17.24
-18.76
-20.31
-21.91
-23.62
-25.54
-27.75
-30.36
-33.44
-36.91
-40.47
-43.50
-45.13
-44.40
-40.63
-33.65
-23.94
-12.54
-0.76
10.21
19.53
26.81
31.96
35.06
36.21
35.53
33.25
29.71
25.46
21.17
17.49
14.93
13.65
13.56
14.26
15.33
16.41
17.28
17.86
18.12
17.95
17.25
15.91
13.95
11.51
8.83
6.16
3.62
1.25
-1.03
-3.30
-5.61
-7.96
-10.26
-12.40
-14.32
-16.00
-17.51
-19.00
-20.61
-22.44
-24.46
-26.51
-28.42
-30.13
-31.71
-33.47
-35.81
-39.10
-43.49
-48.66
-53.78
-57.55
-58.58
-55.81
-48.93
-38.50
-25.83
-12.47
0.16
11.15
20.07
26.93
31.86
34.92
36.18
35.72
33.78
30.82
27.43
24.24
21.72
20.10
19.30
19.13
19.34
19.77
20.36
21.05
21.68
21.98
21.64
20.46
18.47
15.89
13.04
10.24
7.63
5.22
2.92
0.61
-1.74
-4.09
-6.30
-8.21
-9.70
-10.78
-11.61
-12.48
-13.66
-15.33
-17.47
-19.88
-22.27
-24.48
-26.48
-28.43
-30.61
-33.27
-36.62
-40.65
-45.11
-49.36
-52.41
-53.05
-50.27
-43.57
-33.25
-20.42
-6.63
6.59
18.14
27.55
34.81
40.17
43.81
45.75
45.94
44.41
41.47
37.69
33.82
30.56
28.35
27.23
26.90
26.88
26.77
26.36
25.73
25.04
24.41
23.75
22.79
21.21
18.79
15.58
11.86
8.04
4.47
1.36
-1.28
-3.57
-5.65
-7.61
-9.49
-11.28
-12.94
-14.46
-15.83
-17.04
-18.18
-19.35
-20.73
-22.47
-24.73
-27.58
-31.07
-35.08
-39.25
-42.91
-45.08
-44.70
-40.98
-33.66
-23.25
-10.88
1.99
14.00
24.20
32.14
37.77
41.22
42.67
42.22
40.02
36.35
31.78
27.10
23.14
20.57
19.64
20.09
21.34
22.67
23.57
23.80
23.45
22.73
21.80
20.67
19.18
17.15
14.47
11.22
7.61
3.96
0.53
-2.55
-5.30
-7.82
-10.27
-12.73
-15.19
-17.57
-19.77
-21.74
-23.45
-24.98
-26.45
-28.02
-29.89
-32.31
-35.53
-39.70
-44.77
-50.22
-55.04
-57.84
-57.26
-52.39
-43.20
-30.65
-16.38
-2.21
10.45
20.83
28.80
34.62
38.59
40.83
41.35
40.12
37.33
33.46
29.22
25.38
22.53
20.94
20.51
20.84
21.47
21.99
22.20
22.06
21.63
20.89
19.77
18.13
15.88
13.05
9.82
6.45
3.20
0.26
-2.25
-4.36
-6.15
-7.83
-9.60
-11.67
-14.09
-16.75
-19.40
-21.76
-23.68
-25.17
-26.47
-27.95
-29.95
-32.74
-36.45
-40.99
-46.03
-50.80
-54.21
-54.96
-52.01
-44.89
-34.05
-20.69
-6.42
7.21
19.09
28.66
35.73
40.38
42.74
43.01
41.53
38.78
35.37
31.87
28.76
26.29
24.57
23.59
23.20
23.27
23.59
23.99
24.27
24.31
24.00
23.23
21.95
20.12
17.78
15.02
11.97
8.80
5.67
2.72
0.04
-2.30
-4.32
-6.08
-7.74
-9.46
-11.31
-13.23
-15.09
-16.68
-17.90
-18.82
-19.73
-20.99
-22.94
-25.81
-29.60
-34.18
-39.14
-43.89
-47.53
-49.05
-47.43
-42.07
-33.02
-21.10
-7.73
5.45
17.07
26.28
32.88
37.06
39.20
39.60
38.45
35.91
32.28
28.03
23.85
20.39
18.12
17.15
17.26
17.98
18.84
19.46
19.62
19.26
18.42
17.09
15.27
12.94
10.11
6.86
3.36
-0.18
-3.49
-6.38
-8.68
-10.43
-11.79
-13.03
-14.48
-16.27
-18.39
-20.60
-22.58
-24.13
-25.25
-26.18
-27.30
-28.93
-31.30
-34.51
-38.52
-43.16
-48.05
-52.43
-55.24
-55.30
-51.70
-44.14
-33.16
-20.02
-6.32
6.46
17.32
25.80
31.92
35.92
38.04
38.46
37.38
35.08
31.96
28.54
25.31
22.65
20.70
19.42
18.67
18.26
18.09
18.08
18.12
18.07
17.71
16.76
15.01
12.41
9.13
5.64
2.56
0.54
0.03
1.10
3.35
6.12
8.64
10.37
11.09
10.88
9.95
8.46
6.47
3.97
0.96
-2.50
-6.28
-10.28
-14.58
-19.38
-24.93
-31.31
-38.14
-44.51
-49.12
-50.63
-48.11
-41.45
-31.41
-19.36
-6.93
4.54
14.20
21.76
27.30
30.97
32.89
33.10
31.68
28.89
25.25
21.44
18.14
15.81
14.59
14.32
14.66
15.26
15.92
16.52
17.04
17.37
17.35
16.73
15.29
13.04
10.12
6.89
3.72
0.90
-1.45
-3.41
-5.14
-6.86
-8.69
-10.64
-12.59
-14.39
-15.98
-17.38
-18.72
-20.18
-21.93
-24.11
-26.83
-30.11
-33.75
-37.26
-39.85
-40.54
-38.43
-33.16
-24.96
-14.78
-3.84
6.63
15.76
23.10
28.52
32.01
33.55
33.14
30.89
27.18
22.65
18.17
14.52
12.27
11.59
12.30
13.93
15.91
17.76
19.08
19.64
19.32
18.11
16.12
13.55
10.66
7.69
4.78
1.97
-0.82
-3.68
-6.63
-9.57
-12.30
-14.62
-16.49
-18.03
-19.57
-21.52
-24.21
-27.78
-32.09
-36.74
-41.00
-43.93
-44.50
-41.92
-35.84
-26.63
-15.29
-3.20
8.32
18.33
26.42
32.60
37.02
39.79
40.88
40.24
38.00
34.58
30.64
26.89
23.85
21.77
20.55
19.92
19.61
19.42
19.28
19.13
18.87
18.26
17.02
14.94
11.94
8.20
4.04
-0.13
-3.96
-7.25
-10.01
-12.43
-14.77
-17.25
-19.95
-22.75
-25.38
-27.52
-28.97
-29.78
-30.25
-30.87
-32.17
-34.57
-38.21
-42.87
-47.88
-52.19
-54.52
-53.72
-49.06
-40.56
-28.94
-15.53
-1.84
10.83
21.60
30.11
36.37
40.55
42.84
43.38
42.36
40.04
36.88
33.43
30.25
27.76
26.10
25.22
24.86
24.80
24.91
25.12
25.42
25.67
25.66
25.08
23.70
21.44
18.42
14.97
11.52
8.41
5.83
3.74
1.95
0.17
-1.80
-4.00
-6.28
-8.33
-9.86
-10.72
-11.03
-11.13
-11.50
-12.50
-14.29
-16.75
-19.50
-22.14
-24.36
-26.04
-27.34
-28.63
-30.37
-32.99
-36.63
-41.03
-45.41
-48.60
-49.29
-46.43
-39.63
-29.28
-16.53
-2.93
10.01
21.16
29.95
36.32
40.46
42.65
43.08
41.96
39.58
36.39
32.98
29.91
27.57
26.07
25.28
24.93
24.83
24.85
24.96
25.13
25.23
25.04
24.27
22.74
20.40
17.38
13.95
10.44
7.10
4.09
1.46
-0.84
-2.88
-4.76
-6.47
-8.01
-9.35
-10.50
-11.56
-12.67
-14.01
-15.60
-17.42
-19.31
-21.11
-22.73
-24.21
-25.75
-27.62
-30.10
-33.29
-37.09
-40.99
-44.19
-45.63
-44.35
-39.74
-31.87
-21.47
-9.79
1.80
12.17
20.69
27.15
31.66
34.34
35.27
34.50
32.19
28.74
24.75
20.93
17.84
15.79
14.79
14.64
15.05
15.71
16.37
16.84
16.94
16.52
15.48
13.84
11.66
9.09
6.28
3.38
0.51
-2.25
-4.82
-7.19
-9.35
-11.30
-13.07
-14.67
-16.19
-17.75
-19.57
-21.83
-24.59
-27.69
-30.76
-33.30
-34.96
-35.59
-35.41
-34.89
-34.64
-35.27
-37.19
-40.52
-44.93
-49.59
-53.22
-54.35
-51.83
-45.19
-34.90
-22.24
-8.90
3.56
14.10
22.29
28.21
32.16
34.44
35.32
34.99
33.67
31.64
29.26
26.94
25.03
23.82
23.42
23.77
24.62
25.67
26.58
27.12
27.17
26.75
25.95
24.91
23.69
22.28
20.59
18.47
15.85
12.72
9.23
5.61
2.13
-1.01
-3.71
-6.02
-8.11
-10.24
-12.63
-15.38
-18.42
-21.51
-24.37
-26.74
-28.51
-29.75
-30.77
-31.98
-33.88
-36.78
-40.65
-44.88
-48.32
-49.47
-47.01
-40.27
-29.55
-16.12
-1.76
11.70
22.94
31.32
36.90
40.19
41.79
42.23
41.82
40.66
38.79
36.29
33.37
30.32
27.46
24.97
22.95
21.36
20.13
19.19
18.46
17.77
16.86
15.45
13.32
10.45
7.01
3.33
-0.24
-3.51
-6.50
-9.41
-12.52
-16.04
-19.99
-24.11
-28.01
-31.24
-33.58
-35.05
-36.04
-37.07
-38.65
-41.01
-43.93
-46.70
-48.30
-47.63
-43.91
-36.95
-27.19
-15.65
-3.59
7.83
17.79
25.87
31.91
35.86
37.70
37.48
35.42
32.02
28.03
24.29
21.45
19.82
19.22
19.15
19.05
18.54
17.57
16.38
15.31
14.54
13.95
13.16
11.70
9.26
5.82
1.65
-2.85
-7.26
-11.32
-14.94
-18.20
-21.27
-24.39
-27.88
-31.93
-36.57
-41.44
-45.82
-48.72
-49.16
-46.48
-40.61
-32.06
-21.77
-10.84
-0.25
9.28
17.27
23.45
27.63
29.74
29.80
28.04
24.89
20.94
16.83
13.05
9.89
7.47
5.73
4.59
3.97
3.82
4.01
4.39
4.72
4.76
4.27
3.09
1.10
-1.76
-5.44
-9.79
-14.48
-19.12
-23.36
-27.09
-30.44
-33.75
-37.35
-41.33
-45.32
-48.51
-49.86
-48.49
-44.00
-36.67
-27.43
-17.48
-7.97
0.40
7.42
13.30
18.34
22.66
26.04
28.03
28.22
26.43
22.90
18.19
13.04
8.18
4.10
1.05
-0.89
-1.81
-1.93
-1.53
-1.01
-0.79
-1.24
-2.47
-4.39
-6.67
-9.03
-11.32
-13.71
-16.62
-20.56
-25.82
-32.17
-38.69
-43.98
-46.49
-45.11
-39.54
-30.44
-19.13
-7.14
4.33
14.61
23.52
31.00
36.92
40.82
42.20
40.77
36.75
30.97
24.62
18.88
14.52
11.71
10.09
9.06
8.05
6.84
5.49
4.26
3.32
2.66
2.08
1.25
-0.11
-2.19
-5.14
-9.03
-13.83
-19.33
-24.94
-29.70
-32.51
-32.37
-28.81
-22.03
-12.88
-2.57
7.74
17.18
25.27
31.77
36.48
39.10
39.30
36.93
32.24
25.99
19.30
13.37
9.04
6.58
5.65
5.57
5.65
5.51
5.16
4.81
4.68
4.75
4.73
4.19
2.75
0.22
-3.35
-7.69
-12.43
-17.08
-20.97
-23.33
-23.31
-20.19
-13.70
-4.17
7.40
19.63
31.07
40.61
47.67
52.21
54.54
55.09
54.13
51.81
48.22
43.53
38.17
32.82
28.20
24.89
23.06
22.43
22.41
22.35
21.79
20.56
18.77
16.59
14.10
11.24
7.89
3.92
-0.67
-5.79
-11.37
-17.38
-23.79
-30.36
-36.46
-41.07
-42.97
-41.15
-35.21
-25.63
-13.64
-0.85
11.25
21.66
29.95
36.15
40.46
42.99
43.75
42.71
40.05
36.21
31.88
27.80
24.54
22.34
21.08
20.45
20.06
19.63
18.97
17.99
16.64
14.92
12.80
10.29
7.40
4.14
0.62
-2.97
-6.34
-9.18
-11.29
-12.75
-13.89
-15.23
-17.28
-20.39
-24.60
-29.57
-34.60
-38.71
-40.79
-39.88
-35.42
-27.48
-16.79
-4.56
7.86
19.29
28.92
36.38
41.60
44.69
45.84
45.31
43.42
40.56
37.20
33.81
30.78
28.36
26.59
25.34
24.39
23.53
22.67
21.84
21.09
20.39
19.57
18.31
16.30
13.38
9.66
5.49
1.36
-2.30
-5.30
-7.74
-9.97
-12.43
-15.44
-19.10
-23.18
-27.25
-30.86
-33.77
-36.01
-37.91
-39.94
-42.52
-45.91
-50.09
-54.72
-59.14
-62.39
-63.37
-61.15
-55.23
-45.84
-33.85
-20.60
-7.49
4.35
14.27
22.05
27.69
31.28
32.91
32.69
30.91
28.01
24.58
21.21
18.36
16.27
14.97
14.34
14.19
14.29
14.47
14.57
14.49
14.20
13.68
12.96
12.02
10.83
9.37
7.70
5.93
4.24
2.72
1.38
0.08
-1.30
-2.78
-4.24
-5.52
-6.52
-7.29
-8.03
-8.96
-10.19
-11.65
-13.13
-14.46
-15.62
-16.76
-18.18
-20.18
-23.06
-26.88
-31.48
-36.28
-40.32
-42.40
-41.37
-36.62
-28.28
-17.32
-5.21
6.46
16.48
24.21
29.56
32.78
34.15
33.94
32.37
29.67
26.20
22.45
18.93
16.06
14.07
12.95
12.53
12.57
12.87
13.28
13.70
14.05
14.23
14.11
13.61
12.70
11.44
9.93
8.25
6.49
4.63
2.70
0.77
-1.07
-2.69
-4.07
-5.27
-6.46
-7.80
-9.39
-11.18
-13.06
-14.86
-16.53
-18.08
-19.63
-21.28
-23.15
-25.33
-27.89
-30.93
-34.38
-37.91
-40.83
-42.18
-41.04
-36.88
-29.80
-20.59
-10.43
-0.57
8.07
15.03
20.20
23.66
25.47
25.61
24.16
21.40
17.90
14.42
11.65
10.01
9.51
9.84
10.50
11.15
11.67
12.14
12.73
13.47
14.25
14.81
14.85
14.15
12.66
10.51
7.95
5.28
2.70
0.31
-1.97
-4.30
-6.84
-9.61
-12.48
-15.18
-17.42
-19.03
-20.02
-20.63
-21.23
-22.28
-24.11
-26.85
-30.35
-34.02
-36.99
-38.21
-36.74
-32.06
-24.24
-13.89
-2.11
9.96
21.33
31.36
39.80
46.63
51.87
55.54
57.61
58.15
57.44
56.00
54.48
53.51
53.52
54.59
56.48
58.69
60.56
61.40
60.64
57.85
52.87
45.79
36.89
26.57
15.33
3.64
-7.98
-18.97
-28.83
-37.13
-43.67
-48.53
-52.02
-54.46
-56.14
-57.13
-57.39
-56.88
-55.70
-54.13
-52.64
-51.73
-51.83
-53.17
-55.67
-58.93
-62.17
-64.39
-64.47
-61.61
-55.47
-46.39
-35.31
-23.46
-12.08
-2.12
5.89
11.80
15.72
17.85
18.43
17.67
15.78
12.96
9.53
5.86
2.34
-0.67
-3.01
-4.67
-5.81
-6.67
-7.37
-7.95
-8.32
-8.46
-8.45
-8.55
-9.07
-10.28
-12.23
-14.75
-17.48
-20.13
-22.52
-24.72
-26.94
-29.43
-32.32
-35.50
-38.71
-41.62
-44.00
-45.76
-47.01
-47.96
-48.93
-50.27
-52.31
-55.26
-59.05
-63.25
-66.97
-69.03
-68.25
-63.86
-55.76
-44.62
-31.67
-18.30
-5.70
5.38
14.62
21.98
27.48
31.10
32.82
32.72
31.11
28.56
25.80
23.56
22.34
22.33
23.37
25.05
26.89
28.48
29.61
30.24
30.39
30.08
29.27
27.87
25.87
23.37
20.61
17.84
15.30
13.01
10.81
8.48
5.83
2.89
-0.12
-2.85
-4.89
-6.04
-6.34
-6.12
-5.96
-6.50
-8.23
-11.24
-15.19
-19.28
-22.49
-23.80
-22.40
-17.94
-10.50
-0.70
10.51
21.96
32.49
41.21
47.56
51.39
52.86
52.25
49.82
45.88
40.84
35.29
29.96
25.55
22.44
20.65
19.86
19.65
19.74
20.13
20.98
22.42
24.35
26.36
27.84
28.25
27.27
24.92
21.55
17.69
13.97
10.94
8.99
8.31
8.89
10.52
12.90
15.73
18.75
21.76
24.50
26.63
27.71
27.33
25.42
22.42
19.34
17.54
18.25
22.08
28.68
36.90
45.14
51.99
56.65
59.04
59.60
58.79
56.76
53.32
48.10
40.92
31.98
21.99
11.85
2.45
-5.64
-12.26
-17.56
-21.86
-25.43
-28.43
-30.91
-32.93
-34.64
-36.35
-38.48
-41.38
-45.23
-49.86
-54.80
-59.46
-63.31
-66.10
-67.92
-69.10
-70.11
-71.37
-73.08
-75.24
-77.59
-79.81
-81.59
-82.83
-83.65
-84.40
-85.52
-87.41
-90.30
-94.11
-98.36
-102.16
-104.28
-103.37
-98.37
-88.84
-75.19
-58.58
-40.60
-22.85
-6.55
7.62
19.41
28.76
35.72
40.28
42.57
42.87
41.72
39.85
37.96
36.65
36.19
36.57
37.57
38.90
40.32
41.67
42.85
43.69
44.02
43.60
42.29
40.09
37.13
33.65
29.89
26.01
22.12
18.25
14.49
10.94
7.69
4.75
2.00
-0.68
-3.41
-6.19
-8.89
-11.32
-13.32
-14.90
-16.27
-17.80
-19.89
-22.92
-27.11
-32.49
-38.78
-45.30
-51.02
-54.64
-54.91
-50.97
-42.74
-30.98
-17.12
-2.86
10.30
21.39
30.08
36.42
40.66
42.88
43.07
41.29
37.85
33.48
29.14
25.79
23.99
23.80
24.75
26.20
27.63
28.83
29.88
30.98
32.14
33.13
33.45
32.64
30.49
27.17
23.24
19.35
15.97
13.19
10.70
8.01
4.67
0.60
-3.96
-8.54
-12.70
-16.20
-19.11
-21.71
-24.36
-27.43
-31.23
-35.94
-41.55
-47.73
-53.67
-58.16
-59.86
-57.65
-51.07
-40.51
-27.13
-12.52
1.73
14.44
24.97
33.11
38.93
42.54
43.99
43.32
40.72
36.67
31.88
27.21
23.41
20.91
19.73
19.58
20.02
20.68
21.34
21.93
22.39
22.60
22.35
21.39
19.51
16.71
13.19
9.32
5.53
2.17
-0.60
-2.86
-4.87
-6.95
-9.36
-12.17
-15.19
-18.13
-20.69
-22.76
-24.46
-26.12
-28.18
-31.00
-34.83
-39.72
-45.53
-51.73
-57.44
-61.40
-62.24
-58.89
-51.04
-39.29
-25.05
-10.08
4.04
16.23
26.05
33.46
38.62
41.67
42.72
41.95
39.65
36.31
32.53
28.94
26.08
24.30
23.67
24.03
25.07
26.42
27.77
28.91
29.69
29.99
29.70
28.68
26.88
24.29
21.09
17.51
13.88
10.48
7.52
5.04
2.97
1.07
-0.90
-3.15
-5.73
-8.54
-11.34
-13.87
-15.94
-17.52
-18.80
-20.14
-22.05
-25.00
-29.31
-34.95
-41.37
-47.50
-51.96
-53.34
-50.63
-43.58
-32.77
-19.44
-5.18
8.52
20.56
30.33
37.65
42.59
45.32
46.04
45.03
42.66
39.45
36.04
33.04
30.92
29.84
29.72
30.24
31.12
32.14
33.24
34.43
35.62
36.57
36.88
36.14
34.14
30.95
26.99
22.81
18.90
15.48
12.46
9.52
6.29
2.55
-1.69
-6.14
-10.42
-14.13
-17.06
-19.19
-20.80
-22.36
-24.43
-27.51
-31.82
-37.11
-42.61
-47.07
-49.10
-47.57
-41.93
-32.53
-20.44
-7.16
5.76
17.16
26.38
33.23
37.80
40.25
40.68
39.22
36.10
31.82
27.06
22.63
19.20
17.10
16.29
16.44
17.08
17.81
18.41
18.78
18.94
18.84
18.39
17.43
15.75
13.26
10.05
6.37
2.67
-0.65
-3.35
-5.44
-7.25
-9.15
-11.47
-14.28
-17.44
-20.67
-23.67
-26.25
-28.37
-30.14
-31.85
-33.92
-36.84
-40.98
-46.37
-52.49
-58.25
-62.17
-62.83
-59.27
-51.33
-39.72
-25.76
-11.07
2.90
15.13
25.09
32.68
38.02
41.29
42.62
42.12
40.01
36.72
32.85
29.12
26.15
24.31
23.61
23.72
24.23
24.76
25.16
25.42
25.61
25.68
25.42
24.50
22.65
19.79
16.14
12.15
8.31
5.00
2.34
0.18
-1.78
-3.85
-6.25
-9.03
-12.08
-15.16
-18.01
-20.41
-22.29
-23.80
-25.29
-27.31
-30.37
-34.84
-40.67
-47.25
-53.39
-57.52
-58.11
-54.13
-45.49
-33.04
-18.42
-3.42
10.42
22.21
31.66
38.83
43.87
46.83
47.65
46.39
43.32
39.04
34.36
30.11
26.92
25.05
24.33
24.35
24.63
24.84
24.89
24.87
24.88
24.85
24.51
23.48
21.46
18.44
14.73
10.86
7.34
4.40
1.98
-0.27
-2.76
-5.76
-9.27
-13.01
-16.55
-19.44
-21.48
-22.72
-23.51
-24.40
-25.97
-28.66
-32.68
-37.89
-43.72
-49.23
-53.16
-54.28
-51.64
-44.97
-34.75
-22.16
-8.66
4.34
15.82
25.20
32.28
37.04
39.55
39.91
38.34
35.29
31.37
27.35
23.90
21.49
20.23
19.94
20.26
20.83
21.39
21.83
22.10
22.10
21.63
20.44
18.32
15.32
11.69
7.86
4.23
1.02
-1.85
-4.64
-7.66
-11.05
-14.78
-18.61
-22.23
-25.38
-27.92
-29.90
-31.56
-33.27
-35.51
-38.74
-43.14
-48.49
-54.00
-58.43
-60.39
-58.75
-53.03
-43.57
-31.45
-18.08
-4.91
6.99
16.98
24.83
30.52
34.11
35.72
35.51
33.76
30.95
27.67
24.53
22.06
20.56
20.08
20.43
21.26
22.18
22.91
23.28
23.26
22.89
22.19
21.12
19.60
17.56
15.00
12.02
8.83
5.70
2.86
0.48
-1.43
-3.02
-4.58
-6.42
-8.75
-11.55
-14.62
-17.58
-20.10
-22.02
-23.48
-24.85
-26.63
-29.34
-33.31
-38.59
-44.81
-51.13
-56.27
-58.79
-57.45
-51.64
-41.65
-28.60
-14.13
0.10
12.81
23.27
31.35
37.20
41.03
43.00
43.22
41.82
39.13
35.65
32.04
28.90
26.65
25.40
25.01
25.19
25.65
26.20
26.75
27.23
27.52
27.42
26.71
25.27
23.15
20.57
17.82
15.14
12.65
10.34
8.13
5.96
3.85
1.90
0.21
-1.13
-2.15
-3.02
-3.99
-5.34
-7.26
-9.77
-12.73
-15.81
-18.66
-21.08
-23.05
-24.85
-26.92
-29.77
-33.75
-38.82
-44.41
-49.45
-52.52
-52.29
-47.92
-39.37
-27.47
-13.66
0.40
13.28
24.04
32.33
38.20
41.89
43.68
43.78
42.40
39.85
36.55
33.05
29.89
27.51
26.09
25.59
25.80
26.42
27.19
27.88
28.32
28.38
27.91
26.77
24.92
22.40
19.34
16.00
12.61
9.35
6.33
3.55
0.95
-1.47
-3.68
-5.58
-7.09
-8.25
-9.25
-10.41
-12.01
-14.21
-16.91
-19.80
-22.53
-24.84
-26.76
-28.51
-30.48
-33.06
-36.46
-40.67
-45.34
-49.79
-53.03
-54.00
-51.80
-46.01
-36.88
-25.32
-12.68
-0.33
10.63
19.57
26.27
30.76
33.11
33.43
31.90
28.87
24.91
20.76
17.14
14.53
13.10
12.70
12.99
13.65
14.43
15.24
16.01
16.63
16.90
16.57
15.50
13.70
11.40
8.90
6.50
4.37
2.50
0.76
-1.05
-3.05
-5.24
-7.50
-9.61
-11.36
-12.70
-13.73
-14.76
-16.11
-17.98
-20.35
-22.92
-25.31
-27.20
-28.54
-29.53
-30.65
-32.43
-35.31
-39.42
-44.39
-49.31
-52.85
-53.58
-50.45
-43.15
-32.29
-19.24
-5.63
7.04
17.76
26.14
32.16
36.08
38.11
38.44
37.26
34.82
31.56
27.99
24.63
21.89
19.95
18.75
18.13
17.88
17.90
18.16
18.61
19.15
19.58
19.61
19.00
17.67
15.70
13.35
10.96
8.84
7.17
5.96
5.05
4.14
2.95
1.28
-0.83
-3.13
-5.24
-6.84
-7.83
-8.39
-8.94
-9.90
-11.53
-13.84
-16.56
-19.31
-21.77
-23.80
-25.49
-27.09
-28.95
-31.41
-34.71
-38.90
-43.74
-48.60
-52.50
-54.24
-52.76
-47.44
-38.40
-26.50
-13.17
0.03
11.77
21.24
28.20
32.83
35.49
36.57
36.34
34.94
32.54
29.41
25.93
22.63
19.97
18.22
17.42
17.37
17.79
18.44
19.17
19.95
20.71
21.33
21.54
21.05
19.65
17.36
14.46
11.39
8.60
6.38
4.77
3.59
2.50
1.24
-0.33
-2.12
-3.96
-5.63
-7.01
-8.13
-9.14
-10.25
-11.67
-13.50
-15.69
-18.08
-20.48
-22.70
-24.70
-26.55
-28.46
-30.69
-33.49
-37.02
-41.21
-45.69
-49.75
-52.40
-52.58
-49.49
-42.84
-33.05
-21.16
-8.55
3.43
13.76
21.90
27.75
31.44
33.18
33.17
31.64
28.91
25.46
21.87
18.72
16.49
15.40
15.43
16.39
17.97
19.86
21.80
23.54
24.85
25.55
25.48
24.56
22.85
20.54
17.85
15.02
12.14
9.25
6.28
3.20
0.02
-3.14
-6.14
-8.88
-11.33
-13.54
-15.63
-17.70
-19.82
-21.99
-24.20
-26.41
-28.60
-30.75
-32.90
-35.19
-37.87
-41.26
-45.52
-50.42
-55.21
-58.66
-59.37
-56.28
-49.09
-38.40
-25.55
-12.13
0.46
11.33
20.10
26.77
31.42
34.11
34.90
33.93
31.56
28.31
24.82
21.65
19.21
17.68
17.03
17.12
17.71
18.62
19.66
20.65
21.44
21.84
21.69
20.84
19.26
17.05
14.43
11.64
8.92
6.38
4.01
1.73
-0.57
-2.96
-5.38
-7.74
-9.89
-11.76
-13.38
-14.87
-16.42
-18.18
-20.22
-22.49
-24.83
-27.08
-29.15
-31.04
-32.93
-35.10
-37.93
-41.71
-46.46
-51.73
-56.53
-59.49
-59.20
-54.75
-46.01
-33.79
-19.56
-5.01
8.39
19.72
28.56
34.92
39.01
41.07
41.31
39.95
37.35
33.95
30.29
26.92
24.24
22.46
21.55
21.33
21.56
22.05
22.68
23.36
23.95
24.24
23.97
22.97
21.19
18.83
16.23
13.74
11.54
9.63
7.79
5.74
3.30
0.48
-2.51
-5.35
-7.79
-9.73
-11.28
-12.68
-14.23
-16.09
-18.29
-20.69
-23.06
-25.21
-27.10
-28.86
-30.85
-33.49
-37.12
-41.80
-47.17
-52.38
-56.18
-57.22
-54.45
-47.47
-36.66
-23.13
-8.38
6.11
19.12
29.87
37.99
43.46
46.45
47.27
46.31
43.99
40.72
36.92
33.06
29.61
26.99
25.49
25.15
25.76
26.91
28.18
29.22
29.85
29.94
29.38
28.08
25.99
23.19
19.96
16.67
13.63
10.97
8.58
6.24
3.75
1.08
-1.57
-3.97
-5.92
-7.43
-8.67
-9.88
-11.25
-12.81
-14.48
-16.19
-17.90
-19.67
-21.61
-23.80
-26.33
-29.32
-32.90
-37.15
-41.89
-46.55
-50.06
-51.18
-48.79
-42.43
-32.52
-20.22
-7.10
5.39
16.28
25.11
31.79
36.37
38.88
39.34
37.88
34.85
30.87
26.68
23.02
20.41
19.09
19.03
19.96
21.48
23.19
24.75
25.91
26.52
26.51
25.82
24.46
22.43
19.84
16.89
13.80
10.77
7.87
5.03
2.17
-0.80
-3.78
-6.62
-9.14
-11.29
-13.24
-15.25
-17.59
-20.32
-23.33
-26.34
-29.09
-31.41
-33.34
-35.10
-37.02
-39.49
-42.81
-47.10
-52.05
-56.87
-60.30
-60.93
-57.61
-49.96
-38.48
-24.50
-9.73
4.26
16.36
26.10
33.45
38.60
41.74
42.98
42.45
40.41
37.27
33.61
29.98
26.83
24.40
22.71
21.68
21.21
21.20
21.53
22.10
22.72
23.15
23.13
22.42
20.88
18.55
15.65
12.51
9.47
6.74
4.37
2.20
0.05
-2.19
-4.48
-6.59
-8.29
-9.47
-10.19
-10.74
-11.45
-12.62
-14.40
-16.73
-19.39
-22.08
-24.56
-26.70
-28.61
-30.59
-33.11
-36.57
-41.16
-46.64
-52.25
-56.75
-58.74
-57.00
-50.95
-40.85
-27.74
-13.23
1.05
13.76
24.12
31.90
37.28
40.55
42.02
41.93
40.49
37.96
34.76
31.42
28.45
26.26
24.98
24.51
24.55
24.78
25.00
25.22
25.51
25.93
26.34
26.38
25.64
23.86
21.07
17.64
14.11
10.98
8.53
6.72
5.31
3.96
2.44
0.68
-1.22
-3.08
-4.68
-5.93
-6.90
-7.76
-8.81
-10.30
-12.40
-15.10
-18.19
-21.35
-24.29
-26.82
-28.94
-30.87
-32.91
-35.42
-38.70
-42.86
-47.69
-52.56
-56.41
-57.96
-56.05
-50.08
-40.28
-27.69
-13.86
-0.35
11.63
21.48
29.07
34.55
38.06
39.72
39.60
37.92
35.09
31.70
28.40
25.74
24.01
23.25
23.23
23.69
24.39
25.21
26.12
27.07
27.91
28.35
28.04
26.74
24.46
21.44
18.08
14.77
11.76
9.06
6.55
4.10
1.61
-0.89
-3.30
-5.51
-7.47
-9.18
-10.74
-12.30
-14.02
-16.03
-18.37
-20.91
-23.44
-25.73
-27.72
-29.53
-31.50
-34.10
-37.70
-42.45
-48.10
-53.89
-58.64
-60.96
-59.67
-54.14
-44.62
-32.17
-18.37
-4.83
7.20
17.11
24.76
30.32
33.96
35.79
35.89
34.48
31.97
28.94
26.03
23.75
22.36
21.83
21.92
22.36
22.93
23.52
24.10
24.62
24.92
24.73
23.78
21.94
19.28
16.13
12.90
9.97
7.47
5.25
3.05
0.56
-2.31
-5.42
-8.49
-11.16
-13.28
-14.86
-16.15
-17.46
-19.06
-21.07
-23.41
-25.89
-28.27
-30.40
-32.31
-34.21
-36.49
-39.57
-43.79
-49.18
-55.33
-61.28
-65.67
-67.00
-64.07
-56.44
-44.67
-30.13
-14.67
-0.03
12.63
22.86
30.79
36.74
40.98
43.56
44.40
43.54
41.26
38.12
34.79
31.87
29.72
28.40
27.72
27.47
27.48
27.69
28.09
28.61
29.03
29.02
28.23
26.51
23.94
20.85
17.68
14.82
12.44
10.49
8.71
6.84
4.72
2.31
-0.22
-2.68
-4.88
-6.68
-8.10
-9.25
-10.36
-11.69
-13.44
-15.67
-18.28
-21.05
-23.70
-26.08
-28.26
-30.56
-33.44
-37.36
-42.57
-48.89
-55.62
-61.57
-65.26
-65.32
-60.85
-51.76
-38.87
-23.66
-7.88
6.94
19.74
30.08
37.91
43.39
46.70
47.95
47.34
45.19
42.06
38.65
35.61
33.47
32.41
32.31
32.83
33.59
34.30
34.85
35.18
35.29
35.04
34.22
32.60
30.11
26.87
23.25
19.69
16.52
13.89
11.68
9.62
7.44
5.04
2.52
0.10
-1.96
-3.49
-4.56
-5.44
-6.49
-8.06
-10.34
-13.25
-16.56
-19.91
-23.04
-25.84
-28.42
-31.00
-33.91
-37.42
-41.66
-46.62
-51.91
-56.78
-60.06
-60.47
-56.92
-49.02
-37.31
-23.15
-8.32
5.56
17.42
26.88
34.05
39.18
42.42
43.73
43.09
40.70
37.07
32.98
29.24
26.48
25.01
24.77
25.49
26.78
28.25
29.61
30.62
31.11
30.95
30.03
28.32
25.87
22.86
19.54
16.16
12.93
9.86
6.91
3.95
0.93
-2.08
-4.91
-7.39
-9.49
-11.36
-13.28
-15.53
-18.23
-21.30
-24.43
-27.31
-29.77
-31.88
-33.97
-36.47
-39.82
-44.27
-49.75
-55.81
-61.52
-65.61
-66.70
-63.72
-56.24
-44.72
-30.41
-15.01
-0.17
12.90
23.57
31.73
37.55
41.28
43.12
43.26
41.91
39.45
36.36
33.25
30.64
28.89
28.11
28.13
28.65
29.34
29.93
30.30
30.34
29.95
29.01
27.39
25.09
22.22
19.02
15.75
12.56
9.51
6.51
3.47
0.35
-2.75
-5.68
-8.27
-10.45
-12.30
-14.05
-15.99
-18.32
-21.03
-23.92
-26.67
-29.01
-30.83
-32.31
-33.84
-35.87
-38.80
-42.84
-47.88
-53.41
-58.50
-61.84
-62.03
-57.98
-49.36
-36.80
-21.82
-6.35
7.83
19.58
28.54
34.98
39.35
42.03
43.15
42.73
40.86
37.90
34.44
31.13
28.49
26.74
25.82
25.54
25.71
26.18
26.88
27.71
28.43
28.72
28.25
26.81
24.43
21.34
17.96
14.68
11.79
9.35
7.25
5.26
3.19
0.95
-1.40
-3.65
-5.60
-7.13
-8.37
-9.58
-11.14
-13.30
-16.08
-19.25
-22.42
-25.23
-27.54
-29.52
-31.59
-34.23
-37.81
-42.40
-47.69
-53.00
-57.30
-59.45
-58.34
-53.32
-44.35
-32.16
-18.10
-3.77
9.35
20.29
28.69
34.72
38.76
41.12
41.95
41.24
39.05
35.69
31.77
28.08
25.33
23.87
23.68
24.37
25.43
26.47
27.27
27.77
27.91
27.57
26.62
25.00
22.84
20.36
17.87
15.50
13.24
10.92
8.36
5.54
2.65
-0.04
-2.26
-3.97
-5.37
-6.80
-8.59
-10.94
-13.77
-16.86
-19.91
-22.70
-25.19
-27.53
-30.00
-32.94
-36.63
-41.19
-46.43
-51.74
-56.09
-58.17
-56.75
-51.13
-41.40
-28.53
-14.14
0.07
12.74
23.16
31.21
37.11
41.09
43.27
43.64
42.29
39.58
36.16
32.78
30.09
28.38
27.58
27.37
27.37
27.33
27.18
26.96
26.66
26.18
25.28
23.72
21.38
18.33
14.84
11.28
8.00
5.18
2.82
0.73
-1.34
-3.58
-6.02
-8.52
-10.87
-12.92
-14.65
-16.23
-17.89
-19.85
-22.17
-24.76
-27.45
-30.06
-32.52
-34.93
-37.53
-40.64
-44.54
-49.31
-54.73
-60.09
-64.25
-65.82
-63.56
-56.84
-45.89
-31.86
-16.43
-1.37
12.04
23.15
31.86
38.34
42.76
45.16
45.57
44.21
41.52
38.17
34.88
32.18
30.32
29.23
28.67
28.35
28.06
27.73
27.35
26.91
26.34
25.47
24.17
22.34
20.02
17.36
14.50
11.57
8.63
5.72
2.90
0.26
-2.14
-4.30
-6.27
-8.17
-10.10
-12.17
-14.38
-16.71
-19.12
-21.56
-23.97
-26.32
-28.63
-30.99
-33.58
-36.63
-40.37
-44.93
-50.15
-55.47
-59.89
-62.11
-60.87
-55.35
-45.54
-32.32
-17.21
-1.98
11.90
23.52
32.57
39.16
43.51
45.77
45.99
44.32
41.11
37.02
32.90
29.47
27.20
26.06
25.71
25.67
25.59
25.34
24.98
24.63
24.29
23.84
23.08
21.84
19.99
17.53
14.51
11.11
7.52
4.02
0.86
-1.83
-4.07
-6.07
-8.12
-10.41
-13.00
-15.77
-18.47
-20.89
-22.95
-24.72
-26.42
-28.29
-30.54
-33.35
-36.84
-40.99
-45.49
-49.64
-52.40
-52.61
-49.36
-42.38
-32.21
-20.01
-7.22
4.88
15.39
23.88
30.15
34.15
35.87
35.41
33.09
29.45
25.21
21.10
17.73
15.42
14.27
14.13
14.75
15.83
17.11
18.34
19.29
19.75
19.47
18.27
16.10
13.08
9.50
5.79
2.32
-0.67
-3.25
-5.66
-8.25
-11.21
-14.50
-17.85
-20.90
-23.44
-25.45
-27.19
-29.07
-31.49
-34.70
-38.68
-43.02
-46.96
-49.45
-49.39
-45.98
-39.01
-29.00
-17.07
-4.59
7.19
17.49
25.96
32.56
37.28
40.02
40.63
39.10
35.73
31.20
26.47
22.48
19.87
18.80
18.95
19.71
20.47
20.83
20.69
20.14
19.34
18.27
16.79
14.66
11.71
7.95
3.61
-1.01
-5.58
-9.90
-13.89
-17.56
-20.96
-24.20
-27.46
-31.00
-35.12
-40.02
-45.64
-51.48
-56.56
-59.66
-59.58
-55.55
-47.51
-36.15
-22.72
-8.74
4.44
15.90
25.17
32.17
37.02
39.84
40.74
39.86
37.49
34.11
30.32
26.74
23.81
21.72
20.43
19.78
19.64
19.90
20.47
21.16
21.63
21.44
20.21
17.73
14.10
9.68
5.00
0.51
-3.47
-6.93
-10.05
-13.12
-16.36
-19.78
-23.21
-26.33
-28.90
-30.90
-32.55
-34.32
-36.74
-40.23
-44.90
-50.44
-56.02
-60.37
-62.06
-59.82
-53.02
-41.90
-27.55
-11.58
4.33
18.81
31.10
40.90
48.23
53.20
55.84
56.23
54.57
51.29
47.03
42.57
38.60
35.54
33.55
32.47
32.01
31.86
31.79
31.66
31.35
30.72
29.63
27.90
25.44
22.28
18.59
14.62
10.65
6.90
3.51
0.50
-2.16
-4.58
-6.89
-9.22
-11.69
-14.32
-17.03
-19.65
-21.97
-23.84
-25.28
-26.49
-27.88
-29.91
-32.99
-37.27
-42.59
-48.32
-53.41
-56.57
-56.53
-52.41
-44.06
-32.13
-17.92
-3.03
11.05
23.27
33.08
40.38
45.29
47.96
48.54
47.21
44.28
40.26
35.80
31.58
28.15
25.83
24.62
24.26
24.40
24.69
24.93
25.04
25.02
24.83
24.36
23.39
21.74
19.32
16.21
12.64
8.94
5.41
2.28
-0.32
-2.42
-4.18
-5.88
-7.78
-10.00
-12.48
-14.94
-17.08
-18.73
-19.98
-21.17
-22.75
-25.10
-28.39
-32.56
-37.37
-42.41
-47.05
-50.37
-51.33
-48.93
-42.63
-32.62
-19.82
-5.71
8.13
20.44
30.45
37.93
42.92
45.56
46.02
44.49
41.31
36.95
32.08
27.35
23.32
20.32
18.39
17.31
16.74
16.33
15.89
15.36
14.76
14.09
13.21
11.93
10.09
7.61
4.64
1.45
-1.65
-4.45
-6.86
-8.95
-10.81
-12.52
-14.10
-15.58
-16.98
-18.38
-19.91
-21.64
-23.60
-25.71
-27.83
-29.80
-31.56
-33.22
-35.03
-37.35
-40.56
-44.79
-49.78
-54.76
-58.52
-59.72
-57.23
-50.57
-40.01
-26.56
-11.67
3.16
16.65
27.94
36.59
42.51
45.85
46.89
45.98
43.53
39.95
35.71
31.31
27.26
23.96
21.66
20.40
20.01
20.22
20.79
21.48
22.13
22.57
22.61
22.07
20.83
18.92
16.52
13.87
11.18
8.60
6.14
3.81
1.56
-0.56
-2.53
-4.27
-5.77
-7.07
-8.26
-9.45
-10.78
-12.35
-14.21
-16.31
-18.53
-20.72
-22.75
-24.59
-26.36
-28.33
-30.84
-34.21
-38.57
-43.65
-48.66
-52.42
-53.58
-51.12
-44.67
-34.72
-22.44
-9.30
3.38
14.67
24.08
31.46
36.73
39.84
40.78
39.63
36.70
32.55
27.91
23.51
19.96
17.57
16.42
16.34
17.06
18.23
19.52
20.59
21.20
21.17
20.49
19.26
17.64
15.77
13.66
11.23
8.43
5.33
2.16
-0.84
-3.42
-5.57
-7.41
-9.18
-11.08
-13.17
-15.42
-17.67
-19.81
-21.78
-23.63
-25.49
-27.56
-30.06
-33.19
-37.08
-41.70
-46.73
-51.49
-54.92
-55.80
-53.12
-46.41
-36.02
-23.07
-9.17
4.11
15.57
24.66
31.31
35.72
38.10
38.56
37.19
34.21
30.09
25.52
21.20
17.67
15.17
13.62
12.78
12.39
12.29
12.40
12.66
12.96
13.11
12.87
12.08
10.69
8.79
6.51
3.99
1.31
-1.49
-4.39
-7.26
-9.92
-12.11
-13.70
-14.69
-15.32
-15.99
-17.09
-18.77
-20.91
-23.15
-25.05
-26.42
-27.35
-28.24
-29.61
-31.90
-35.33
-39.86
-45.17
-50.55
-54.98
-57.18
-55.93
-50.42
-40.64
-27.47
-12.49
2.50
15.98
27.04
35.41
41.25
44.88
46.54
46.41
44.64
41.53
37.51
33.13
28.98
25.52
23.03
21.57
21.03
21.24
21.97
22.97
23.96
24.67
24.84
24.31
23.00
21.00
18.46
15.60
12.64
9.71
6.90
4.20
1.53
-1.15
-3.86
-6.54
-9.08
-11.37
-13.42
-15.32
-17.25
-19.37
-21.68
-24.07
-26.31
-28.25
-29.87
-31.39
-33.16
-35.56
-38.85
-43.04
-47.79
-52.30
-55.51
-56.25
-53.56
-47.01
-36.89
-24.18
-10.30
3.30
15.42
25.29
32.59
37.21
39.20
38.71
36.03
31.73
26.56
21.41
17.05
13.96
12.29
11.88
12.41
13.53
14.92
16.36
17.64
18.59
18.97
18.62
17.35
15.17
12.21
8.78
5.29
2.10
-0.59
-2.81
-4.82
-6.91
-9.27
-11.91
-14.63
-17.15
-19.26
-20.94
-22.36
-23.84
-25.72
-28.32
-31.77
-35.91
-40.22
-43.82
-45.56
-44.37
-39.61
-31.27
-20.12
-7.40
5.45
17.28
27.32
35.30
41.17
44.97
46.68
46.25
43.79
39.69
34.67
29.64
25.46
22.73
21.61
21.85
22.95
24.30
25.43
25.97
25.77
24.78
23.09
20.83
18.14
15.11
11.77
8.10
4.06
-0.32
-4.93
-9.59
-14.11
-18.32
-22.14
-25.63
-28.95
-32.38
-36.25
-40.84
-46.20
-51.96
-57.28
-60.85
-61.25
-57.39
-48.93
-36.53
-21.64
-6.15
8.19
20.18
29.33
35.65
39.48
41.17
40.98
39.14
35.95
31.85
27.37
23.09
19.46
16.71
14.88
13.85
13.47
13.62
14.23
15.15
16.12
16.72
16.47
15.08
12.55
9.19
5.50
1.91
-1.39
-4.54
-7.83
-11.52
-15.61
-19.83
-23.74
-26.99
-29.51
-31.51
-33.52
-36.11
-39.75
-44.57
-50.17
-55.58
-59.39
-60.08
-56.50
-48.27
-35.95
-20.91
-4.91
10.40
23.80
34.64
42.72
48.10
50.90
51.35
49.71
46.43
42.06
37.23
32.56
28.53
25.46
23.46
22.38
21.98
21.94
22.01
22.05
21.97
21.68
21.00
19.71
17.60
14.63
10.99
7.08
3.34
0.07
-2.71
-5.24
-7.87
-10.86
-14.24
-17.76
-21.03
-23.68
-25.54
-26.75
-27.66
-28.81
-30.76
-33.92
-38.39
-43.81
-49.33
-53.65
-55.29
-53.01
-46.25
-35.32
-21.43
-6.25
8.50
21.57
32.25
40.36
45.95
49.11
49.88
48.36
44.93
40.20
35.04
30.25
26.41
23.76
22.20
21.49
21.36
21.59
22.03
22.52
22.86
22.75
21.90
20.11
17.41
14.02
10.36
6.80
3.60
0.72
-2.05
-4.99
-8.24
-11.71
-15.13
-18.15
-20.55
-22.34
-23.72
-25.04
-26.66
-28.88
-31.86
-35.55
-39.54
-43.03
-44.92
-44.03
-39.52
-31.19
-19.67
-6.25
7.49
20.08
30.54
38.39
43.52
46.03
46.05
43.83
39.80
34.66
29.35
24.76
21.52
19.82
19.44
19.88
20.65
21.41
21.97
22.27
22.25
21.76
20.63
18.69
15.93
12.44
8.48
4.37
0.37
-3.37
-6.86
-10.23
-13.69
-17.33
-21.10
-24.76
-28.05
-30.76
-32.93
-34.85
-37.03
-40.06
-44.28
-49.60
-55.31
-60.12
-62.48
-60.99
-54.87
-44.34
-30.49
-15.04
0.22
13.84
25.03
33.49
39.31
42.66
43.68
42.56
39.61
35.41
30.74
26.40
23.01
20.83
19.76
19.45
19.56
19.81
20.13
20.50
20.86
21.04
20.75
19.70
17.71
14.81
11.21
7.29
3.44
-0.07
-3.16
-5.95
-8.68
-11.55
-14.63
-17.80
-20.86
-23.56
-25.76
-27.47
-28.90
-30.41
-32.43
-35.36
-39.41
-44.43
-49.72
-54.07
-55.96
-54.09
-47.71
-37.02
-23.12
-7.70
7.47
20.96
31.94
40.11
45.58
48.55
49.24
47.82
44.56
39.89
34.51
29.23
24.81
21.76
20.16
19.72
19.95
20.41
20.84
21.24
21.71
22.25
22.64
22.45
21.22
18.68
14.96
10.56
6.19
2.49
-0.25
-2.15
-3.67
-5.39
-7.71
-10.69
-14.08
-17.46
-20.45
-22.87
-24.77
-26.41
-28.15
-30.39
-33.50
-37.71
-42.93
-48.61
-53.73
-56.91
-56.86
-52.74
-44.46
-32.81
-19.13
-4.99
8.24
19.59
28.55
34.94
38.77
40.15
39.31
36.63
32.67
28.16
23.88
20.47
18.34
17.53
17.81
18.78
20.06
21.41
22.73
23.93
24.86
25.23
24.73
23.15
20.50
17.09
13.37
9.76
6.52
3.64
0.89
-2.04
-5.37
-9.13
-13.11
-16.95
-20.26
-22.83
-24.64
-25.94
-27.15
-28.72
-31.11
-34.60
-39.22
-44.61
-49.86
-53.65
-54.48
-51.18
-43.33
-31.52
-17.19
-2.19
11.78
23.60
32.79
39.34
43.41
45.13
44.56
41.87
37.43
31.94
26.26
21.21
17.40
15.07
14.12
14.22
14.95
15.92
16.86
17.58
17.98
17.97
17.45
16.32
14.53
12.06
9.02
5.58
1.97
-1.55
-4.79
-7.70
-10.32
-12.83
-15.39
-18.14
-21.03
-23.89
-26.46
-28.51
-29.96
-30.97
-31.91
-33.28
-35.55
-39.04
-43.80
-49.50
-55.38
-60.29
-62.81
-61.65
-56.04
-46.00
-32.49
-17.15
-1.73
12.27
23.95
32.95
39.26
43.00
44.29
43.37
40.64
36.73
32.38
28.23
24.72
21.99
20.04
18.81
18.28
18.48
19.43
21.10
23.32
25.79
28.02
29.33
29.02
26.60
22.04
15.94
9.42
3.75
-0.13
-1.95
-2.27
-2.13
-2.66
-4.57
-7.98
-12.40
-17.03
-21.06
-24.01
-25.80
-26.82
-27.73
-29.30
-32.24
-36.98
-43.59
-51.58
-59.90
-67.00
-71.16
-70.93
-65.65
-55.67
-42.30
-27.39
-12.82
-0.03
10.11
17.24
21.33
22.49
20.97
17.21
11.89
5.84
-0.01
-4.88
-8.26
-9.95
-10.10
-9.05
-7.27
-5.21
-3.20
-1.43
-0.01
1.03
1.69
1.98
1.99
1.82
1.51
1.10
0.48
-0.50
-1.97
-3.99
-6.50
-9.29
-12.05
-14.52
-16.49
-17.91
-18.96
-19.99
-21.44
-23.62
-26.45
-29.33
-31.18
-30.70
-26.91
-19.42
-8.70
4.08
17.46
30.07
41.02
49.94
56.82
61.76
64.78
65.77
64.62
61.41
56.55
50.76
44.91
39.82
36.02
33.63
32.40
31.87
31.48
30.74
29.33
27.12
24.17
20.65
16.80
12.83
8.87
4.95
1.09
-2.77
-6.59
-10.33
-13.89
-17.21
-20.28
-23.14
-25.90
-28.71
-31.77
-35.24
-39.14
-43.19
-46.76
-48.83
-48.28
-44.19
-36.21
-24.74
-10.89
3.89
18.14
30.71
40.91
48.37
52.91
54.41
52.95
48.84
42.83
36.05
29.82
25.29
23.15
23.43
25.52
28.44
31.15
32.94
33.57
33.32
32.76
32.42
32.53
32.84
32.76
31.59
28.85
24.44
18.70
12.19
5.50
-0.98
-7.12
-12.92
-18.46
-23.76
-28.87
-33.92
-39.16
-44.81
-50.82
-56.67
-61.26
-63.21
-61.29
-54.92
-44.42
-31.03
-16.49
-2.53
9.58
19.17
26.15
30.74
33.24
33.87
32.80
30.18
26.31
21.70
16.98
12.85
9.85
8.24
7.91
8.47
9.35
10.10
10.36
9.99
8.93
7.16
4.65
1.38
-2.55
-6.88
-11.25
-15.26
-18.64
-21.40
-23.77
-26.12
-28.83
-32.10
-35.95
-40.27
-44.87
-49.57
-54.14
-58.13
-60.84
-61.32
-58.59
-52.01
-41.59
-28.10
-12.88
2.53
16.82
29.15
39.17
46.83
52.16
55.10
55.55
53.55
49.38
43.70
37.41
31.44
26.53
23.04
20.95
19.89
19.42
19.14
18.83
18.38
17.73
16.74
15.17
12.78
9.47
5.42
1.09
-2.89
-5.99
-8.01
-9.22
-10.29
-12.08
-15.34
-20.45
-27.24
-34.92
-42.16
-47.37
-49.03
-46.12
-38.49
-26.91
-12.90
1.74
15.36
26.88
35.83
42.20
46.14
47.76
47.10
44.25
39.55
33.65
27.51
22.11
18.19
15.97
15.16
15.09
15.05
14.57
13.57
12.19
10.69
9.07
7.09
4.31
0.34
-4.88
-11.02
-17.44
-23.38
-28.29
-31.97
-34.64
-36.83
-39.16
-42.21
-46.27
-51.25
-56.58
-61.20
-63.70
-62.63
-56.96
-46.46
-31.89
-14.85
2.67
18.77
32.15
42.16
48.87
52.68
54.17
53.86
52.14
49.35
45.74
41.60
37.26
33.07
29.39
26.46
24.38
23.04
22.19
21.52
20.74
19.68
18.29
16.60
14.67
12.53
10.14
7.36
4.07
0.20
-4.24
-9.13
-14.25
-19.35
-24.19
-28.61
-32.57
-36.15
-39.65
-43.45
-47.94
-53.25
-59.03
-64.32
-67.73
-67.72
-63.19
-53.86
-40.46
-24.53
-7.99
7.41
20.46
30.59
37.77
42.25
44.38
44.46
42.79
39.68
35.58
31.02
26.63
22.97
20.40
19.03
18.72
19.10
19.81
20.51
21.06
21.45
21.71
21.80
21.54
20.68
18.98
16.36
13.01
9.37
5.93
3.13
1.07
-0.45
-1.87
-3.61
-5.89
-8.63
-11.47
-14.02
-15.99
-17.32
-18.20
-18.98
-20.05
-21.82
-24.64
-28.70
-33.87
-39.48
-44.31
-46.74
-45.29
-39.18
-28.69
-15.13
-0.41
13.65
25.76
35.40
42.61
47.59
50.43
51.08
49.50
45.95
41.04
35.69
30.78
26.92
24.26
22.56
21.44
20.62
20.04
19.85
20.16
20.90
21.69
21.92
21.08
18.92
15.65
11.79
7.98
4.65
1.82
-0.79
-3.61
-6.94
-10.84
-15.07
-19.28
-23.13
-26.46
-29.25
-31.62
-33.77
-35.96
-38.54
-41.89
-46.25
-51.48
-56.87
-61.12
-62.65
-60.10
-52.83
-41.26
-26.75
-11.22
3.48
16.05
25.83
32.74
37.00
38.86
38.56
36.39
32.77
28.34
23.75
19.61
16.22
13.63
11.66
10.10
8.81
7.85
7.38
7.53
8.26
9.23
9.94
9.84
8.57
6.12
2.87
-0.63
-3.85
-6.51
-8.66
-10.61
-12.72
-15.25
-18.21
-21.42
-24.55
-27.31
-29.52
-31.15
-32.37
-33.46
-34.85
-37.02
-40.28
-44.62
-49.39
-53.37
-55.00
-52.87
-46.25
-35.43
-21.67
-6.76
7.50
19.83
29.57
36.62
41.19
43.49
43.77
42.20
39.07
34.79
29.86
24.86
20.31
16.63
14.00
12.40
11.61
11.35
11.42
11.75
12.37
13.26
14.25
14.94
14.91
13.80
11.58
8.51
5.12
1.95
-0.64
-2.60
-4.19
-5.87
-8.05
-10.91
-14.33
-17.88
-21.04
-23.42
-24.93
-25.88
-26.81
-28.36
-31.01
-34.96
-39.97
-45.41
-50.24
-53.16
-52.93
-48.74
-40.47
-28.84
-15.22
-1.23
11.67
22.53
30.96
36.97
40.74
42.43
42.18
40.15
36.69
32.35
27.82
23.74
20.60
18.60
17.71
17.73
18.39
19.45
20.69
21.91
22.86
23.28
22.95
21.74
19.66
16.91
13.78
10.50
7.18
3.79
0.20
-3.67
-7.73
-11.76
-15.43
-18.53
-21.09
-23.41
-25.99
-29.36
-33.77
-39.00
-44.27
-48.33
-49.76
-47.42
-40.84
-30.45
-17.42
-3.39
10.01
21.57
30.59
36.90
40.62
42.00
41.33
38.88
34.97
29.97
24.38
18.76
13.67
9.52
6.54
4.71
3.82
3.59
3.75
4.05
4.27
4.16
3.52
2.20
0.22
-2.24
-4.92
-7.56
-10.08
-12.60
-15.36
-18.56
-22.25
-26.20
-30.05
-33.40
-36.00
-37.91
-39.50
-41.41
-44.29
-48.50
-53.84
-59.42
-63.80
-65.32
-62.65
-55.25
-43.53
-28.80
-12.80
2.71
16.31
27.20
35.13
40.25
42.91
43.48
42.26
39.52
35.54
30.77
25.79
21.20
17.50
14.92
13.42
12.76
12.62
12.75
12.94
13.06
12.88
12.20
10.88
8.91
6.43
3.65
0.76
-2.20
-5.31
-8.69
-12.38
-16.26
-20.07
-23.49
-26.31
-28.49
-30.18
-31.73
-33.58
-36.18
-39.81
-44.38
-49.23
-53.13
-54.52
-51.98
-44.78
-33.20
-18.54
-2.71
12.39
25.33
35.45
42.68
47.26
49.49
49.53
47.53
43.75
38.71
33.18
27.98
23.80
21.00
19.50
18.95
18.90
18.95
18.91
18.76
18.52
18.22
17.82
17.19
16.15
14.53
12.17
9.05
5.26
1.09
-3.04
-6.74
-9.81
-12.28
-14.43
-16.67
-19.31
-22.58
-26.52
-31.00
-35.68
-39.94
-42.83
-43.24
-40.23
-33.34
-22.89
-9.97
3.86
17.02
28.26
36.89
42.68
45.73
46.21
44.36
40.51
35.17
29.10
23.18
18.24
14.86
13.16
12.91
13.58
14.60
15.44
15.81
15.57
14.74
13.40
11.65
9.56
7.15
4.40
1.22
-2.43
-6.53
-10.94
-15.45
-19.78
-23.75
-27.22
-30.25
-33.00
-35.72
-38.76
-42.45
-46.99
-52.27
-57.68
-62.10
-64.06
-62.17
-55.61
-44.50
-29.93
-13.64
2.45
16.74
28.27
36.68
42.09
44.80
45.17
43.54
40.28
35.85
30.87
25.96
21.71
18.46
16.34
15.23
14.89
15.08
15.62
16.30
16.90
17.12
16.65
15.28
13.08
10.29
7.28
4.27
1.29
-1.79
-5.20
-8.99
-13.01
-16.96
-20.52
-23.56
-26.21
-28.71
-31.43
-34.64
-38.53
-43.11
-48.15
-52.99
-56.55
-57.47
-54.47
-46.88
-34.98
-20.03
-3.90
11.50
24.75
35.16
42.66
47.47
49.83
49.90
47.86
44.05
39.05
33.65
28.64
24.58
21.76
20.12
19.45
19.45
19.90
20.62
21.49
22.33
22.89
22.95
22.28
20.78
18.53
15.73
12.66
9.59
6.68
3.91
1.15
-1.77
-4.96
-8.35
-11.73
-14.79
-17.25
-19.00
-20.18
-21.18
-22.51
-24.75
-28.27
-33.17
-39.10
-45.15
-50.04
-52.31
-50.76
-44.81
-34.72
-21.56
-6.92
7.53
20.43
30.93
38.67
43.62
45.94
45.83
43.58
39.66
34.75
29.71
25.31
22.14
20.43
20.05
20.66
21.87
23.40
25.05
26.68
28.08
28.97
29.01
28.01
25.94
23.05
19.70
16.30
13.08
10.04
6.96
3.57
-0.32
-4.62
-9.00
-13.01
-16.28
-18.72
-20.58
-22.36
-24.67
-27.99
-32.55
-38.18
-44.27
-49.78
-53.40
-53.82
-50.14
-42.18
-30.65
-16.95
-2.82
10.19
21.02
29.25
34.90
38.18
39.27
38.26
35.32
30.82
25.42
19.95
15.22
11.75
9.66
8.69
8.43
8.50
8.69
8.96
9.30
9.65
9.84
9.58
8.60
6.72
4.00
0.74
-2.63
-5.62
-7.95
-9.63
-10.96
-12.36
-14.22
-16.68
-19.61
-22.69
-25.53
-27.86
-29.62
-30.97
-32.24
-33.89
-36.35
-39.94
-44.62
-49.91
-54.78
-57.86
-57.74
-53.40
-44.60
-31.97
-16.89
-1.13
13.70
26.41
36.37
43.44
47.74
49.49
48.92
46.37
42.30
37.38
32.35
27.92
24.59
22.51
21.55
21.34
21.50
21.75
22.01
22.32
22.72
23.12
23.28
22.81
21.37
18.79
15.21
11.04
6.83
3.08
0.04
-2.33
-4.31
-6.29
-8.58
-11.30
-14.28
-17.20
-19.67
-21.41
-22.44
-23.04
-23.70
-24.97
-27.24
-30.72
-35.25
-40.29
-44.93
-47.97
-48.21
-44.68
-37.06
-25.82
-12.17
2.25
15.79
27.24
35.96
41.88
45.24
46.38
45.55
42.96
38.92
33.90
28.59
23.75
19.98
17.55
16.31
15.86
15.77
15.78
15.84
16.00
16.23
16.31
15.88
14.54
12.14
8.82
5.02
1.28
-1.96
-4.52
-6.58
-8.52
-10.76
-13.49
-16.67
-19.98
-23.03
-25.49
-27.31
-28.70
-30.08
-31.90
-34.57
-38.22
-42.67
-47.22
-50.83
-52.20
-50.25
-44.39
-34.89
-22.76
-9.49
3.41
14.77
23.90
30.57
34.77
36.56
36.07
33.55
29.48
24.56
19.58
15.26
12.07
10.19
9.49
9.72
10.57
11.75
13.03
14.15
14.91
15.06
14.45
13.01
10.80
8.04
4.98
1.88
-1.13
-4.06
-7.04
-10.21
-13.59
-17.09
-20.45
-23.41
-25.84
-27.81
-29.59
-31.57
-34.15
-37.65
-42.10
-47.19
-52.09
-55.57
-56.21
-52.85
-45.02
-33.20
-18.71
-3.38
11.08
23.48
33.31
40.60
45.57
48.37
49.01
47.44
43.79
38.50
32.30
26.13
20.84
16.97
14.63
13.52
13.09
12.76
12.14
11.14
9.88
8.56
7.24
5.78
3.89
1.24
-2.29
-6.51
-10.99
-15.22
-18.78
-21.56
-23.70
-25.60
-27.69
-30.32
-33.70
-37.82
-42.42
-46.97
-50.66
-52.52
-51.59
-47.14
-38.98
-27.57
-13.99
0.33
13.89
25.48
34.35
40.24
43.21
43.52
41.52
37.63
32.40
26.59
21.00
16.35
13.08
11.23
10.45
10.27
10.27
10.22
10.10
10.00
9.88
9.55
8.64
6.78
3.79
-0.18
-4.69
-9.17
-13.17
-16.56
-19.55
-22.66
-26.43
-31.21
-36.86
-42.71
-47.57
-50.04
-48.91
-43.55
-34.17
-21.80
-7.97
5.72
17.98
28.04
35.60
40.61
43.15
43.27
41.15
37.16
31.89
26.10
20.56
15.87
12.37
10.13
9.03
8.79
9.09
9.62
10.05
10.07
9.48
8.14
6.04
3.31
0.13
-3.29
-6.75
-10.16
-13.59
-17.25
-21.43
-26.41
-32.12
-38.08
-43.24
-46.22
-45.71
-40.86
-31.70
-19.16
-4.80
9.65
22.67
33.30
41.07
45.88
47.83
47.08
43.89
38.74
32.35
25.60
19.41
14.49
11.20
9.52
9.16
9.69
10.73
11.96
13.11
13.95
14.21
13.69
12.27
9.99
7.03
3.63
0.02
-3.67
-7.47
-11.53
-16.09
-21.32
-27.12
-32.97
-37.89
-40.55
-39.70
-34.61
-25.45
-13.30
0.16
13.13
24.19
32.54
37.96
40.59
40.67
38.43
34.16
28.34
21.65
14.99
9.18
4.83
2.17
1.05
1.07
1.75
2.65
3.42
3.82
3.65
2.82
1.33
-0.73
-3.17
-5.84
-8.65
-11.69
-15.14
-19.28
-24.25
-29.97
-35.93
-41.13
-44.26
-44.02
-39.57
-30.85
-18.78
-5.01
8.61
20.50
29.72
35.94
39.23
39.79
37.77
33.43
27.28
20.13
13.04
6.94
2.46
-0.22
-1.34
-1.29
-0.57
0.41
1.27
1.66
1.33
0.16
-1.77
-4.21
-6.86
-9.55
-12.28
-15.23
-18.78
-23.30
-29.03
-35.90
-43.28
-49.96
-54.32
-54.74
-50.17
-40.53
-26.89
-11.13
4.59
18.44
29.31
36.89
41.33
42.98
42.12
39.00
33.95
27.52
20.51
13.82
8.27
4.35
2.15
1.37
1.45
1.83
2.09
2.05
1.78
1.47
1.24
1.09
0.79
-0.12
-2.11
-5.56
-10.64
-17.23
-24.87
-32.82
-39.99
-45.12
-46.93
-44.53
-37.68
-27.02
-13.91
-0.09
12.79
23.58
31.69
36.99
39.54
39.37
36.56
31.41
24.62
17.22
10.38
5.05
1.61
-0.12
-0.75
-0.95
-1.15
-1.45
-1.73
-1.83
-1.74
-1.67
-1.95
-2.86
-4.55
-7.08
-10.47
-14.70
-19.66
-24.98
-29.94
-33.49
-34.59
-32.52
-27.19
-19.20
-9.61
0.37
9.69
17.61
23.61
27.31
28.43
26.91
23.02
17.49
11.44
6.10
2.43
0.90
1.35
3.18
5.61
8.02
10.10
11.86
13.47
15.04
16.50
17.56
17.90
17.28
15.62
13.02
9.60
5.59
1.40
-2.27
-4.38
-3.75
0.58
8.92
20.68
34.48
48.47
60.92
70.55
76.69
79.22
78.35
74.48
68.14
60.02
50.95
41.85
33.48
26.36
20.66
16.26
12.90
10.25
8.04
5.99
3.80
1.22
-1.92
-5.60
-9.59
-13.57
-17.22
-20.37
-23.06
-25.47
-27.82
-30.24
-32.72
-35.12
-37.23
-38.90
-40.08
-40.87
-41.57
-42.55
-44.24
-46.89
-50.39
-54.13
-57.05
-57.86
-55.41
-49.06
-38.98
-26.14
-12.07
1.57
13.39
22.58
28.94
32.69
34.21
33.83
31.76
28.17
23.35
17.85
12.41
7.80
4.57
2.89
2.53
2.99
3.69
4.21
4.32
4.03
3.44
2.63
1.53
-0.03
-2.27
-5.37
-9.40
-14.33
-20.01
-26.11
-32.06
-36.91
-39.47
-38.58
-33.55
-24.50
-12.44
0.98
13.98
25.14
33.64
39.28
42.22
42.72
41.04
37.44
32.30
26.20
19.81
13.86
8.89
5.22
2.88
1.72
1.45
1.74
2.26
2.65
2.58
1.81
0.21
-2.13
-4.96
-7.99
-10.99
-13.90
-16.85
-20.11
-23.97
-28.58
-33.83
-39.23
-43.87
-46.54
-45.96
-41.24
-32.18
-19.57
-4.94
9.76
22.82
33.07
40.11
44.09
45.38
44.40
41.47
36.94
31.27
25.10
19.14
14.00
10.07
7.34
5.56
4.30
3.19
2.03
0.83
-0.32
-1.42
-2.65
-4.36
-6.86
-10.24
-14.27
-18.44
-22.23
-25.29
-27.62
-29.54
-31.60
-34.34
-38.10
-42.85
-48.03
-52.57
-55.07
-54.15
-48.92
-39.38
-26.39
-11.56
3.34
16.79
27.83
36.04
41.38
43.96
43.94
41.55
37.17
31.42
25.12
19.10
14.08
10.43
8.16
6.99
6.47
6.15
5.80
5.39
5.04
4.92
5.03
5.17
4.94
3.94
1.95
-0.97
-4.45
-8.00
-11.15
-13.69
-15.67
-17.39
-19.23
-21.60
-24.73
-28.70
-33.21
-37.58
-40.74
-41.46
-38.69
-31.97
-21.70
-9.09
4.20
16.50
26.68
34.21
39.13
41.72
42.25
40.89
37.75
33.11
27.49
21.58
16.10
11.65
8.53
6.75
6.11
6.23
6.72
7.21
7.45
7.32
6.82
6.01
4.93
3.58
1.87
-0.29
-2.88
-5.82
-8.93
-12.05
-15.06
-17.91
-20.59
-23.09
-25.43
-27.65
-29.91
-32.42
-35.42
-38.88
-42.40
-45.14
-45.97
-43.82
-38.10
-28.93
-17.24
-4.43
7.96
18.70
27.09
32.93
36.35
37.55
36.72
34.02
29.76
24.45
18.83
13.70
9.65
6.96
5.48
4.85
4.62
4.49
4.33
4.13
3.91
3.66
3.26
2.55
1.37
-0.41
-2.80
-5.74
-9.02
-12.37
-15.50
-18.22
-20.45
-22.25
-23.78
-25.20
-26.69
-28.39
-30.41
-32.75
-35.20
-37.17
-37.76
-35.96
-31.01
-22.82
-12.10
-0.16
11.51
21.72
29.78
35.53
39.04
40.35
39.47
36.47
31.77
26.20
20.80
16.48
13.73
12.44
12.09
12.03
11.82
11.34
10.71
10.15
9.70
9.21
8.39
6.91
4.60
1.51
-2.06
-5.70
-9.01
-11.77
-14.01
-16.01
-18.20
-21.04
-24.87
-29.76
-35.41
-41.10
-45.74
-48.09
-47.05
-42.09
-33.47
-22.19
-9.77
2.28
12.79
21.12
27.08
30.70
32.05
31.16
28.19
23.51
17.77
11.84
6.53
2.45
-0.16
-1.43
-1.71
-1.46
-0.99
-0.47
0.09
0.67
1.14
1.19
0.45
-1.31
-4.06
-7.43
-10.88
-13.94
-16.39
-18.31
-20.03
-21.93
-24.37
-27.59
-31.67
-36.48
-41.53
-45.94
-48.47
-47.91
-43.47
-35.16
-23.82
-10.92
1.94
13.48
22.95
30.09
34.89
37.43
37.72
35.80
31.96
26.74
21.00
15.63
11.37
8.59
7.23
6.87
6.95
6.99
6.80
6.42
6.00
5.66
5.29
4.56
3.12
0.76
-2.43
-6.05
-9.61
-12.70
-15.20
-17.28
-19.34
-21.77
-24.89
-28.80
-33.42
-38.41
-43.19
-46.89
-48.49
-47.03
-41.97
-33.37
-22.00
-9.10
3.94
15.92
25.99
33.65
38.65
40.86
40.33
37.34
32.45
26.53
20.54
15.28
11.27
8.60
7.05
6.30
6.02
6.04
6.29
6.74
7.27
7.58
7.29
6.06
3.74
0.49
-3.30
-7.15
-10.68
-13.73
-16.41
-18.98
-21.74
-24.97
-28.83
-33.35
-38.30
-43.11
-46.89
-48.55
-47.10
-42.02
-33.49
-22.36
-9.90
2.56
13.92
23.42
30.52
34.95
36.53
35.38
31.94
26.99
21.47
16.31
12.20
9.44
8.05
7.85
8.58
9.98
11.72
13.43
14.72
15.27
14.91
13.65
11.67
9.19
6.44
3.55
0.57
-2.53
-5.83
-9.44
-13.50
-18.13
-23.24
-28.41
-32.77
-35.16
-34.41
-29.78
-21.29
-9.77
3.31
16.34
27.94
37.25
43.90
47.76
48.85
47.21
43.08
37.06
30.09
23.30
17.69
13.86
11.82
11.09
11.01
10.99
10.71
10.16
9.50
8.81
8.02
6.86
5.01
2.22
-1.49
-5.85
-10.43
-14.79
-18.69
-22.10
-25.21
-28.37
-31.93
-36.20
-41.35
-47.21
-53.17
-58.15
-60.77
-59.68
-54.08
-44.01
-30.47
-15.09
0.32
14.25
25.82
34.71
40.99
44.81
46.27
45.49
42.66
38.28
33.06
27.83
23.31
19.94
17.83
16.85
16.74
17.25
18.17
19.27
20.28
20.87
20.72
19.62
17.60
14.87
11.69
8.31
4.83
1.17
-2.76
-7.00
-11.39
-15.62
-19.32
-22.25
-24.37
-25.89
-27.28
-29.07
-31.75
-35.56
-40.34
-45.44
-49.71
-51.74
-50.23
-44.39
-34.24
-20.70
-5.30
10.21
24.33
36.06
44.94
50.88
53.99
54.49
52.67
49.03
44.23
39.10
34.40
30.73
28.33
27.06
26.60
26.53
26.56
26.53
26.41
26.24
26.01
25.60
24.82
23.47
21.34
18.40
14.78
10.82
6.96
3.61
1.02
-0.88
-2.42
-4.08
-6.25
-9.04
-12.24
-15.38
-18.02
-19.91
-21.14
-22.09
-23.29
-25.28
-28.40
-32.79
-38.24
-44.12
-49.37
-52.60
-52.44
-47.93
-38.88
-26.10
-11.15
4.10
17.94
29.27
37.64
43.10
45.91
46.35
44.68
41.27
36.75
31.95
27.74
24.76
23.27
23.08
23.75
24.78
25.84
26.78
27.57
28.18
28.53
28.44
27.76
26.33
24.11
21.16
17.67
13.96
10.38
7.26
4.73
2.67
0.80
-1.24
-3.67
-6.51
-9.58
-12.60
-15.30
-17.58
-19.48
-21.19
-23.02
-25.31
-28.41
-32.56
-37.74
-43.43
-48.59
-51.80
-51.63
-47.14
-38.26
-25.88
-11.61
2.77
15.79
26.55
34.73
40.33
43.42
44.00
42.16
38.20
32.80
26.89
21.51
17.44
15.04
14.19
14.43
15.16
15.89
16.36
16.56
16.60
16.60
16.55
16.24
15.43
13.89
11.59
8.73
5.62
2.61
-0.10
-2.48
-4.65
-6.74
-8.89
-11.18
-13.61
-16.13
-18.63
-20.98
-23.03
-24.76
-26.23
-27.69
-29.51
-32.08
-35.70
-40.41
-45.85
-51.18
-55.18
-56.45
-53.84
-46.82
-35.77
-21.87
-6.84
7.61
20.14
30.04
37.14
41.63
43.79
43.83
41.94
38.40
33.70
28.57
23.77
19.95
17.41
16.02
15.42
15.21
15.15
15.20
15.42
15.83
16.27
16.47
16.08
14.93
12.98
10.40
7.46
4.41
1.44
-1.30
-3.79
-6.05
-8.16
-10.21
-12.31
-14.52
-16.85
-19.22
-21.53
-23.66
-25.51
-27.08
-28.49
-29.95
-31.73
-34.15
-37.43
-41.59
-46.28
-50.65
-53.44
-53.32
-49.32
-41.21
-29.65
-15.96
-1.77
11.52
22.94
32.00
38.51
42.44
43.77
42.64
39.38
34.59
29.06
23.62
18.98
15.62
13.73
13.19
13.68
14.74
15.93
16.93
17.58
17.85
17.80
17.42
16.61
15.23
13.13
10.34
7.09
3.73
0.65
-1.91
-3.96
-5.74
-7.58
-9.77
-12.38
-15.28
-18.15
-20.70
-22.77
-24.37
-25.68
-26.96
-28.49
-30.56
-33.40
-37.17
-41.75
-46.68
-50.98
-53.38
-52.59
-47.80
-38.96
-26.92
-13.11
0.82
13.48
23.96
31.87
37.21
40.16
40.97
39.90
37.30
33.60
29.36
25.24
21.78
19.38
18.15
17.92
18.35
19.02
19.63
20.02
20.18
20.17
20.00
19.57
18.69
17.16
14.86
11.89
8.52
5.12
2.00
-0.71
-3.09
-5.35
-7.74
-10.39
-13.28
-16.22
-18.96
-21.33
-23.24
-24.82
-26.28
-27.90
-29.96
-32.64
-36.08
-40.30
-45.11
-49.98
-54.05
-56.19
-55.28
-50.62
-42.16
-30.59
-17.19
-3.39
9.48
20.52
29.23
35.42
39.05
40.20
39.03
35.93
31.53
26.65
22.16
18.76
16.83
16.37
17.08
18.51
20.20
21.79
23.02
23.71
23.71
22.91
21.25
18.80
15.75
12.38
8.96
5.68
2.54
-0.61
-4.01
-7.81
-11.93
-16.12
-19.99
-23.27
-25.88
-28.08
-30.31
-33.11
-36.90
-41.81
-47.53
-53.23
-57.64
-59.30
-57.03
-50.26
-39.36
-25.55
-10.60
3.77
16.23
26.14
33.38
38.13
40.61
40.97
39.33
35.97
31.44
26.53
22.07
18.76
16.88
16.29
16.57
17.22
17.86
18.32
18.57
18.60
18.27
17.33
15.59
12.99
9.72
6.11
2.52
-0.84
-4.02
-7.21
-10.64
-14.36
-18.24
-21.96
-25.22
-27.89
-30.11
-32.21
-34.65
-37.86
-42.04
-47.04
-52.34
-56.93
-59.52
-58.83
-53.96
-44.69
-31.67
-16.31
-0.37
14.46
26.97
36.57
43.20
47.10
48.57
47.96
45.56
41.81
37.21
32.35
27.78
23.93
21.03
19.16
18.29
18.30
18.96
20.00
21.04
21.68
21.56
20.43
18.24
15.08
11.30
7.33
3.58
0.30
-2.54
-5.23
-8.16
-11.59
-15.50
-19.54
-23.25
-26.20
-28.30
-29.78
-31.13
-32.95
-35.77
-39.81
-44.89
-50.26
-54.67
-56.60
-54.67
-48.14
-37.20
-23.00
-7.29
8.10
21.74
32.84
41.18
46.87
50.06
50.87
49.43
46.05
41.35
36.12
31.26
27.48
25.09
24.02
23.88
24.18
24.56
24.82
25.00
25.15
25.27
25.16
24.47
22.88
20.27
16.80
12.87
8.96
5.46
2.50
-0.08
-2.62
-5.43
-8.69
-12.33
-16.09
-19.61
-22.59
-24.93
-26.74
-28.33
-30.12
-32.54
-35.94
-40.51
-46.15
-52.36
-58.17
-62.28
-63.26
-60.04
-52.29
-40.55
-26.12
-10.68
4.20
17.38
28.23
36.54
42.26
45.38
45.93
44.11
40.39
35.54
30.49
26.13
23.08
21.57
21.48
22.46
24.08
25.90
27.59
28.86
29.46
29.21
28.00
25.84
22.87
19.35
15.52
11.60
7.62
3.53
-0.80
-5.43
-10.29
-15.14
-19.66
-23.60
-26.89
-29.71
-32.47
-35.66
-39.71
-44.86
-50.94
-57.28
-62.75
-65.88
-65.29
-60.10
-50.29
-36.74
-21.01
-4.87
10.12
22.92
33.04
40.41
45.12
47.33
47.16
44.87
40.95
36.15
31.39
27.49
24.94
23.77
23.61
23.90
24.19
24.26
24.16
24.03
23.88
23.53
22.61
20.80
17.93
14.15
9.82
5.41
1.36
-2.14
-5.12
-7.85
-10.62
-13.69
-17.10
-20.70
-24.21
-27.35
-29.97
-32.11
-33.98
-35.91
-38.37
-41.75
-46.36
-52.11
-58.35
-63.82
-66.81
-65.67
-59.37
-47.92
-32.44
-14.88
2.66
18.45
31.49
41.50
48.66
53.26
55.51
55.53
53.48
49.71
44.84
39.70
35.07
31.54
29.33
28.32
28.15
28.38
28.69
28.88
28.87
28.66
28.19
27.36
26.04
24.10
21.49
18.24
14.49
10.44
6.36
2.52
-0.83
-3.58
-5.80
-7.70
-9.60
-11.77
-14.30
-17.08
-19.80
-22.21
-24.18
-25.83
-27.42
-29.29
-31.81
-35.27
-39.88
-45.60
-51.95
-57.85
-61.71
-61.86
-57.04
-46.98
-32.58
-15.66
1.66
17.55
30.85
41.15
48.54
53.26
55.57
55.64
53.69
50.11
45.49
40.62
36.25
32.96
30.99
30.20
30.21
30.62
31.06
31.40
31.55
31.48
31.07
30.16
28.56
26.20
23.10
19.35
15.09
10.54
5.92
1.50
-2.41
-5.62
-8.10
-10.01
-11.65
-13.34
-15.28
-17.53
-19.97
-22.38
-24.59
-26.53
-28.29
-30.05
-32.16
-34.93
-38.67
-43.47
-49.10
-54.87
-59.64
-61.98
-60.58
-54.63
-44.19
-30.23
-14.41
1.40
15.59
27.13
35.66
41.27
44.23
44.79
43.15
39.61
34.72
29.34
24.49
21.05
19.49
19.67
21.01
22.72
24.18
25.07
25.41
25.33
24.93
24.14
22.75
20.59
17.60
13.95
9.93
5.90
2.10
-1.39
-4.60
-7.60
-10.43
-13.02
-15.33
-17.36
-19.24
-21.16
-23.26
-25.55
-27.89
-30.08
-31.98
-33.69
-35.45
-37.66
-40.75
-45.01
-50.50
-56.76
-62.81
-67.13
-68.04
-64.21
-55.17
-41.57
-25.01
-7.58
8.78
22.72
33.65
41.51
46.56
49.09
49.39
47.76
44.65
40.62
36.38
32.55
29.59
27.71
26.82
26.64
26.85
27.19
27.47
27.60
27.49
27.01
26.03
24.40
22.08
19.13
15.70
12.01
8.27
4.67
1.32
-1.69
-4.36
-6.65
-8.61
-10.30
-11.87
-13.49
-15.28
-17.33
-19.55
-21.81
-23.97
-25.96
-27.87
-29.88
-32.24
-35.25
-39.17
-44.09
-49.81
-55.65
-60.43
-62.61
-60.80
-54.17
-42.91
-28.17
-11.85
4.10
18.15
29.49
37.97
43.84
47.40
48.82
48.17
45.60
41.47
36.46
31.40
27.04
23.88
22.00
21.22
21.18
21.58
22.25
23.07
23.90
24.50
24.54
23.76
22.05
19.53
16.46
13.23
10.11
7.24
4.61
2.10
-0.42
-2.98
-5.46
-7.70
-9.52
-10.90
-12.02
-13.16
-14.64
-16.59
-18.99
-21.58
-24.07
-26.28
-28.23
-30.18
-32.58
-35.91
-40.46
-46.13
-52.29
-57.77
-61.07
-60.78
-56.00
-46.70
-33.80
-18.88
-3.81
9.81
20.94
29.22
34.76
37.88
38.93
38.15
35.79
32.23
28.05
23.97
20.66
18.59
17.86
18.25
19.34
20.69
21.95
22.92
23.55
23.77
23.54
22.74
21.21
18.85
15.70
11.96
8.02
4.33
1.29
-0.99
-2.68
-4.19
-5.98
-8.37
-11.38
-14.73
-17.95
-20.60
-22.44
-23.57
-24.40
-25.52
-27.59
-31.06
-36.07
-42.29
-48.80
-54.26
-57.15
-56.15
-50.60
-40.74
-27.70
-13.16
1.16
13.92
24.38
32.38
38.07
41.63
43.18
42.76
40.52
36.83
32.34
27.85
24.11
21.66
20.65
20.88
21.92
23.23
24.39
25.11
25.28
24.90
23.97
22.49
20.52
18.10
15.36
12.44
9.47
6.54
3.72
1.05
-1.41
-3.67
-5.79
-7.90
-10.09
-12.32
-14.37
-15.89
-16.64
-16.66
-16.41
-16.62
-18.04
-21.14
-26.00
-32.25
-39.24
-46.12
-51.91
-55.52
-55.90
-52.28
-44.47
-33.15
-19.70
-5.93
6.52
16.54
23.79
28.48
31.04
31.82
30.97
28.51
24.61
19.74
14.69
10.35
7.47
6.42
7.09
9.04
11.62
14.23
16.42
17.93
18.65
18.57
17.72
16.12
13.85
11.06
7.98
4.90
2.14
-0.13
-1.92
-3.47
-5.06
-6.93
-9.10
-11.34
-13.29
-14.69
-15.51
-16.00
-16.60
-17.71
-19.50
-21.87
-24.51
-27.01
-29.10
-30.73
-32.12
-33.71
-35.99
-39.36
-43.94
-49.47
-55.15
-59.80
-62.00
-60.46
-54.40
-43.88
-29.86
-13.94
2.03
16.46
28.37
37.48
44.01
48.36
50.84
51.56
50.56
47.92
44.01
39.50
35.22
31.92
29.98
29.36
29.68
30.41
31.15
31.70
32.06
32.24
32.13
31.49
30.07
27.77
24.72
21.30
17.97
15.08
12.72
10.79
9.02
7.15
5.03
2.71
0.35
-1.79
-3.51
-4.78
-5.73
-6.65
-7.90
-9.73
-12.21
-15.12
-18.11
-20.75
-22.79
-24.30
-25.64
-27.38
-30.10
-34.20
-39.66
-46.01
-52.25
-57.05
-58.93
-56.75
-49.99
-39.05
-25.14
-9.99
4.62
17.39
27.62
35.21
40.36
43.31
44.19
43.08
40.18
36.01
31.32
27.01
23.78
21.96
21.45
21.89
22.89
24.13
25.48
26.85
28.05
28.79
28.71
27.61
25.55
22.82
19.84
17.01
14.51
12.33
10.30
8.19
5.79
3.03
-0.03
-3.19
-6.16
-8.72
-10.76
-12.38
-13.87
-15.60
-17.85
-20.65
-23.81
-26.97
-29.80
-32.18
-34.21
-36.27
-38.82
-42.28
-46.85
-52.30
-57.95
-62.59
-64.75
-63.06
-56.72
-45.81
-31.39
-15.17
0.89
15.17
26.69
35.16
40.79
43.98
45.09
44.38
42.08
38.54
34.29
30.00
26.32
23.70
22.25
21.81
22.04
22.59
23.20
23.76
24.20
24.42
24.29
23.57
22.11
19.82
16.82
13.40
9.96
6.87
4.34
2.37
0.71
-0.94
-2.85
-5.05
-7.37
-9.53
-11.26
-12.52
-13.47
-14.45
-15.79
-17.69
-20.13
-22.92
-25.78
-28.52
-31.03
-33.36
-35.64
-38.11
-41.02
-44.67
-49.19
-54.44
-59.73
-63.85
-65.28
-62.64
-55.23
-43.33
-28.24
-11.84
3.93
17.63
28.55
36.64
42.21
45.65
47.19
46.95
45.03
41.73
37.60
33.33
29.66
27.03
25.55
24.98
24.92
25.02
25.17
25.42
25.92
26.64
27.34
27.59
26.94
25.20
22.47
19.16
15.78
12.72
10.14
7.93
5.89
3.79
1.55
-0.77
-3.04
-5.08
-6.80
-8.19
-9.36
-10.48
-11.80
-13.56
-15.92
-18.86
-22.19
-25.57
-28.64
-31.17
-33.16
-34.87
-36.76
-39.37
-43.17
-48.36
-54.64
-61.12
-66.39
-68.80
-66.94
-60.11
-48.61
-33.74
-17.33
-1.28
12.96
24.59
33.43
39.66
43.58
45.43
45.42
43.79
40.87
37.16
33.27
29.77
27.15
25.62
25.14
25.42
26.11
26.92
27.65
28.19
28.45
28.26
27.43
25.84
23.55
20.78
17.85
15.00
12.23
9.40
6.26
2.71
-1.07
-4.76
-7.96
-10.48
-12.38
-13.98
-15.68
-17.76
-20.28
-23.06
-25.84
-28.36
-30.52
-32.37
-34.12
-36.05
-38.48
-41.73
-45.98
-51.11
-56.48
-60.90
-62.88
-61.02
-54.54
-43.64
-29.49
-13.85
1.43
14.89
25.76
33.83
39.21
42.14
42.78
41.34
38.18
33.86
29.19
24.98
21.86
20.13
19.68
20.14
21.10
22.20
23.27
24.21
24.95
25.31
24.99
23.72
21.38
18.10
14.23
10.28
6.63
3.42
0.49
-2.50
-5.93
-9.94
-14.45
-19.09
-23.47
-27.26
-30.36
-32.89
-35.20
-37.76
-41.10
-45.61
-51.34
-57.81
-63.90
-68.02
-68.51
-64.22
-54.95
-41.58
-25.81
-9.65
5.20
17.66
27.34
34.32
38.83
41.10
41.29
39.61
36.45
32.44
28.27
24.61
21.87
20.17
19.33
19.10
19.23
19.61
20.19
20.88
21.45
21.53
20.73
18.86
15.97
12.37
8.45
4.55
0.83
-2.73
-6.24
-9.85
-13.63
-17.56
-21.48
-25.16
-28.42
-31.12
-33.37
-35.46
-37.90
-41.28
-45.97
-51.95
-58.55
-64.45
-67.93
-67.38
-61.81
-51.21
-36.67
-20.00
-3.20
12.12
24.99
35.12
42.61
47.68
50.48
51.10
49.74
46.80
42.92
38.88
35.36
32.79
31.27
30.59
30.39
30.44
30.58
30.81
31.07
31.15
30.67
29.23
26.56
22.76
18.22
13.54
9.25
5.60
2.50
-0.44
-3.64
-7.35
-11.50
-15.74
-19.61
-22.75
-25.09
-26.88
-28.59
-30.84
-34.15
-38.84
-44.82
-51.51
-57.76
-62.03
-62.75
-58.76
-49.74
-36.41
-20.33
-3.44
12.47
26.17
37.11
45.29
50.91
54.16
55.17
54.03
51.08
46.90
42.34
38.25
35.25
33.54
32.91
32.94
33.23
33.50
33.67
33.69
33.49
32.87
31.62
29.59
26.75
23.21
19.26
15.19
11.30
7.79
4.67
1.78
-1.18
-4.46
-8.17
-12.17
-16.09
-19.51
-22.13
-23.92
-25.16
-26.34
-28.02
-30.69
-34.66
-39.89
-45.93
-51.83
-56.24
-57.71
-55.08
-47.89
-36.60
-22.46
-7.20
7.55
20.55
31.15
39.14
44.56
47.43
47.79
45.79
41.82
36.63
31.13
26.27
22.72
20.72
20.11
20.46
21.34
22.40
23.51
24.60
25.54
26.07
25.83
24.45
21.75
17.87
13.25
8.53
4.25
0.74
-2.09
-4.58
-7.20
-10.27
-13.78
-17.41
-20.68
-23.19
-24.90
-26.16
-27.60
-29.88
-33.50
-38.54
-44.55
-50.64
-55.48
-57.61
-55.78
-49.30
-38.35
-24.03
-8.10
7.55
21.42
32.67
41.17
47.17
50.97
52.67
52.20
49.58
45.18
39.74
34.29
29.77
26.75
25.22
24.76
24.73
24.67
24.36
23.88
23.38
22.91
22.31
21.22
19.30
16.33
12.38
7.75
2.93
-1.58
-5.43
-8.49
-10.90
-13.00
-15.21
-17.83
-20.96
-24.41
-27.82
-30.80
-33.09
-34.73
-36.06
-37.61
-39.91
-43.34
-48.00
-53.60
-59.40
-64.26
-66.76
-65.53
-59.66
-49.06
-34.64
-18.02
-1.12
14.39
27.44
37.65
45.13
50.15
52.93
53.63
52.41
49.57
45.62
41.24
37.07
33.60
31.08
29.46
28.60
28.26
28.27
28.47
28.70
28.76
28.41
27.43
25.68
23.18
20.10
16.68
13.12
9.55
5.98
2.38
-1.28
-4.90
-8.31
-11.31
-13.78
-15.79
-17.53
-19.27
-21.15
-23.19
-25.23
-27.08
-28.62
-29.91
-31.14
-32.66
-34.82
-37.90
-42.08
-47.31
-53.14
-58.67
-62.58
-63.40
-59.92
-51.63
-38.98
-23.29
-6.47
9.61
23.49
34.41
42.25
47.31
49.97
50.55
49.26
46.30
42.03
37.06
32.14
28.06
25.30
23.99
23.85
24.39
25.12
25.72
25.99
25.87
25.30
24.16
22.37
19.89
16.83
13.36
9.72
6.07
2.51
-0.90
-4.12
-7.07
-9.66
-11.85
-13.69
-15.37
-17.12
-19.13
-21.47
-23.99
-26.43
-28.52
-30.13
-31.37
-32.56
-34.12
-36.44
-39.78
-44.10
-48.99
-53.58
-56.61
-56.72
-52.80
-44.41
-32.04
-16.99
-1.04
14.07
27.07
37.31
44.65
49.25
51.27
50.83
48.19
43.82
38.48
33.11
28.50
25.19
23.25
22.42
22.33
22.61
23.03
23.43
23.70
23.64
23.08
21.84
19.86
17.16
13.85
10.04
5.89
1.58
-2.66
-6.61
-10.11
-13.10
-15.65
-17.99
-20.34
-22.92
-25.83
-29.04
-32.38
-35.58
-38.41
-40.72
-42.55
-44.14
-45.90
-48.30
-51.72
-56.29
-61.64
-66.81
-70.33
-70.56
-66.20
-56.75
-42.81
-25.88
-7.97
9.01
23.67
35.34
43.92
49.60
52.64
53.28
51.78
48.54
44.10
39.16
34.37
30.27
27.16
25.09
23.94
23.47
23.43
23.58
23.73
23.71
23.35
22.49
21.00
18.80
15.96
12.65
9.15
5.72
2.54
-0.28
-2.72
-4.84
-6.66
-8.26
-9.75
-11.30
-13.07
-15.16
-17.53
-20.00
-22.32
-24.32
-25.98
-27.53
-29.32
-31.77
-35.23
-39.92
-45.84
-52.71
-59.84
-66.10
-69.99
-69.99
-65.03
-54.92
-40.49
-23.46
-5.93
10.24
23.80
34.28
41.80
46.73
49.40
50.01
48.70
45.70
41.46
36.64
32.04
28.35
25.98
24.99
25.08
25.76
26.56
27.15
27.36
27.16
26.53
25.39
23.59
21.02
17.66
13.68
9.41
5.24
1.47
-1.82
-4.71
-7.41
-10.10
-12.86
-15.68
-18.47
-21.13
-23.61
-25.87
-27.93
-29.76
-31.41
-32.93
-34.53
-36.50
-39.19
-42.81
-47.28
-51.97
-55.75
-57.19
-54.98
-48.36
-37.47
-23.33
-7.50
8.30
22.65
34.65
43.84
50.09
53.38
53.83
51.67
47.37
41.68
35.54
29.93
25.62
23.05
22.17
22.60
23.72
24.96
25.93
26.48
26.59
26.26
25.38
23.72
21.05
17.27
12.58
7.45
2.45
-1.95
-5.61
-8.72
-11.71
-15.01
-18.84
-23.10
-27.42
-31.33
-34.46
-36.72
-38.32
-39.73
-41.53
-44.24
-48.26
-53.61
-59.89
-66.14
-70.98
-72.80
-70.19
-62.44
-49.78
-33.45
-15.39
2.35
18.11
30.95
40.63
47.38
51.58
53.49
53.28
51.08
47.20
42.19
36.85
31.99
28.23
25.82
24.64
24.27
24.28
24.37
24.43
24.49
24.51
24.34
23.61
21.94
19.11
15.22
10.67
6.04
1.84
-1.66
-4.52
-7.04
-9.62
-12.52
-15.78
-19.20
-22.42
-25.11
-27.05
-28.29
-29.10
-29.94
-31.36
-33.87
-37.75
-42.81
-48.28
-52.84
-54.88
-52.95
-46.25
-34.96
-20.21
-3.79
12.45
26.98
38.89
47.84
53.86
57.07
57.62
55.71
51.67
46.11
39.81
33.66
28.37
24.36
21.65
19.96
18.94
18.33
18.01
17.96
18.14
18.36
18.27
17.44
15.57
12.61
8.82
4.69
0.76
-2.60
-5.26
-7.42
-9.43
-11.64
-14.26
-17.21
-20.22
-22.94
-25.13
-26.75
-28.05
-29.39
-31.25
-33.99
-37.83
-42.67
-47.98
-52.80
-55.79
-55.55
-50.98
-41.68
-28.19
-11.87
5.41
21.84
36.00
47.13
55.03
59.82
61.73
61.05
58.10
53.41
47.71
41.88
36.75
32.84
30.29
28.87
28.14
27.70
27.27
26.70
25.85
24.54
22.53
19.59
15.69
11.03
6.02
1.12
-3.37
-7.40
-11.18
-14.99
-19.04
-23.34
-27.67
-31.66
-35.02
-37.60
-39.59
-41.47
-43.90
-47.57
-52.81
-59.41
-66.40
-72.18
-74.94
-73.16
-66.18
-54.40
-39.21
-22.53
-6.29
8.07
19.74
28.54
34.59
38.13
39.30
38.26
35.23
30.67
25.27
19.89
15.30
12.00
10.09
9.33
9.26
9.44
9.55
9.49
9.25
8.86
8.26
7.31
5.80
3.58
0.68
-2.67
-6.06
-9.05
-11.36
-12.97
-14.15
-15.35
-16.94
-19.10
-21.72
-24.50
-27.05
-29.12
-30.66
-31.85
-33.08
-34.83
-37.62
-41.74
-47.14
-53.16
-58.56
-61.69
-60.90
-55.13
-44.25
-29.20
-11.73
6.13
22.56
36.38
47.05
54.54
59.08
60.98
60.52
58.01
53.86
48.60
42.89
37.42
32.81
29.44
27.40
26.48
26.27
26.34
26.41
26.34
26.20
26.02
25.76
25.18
23.94
21.78
18.61
14.66
10.40
6.35
2.94
0.29
-1.73
-3.47
-5.31
-7.51
-10.12
-12.97
-15.77
-18.25
-20.22
-21.75
-23.07
-24.61
-26.85
-30.25
-35.01
-40.99
-47.54
-53.51
-57.48
-58.02
-54.18
-45.75
-33.41
-18.53
-2.82
12.14
25.18
35.65
43.37
48.28
50.44
49.95
47.06
42.34
36.63
30.95
26.17
22.86
21.13
20.72
21.26
22.42
23.98
25.76
27.52
28.89
29.46
28.88
27.00
23.90
19.88
15.34
10.73
6.41
2.62
-0.62
-3.50
-6.31
-9.38
-12.80
-16.44
-19.92
-22.83
-24.98
-26.46
-27.68
-29.20
-31.53
-35.00
-39.57
-44.83
-49.90
-53.56
-54.46
-51.49
-44.13
-32.73
-18.42
-2.83
12.34
25.75
36.60
44.62
49.83
52.36
52.33
49.90
45.42
39.53
33.15
27.26
22.70
19.89
18.74
18.79
19.41
20.08
20.50
20.55
20.25
19.58
18.48
16.81
14.47
11.41
7.72
3.59
-0.70
-4.87
-8.68
-11.99
-14.80
-17.23
-19.42
-21.52
-23.67
-25.88
-28.08
-30.11
-31.79
-33.05
-34.02
-35.11
-36.86
-39.87
-44.43
-50.40
-57.00
-62.89
-66.40
-65.97
-60.56
-50.07
-35.36
-18.12
-0.34
16.12
29.99
40.73
48.33
53.13
55.48
55.64
53.78
50.17
45.25
39.69
34.28
29.71
26.39
24.42
23.57
23.48
23.79
24.21
24.51
24.53
24.08
23.04
21.33
18.94
15.97
12.51
8.72
4.77
0.89
-2.69
-5.80
-8.41
-10.68
-12.89
-15.36
-18.24
-21.44
-24.64
-27.45
-29.54
-30.82
-31.47
-31.89
-32.59
-34.11
-36.88
-41.13
-46.69
-52.85
-58.35
-61.55
-60.89
-55.38
-45.00
-30.76
-14.43
2.01
16.88
29.11
38.36
44.71
48.46
49.88
49.14
46.41
41.98
36.43
30.54
25.20
21.13
18.73
17.96
18.47
19.76
21.36
22.97
24.42
25.58
26.24
26.11
24.91
22.48
18.91
14.62
10.19
6.17
2.92
0.41
-1.72
-3.95
-6.67
-10.01
-13.74
-17.42
-20.60
-22.99
-24.62
-25.79
-27.02
-28.86
-31.78
-36.01
-41.36
-47.14
-52.15
-54.86
-53.86
-48.26
-38.10
-24.35
-8.74
6.83
20.78
32.18
40.74
46.59
49.94
50.93
49.64
46.25
41.21
35.28
29.35
24.25
20.52
18.31
17.39
17.39
17.86
18.50
19.07
19.46
19.50
19.04
17.89
15.91
13.04
9.38
5.19
0.82
-3.36
-7.08
-10.23
-12.88
-15.27
-17.69
-20.41
-23.52
-26.91
-30.28
-33.23
-35.45
-36.86
-37.66
-38.37
-39.61
-41.94
-45.70
-50.81
-56.70
-62.26
-65.99
-66.31
-61.98
-52.59
-38.72
-21.87
-4.06
12.76
27.14
38.29
46.07
50.73
52.68
52.32
50.08
46.41
41.84
36.94
32.26
28.29
25.38
23.63
22.98
23.12
23.71
24.36
24.83
24.95
24.67
23.93
22.70
20.89
18.46
15.40
11.83
7.95
4.05
0.34
-2.99
-5.89
-8.40
-10.63
-12.73
-14.87
-17.18
-19.74
-22.51
-25.33
-27.99
-30.26
-32.06
-33.50
-34.92
-36.82
-39.73
-44.00
-49.56
-55.74
-61.32
-64.69
-64.29
-59.08
-48.91
-34.58
-17.63
0.06
16.75
31.11
42.36
50.24
54.83
56.44
55.48
52.43
47.83
42.32
36.57
31.32
27.17
24.50
23.36
23.44
24.23
25.20
25.97
26.41
26.56
26.49
26.15
25.30
23.62
20.85
16.97
12.24
7.20
2.42
-1.66
-4.91
-7.53
-9.93
-12.51
-15.50
-18.76
-21.94
-24.60
-26.47
-27.59
-28.32
-29.16
-30.60
-32.92
-36.23
-40.42
-45.24
-50.13
-54.22
-56.31
-55.16
-49.85
-40.21
-26.98
-11.64
4.01
18.36
30.38
39.62
46.03
49.74
50.81
49.35
45.60
40.16
33.95
28.03
23.32
20.35
19.10
19.11
19.76
20.48
20.97
21.19
21.23
21.14
20.83
20.03
18.43
15.82
12.20
7.83
3.18
-1.25
-5.07
-8.18
-10.72
-13.07
-15.65
-18.73
-22.32
-26.14
-29.74
-32.72
-34.93
-36.55
-38.05
-40.02
-43.01
-47.30
-52.80
-58.94
-64.65
-68.50
-68.98
-64.88
-55.72
-41.99
-25.11
-7.05
10.19
25.09
36.80
45.15
50.37
52.84
52.91
50.91
47.19
42.25
36.78
31.53
27.19
24.21
22.71
22.48
23.09
24.08
25.07
25.87
26.40
26.64
26.48
25.68
24.00
21.25
17.45
12.87
8.00
3.36
-0.66
-3.92
-6.64
-9.21
-12.05
-15.41
-19.25
-23.28
-27.07
-30.28
-32.78
-34.67
-36.28
-38.01
-40.31
-43.54
-47.89
-53.28
-59.12
-64.29
-67.22
-66.28
-60.33
-49.15
-33.65
-15.59
2.91
19.90
34.05
44.75
51.96
55.97
57.17
55.97
52.80
48.21
42.82
37.36
32.47
28.62
26.06
24.77
24.54
25.10
26.14
27.35
28.48
29.24
29.36
28.64
26.99
24.45
21.19
17.46
13.53
9.63
5.86
2.25
-1.20
-4.51
-7.72
-10.86
-14.00
-17.26
-20.68
-24.22
-27.66
-30.70
-33.09
-34.79
-36.08
-37.49
-39.58
-42.77
-47.20
-52.62
-58.40
-63.51
-66.64
-66.42
-61.81
-52.47
-38.95
-22.68
-5.53
10.68
24.59
35.47
43.14
47.72
49.42
48.48
45.26
40.35
34.57
28.90
24.21
21.12
19.79
19.98
21.17
22.79
24.36
25.67
26.62
27.22
27.37
26.87
25.46
23.00
19.56
15.49
11.29
7.40
4.01
0.97
-2.08
-5.52
-9.52
-13.89
-18.25
-22.11
-25.18
-27.45
-29.25
-31.14
-33.75
-37.60
-42.90
-49.33
-56.03
-61.59
-64.33
-62.77
-56.12
-44.59
-29.44
-12.58
3.93
18.48
30.15
38.74
44.50
47.76
48.78
47.71
44.75
40.32
35.11
30.00
25.82
23.12
22.03
22.27
23.34
24.70
25.98
26.95
27.53
27.66
27.22
26.03
23.88
20.66
16.41
11.36
5.95
0.75
-3.75
-7.29
-9.98
-12.25
-14.67
-17.70
-21.41
-25.50
-29.41
-32.62
-34.92
-36.50
-37.89
-39.74
-42.70
-47.13
-53.04
-59.95
-66.83
-72.13
-74.14
-71.34
-63.00
-49.49
-32.28
-13.53
4.53
20.22
32.66
41.74
47.77
51.18
52.23
51.13
48.11
43.62
38.34
33.06
28.50
25.12
23.04
22.13
22.08
22.55
23.21
23.75
23.86
23.29
21.90
19.83
17.43
15.29
13.96
13.80
14.81
16.65
18.73
20.44
21.31
21.14
19.99
18.09
15.74
13.16
10.48
7.66
4.67
1.49
-1.82
-5.09
-8.10
-10.74
-12.95
-14.88
-16.70
-18.64
-20.83
-23.26
-25.77
-28.16
-30.27
-32.10
-33.81
-35.76
-38.44
-42.33
-47.73
-54.50
-61.88
-68.46
-72.40
-71.93
-65.91
-54.34
-38.37
-20.05
-1.62
15.05
28.88
39.55
47.28
52.40
55.17
55.72
54.25
51.17
47.15
43.05
39.66
37.49
36.63
36.81
37.62
38.66
39.69
40.58
41.24
41.50
41.09
39.72
37.24
33.69
29.38
24.71
20.09
15.72
11.63
7.65
3.63
-0.49
-4.56
-8.36
-11.60
-14.19
-16.22
-17.89
-19.41
-20.87
-22.24
-23.45
-24.46
-25.41
-26.52
-28.11
-30.50
-33.89
-38.33
-43.58
-48.96
-53.34
-55.28
-53.39
-46.88
-35.86
-21.50
-5.62
9.82
23.30
34.00
41.71
46.58
48.78
48.41
45.63
40.86
34.90
28.84
23.73
20.32
18.87
19.10
20.48
22.37
24.22
25.66
26.52
26.76
26.43
25.61
24.38
22.76
20.68
18.10
14.95
11.30
7.32
3.28
-0.52
-3.92
-6.88
-9.51
-12.00
-14.59
-17.40
-20.42
-23.55
-26.57
-29.33
-31.76
-33.97
-36.21
-38.87
-42.35
-46.98
-52.81
-59.40
-65.72
-70.20
-71.10
-67.01
-57.42
-42.97
-25.37
-6.86
10.44
25.05
36.36
44.44
49.66
52.39
52.83
51.15
47.65
42.92
37.73
32.90
29.07
26.52
25.24
24.97
25.41
26.26
27.26
28.19
28.78
28.82
28.09
26.51
24.11
21.07
17.62
13.98
10.30
6.65
3.00
-0.62
-4.14
-7.43
-10.36
-12.95
-15.31
-17.68
-20.27
-23.17
-26.26
-29.30
-32.04
-34.33
-36.24
-38.05
-40.16
-42.99
-46.94
-52.18
-58.47
-65.07
-70.62
-73.39
-71.75
-64.68
-52.20
-35.50
-16.61
2.18
18.94
32.47
42.45
49.10
52.97
54.53
54.11
51.96
48.38
43.85
39.01
34.61
31.27
29.32
28.72
29.14
30.06
31.00
31.62
31.75
31.31
30.26
28.56
26.18
23.16
19.63
15.79
11.85
8.01
4.34
0.88
-2.34
-5.33
-8.04
-10.48
-12.73
-14.95
-17.30
-19.87
-22.58
-25.26
-27.66
-29.69
-31.42
-33.16
-35.35
-38.45
-42.78
-48.40
-55.00
-61.75
-67.39
-70.34
-69.15
-62.96
-51.86
-36.99
-20.20
-3.50
11.45
23.71
33.01
39.53
43.51
45.13
44.51
41.85
37.64
32.66
27.81
23.85
21.22
19.96
19.76
20.22
20.98
21.82
22.66
23.39
23.82
23.66
22.59
20.45
17.31
13.57
9.72
6.22
3.32
0.92
-1.34
-3.89
-7.00
-10.67
-14.59
-18.31
-21.40
-23.69
-25.31
-26.69
-28.39
-30.97
-34.80
-39.88
-45.71
-51.25
-55.09
-55.74
-52.12
-43.88
-31.69
-16.99
-1.61
12.76
24.95
34.38
40.96
44.81
46.10
45.03
41.95
37.43
32.28
27.35
23.38
20.71
19.33
18.93
19.13
19.62
20.25
20.95
21.67
22.20
22.20
21.28
19.14
15.77
11.50
6.89
2.54
-1.17
-4.22
-6.93
-9.81
-13.30
-17.51
-22.19
-26.81
-30.81
-33.85
-35.94
-37.41
-38.85
-40.89
-44.10
-48.76
-54.69
-61.14
-66.76
-69.86
-68.84
-62.70
-51.47
-36.27
-18.97
-1.66
13.94
26.86
36.83
44.06
48.85
51.38
51.73
49.99
46.51
41.92
37.03
32.65
29.31
27.22
26.20
25.94
26.10
26.40
26.71
26.91
26.93
26.62
25.82
24.38
22.20
19.31
15.82
11.95
7.97
4.14
0.60
-2.64
-5.69
-8.71
-11.85
-15.19
-18.69
-22.20
-25.50
-28.42
-30.83
-32.79
-34.47
-36.18
-38.28
-41.14
-45.07
-50.19
-56.20
-62.28
-67.01
-68.71
-65.83
-57.64
-44.46
-27.75
-9.60
7.89
23.17
35.49
44.80
51.36
55.49
57.38
57.14
55.03
51.47
47.11
42.68
38.84
36.01
34.31
33.60
33.55
33.78
34.02
34.11
34.02
33.74
33.15
32.08
30.28
27.63
24.20
20.24
16.13
12.16
8.49
5.06
1.77
-1.47
-4.60
-7.52
-10.11
-12.42
-14.60
-16.87
-19.37
-22.10
-24.89
-27.53
-29.86
-31.95
-34.08
-36.73
-40.41
-45.42
-51.65
-58.36
-64.26
-67.73
-67.24
-61.84
-51.47
-37.06
-20.23
-2.93
13.12
26.75
37.41
45.06
49.85
51.95
51.50
48.70
44.02
38.28
32.49
27.66
24.37
22.70
22.27
22.48
22.84
23.13
23.36
23.59
23.76
23.60
22.73
20.83
17.82
13.92
9.55
5.22
1.29
-2.10
-5.09
-7.98
-11.07
-14.47
-18.06
-21.55
-24.57
-26.92
-28.61
-29.90
-31.19
-32.98
-35.65
-39.40
-44.06
-48.98
-53.03
-54.82
-53.02
-46.84
-36.30
-22.34
-6.56
9.21
23.45
35.20
44.13
50.25
53.69
54.51
52.75
48.69
42.95
36.53
30.54
25.89
22.98
21.65
21.42
21.77
22.35
22.98
23.59
23.94
23.64
22.22
19.39
15.19
10.02
4.57
-0.53
-4.90
-8.51
-11.71
-14.92
-18.47
-22.42
-26.50
-30.30
-33.46
-35.87
-37.76
-39.57
-41.86
-45.09
-49.49
-54.95
-60.88
-66.18
-69.33
-68.76
-63.32
-52.80
-38.08
-20.92
-3.43
12.56
25.94
36.34
43.94
49.03
51.82
52.38
50.79
47.37
42.70
37.60
32.87
29.10
26.56
25.17
24.64
24.63
24.88
25.22
25.50
25.56
25.16
23.99
21.81
18.56
14.38
9.64
4.87
0.54
-3.09
-6.04
-8.64
-11.35
-14.55
-18.33
-22.43
-26.37
-29.68
-32.13
-33.82
-35.22
-36.98
-39.73
-43.88
-49.39
-55.64
-61.46
-65.29
-65.56
-61.12
-51.63
-37.69
-20.74
-2.65
14.73
29.94
42.15
51.08
56.85
59.76
60.14
58.32
54.69
49.78
44.33
39.14
34.91
32.05
30.53
29.96
29.78
29.54
29.02
28.33
27.65
27.08
26.46
25.37
23.34
20.09
15.69
10.59
5.45
0.90
-2.73
-5.47
-7.67
-9.78
-12.18
-15.03
-18.25
-21.60
-24.80
-27.65
-30.04
-32.09
-34.02
-36.20
-39.03
-42.81
-47.61
-53.03
-58.17
-61.69
-62.13
-58.34
-49.88
-37.23
-21.72
-5.11
10.85
24.81
36.00
44.15
49.23
51.32
50.54
47.18
41.83
35.38
28.93
23.52
19.87
18.19
18.18
19.24
20.74
22.19
23.34
24.10
24.44
24.24
23.29
21.40
18.47
14.58
10.07
5.38
1.01
-2.75
-5.88
-8.62
-11.35
-14.41
-17.88
-21.57
-25.08
-28.01
-30.15
-31.61
-32.77
-34.16
-36.30
-39.57
-44.09
-49.66
-55.59
-60.72
-63.50
-62.42
-56.42
-45.43
-30.41
-13.21
4.05
19.57
32.23
41.70
48.18
52.01
53.46
52.67
49.82
45.27
39.69
33.93
28.81
24.92
22.51
21.44
21.33
21.75
22.31
22.77
22.97
22.81
22.23
21.11
19.35
16.92
13.83
10.17
6.13
1.92
-2.19
-5.97
-9.24
-11.99
-14.35
-16.55
-18.86
-21.48
-24.42
-27.55
-30.58
-33.27
-35.45
-37.14
-38.59
-40.16
-42.36
-45.61
-50.19
-55.95
-62.20
-67.67
-70.65
-69.53
-63.22
-51.62
-35.73
-17.35
1.41
18.68
33.19
44.36
52.17
56.83
58.66
57.95
55.07
50.52
44.96
39.19
33.96
29.83
27.06
25.56
25.01
25.00
25.19
25.38
25.47
25.38
24.99
24.13
22.62
20.42
17.59
14.33
10.86
7.35
3.92
0.59
-2.59
-5.52
-8.12
-10.34
-12.28
-14.16
-16.27
-18.81
-21.78
-24.96
-27.99
-30.56
-32.55
-34.12
-35.62
-37.51
-40.26
-44.19
-49.34
-55.34
-61.27
-65.71
-67.09
-64.09
-56.10
-43.55
-27.80
-10.78
5.60
19.87
31.26
39.60
44.99
47.62
47.62
45.16
40.60
34.66
28.27
22.44
17.96
15.17
13.98
13.96
14.63
15.63
16.82
18.12
19.47
20.58
21.05
20.45
18.54
15.42
11.47
7.28
3.31
-0.18
-3.23
-6.10
-9.09
-12.38
-15.96
-19.60
-23.00
-25.85
-27.96
-29.36
-30.31
-31.26
-32.79
-35.41
-39.39
-44.64
-50.49
-55.78
-58.99
-58.60
-53.53
-43.53
-29.34
-12.56
4.80
20.80
34.09
44.07
50.75
54.50
55.71
54.67
51.58
46.76
40.79
34.51
28.87
24.62
22.10
21.18
21.35
21.99
22.62
23.00
23.07
22.83
22.26
21.16
19.35
16.66
13.09
8.84
4.26
-0.23
-4.24
-7.53
-10.13
-12.24
-14.27
-16.59
-19.44
-22.78
-26.37
-29.79
-32.72
-34.98
-36.68
-38.18
-39.99
-42.68
-46.71
-52.25
-58.97
-65.87
-71.40
-73.68
-71.12
-62.89
-49.30
-31.77
-12.40
6.57
23.33
36.78
46.58
52.89
56.11
56.69
55.07
51.67
47.00
41.68
36.39
31.76
28.22
25.90
24.67
24.24
24.27
24.49
24.71
24.78
24.57
23.91
22.66
20.72
18.03
14.64
10.64
6.24
1.72
-2.59
-6.40
-9.58
-12.22
-14.61
-17.06
-19.83
-22.93
-26.15
-29.15
-31.62
-33.43
-34.67
-35.67
-36.91
-38.94
-42.27
-47.21
-53.66
-60.89
-67.53
-71.75
-71.77
-66.42
-55.56
-40.18
-22.12
-3.52
13.71
28.26
39.54
47.48
52.34
54.44
54.10
51.65
47.50
42.31
36.88
32.05
28.46
26.37
25.60
25.69
26.13
26.57
26.90
27.17
27.40
27.42
26.91
25.52
23.03
19.49
15.22
10.72
6.43
2.63
-0.66
-3.61
-6.52
-9.62
-12.99
-16.58
-20.13
-23.38
-26.09
-28.22
-29.89
-31.46
-33.38
-36.13
-40.04
-45.07
-50.72
-55.96
-59.36
-59.45
-55.16
-46.18
-33.15
-17.47
-0.94
14.77
28.44
39.42
47.52
52.73
55.10
54.66
51.64
46.57
40.33
34.04
28.75
25.14
23.40
23.23
24.04
25.23
26.38
27.27
27.84
28.01
27.70
26.76
25.06
22.51
19.13
15.05
10.50
5.80
1.29
-2.78
-6.36
-9.64
-12.98
-16.72
-20.98
-25.53
-29.88
-33.50
-36.09
-37.74
-38.93
-40.33
-42.54
-46.04
-50.99
-57.21
-64.04
-70.32
-74.39
-74.45
-69.11
-57.95
-41.83
-22.72
-3.05
14.97
29.92
41.32
49.32
54.33
56.69
56.58
54.22
50.05
44.76
39.27
34.41
30.73
28.40
27.24
26.91
27.08
27.53
28.11
28.70
29.10
29.01
28.14
26.27
23.36
19.59
15.25
10.65
6.14
1.99
-1.57
-4.44
-6.73
-8.72
-10.86
-13.52
-16.87
-20.70
-24.59
-28.01
-30.66
-32.58
-34.13
-35.91
-38.47
-42.26
-47.44
-53.78
-60.55
-66.42
-69.70
-68.66
-62.19
-50.21
-33.84
-15.07
3.79
20.83
34.89
45.56
52.96
57.38
59.11
58.38
55.54
51.11
45.82
40.47
35.79
32.28
30.07
29.03
28.83
29.08
29.50
29.91
30.18
30.20
29.75
28.56
26.39
23.13
18.95
14.23
9.46
5.05
1.22
-2.10
-5.17
-8.32
-11.80
-15.64
-19.65
-23.48
-26.82
-29.48
-31.49
-33.14
-34.88
-37.24
-40.62
-45.17
-50.52
-55.79
-59.56
-60.28
-56.67
-48.23
-35.46
-19.77
-3.08
12.78
26.45
37.24
44.96
49.64
51.35
50.20
46.47
40.83
34.28
28.00
22.99
19.82
18.51
18.69
19.77
21.25
22.80
24.20
25.29
25.83
25.57
24.31
22.00
18.79
15.03
11.06
7.13
3.33
-0.47
-4.44
-8.71
-13.21
-17.66
-21.74
-25.17
-27.88
-30.10
-32.35
-35.23
-39.30
-44.72
-51.08
-57.30
-61.75
-62.65
-58.65
-49.33
-35.40
-18.54
-0.88
15.64
29.67
40.62
48.44
53.29
55.34
54.73
51.68
46.66
40.43
33.90
27.97
23.24
19.96
18.07
17.27
17.22
17.58
18.09
18.54
18.68
18.25
17.00
14.77
11.58
7.69
3.53
-0.48
-4.06
-7.23
-10.27
-13.53
-17.23
-21.30
-25.41
-29.08
-31.90
-33.79
-34.99
-36.10
-37.86
-40.96
-45.70
-51.81
-58.28
-63.50
-65.59
-63.02
-55.05
-42.09
-25.56
-7.47
10.13
25.67
38.27
47.66
53.97
57.43
58.23
56.57
52.78
47.42
41.30
35.33
30.27
26.54
24.14
22.76
22.01
21.60
21.45
21.60
22.03
22.56
22.80
22.27
20.59
17.66
13.70
9.20
4.72
0.71
-2.67
-5.56
-8.34
-11.40
-14.94
-18.88
-22.88
-26.49
-29.38
-31.46
-32.94
-34.24
-35.91
-38.42
-42.09
-46.93
-52.53
-58.02
-62.10
-63.31
-60.35
-52.59
-40.30
-24.68
-7.57
9.10
23.71
35.32
43.62
48.79
51.16
51.03
48.68
44.46
38.91
32.79
27.04
22.46
19.54
18.30
18.36
19.16
20.17
21.08
21.75
22.18
22.26
21.80
20.52
18.24
15.03
11.20
7.21
3.48
0.20
-2.70
-5.47
-8.37
-11.50
-14.74
-17.84
-20.54
-22.74
-24.58
-26.42
-28.72
-31.93
-36.25
-41.52
-47.12
-51.88
-54.38
-53.24
-47.60
-37.46
-23.78
-8.28
7.09
20.63
31.31
38.81
43.32
45.23
44.89
42.52
38.38
32.91
26.82
21.04
16.45
13.65
12.74
13.37
14.83
16.40
17.50
17.89
17.57
16.69
15.40
13.73
11.57
8.79
5.31
1.16
-3.50
-8.42
-13.34
-18.06
-22.43
-26.40
-29.96
-33.19
-36.28
-39.51
-43.22
-47.71
-52.97
-58.53
-63.33
-65.90
-64.76
-58.95
-48.43
-34.17
-17.87
-1.45
13.48
25.87
35.24
41.53
44.84
45.36
43.37
39.39
34.16
28.57
23.48
19.48
16.80
15.27
14.52
14.14
13.87
13.63
13.47
13.41
13.31
12.83
11.52
9.00
5.15
0.16
-5.41
-10.93
-15.85
-19.95
-23.37
-26.56
-30.09
-34.48
-39.93
-46.20
-52.52
-57.63
-60.06
-58.45
-52.06
-41.05
-26.51
-10.19
5.99
20.46
32.24
40.99
46.73
49.61
49.77
47.42
42.98
37.16
30.88
25.07
20.39
17.07
14.97
13.69
12.86
12.29
11.94
11.84
11.91
11.88
11.33
9.80
7.04
3.07
-1.73
-6.79
-11.54
-15.62
-19.02
-22.04
-25.20
-29.02
-33.77
-39.31
-45.01
-49.73
-52.11
-50.83
-45.08
-34.83
-20.94
-4.98
11.18
25.84
37.86
46.71
52.35
54.96
54.75
51.94
46.85
40.10
32.62
25.50
19.71
15.79
13.75
13.11
13.23
13.57
13.89
14.23
14.70
15.28
15.67
15.34
13.76
10.63
6.04
0.48
-5.37
-10.83
-15.50
-19.38
-22.75
-26.11
-29.93
-34.54
-40.02
-46.06
-51.91
-56.41
-58.19
-56.00
-49.21
-38.03
-23.62
-7.73
7.74
21.24
31.83
39.17
43.30
44.40
42.70
38.52
32.44
25.32
18.24
12.22
7.94
5.56
4.78
5.06
5.89
6.96
8.11
9.23
10.09
10.31
9.52
7.50
4.36
0.46
-3.71
-7.73
-11.40
-14.82
-18.22
-21.99
-26.48
-31.87
-37.96
-44.06
-48.89
-50.93
-48.82
-41.89
-30.50
-16.04
-0.45
14.28
26.68
35.98
42.02
44.94
44.97
42.34
37.39
30.70
23.16
15.81
9.56
5.02
2.33
1.24
1.29
1.96
2.82
3.50
3.71
3.22
1.90
-0.22
-2.98
-6.13
-9.44
-12.84
-16.43
-20.47
-25.24
-30.92
-37.34
-43.92
-49.55
-52.81
-52.28
-47.01
-36.91
-22.93
-6.78
9.49
24.12
35.95
44.59
50.08
52.66
52.49
49.68
44.46
37.35
29.23
21.15
14.13
8.88
5.68
4.36
4.41
5.13
5.87
6.13
5.68
4.51
2.80
0.75
-1.54
-4.10
-7.07
-10.60
-14.82
-19.82
-25.62
-32.01
-38.44
-43.86
-46.90
-46.19
-40.83
-30.84
-17.22
-1.71
13.73
27.44
38.39
46.12
50.58
51.86
50.10
45.59
38.85
30.71
22.21
14.44
8.26
4.11
1.95
1.33
1.57
2.02
2.19
1.87
1.06
-0.13
-1.61
-3.39
-5.60
-8.43
-12.04
-16.53
-21.92
-28.02
-34.38
-40.22
-44.46
-45.90
-43.58
-37.08
-26.78
-13.75
0.45
14.25
26.33
35.87
42.45
45.94
46.34
43.78
38.56
31.26
22.78
14.21
6.63
0.85
-2.78
-4.44
-4.69
-4.27
-3.84
-3.82
-4.35
-5.35
-6.72
-8.37
-10.36
-12.81
-15.86
-19.60
-24.15
-29.52
-35.62
-42.02
-47.81
-51.68
-52.13
-48.04
-39.06
-25.88
-10.06
6.38
21.55
34.06
43.22
48.89
51.27
50.69
47.50
42.16
35.28
27.65
20.18
13.68
8.77
5.65
4.11
3.66
3.67
3.61
3.17
2.26
0.96
-0.60
-2.38
-4.44
-6.91
-9.92
-13.52
-17.72
-22.55
-28.08
-34.36
-41.18
-47.83
-53.02
-55.09
-52.51
-44.51
-31.48
-14.92
2.92
19.77
33.89
44.37
51.03
54.11
54.01
51.15
46.06
39.49
32.39
25.77
20.38
16.52
14.04
12.49
11.42
10.60
10.01
9.73
9.76
9.85
9.58
8.46
6.19
2.74
-1.59
-6.30
-10.81
-14.70
-17.87
-20.62
-23.56
-27.43
-32.73
-39.36
-46.41
-52.20
-54.74
-52.31
-44.15
-30.76
-13.79
4.47
21.80
36.54
47.90
55.76
60.39
62.12
61.18
57.83
52.43
45.66
38.41
31.63
26.09
22.22
20.03
19.21
19.24
19.58
19.81
19.65
18.97
17.77
16.08
13.89
11.23
8.04
4.30
0.04
-4.62
-9.50
-14.32
-18.84
-22.84
-26.25
-29.12
-31.64
-34.13
-36.98
-40.56
-45.12
-50.55
-56.26
-60.99
-63.12
-61.03
-53.69
-41.18
-24.74
-6.51
11.15
26.32
37.89
45.59
49.71
50.75
49.18
45.41
39.88
33.24
26.26
19.81
14.55
10.83
8.63
7.64
7.43
7.66
8.12
8.71
9.36
9.87
9.94
9.21
7.49
4.84
1.56
-1.92
-5.26
-8.36
-11.36
-14.54
-18.02
-21.66
-25.08
-27.84
-29.66
-30.69
-31.36
-32.33
-34.21
-37.34
-41.71
-46.85
-51.78
-55.14
-55.37
-51.16
-41.91
-28.11
-11.29
6.38
22.77
36.29
46.24
52.60
55.70
55.87
53.41
48.64
42.19
34.95
27.95
22.07
17.77
15.04
13.58
13.02
13.08
13.66
14.71
16.07
17.40
18.20
17.99
16.45
13.59
9.78
5.59
1.62
-1.77
-4.59
-7.15
-9.86
-13.04
-16.68
-20.52
-24.14
-27.19
-29.62
-31.63
-33.66
-36.17
-39.54
-43.91
-49.02
-54.16
-58.14
-59.55
-57.10
-50.15
-38.95
-24.72
-9.23
5.69
18.62
28.81
36.02
40.24
41.54
39.96
35.80
29.68
22.64
15.90
10.51
7.08
5.62
5.68
6.62
7.85
9.05
10.09
10.99
11.68
12.02
11.73
10.56
8.37
5.23
1.44
-2.57
-6.33
-9.54
-12.05
-14.03
-15.85
-18.04
-21.08
-25.22
-30.28
-35.57
-40.00
-42.26
-41.21
-36.19
-27.23
-15.14
-1.25
12.88
25.78
36.32
43.85
48.16
49.31
47.57
43.35
37.22
29.92
22.36
15.46
9.94
6.14
3.95
2.93
2.47
2.13
1.72
1.28
0.93
0.65
0.20
-0.84
-2.87
-6.07
-10.27
-15.01
-19.74
-23.93
-27.40
-30.28
-32.98
-36.03
-39.92
-44.90
-50.83
-57.09
-62.57
-65.80
-65.33
-60.12
-49.97
-35.67
-18.84
-1.43
14.75
28.44
39.03
46.36
50.47
51.42
49.32
44.54
37.84
30.30
23.13
17.28
13.24
10.90
9.75
9.18
8.76
8.35
8.05
8.02
8.28
8.57
8.42
7.30
4.85
1.02
-3.85
-9.17
-14.30
-18.76
-22.42
-25.51
-28.48
-31.86
-36.08
-41.29
-47.23
-53.12
-57.64
-59.21
-56.45
-48.64
-36.15
-20.36
-3.26
13.13
27.29
38.43
46.33
51.07
52.77
51.52
47.61
41.58
34.38
27.11
20.81
16.14
13.24
11.86
11.48
11.65
12.08
12.67
13.38
14.10
14.52
14.21
12.71
9.79
5.51
0.25
-5.38
-10.72
-15.32
-19.04
-22.11
-25.07
-28.53
-32.99
-38.58
-45.00
-51.44
-56.73
-59.45
-58.34
-52.63
-42.32
-28.31
-12.21
4.04
18.68
30.48
38.89
43.88
45.70
44.72
41.34
36.09
29.66
22.94
16.82
12.03
8.95
7.51
7.35
7.99
9.02
10.14
11.15
11.86
12.00
11.30
9.56
6.80
3.26
-0.65
-4.53
-8.10
-11.37
-14.62
-18.27
-22.71
-28.10
-34.13
-39.91
-44.09
-45.14
-41.87
-33.82
-21.54
-6.47
9.48
24.43
36.98
46.37
52.33
54.93
54.35
50.84
44.91
37.35
29.27
21.84
15.96
12.02
9.81
8.68
7.89
6.97
5.82
4.71
3.94
3.63
3.55
3.14
1.75
-1.00
-5.12
-10.14
-15.40
-20.24
-24.32
-27.72
-30.80
-34.07
-38.00
-42.84
-48.60
-54.88
-60.86
-65.24
-66.46
-63.14
-54.59
-41.16
-24.28
-6.05
11.41
26.48
38.33
46.81
52.07
54.27
53.53
50.03
44.24
37.04
29.61
23.10
18.36
15.73
15.00
15.60
16.80
17.92
18.52
18.41
17.62
16.33
14.71
12.85
10.67
8.04
4.77
0.81
-3.72
-8.49
-13.14
-17.36
-21.01
-24.19
-27.10
-30.01
-33.16
-36.77
-40.98
-45.79
-50.86
-55.35
-57.92
-57.04
-51.49
-40.89
-26.00
-8.56
9.24
25.40
38.60
48.36
54.76
58.17
58.87
57.10
53.09
47.31
40.55
33.78
27.95
23.68
21.15
20.07
19.95
20.27
20.69
21.06
21.33
21.38
20.95
19.74
17.56
14.44
10.75
6.99
3.60
0.78
-1.66
-4.14
-7.10
-10.73
-14.86
-19.05
-22.77
-25.66
-27.72
-29.31
-31.00
-33.41
-37.03
-42.02
-48.06
-54.31
-59.39
-61.71
-59.84
-53.05
-41.59
-26.66
-10.13
6.08
20.46
32.11
40.68
46.15
48.56
48.03
44.77
39.35
32.66
25.80
19.86
15.66
13.51
13.22
14.22
15.77
17.22
18.23
18.74
18.87
18.75
18.35
17.39
15.57
12.64
8.64
3.93
-0.93
-5.41
-9.13
-12.06
-14.45
-16.70
-19.23
-22.39
-26.32
-31.00
-36.15
-41.18
-45.18
-46.97
-45.40
-39.64
-29.60
-16.04
-0.45
15.28
29.38
40.66
48.58
53.22
54.89
53.96
50.70
45.43
38.68
31.28
24.29
18.71
15.17
13.73
13.89
14.83
15.76
16.17
15.91
15.11
13.95
12.52
10.71
8.26
4.91
0.51
-4.83
-10.73
-16.68
-22.19
-26.94
-30.89
-34.29
-37.53
-41.02
-45.09
-49.89
-55.35
-61.02
-66.06
-69.15
-68.84
-63.89
-53.84
-39.28
-21.78
-3.48
13.56
27.87
38.79
46.29
50.65
52.18
51.09
47.55
41.98
35.11
27.99
21.72
17.22
14.82
14.30
14.97
15.94
16.55
16.47
15.79
14.72
13.47
12.02
10.20
7.75
4.49
0.43
-4.20
-9.06
-13.78
-18.05
-21.74
-24.85
-27.57
-30.19
-33.07
-36.58
-40.98
-46.29
-52.09
-57.42
-60.88
-60.89
-56.25
-46.58
-32.60
-15.95
1.30
17.25
30.63
40.87
47.97
52.16
53.68
52.75
49.62
44.70
38.69
32.41
26.73
22.33
19.54
18.34
18.38
19.17
20.19
21.03
21.43
21.25
20.41
18.88
16.64
13.73
10.24
6.31
2.09
-2.30
-6.77
-11.21
-15.50
-19.43
-22.80
-25.52
-27.66
-29.51
-31.52
-34.18
-37.90
-42.77
-48.39
-53.77
-57.45
-57.84
-53.72
-44.71
-31.45
-15.48
1.22
16.75
29.80
39.70
46.34
49.88
50.56
48.69
44.66
39.09
32.82
26.77
21.80
18.44
16.85
16.78
17.75
19.14
20.46
21.37
21.70
21.45
20.63
19.27
17.35
14.81
11.63
7.88
3.73
-0.55
-4.68
-8.46
-11.78
-14.67
-17.24
-19.64
-21.99
-24.40
-27.02
-30.04
-33.59
-37.63
-41.70
-44.89
-45.91
-43.50
-36.87
-26.07
-12.07
3.50
18.84
32.41
43.26
50.97
55.49
56.91
55.40
51.31
45.27
38.20
31.21
25.27
21.03
18.62
17.79
18.05
18.91
19.98
20.95
21.59
21.63
20.80
18.94
16.08
12.42
8.34
4.17
0.07
-3.97
-8.16
-12.65
-17.47
-22.43
-27.15
-31.24
-34.48
-36.86
-38.63
-40.24
-42.22
-45.12
-49.29
-54.70
-60.73
-66.11
-69.08
-67.89
-61.39
-49.52
-33.40
-15.06
3.25
19.65
33.06
43.18
50.16
54.28
55.68
54.44
50.76
45.22
38.75
32.52
27.52
24.32
22.87
22.68
23.06
23.46
23.63
23.60
23.48
23.26
22.72
21.50
19.26
15.90
11.62
6.86
2.15
-2.04
-5.49
-8.29
-10.78
-13.41
-16.54
-20.30
-24.44
-28.44
-31.68
-33.76
-34.67
-34.88
-35.17
-36.36
-39.04
-43.34
-48.85
-54.60
-59.16
-60.91
-58.40
-50.77
-38.11
-21.54
-3.03
15.19
31.17
43.69
52.39
57.52
59.59
59.06
56.24
51.44
45.14
38.13
31.43
25.97
22.32
20.57
20.33
20.95
21.83
22.57
23.01
23.14
23.00
22.53
21.59
20.04
17.81
14.93
11.56
7.94
4.30
0.87
-2.24
-4.96
-7.36
-9.59
-11.85
-14.31
-17.03
-19.91
-22.74
-25.27
-27.35
-29.02
-30.51
-32.14
-34.29
-37.32
-41.44
-46.69
-52.68
-58.54
-62.85
-63.95
-60.43
-51.67
-38.21
-21.66
-4.18
12.11
25.77
36.16
43.31
47.51
49.07
48.18
45.11
40.29
34.53
28.82
24.13
21.12
19.97
20.38
21.72
23.35
24.78
25.76
26.32
26.54
26.46
25.99
24.94
23.08
20.33
16.75
12.62
8.31
4.21
0.58
-2.56
-5.37
-8.16
-11.20
-14.59
-18.22
-21.77
-24.90
-27.39
-29.23
-30.63
-31.95
-33.61
-35.99
-39.43
-44.08
-49.76
-55.78
-60.91
-63.52
-62.02
-55.43
-43.82
-28.41
-11.17
5.67
20.35
31.85
39.97
44.99
47.31
47.22
44.93
40.70
35.05
28.79
22.84
18.04
14.83
13.28
13.10
13.83
15.04
16.38
17.59
18.46
18.75
18.31
17.07
15.11
12.60
9.76
6.74
3.62
0.41
-2.84
-6.02
-8.97
-11.48
-13.46
-15.00
-16.30
-17.72
-19.53
-21.88
-24.70
-27.70
-30.52
-32.88
-34.69
-36.15
-37.68
-39.83
-43.07
-47.60
-53.13
-58.80
-63.19
-64.60
-61.52
-53.14
-39.74
-22.70
-4.13
13.69
29.00
40.79
48.86
53.53
55.28
54.57
51.78
47.32
41.76
35.82
30.25
25.71
22.53
20.77
20.22
20.50
21.27
22.21
23.08
23.66
23.79
23.32
22.21
20.50
18.28
15.65
12.66
9.35
5.77
2.06
-1.56
-4.90
-7.78
-10.21
-12.31
-14.30
-16.40
-18.72
-21.19
-23.66
-25.88
-27.71
-29.16
-30.42
-31.80
-33.69
-36.44
-40.27
-45.22
-51.02
-56.94
-61.80
-64.15
-62.59
-56.27
-45.24
-30.56
-13.94
2.65
17.56
29.76
38.81
44.71
47.61
47.75
45.39
40.98
35.21
28.99
23.29
18.89
16.18
15.16
15.43
16.45
17.74
19.04
20.25
21.43
22.52
23.34
23.54
22.69
20.52
17.06
12.69
8.04
3.75
0.22
-2.55
-4.92
-7.35
-10.14
-13.27
-16.46
-19.31
-21.56
-23.23
-24.64
-26.24
-28.46
-31.65
-35.96
-41.23
-46.92
-51.97
-54.95
-54.38
-49.18
-39.15
-25.13
-8.81
7.74
22.68
34.76
43.48
48.89
51.33
51.16
48.71
44.32
38.49
31.94
25.54
20.15
16.32
14.18
13.40
13.42
13.71
13.97
14.17
14.43
14.82
15.20
15.22
14.42
12.43
9.19
4.96
0.25
-4.31
-8.25
-11.38
-13.86
-16.08
-18.44
-21.22
-24.40
-27.71
-30.76
-33.22
-34.96
-36.16
-37.17
-38.56
-40.87
-44.55
-49.71
-55.95
-62.18
-66.78
-67.91
-64.11
-54.80
-40.56
-23.02
-4.33
13.42
28.74
40.85
49.61
55.20
57.82
57.70
55.10
50.52
44.75
38.76
33.47
29.50
26.97
25.62
24.97
24.56
24.21
23.95
23.93
24.18
24.46
24.36
23.35
21.05
17.45
12.89
8.00
3.42
-0.41
-3.42
-5.91
-8.36
-11.17
-14.47
-18.09
-21.63
-24.74
-27.18
-29.00
-30.45
-31.92
-33.85
-36.65
-40.64
-45.81
-51.65
-57.04
-60.38
-59.99
-54.69
-44.26
-29.55
-12.32
5.35
21.61
35.17
45.45
52.36
56.10
56.97
55.28
51.47
46.10
39.92
33.72
28.26
24.03
21.23
19.72
19.20
19.27
19.67
20.16
20.58
20.73
20.38
19.28
17.35
14.65
11.39
7.84
4.20
0.55
-3.15
-6.97
-10.90
-14.82
-18.57
-21.92
-24.74
-26.96
-28.70
-30.23
-31.92
-34.25
-37.50
-41.66
-46.10
-49.63
-50.71
-47.96
-40.66
-29.13
-14.64
0.94
15.75
28.43
38.28
45.17
49.23
50.58
49.30
45.53
39.71
32.60
25.28
18.79
13.98
11.22
10.36
10.89
12.14
13.43
14.31
14.54
14.09
13.03
11.44
9.36
6.81
3.78
0.29
-3.57
-7.70
-11.96
-16.19
-20.21
-23.87
-27.05
-29.76
-32.18
-34.59
-37.42
-41.02
-45.53
-50.68
-55.65
-59.15
-59.65
-55.90
-47.35
-34.50
-18.78
-2.17
13.32
26.24
35.91
42.32
45.85
46.94
45.88
42.83
38.04
31.95
25.31
19.03
13.99
10.70
9.21
9.12
9.79
10.57
11.06
11.18
11.09
10.94
10.75
10.30
9.17
7.01
3.66
-0.69
-5.56
-10.34
-14.57
-18.05
-20.86
-23.33
-25.79
-28.53
-31.79
-35.69
-40.26
-45.18
-49.72
-52.69
-52.65
-48.43
-39.53
-26.42
-10.50
6.31
22.13
35.54
45.80
52.82
56.87
58.29
57.35
54.28
49.41
43.33
36.87
30.99
26.48
23.70
22.47
22.22
22.26
22.11
21.62
20.94
20.28
19.67
18.85
17.40
14.89
11.19
6.54
1.46
-3.42
-7.59
-10.90
-13.52
-15.86
-18.40
-21.52
-25.42
-30.00
-34.86
-39.24
-42.11
-42.30
-38.84
-31.32
-20.04
-6.08
8.99
23.55
36.33
46.56
53.98
58.59
60.43
59.58
56.21
50.78
44.13
37.36
31.60
27.65
25.78
25.70
26.82
28.48
30.26
32.08
34.10
36.46
39.12
41.67
43.48
43.85
42.28
38.65
33.25
26.74
19.86
13.29
7.41
2.24
-2.54
-7.45
-12.97
-19.26
-25.89
-31.81
-35.44
-35.11
-29.55
-18.40
-2.41
16.59
36.14
53.70
67.23
75.60
78.64
76.97
71.68
63.97
54.95
45.55
36.55
28.53
21.83
16.57
12.54
9.29
6.29
3.05
-0.77
-5.35
-10.71
-16.77
-23.34
-30.20
-37.01
-43.50
-49.51
-55.01
-60.12
-64.96
-69.61
-74.07
-78.31
-82.31
-86.18
-90.04
-94.04
-98.26
-102.76
-107.54
-112.48
-117.17
-120.70
-121.69
-118.52
-109.86
-95.26
-75.47
-52.33
-28.28
-5.72
13.55
28.39
38.29
43.16
43.26
39.17
31.92
22.86
13.38
4.61
-2.83
-8.86
-13.70
-17.62
-20.72
-22.91
-24.00
-23.91
-22.72
-20.72
-18.32
-15.93
-13.94
-12.69
-12.41
-13.25
-15.21
-18.13
-21.70
-25.51
-29.13
-32.16
-34.41
-35.88
-36.80
-37.51
-38.36
-39.46
-40.67
-41.66
-42.06
-41.72
-40.79
-39.72
-39.14
-39.67
-41.78
-45.60
-50.75
-56.24
-60.49
-61.64
-58.05
-48.95
-34.79
-17.21
1.46
18.96
33.69
44.93
52.69
57.35
59.34
58.97
56.55
52.50
47.44
42.12
37.30
33.53
31.08
29.84
29.51
29.68
30.04
30.50
31.11
31.91
32.78
33.36
33.15
31.72
28.95
25.08
20.66
16.27
12.34
8.94
5.88
2.84
-0.42
-3.93
-7.51
-10.89
-13.83
-16.20
-18.07
-19.57
-20.94
-22.45
-24.44
-27.25
-31.13
-35.90
-40.84
-44.65
-45.71
-42.65
-34.84
-22.71
-7.61
8.59
24.03
37.38
47.93
55.52
60.32
62.53
62.31
59.83
55.42
49.65
43.29
37.19
32.05
28.28
25.96
24.95
24.99
25.80
27.09
28.51
29.63
29.97
29.19
27.19
24.23
20.73
17.20
13.92
10.91
7.93
4.65
0.86
-3.45
-8.05
-12.59
-16.74
-20.32
-23.34
-26.03
-28.78
-32.11
-36.47
-42.04
-48.41
-54.45
-58.46
-58.61
-53.55
-42.95
-27.70
-9.67
8.80
25.61
39.34
49.36
55.73
58.83
59.14
57.06
52.97
47.33
40.72
33.86
27.51
22.31
18.65
16.58
15.83
15.95
16.46
16.95
17.11
16.77
15.83
14.17
11.75
8.54
4.61
0.18
-4.55
-9.36
-14.18
-19.01
-23.85
-28.65
-33.17
-37.12
-40.24
-42.47
-44.02
-45.36
-47.06
-49.56
-52.89
-56.43
-58.97
-58.95
-54.88
-45.92
-32.24
-15.08
3.62
21.73
37.50
49.90
58.63
63.92
66.22
65.96
63.50
59.17
53.39
46.73
39.93
33.72
28.66
25.00
22.63
21.16
20.13
19.16
18.08
16.85
15.56
14.23
12.78
11.01
8.60
5.28
0.93
-4.36
-10.17
-15.90
-20.86
-24.58
-26.90
-28.09
-28.71
-29.44
-30.88
-33.44
-37.20
-41.82
-46.50
-50.00
-50.92
-47.99
-40.62
-29.12
-14.65
1.08
16.32
29.75
40.57
48.46
53.36
55.33
54.54
51.31
46.22
40.05
33.62
27.64
22.55
18.49
15.43
13.23
11.80
11.02
10.76
10.78
10.73
10.20
8.85
6.55
3.37
-0.38
-4.33
-8.15
-11.69
-15.01
-18.33
-22.00
-26.34
-31.55
-37.45
-43.46
-48.53
-51.30
-50.48
-45.27
-35.69
-22.67
-7.87
6.81
19.73
29.86
36.83
40.75
41.96
40.77
37.48
32.48
26.34
19.82
13.72
8.69
5.09
2.92
1.99
1.93
2.39
2.97
3.31
3.12
2.21
0.55
-1.80
-4.70
-8.06
-11.82
-15.96
-20.50
-25.47
-30.96
-37.02
-43.42
-49.52
-54.13
-55.75
-53.06
-45.48
-33.45
-18.47
-2.56
12.28
24.63
33.82
39.82
42.91
43.39
41.48
37.42
31.63
24.87
18.15
12.50
8.62
6.65
6.12
6.18
5.94
4.90
3.01
0.65
-1.70
-3.70
-5.35
-6.97
-8.99
-11.82
-15.69
-20.70
-26.84
-33.91
-41.38
-48.29
-53.27
-54.81
-51.73
-43.65
-31.26
-16.06
-0.01
15.10
28.00
38.08
45.12
49.14
50.13
48.17
43.51
36.76
28.87
20.96
14.09
8.89
5.44
3.34
1.95
0.73
-0.58
-1.88
-2.90
-3.45
-3.60
-3.70
-4.26
-5.76
-8.52
-12.68
-18.11
-24.44
-30.96
-36.59
-40.00
-39.95
-35.71
-27.34
-15.73
-2.36
11.18
23.61
34.06
42.07
47.34
49.61
48.71
44.76
38.33
30.41
22.26
15.01
9.34
5.44
3.05
1.68
0.90
0.46
0.26
0.27
0.48
0.73
0.78
0.32
-0.98
-3.44
-7.23
-12.23
-17.94
-23.41
-27.36
-28.55
-26.13
-19.97
-10.70
0.45
12.06
22.86
31.95
38.69
42.64
43.41
40.72
34.64
25.70
15.05
4.18
-5.44
-12.79
-17.58
-20.27
-21.78
-23.02
-24.52
-26.26
-27.82
-28.72
-28.79
-28.30
-27.95
-28.52
-30.63
-34.42
-39.43
-44.62
-48.56
-49.67
-46.67
-38.90
-26.61
-10.93
6.40
23.45
38.58
50.67
59.21
64.15
65.71
64.28
60.34
54.50
47.57
40.46
34.05
29.00
25.55
23.53
22.46
21.78
21.12
20.33
19.47
18.67
17.92
17.02
15.55
13.02
9.04
3.50
-3.27
-10.40
-16.55
-20.24
-20.22
-15.93
-7.75
3.16
15.14
26.63
36.49
44.17
49.47
52.32
52.58
50.06
44.78
37.18
28.16
18.98
10.88
4.69
0.66
-1.54
-2.64
-3.38
-4.27
-5.43
-6.72
-7.95
-9.07
-10.35
-12.22
-15.16
-19.48
-25.19
-31.98
-39.17
-45.78
-50.57
-52.23
-49.71
-42.60
-31.34
-17.25
-2.14
12.11
24.13
33.20
39.23
42.45
43.16
41.54
37.78
32.24
25.58
18.70
12.59
8.03
5.40
4.59
5.05
6.08
6.97
7.25
6.71
5.39
3.51
1.29
-1.16
-3.86
-6.98
-10.73
-15.28
-20.71
-26.97
-33.84
-40.72
-46.66
-50.34
-50.34
-45.65
-36.07
-22.45
-6.54
9.54
23.92
35.37
43.47
48.30
50.15
49.28
45.93
40.52
33.77
26.68
20.26
15.23
11.80
9.70
8.40
7.40
6.46
5.56
4.82
4.26
3.65
2.58
0.58
-2.63
-6.98
-12.08
-17.30
-22.04
-25.91
-28.92
-31.42
-34.01
-37.32
-41.75
-47.26
-53.23
-58.47
-61.43
-60.66
-55.23
-45.11
-31.30
-15.55
0.17
14.14
25.33
33.37
38.35
40.51
40.11
37.39
32.71
26.72
20.30
14.38
9.76
6.87
5.70
5.92
6.97
8.25
9.29
9.78
9.67
9.04
8.07
6.87
5.45
3.71
1.50
-1.26
-4.51
-8.05
-11.56
-14.76
-17.46
-19.65
-21.49
-23.17
-24.95
-27.07
-29.76
-33.22
-37.40
-41.90
-45.84
-47.89
-46.67
-41.18
-31.25
-17.77
-2.43
12.75
26.05
36.39
43.48
47.47
48.72
47.53
44.12
38.84
32.28
25.32
18.96
13.99
10.81
9.31
9.00
9.27
9.55
9.56
9.22
8.57
7.67
6.50
4.95
2.87
0.14
-3.22
-7.09
-11.21
-15.28
-19.00
-22.20
-24.85
-27.09
-29.15
-31.25
-33.57
-36.23
-39.25
-42.57
-45.93
-48.79
-50.25
-49.24
-44.86
-36.75
-25.36
-11.90
2.00
14.80
25.42
33.34
38.49
40.96
40.89
38.43
33.97
28.13
21.87
16.18
11.88
9.42
8.79
9.56
11.14
12.85
14.17
14.81
14.66
13.86
12.61
11.06
9.31
7.23
4.64
1.41
-2.51
-6.93
-11.54
-15.95
-19.87
-23.17
-25.95
-28.48
-31.15
-34.36
-38.37
-43.13
-48.16
-52.49
-54.78
-53.67
-48.29
-38.60
-25.50
-10.65
4.06
17.00
27.15
34.14
38.07
39.22
37.91
34.50
29.49
23.56
17.53
12.17
8.03
5.36
4.10
4.03
4.84
6.21
7.80
9.28
10.31
10.60
9.98
8.40
6.00
3.00
-0.33
-3.71
-6.98
-10.11
-13.17
-16.27
-19.45
-22.65
-25.68
-28.32
-30.47
-32.23
-33.90
-35.96
-38.81
-42.66
-47.26
-51.82
-55.06
-55.52
-51.94
-43.78
-31.48
-16.38
-0.37
14.67
27.35
36.96
43.37
46.73
47.32
45.39
41.30
35.63
29.17
22.82
17.33
13.16
10.42
8.91
8.34
8.39
8.86
9.54
10.22
10.60
10.35
9.22
7.15
4.30
1.04
-2.26
-5.31
-8.06
-10.65
-13.29
-16.14
-19.20
-22.28
-25.08
-27.37
-29.06
-30.26
-31.26
-32.48
-34.41
-37.46
-41.76
-46.90
-51.85
-55.05
-54.86
-50.10
-40.55
-27.13
-11.58
4.04
17.99
29.23
37.41
42.63
45.16
45.20
42.94
38.63
32.79
26.17
19.74
14.41
10.84
9.30
9.56
11.09
13.19
15.25
16.87
17.91
18.40
18.44
18.08
17.32
16.10
14.39
12.17
9.48
6.35
2.88
-0.82
-4.53
-8.02
-11.07
-13.54
-15.50
-17.18
-19.01
-21.46
-24.89
-29.33
-34.34
-38.93
-41.75
-41.39
-36.89
-28.07
-15.65
-1.14
13.67
27.18
38.24
46.31
51.24
53.12
52.11
48.50
42.76
35.65
28.08
21.04
15.32
11.38
9.29
8.76
9.29
10.33
11.36
11.97
11.93
11.15
9.65
7.52
4.87
1.79
-1.65
-5.43
-9.52
-13.86
-18.33
-22.75
-26.91
-30.62
-33.73
-36.25
-38.26
-40.05
-42.02
-44.62
-48.24
-52.89
-57.97
-62.26
-64.07
-61.77
-54.41
-42.12
-26.14
-8.44
8.88
24.13
36.35
45.21
50.75
53.17
52.71
49.75
44.86
38.88
32.76
27.37
23.30
20.78
19.66
19.56
20.02
20.68
21.28
21.73
21.93
21.75
20.98
19.35
16.71
13.17
9.07
4.91
1.16
-1.99
-4.67
-7.26
-10.14
-13.53
-17.27
-20.96
-24.14
-26.49
-27.98
-28.89
-29.77
-31.25
-33.96
-38.28
-44.12
-50.73
-56.65
-60.01
-59.04
-52.71
-41.10
-25.48
-7.89
9.46
24.78
37.01
45.78
51.16
53.45
52.96
50.10
45.37
39.47
33.22
27.47
22.91
19.92
18.48
18.27
18.78
19.54
20.24
20.81
21.30
21.72
21.84
21.28
19.59
16.53
12.27
7.41
2.71
-1.17
-3.99
-6.05
-7.96
-10.36
-13.56
-17.44
-21.53
-25.26
-28.22
-30.30
-31.68
-32.74
-33.95
-35.82
-38.83
-43.29
-49.06
-55.35
-60.69
-63.17
-61.14
-53.75
-41.41
-25.66
-8.68
7.45
21.25
32.03
39.74
44.57
46.71
46.27
43.47
38.80
33.08
27.36
22.66
19.67
18.59
19.13
20.70
22.70
24.74
26.63
28.35
29.80
30.73
30.80
29.76
27.57
24.53
21.09
17.66
14.39
11.18
7.74
3.84
-0.52
-5.07
-9.37
-12.97
-15.64
-17.43
-18.74
-20.14
-22.28
-25.72
-30.70
-36.97
-43.68
-49.42
-52.41
-51.12
-44.69
-33.43
-18.72
-2.63
12.73
25.84
35.98
43.12
47.52
49.39
48.81
45.86
40.91
34.67
28.17
22.43
18.16
15.56
14.38
14.13
14.30
14.62
15.01
15.49
15.94
16.07
15.40
13.54
10.38
6.19
1.53
-2.94
-6.80
-9.99
-12.76
-15.55
-18.68
-22.23
-25.97
-29.48
-32.38
-34.45
-35.81
-36.88
-38.22
-40.41
-43.87
-48.72
-54.65
-60.79
-65.77
-67.93
-65.74
-58.30
-45.80
-29.44
-11.25
6.56
22.22
34.69
43.74
49.61
52.73
53.43
51.95
48.57
43.80
38.40
33.25
29.18
26.66
25.71
25.92
26.68
27.45
27.90
28.00
27.86
27.58
27.09
26.13
24.35
21.49
17.51
12.68
7.55
2.73
-1.32
-4.47
-6.97
-9.33
-12.04
-15.34
-19.08
-22.82
-26.04
-28.43
-30.00
-31.14
-32.38
-34.32
-37.44
-41.98
-47.76
-54.15
-59.90
-63.36
-62.86
-57.23
-46.26
-30.86
-12.84
5.62
22.54
36.57
47.12
54.16
58.00
59.03
57.63
54.24
49.37
43.71
38.00
32.99
29.21
26.94
26.17
26.59
27.73
29.12
30.35
31.16
31.47
31.29
30.69
29.64
28.01
25.66
22.50
18.61
14.25
9.83
5.76
2.28
-0.59
-3.03
-5.40
-8.01
-11.07
-14.57
-18.26
-21.81
-24.89
-27.36
-29.29
-31.00
-32.90
-35.46
-39.05
-43.88
-49.80
-56.18
-61.81
-65.03
-64.19
-58.16
-46.84
-31.33
-13.56
4.24
20.26
33.35
43.16
49.74
53.26
53.89
51.84
47.57
41.89
35.86
30.59
26.91
25.14
25.11
26.26
27.89
29.44
30.58
31.23
31.44
31.24
30.53
29.07
26.64
23.14
18.74
13.81
8.86
4.34
0.47
-2.76
-5.56
-8.22
-10.99
-14.05
-17.40
-20.96
-24.50
-27.76
-30.48
-32.56
-34.12
-35.52
-37.30
-39.99
-43.98
-49.34
-55.69
-62.15
-67.37
-69.72
-67.74
-60.56
-48.23
-31.85
-13.31
5.26
21.98
35.62
45.72
52.33
55.80
56.50
54.79
51.13
46.13
40.55
35.25
30.95
28.08
26.71
26.63
27.41
28.62
29.91
30.96
31.55
31.42
30.39
28.31
25.20
21.19
16.54
11.57
6.53
1.57
-3.22
-7.87
-12.36
-16.59
-20.38
-23.50
-25.85
-27.50
-28.75
-29.96
-31.44
-33.31
-35.43
-37.56
-39.48
-41.10
-42.56
-44.15
-46.24
-49.18
-53.14
-57.97
-63.00
-67.00
-68.40
-65.66
-57.82
-44.91
-28.06
-9.18
9.53
26.14
39.43
48.94
54.80
57.46
57.42
55.18
51.21
46.06
40.42
35.07
30.70
27.75
26.27
25.98
26.44
27.24
28.15
29.09
30.02
30.76
30.97
30.27
28.40
25.41
21.66
17.65
13.82
10.40
7.32
4.38
1.39
-1.67
-4.65
-7.27
-9.32
-10.74
-11.71
-12.59
-13.80
-15.63
-18.18
-21.24
-24.42
-27.30
-29.57
-31.25
-32.66
-34.35
-36.94
-40.85
-46.14
-52.29
-58.13
-62.02
-62.27
-57.59
-47.63
-33.15
-15.89
1.99
18.45
32.14
42.46
49.47
53.49
54.88
53.93
50.94
46.38
40.96
35.53
30.89
27.56
25.73
25.14
25.40
26.05
26.77
27.38
27.79
27.85
27.40
26.24
24.27
21.52
18.22
14.65
11.06
7.56
4.15
0.77
-2.62
-5.95
-9.04
-11.73
-13.93
-15.74
-17.39
-19.15
-21.18
-23.49
-25.91
-28.21
-30.22
-31.92
-33.46
-35.12
-37.22
-40.04
-43.75
-48.29
-53.24
-57.74
-60.52
-60.14
-55.50
-46.21
-32.91
-17.13
-0.87
14.00
26.22
35.29
41.29
44.56
45.37
43.95
40.51
35.51
29.73
24.17
19.76
17.10
16.28
16.90
18.29
19.79
20.96
21.59
21.70
21.39
20.66
19.47
17.67
15.14
11.86
7.94
3.69
-0.56
-4.46
-7.82
-10.65
-13.18
-15.75
-18.61
-21.86
-25.33
-28.69
-31.58
-33.81
-35.39
-36.58
-37.79
-39.48
-42.12
-46.04
-51.30
-57.48
-63.58
-68.11
-69.39
-66.05
-57.51
-44.26
-27.73
-9.94
7.14
22.01
33.88
42.59
48.36
51.52
52.33
51.06
48.01
43.65
38.66
33.81
29.87
27.29
26.19
26.26
26.97
27.75
28.20
28.17
27.68
26.84
25.65
24.04
21.86
18.99
15.51
11.63
7.65
3.86
0.45
-2.52
-5.07
-7.32
-9.40
-11.44
-13.61
-15.98
-18.55
-21.18
-23.68
-25.86
-27.70
-29.35
-31.09
-33.30
-36.28
-40.27
-45.30
-51.12
-57.09
-62.05
-64.54
-63.06
-56.59
-45.05
-29.44
-11.58
6.37
22.56
35.79
45.63
52.20
55.86
57.00
55.92
52.95
48.58
43.45
38.34
33.91
30.64
28.64
27.74
27.62
27.94
28.43
28.93
29.32
29.48
29.22
28.31
26.56
23.94
20.61
16.88
13.16
9.72
6.72
4.06
1.56
-0.96
-3.54
-6.01
-8.15
-9.76
-10.86
-11.71
-12.72
-14.27
-16.57
-19.53
-22.84
-26.10
-29.03
-31.58
-33.98
-36.62
-39.97
-44.36
-49.82
-55.95
-61.82
-66.01
-66.95
-63.35
-54.69
-41.46
-25.11
-7.65
8.98
23.32
34.68
42.96
48.39
51.24
51.70
49.96
46.39
41.67
36.69
32.40
29.52
28.34
28.70
30.12
31.95
33.67
34.91
35.55
35.54
34.88
33.55
31.47
28.63
25.07
20.96
16.56
12.17
7.99
4.12
0.55
-2.77
-5.87
-8.68
-11.17
-13.33
-15.29
-17.28
-19.52
-22.12
-25.00
-27.93
-30.70
-33.24
-35.69
-38.35
-41.63
-45.86
-51.20
-57.44
-63.88
-69.28
-72.03
-70.60
-64.04
-52.37
-36.70
-18.96
-1.31
14.47
27.34
37.07
43.86
48.10
50.01
49.74
47.45
43.54
38.68
33.78
29.69
26.96
25.72
25.64
26.22
26.94
27.48
27.76
27.79
27.56
26.94
25.73
23.72
20.87
17.35
13.50
9.74
6.34
3.41
0.86
-1.51
-3.88
-6.28
-8.62
-10.74
-12.52
-13.98
-15.33
-16.84
-18.79
-21.24
-24.08
-26.99
-29.64
-31.82
-33.60
-35.33
-37.49
-40.58
-44.92
-50.54
-57.03
-63.44
-68.36
-70.12
-67.25
-58.97
-45.58
-28.48
-9.82
8.19
23.80
36.11
44.96
50.69
53.75
54.53
53.30
50.39
46.23
41.42
36.60
32.35
29.06
26.86
25.65
25.20
25.22
25.53
25.97
26.40
26.64
26.45
25.53
23.75
21.16
18.03
14.73
11.59
8.74
6.07
3.38
0.48
-2.61
-5.73
-8.59
-10.94
-12.72
-14.09
-15.35
-16.83
-18.72
-21.04
-23.63
-26.24
-28.64
-30.75
-32.67
-34.63
-36.99
-40.13
-44.33
-49.59
-55.50
-61.09
-64.94
-65.47
-61.47
-52.52
-39.28
-23.29
-6.56
9.08
22.39
32.82
40.40
45.33
47.77
47.83
45.67
41.67
36.52
31.14
26.43
23.08
21.36
21.16
22.02
23.36
24.66
25.61
26.11
26.23
26.01
25.43
24.35
22.58
20.00
16.64
12.75
8.69
4.80
1.35
-1.61
-4.15
-6.47
-8.75
-11.13
-13.62
-16.16
-18.61
-20.86
-22.79
-24.41
-25.78
-27.08
-28.60
-30.69
-33.73
-37.94
-43.25
-49.09
-54.32
-57.39
-56.74
-51.29
-40.91
-26.52
-9.87
6.96
22.14
34.50
43.62
49.64
52.93
53.87
52.72
49.78
45.47
40.43
35.44
31.22
28.28
26.74
26.37
26.68
27.18
27.49
27.38
26.79
25.72
24.17
22.14
19.65
16.74
13.51
10.01
6.32
2.49
-1.37
-5.13
-8.59
-11.57
-13.96
-15.79
-17.22
-18.54
-20.07
-22.05
-24.55
-27.42
-30.37
-33.10
-35.42
-37.36
-39.18
-41.33
-44.32
-48.52
-53.99
-60.20
-65.95
-69.56
-69.20
-63.59
-52.46
-36.78
-18.48
0.15
17.07
31.00
41.44
48.52
52.61
54.09
53.30
50.61
46.49
41.59
36.63
32.27
28.95
26.84
25.81
25.55
25.73
26.05
26.31
26.39
26.16
25.50
24.33
22.62
20.43
17.87
15.09
12.19
9.25
6.29
3.31
0.38
-2.44
-5.06
-7.45
-9.62
-11.69
-13.85
-16.25
-18.95
-21.87
-24.81
-27.54
-29.91
-31.97
-33.91
-36.06
-38.78
-42.36
-46.90
-52.18
-57.54
-61.86
-63.66
-61.52
-54.56
-42.79
-27.33
-10.10
6.77
21.52
33.20
41.69
47.39
50.83
52.34
52.00
49.86
46.10
41.24
36.02
31.25
27.54
25.15
23.97
23.70
23.97
24.52
25.14
25.72
26.10
26.08
25.42
23.92
21.49
18.19
14.28
10.08
5.93
2.11
-1.20
-3.92
-6.12
-7.93
-9.59
-11.35
-13.44
-15.95
-18.83
-21.86
-24.74
-27.16
-29.00
-30.35
-31.50
-32.89
-34.95
-37.98
-42.02
-46.75
-51.35
-54.61
-55.11
-51.65
-43.65
-31.44
-16.26
0.12
15.83
29.46
40.23
47.95
52.72
54.76
54.25
51.48
46.96
41.46
35.95
31.29
28.01
26.20
25.58
25.71
26.20
26.84
27.57
28.33
28.98
29.23
28.77
27.34
24.88
21.46
17.27
12.61
7.88
3.64
0.50
-1.08
-1.07
-0.10
0.74
0.25
-2.38
-7.20
-13.55
-20.41
-26.87
-32.52
-37.43
-41.89
-46.06
-49.80
-52.74
-54.61
-55.42
-55.46
-54.98
-53.83
-51.29
-46.36
-38.19
-26.72
-12.84
1.77
15.28
26.41
34.86
41.11
45.91
49.64
52.00
52.19
49.45
43.66
35.58
26.74
18.86
13.36
10.89
11.30
13.81
17.29
20.54
22.53
22.61
20.70
17.27
13.18
9.23
5.84
2.87
-0.11
-3.36
-6.64
-9.15
-9.95
-8.57
-5.33
-1.34
2.06
3.75
3.24
0.68
-3.46
-8.68
-14.58
-20.77
-26.87
-32.46
-37.37
-41.80
-46.31
-51.54
-57.63
-63.89
-68.75
-70.27
-66.84
-57.88
-44.08
-27.23
-9.57
6.83
20.55
30.88
37.67
41.08
41.41
39.06
34.63
28.91
22.79
17.11
12.45
9.11
7.17
6.72
7.78
10.17
13.47
16.97
19.87
21.46
21.25
19.17
15.57
10.90
5.44
-0.80
-7.87
-15.65
-23.84
-32.07
-40.14
-47.79
-55.07
-62.33
-70.07
-78.56
-87.69
-97.11
-106.34
-114.93
-121.68
-125.88
-128.14
-130.36
-134.74
-142.60
-153.95
-167.59
-181.79
-193.31
-200.31
-203.65
-206.13
-209.82
-214.06
-215.53
-209.90
-194.02
-164.41
-121.12
-68.64
-14.16
36.44
81.18
121.64
161.05
202.83
253.68
318.69
397.64
484.36
568.97
640.92
691.33
714.90
687.62
601.12
471.04
330.27
207.76
114.55
47.24
-2.25
-40.11
-69.16
-87.60
-94.04
-91.78
-87.89
-89.21
-99.14
-117.60
-142.62
-172.31
-202.93
-227.55
-243.75
-252.10
-254.17
-251.05
-243.53
-232.50
-218.90
-201.31
-177.92
-148.99
-116.71
-84.31
-54.58
-29.20
-8.62
7.68
21.63
34.93
47.42
57.67
63.99
65.48
62.47
56.31
48.85
42.25
38.19
36.94
37.77
39.44
40.84
41.39
41.07
40.26
39.35
38.51
37.40
35.54
32.53
28.33
23.28
17.93
12.81
8.14
3.82
-0.50
-5.15
-10.21
-15.49
-20.56
-24.94
-28.34
-30.80
-32.69
-34.65
-37.42
-41.66
-47.66
-55.16
-63.13
-69.90
-73.42
-71.88
-64.31
-50.99
-33.43
-13.94
5.09
21.79
35.20
45.12
51.86
55.84
57.33
56.54
53.70
49.23
43.77
38.11
33.02
29.06
26.47
25.15
24.73
24.77
24.85
24.75
24.40
23.78
22.89
21.59
19.72
17.17
13.89
10.00
5.65
1.03
-3.70
-8.37
-12.81
-16.84
-20.33
-23.27
-25.81
-28.24
-30.99
-34.51
-39.07
-44.63
-50.65
-56.00
-59.14
-58.52
-53.06
-42.64
-28.23
-11.61
5.12
20.12
32.23
41.01
46.57
49.17
49.08
46.53
41.85
35.65
28.79
22.31
17.11
13.66
11.94
11.52
11.77
12.15
12.38
12.41
12.26
11.91
11.16
9.67
7.12
3.32
-1.59
-7.19
-12.83
-17.89
-21.97
-25.05
-27.45
-29.69
-32.35
-35.80
-40.18
-45.26
-50.37
-54.47
-56.22
-54.33
-47.95
-37.01
-22.34
-5.53
11.55
27.20
40.26
50.10
56.54
59.57
59.28
55.96
50.17
42.83
35.07
27.95
22.22
18.14
15.56
14.10
13.42
13.27
13.49
13.89
14.10
13.60
11.88
8.67
4.06
-1.46
-7.18
-12.45
-16.92
-20.63
-24.00
-27.61
-32.04
-37.62
-44.20
-51.02
-56.79
-59.85
-58.67
-52.36
-40.99
-25.69
-8.36
8.92
24.42
37.05
46.42
52.59
55.80
56.33
54.45
50.55
45.20
39.15
33.20
28.00
23.93
21.06
19.26
18.30
17.99
18.16
18.61
19.02
18.91
17.77
15.28
11.40
6.48
1.09
-4.17
-8.93
-13.12
-16.96
-20.87
-25.30
-30.63
-36.94
-43.83
-50.32
-54.89
-55.86
-51.86
-42.46
-28.40
-11.46
6.03
21.95
34.91
44.42
50.73
54.28
55.45
54.33
50.97
45.62
38.93
31.90
25.59
20.75
17.60
15.84
14.91
14.30
13.78
13.41
13.27
13.35
13.32
12.64
10.76
7.36
2.52
-3.30
-9.37
-14.98
-19.63
-23.20
-25.92
-28.28
-30.83
-34.07
-38.27
-43.32
-48.68
-53.26
-55.65
-54.42
-48.64
-38.22
-24.11
-8.02
8.08
22.52
34.27
42.99
48.71
51.64
51.90
49.60
45.05
38.88
32.05
25.63
20.52
17.17
15.48
14.93
14.86
14.71
14.22
13.42
12.46
11.49
10.40
8.91
6.66
3.38
-0.94
-5.98
-11.20
-16.03
-20.08
-23.31
-25.95
-28.45
-31.24
-34.61
-38.62
-43.08
-47.53
-51.22
-53.15
-52.22
-47.59
-38.96
-26.81
-12.38
2.63
16.48
27.86
36.02
40.80
42.39
41.18
37.65
32.37
26.03
19.46
13.47
8.64
5.27
3.25
2.22
1.83
1.77
1.93
2.24
2.54
2.54
1.87
0.25
-2.40
-5.86
-9.72
-13.55
-17.09
-20.28
-23.30
-26.48
-30.16
-34.53
-39.40
-44.08
-47.40
-48.02
-44.82
-37.36
-26.07
-12.28
2.26
15.77
26.93
35.04
39.95
41.86
41.09
37.99
32.96
26.56
19.55
12.83
7.25
3.42
1.48
1.15
1.81
2.78
3.47
3.56
2.99
1.84
0.21
-1.78
-4.06
-6.55
-9.14
-11.79
-14.51
-17.44
-20.82
-24.86
-29.59
-34.73
-39.52
-42.85
-43.42
-40.16
-32.65
-21.36
-7.64
6.68
19.72
30.09
37.12
40.79
41.53
39.84
36.18
30.88
24.37
17.27
10.39
4.61
0.58
-1.44
-1.69
-0.75
0.63
1.85
2.55
2.70
2.43
1.85
1.00
-0.22
-1.95
-4.25
-7.09
-10.40
-14.11
-18.20
-22.67
-27.27
-31.40
-34.03
-33.94
-30.16
-22.43
-11.35
1.63
14.73
26.37
35.46
41.54
44.60
44.82
42.45
37.85
31.56
24.36
17.21
11.00
6.34
3.43
2.05
1.73
1.85
1.88
1.41
0.29
-1.46
-3.71
-6.31
-9.16
-12.26
-15.66
-19.41
-23.56
-28.19
-33.40
-39.28
-45.74
-52.25
-57.79
-60.91
-60.13
-54.47
-43.91
-29.48
-13.09
3.09
17.17
27.93
34.96
38.41
38.71
36.37
31.83
25.65
18.49
11.22
4.76
-0.11
-2.99
-3.92
-3.41
-2.18
-0.96
-0.21
-0.14
-0.72
-1.83
-3.43
-5.52
-8.12
-11.19
-14.61
-18.23
-21.98
-25.95
-30.39
-35.56
-41.38
-47.20
-51.77
-53.45
-50.80
-43.09
-30.69
-15.04
1.79
17.74
31.26
41.55
48.47
52.14
52.77
50.54
45.79
39.12
31.49
23.94
17.40
12.40
9.05
7.15
6.38
6.47
7.18
8.21
9.16
9.51
8.80
6.78
3.47
-0.77
-5.48
-10.17
-14.49
-18.32
-21.79
-25.26
-29.20
-34.06
-39.97
-46.52
-52.58
-56.57
-56.80
-52.11
-42.35
-28.48
-12.35
3.80
18.04
29.06
36.35
40.03
40.56
38.52
34.52
29.15
23.06
16.91
11.38
7.07
4.36
3.41
4.07
5.91
8.35
10.73
12.49
13.25
12.92
11.62
9.65
7.33
4.90
2.40
-0.29
-3.38
-7.11
-11.63
-16.94
-22.85
-28.87
-34.20
-37.79
-38.51
-35.48
-28.37
-17.61
-4.27
10.19
24.47
37.69
49.38
59.31
67.04
71.77
72.45
68.27
59.24
46.53
32.35
19.25
9.30
3.40
1.19
1.44
2.73
4.15
5.46
6.86
8.42
9.75
9.98
8.12
3.72
-2.82
-10.25
-17.10
-22.28
-25.59
-27.76
-30.02
-33.53
-38.85
-45.80
-53.60
-61.04
-66.76
-69.37
-67.70
-61.01
-49.37
-33.76
-15.95
2.00
18.37
32.14
43.00
50.93
55.86
57.47
55.42
49.81
41.44
31.86
22.87
16.01
12.06
10.89
11.71
13.50
15.33
16.68
17.38
17.48
17.00
15.94
14.24
11.99
9.49
7.19
5.47
4.36
3.43
1.91
-0.96
-5.64
-12.04
-19.66
-27.82
-35.98
-43.81
-51.12
-57.62
-62.58
-64.95
-63.46
-57.19
-45.93
-30.50
-12.60
5.63
22.32
36.21
46.85
54.35
58.97
60.87
60.07
56.72
51.25
44.59
37.94
32.43
28.78
27.10
26.96
27.62
28.42
29.05
29.57
30.29
31.47
33.08
34.75
35.79
35.49
33.33
29.28
23.75
17.43
11.03
5.02
-0.47
-5.52
-10.21
-14.43
-17.97
-20.58
-22.27
-23.38
-24.51
-26.33
-29.29
-33.59
-39.12
-45.54
-52.19
-58.03
-61.70
-61.72
-56.93
-47.05
-32.92
-16.43
0.02
14.23
24.78
31.22
33.96
33.76
31.40
27.44
22.31
16.53
10.81
6.15
3.52
3.57
6.31
11.11
16.81
22.12
26.09
28.36
29.20
29.28
29.31
29.64
30.17
30.35
29.53
27.22
23.31
18.12
12.18
6.10
0.43
-4.30
-7.56
-8.91
-8.14
-5.57
-2.19
0.52
0.95
-2.04
-8.70
-18.13
-28.46
-37.32
-42.47
-42.45
-36.93
-26.80
-13.86
-0.29
12.03
21.89
28.92
33.28
35.31
35.20
32.95
28.56
22.30
14.88
7.34
0.76
-4.01
-6.55
-6.85
-5.24
-2.25
1.57
5.60
9.26
12.02
13.56
13.91
13.48
12.93
12.88
13.58
14.71
15.43
14.71
11.71
6.19
-1.43
-10.27
-19.29
-27.62
-34.80
-40.72
-45.48
-49.28
-52.34
-54.96
-57.59
-60.79
-64.96
-69.99
-75.00
-78.32
-77.97
-72.41
-61.25
-45.45
-27.10
-8.67
7.76
20.90
30.35
36.16
38.60
37.87
34.27
28.32
20.94
13.34
6.77
2.24
0.21
0.50
2.45
5.18
7.89
10.09
11.64
12.70
13.42
13.93
14.13
13.85
12.88
11.11
8.63
5.63
2.41
-0.70
-3.53
-6.15
-8.80
-11.74
-15.09
-18.60
-21.75
-23.90
-24.61
-23.86
-22.12
-20.12
-18.67
-18.45
-19.94
-23.43
-29.00
-36.32
-44.50
-51.95
-56.66
-56.79
-51.34
-40.67
-26.47
-11.16
2.92
14.16
22.05
26.86
29.20
29.57
28.27
25.53
21.81
17.96
15.11
14.29
16.12
20.55
26.93
34.16
41.14
46.95
51.13
53.63
54.69
54.63
53.66
51.73
48.52
43.60
36.71
27.93
17.84
7.32
-2.71
-11.67
-19.56
-26.92
-34.51
-42.91
-52.14
-61.67
-70.64
-78.34
-84.62
-89.94
-95.23
-101.28
-108.33
-115.71
-121.97
-125.44
-124.74
-119.24
-109.24
-95.59
-79.53
-62.37
-45.46
-30.10
-17.15
-6.62
2.71
12.96
26.40
44.32
66.34
90.59
114.68
136.70
155.84
172.16
185.87
196.89
204.91
210.13
213.84
218.38
226.19
238.53
254.42
270.63
282.66
286.17
278.39
258.83
229.13
192.38
151.99
110.94
71.24
33.82
-1.23
-34.41
-66.75
-99.79
-135.28
-174.51
-217.23
-260.92
-300.93
-331.71
-348.74
-350.11
-337.09
-313.27
-282.96
-249.69
-215.62
-181.84
-149.17
-118.68
-91.67
-69.08
-51.11
-37.18
-26.30
-17.62
-10.67
-5.27
-1.40
1.17
2.99
4.82
7.44
11.35
16.59
22.73
28.97
34.44
38.44
40.60
40.91
39.55
36.80
33.01
28.54
23.83
19.34
15.42
12.15
9.29
6.39
3.02
-1.04
-5.67
-10.47
-15.02
-19.03
-22.49
-25.60
-28.72
-32.25
-36.60
-42.16
-49.05
-56.92
-64.73
-70.74
-72.91
-69.57
-60.08
-45.14
-26.62
-7.01
11.39
27.00
39.15
47.83
53.33
55.90
55.68
52.84
47.81
41.35
34.50
28.35
23.73
21.02
20.17
20.80
22.38
24.39
26.39
28.00
28.94
28.97
27.97
25.97
23.09
19.55
15.54
11.19
6.58
1.75
-3.21
-8.14
-12.86
-17.22
-21.13
-24.59
-27.73
-30.74
-33.94
-37.71
-42.37
-47.96
-53.97
-59.25
-62.16
-61.00
-54.64
-42.96
-27.02
-8.75
9.65
26.22
39.71
49.54
55.68
58.30
57.75
54.41
48.90
42.11
35.11
29.02
24.68
22.51
22.38
23.72
25.76
27.71
29.00
29.32
28.60
26.99
24.70
21.96
18.93
15.61
11.87
7.53
2.47
-3.24
-9.30
-15.22
-20.51
-24.86
-28.28
-31.09
-33.82
-37.10
-41.47
-47.21
-54.14
-61.50
-67.95
-71.75
-71.24
-65.31
-53.89
-37.98
-19.39
-0.22
17.72
33.21
45.67
54.96
61.09
64.17
64.34
61.93
57.49
51.84
45.88
40.48
36.29
33.63
32.46
32.52
33.37
34.53
35.55
36.05
35.78
34.54
32.36
29.31
25.61
21.49
17.10
12.45
7.46
2.02
-3.84
-9.92
-15.85
-21.19
-25.56
-28.87
-31.34
-33.58
-36.48
-40.91
-47.32
-55.28
-63.44
-69.76
-72.02
-68.63
-59.22
-44.97
-28.24
-11.83
2.14
12.77
20.46
26.27
31.25
35.72
39.06
40.15
37.93
32.20
23.43
12.68
1.63
-7.34
-11.39
-8.18
3.10
20.75
41.47
60.47
73.10
76.42
70.28
56.75
38.64
18.33
-2.72
-21.91
-37.01
-46.32
-48.87
-44.02
-31.66
-12.64
11.56
38.70
69.14
102.78
138.30
172.98
204.26
230.65
251.69
268.54
282.86
299.37
320.29
343.50
362.89
372.06
367.34
348.65
319.78
265.38
183.05
84.21
-11.64
-90.38
-148.52
-188.34
-219.17
-246.44
-272.29
-293.43
-307.15
-309.57
-300.56
-282.08
-257.18
-229.84
-203.29
-180.23
-159.60
-140.10
-121.53
-105.56
-93.70
-86.24
-82.39
-80.24
-78.26
-74.26
-67.57
-59.21
-51.63
-46.66
-44.66
-44.88
-45.76
-46.17
-45.01
-42.25
-38.98
-36.97
-37.56
-40.88
-45.87
-50.38
-52.09
-48.87
-39.76
-25.35
-7.65
10.71
27.40
40.91
50.79
57.35
61.17
62.71
62.17
59.57
55.12
49.36
43.21
37.68
33.55
31.10
30.10
30.04
30.35
30.68
30.89
30.93
30.68
29.84
28.10
25.23
21.33
16.82
12.29
8.21
4.69
1.42
-2.15
-6.51
-11.83
-17.84
-23.99
-29.53
-33.76
-36.14
-36.34
-34.39
-30.75
-26.40
-22.62
-20.69
-21.43
-24.99
-30.69
-37.30
-43.38
-47.63
-49.18
-47.62
-42.97
-35.58
-25.92
-14.52
-1.86
11.58
25.19
38.11
49.23
57.35
61.60
61.67
58.08
52.04
45.10
38.75
34.02
31.34
30.58
31.25
32.63
33.91
34.37
33.38
30.57
25.88
19.44
11.63
2.92
-6.10
-14.70
-22.05
-27.35
-30.07
-30.16
-28.16
-25.04
-21.99
-20.01
-19.72
-21.19
-24.08
-27.71
-31.35
-34.38
-36.53
-37.97
-39.22
-40.98
-43.82
-47.94
-53.01
-58.19
-62.20
-63.62
-61.11
-53.71
-41.20
-24.33
-4.76
15.20
33.23
47.64
57.86
64.43
68.55
71.40
73.51
74.54
73.61
69.92
63.37
54.76
45.53
37.14
30.51
25.77
22.52
20.25
18.67
17.71
17.34
17.20
16.64
14.86
11.41
6.32
0.04
-6.88
-14.13
-21.71
-29.74
-38.08
-46.06
-52.53
-56.10
-55.59
-50.49
-41.29
-29.47
-17.23
-6.95
-0.59
0.91
-2.35
-9.49
-19.32
-30.70
-42.58
-53.88
-63.27
-69.27
-70.70
-67.15
-59.13
-47.90
-34.82
-20.88
-6.49
8.22
23.12
37.67
51.13
62.78
72.16
79.06
83.27
84.41
81.97
75.75
66.29
55.06
44.23
35.94
31.48
30.82
32.65
34.84
35.13
31.85
24.32
13.05
-0.42
-13.95
-25.47
-33.65
-38.27
-40.19
-40.82
-41.30
-41.96
-42.16
-40.70
-36.60
-29.74
-21.02
-12.08
-4.62
0.13
1.84
0.98
-1.55
-4.90
-8.74
-13.29
-19.29
-27.42
-37.80
-49.47
-60.41
-68.02
-70.08
-65.55
-55.03
-40.44
-24.17
-8.17
6.56
19.99
32.63
44.97
57.22
69.04
79.57
87.47
91.20
89.53
82.15
70.19
56.06
42.78
32.87
27.60
26.78
29.25
33.64
38.82
43.81
47.29
47.29
41.49
28.24
7.67
-17.72
-43.54
-65.04
-78.83
-83.99
-82.07
-75.92
-68.26
-60.65
-53.39
-46.17
-38.86
-31.78
-25.45
-20.13
-15.65
-11.68
-8.24
-5.94
-5.71
-8.13
-12.94
-18.97
-24.71
-29.16
-32.23
-34.53
-36.70
-38.70
-39.62
-38.13
-33.34
-25.26
-14.88
-3.62
7.32
17.30
26.15
33.72
39.64
43.27
44.08
42.17
38.41
34.35
31.58
31.26
33.66
38.18
43.62
48.68
52.30
53.95
53.70
52.05
49.71
47.19
44.46
40.85
35.21
26.44
14.05
-1.43
-18.43
-34.79
-48.35
-57.57
-61.89
-61.78
-58.47
-53.56
-48.60
-44.76
-42.61
-42.05
-42.39
-42.61
-41.74
-39.20
-35.19
-30.57
-26.63
-24.44
-24.38
-25.82
-27.30
-27.05
-23.68
-16.63
-6.34
5.95
18.62
30.08
39.12
45.06
47.88
48.13
46.61
44.11
41.04
37.42
33.11
28.22
23.36
19.59
18.06
19.44
23.63
29.80
36.71
43.08
47.90
50.49
50.58
48.24
43.89
38.25
32.11
26.09
20.44
15.07
9.74
4.43
-0.52
-4.57
-7.27
-8.67
-9.49
-11.04
-14.74
-21.56
-31.58
-43.84
-56.61
-67.97
-76.49
-81.62
-83.72
-83.80
-83.08
-82.64
-83.15
-84.74
-86.88
-88.42
-87.87
-83.90
-75.86
-64.09
-49.78
-34.46
-19.54
-5.83
6.28
16.66
25.19
31.84
36.81
40.72
44.52
49.00
54.44
60.36
65.79
69.67
71.45
71.19
69.53
67.26
64.98
62.88
60.77
58.33
55.32
51.71
47.61
43.15
38.27
32.73
26.12
17.99
8.10
-3.46
-16.18
-29.14
-41.31
-51.76
-59.94
-65.70
-69.14
-70.43
-69.67
-66.97
-62.75
-57.85
-53.41
-50.40
-49.18
-49.18
-49.05
-47.16
-42.15
-33.33
-20.70
-4.80
13.52
33.28
53.25
71.96
87.78
99.12
104.82
104.48
98.59
88.52
76.23
63.97
53.71
46.79
43.60
43.61
45.60
48.16
50.06
50.57
49.47
46.90
43.14
38.44
32.90
26.42
18.74
9.43
-1.96
-15.71
-31.67
-49.10
-66.75
-83.19
-97.13
-107.72
-114.61
-117.85
-117.83
-115.20
-110.98
-106.44
-102.89
-101.18
-101.29
-102.13
-101.72
-97.84
-88.68
-73.44
-52.50
-27.29
0.16
27.70
53.41
75.76
93.71
106.64
114.34
116.99
115.13
109.60
101.45
91.81
81.76
72.20
63.81
56.94
51.64
47.69
44.83
42.89
41.92
42.13
43.66
46.33
49.58
52.56
54.38
54.35
52.10
47.46
40.37
30.81
18.86
4.82
-10.63
-26.53
-41.76
-55.36
-66.72
-75.74
-82.86
-88.79
-94.31
-99.98
-105.95
-111.95
-117.39
-121.49
-123.44
-122.51
-118.17
-110.22
-98.85
-84.61
-68.23
-50.41
-31.80
-13.13
4.54
19.75
30.85
36.67
37.00
32.91
26.38
19.54
13.90
9.98
7.53
6.10
5.59
6.33
8.80
13.12
18.73
24.44
28.85
30.87
30.13
27.01
22.45
17.55
13.20
9.88
7.66
6.31
5.37
4.27
2.39
-0.83
-5.72
-12.07
-19.07
-25.48
-30.11
-32.51
-33.26
-33.79
-35.56
-39.09
-43.33
-45.87
-43.99
-35.97
-21.99
-4.15
14.40
30.77
43.33
51.96
57.55
61.19
63.44
64.25
63.19
60.14
55.57
50.60
46.51
44.22
43.90
44.93
46.34
47.29
47.36
46.63
45.34
43.60
41.23
37.87
33.24
27.43
20.94
14.44
8.61
3.79
0.02
-2.93
-5.53
-8.33
-11.93
-16.82
-23.10
-30.35
-37.66
-43.94
-48.38
-50.90
