1626692690.00
64.000000
-0.00
-0.00
-0.00
-0.00
-0.00
-0.00
-0.00
-0.00
-0.00
-0.00
0.00
0.01
0.01
-0.00
-0.03
-0.05
-0.05
0.00
0.13
0.36
0.66
1.01
1.37
1.72
2.06
2.40
2.79
3.24
3.80
4.42
5.06
5.66
6.20
6.68
7.15
7.68
8.31
9.14
10.09
11.04
11.88
12.56
13.14
13.76
14.65
15.96
17.91
20.32
22.90
25.38
27.58
29.57
31.68
34.32
37.81
42.54
48.15
54.10
59.83
64.97
69.58
74.14
79.34
85.71
93.76
103.00
112.62
121.73
129.77
136.75
143.30
150.75
157.77
166.64
177.95
191.79
206.97
220.57
228.25
225.36
208.53
176.87
132.76
80.05
23.07
-34.94
-92.44
-149.16
-205.23
-260.37
-313.74
-363.87
-409.83
-450.91
-486.50
-515.74
-537.23
-549.22
-549.96
-538.37
-514.21
-478.67
-433.88
-382.45
-327.02
-269.84
-212.63
-156.66
-102.95
-52.37
-5.90
35.58
71.43
101.35
125.50
144.38
158.69
169.15
176.37
180.75
182.57
182.07
179.51
175.23
169.65
163.18
156.15
148.81
141.30
133.69
126.02
118.33
110.69
103.16
95.80
88.68
81.83
75.25
68.95
62.95
57.25
51.86
46.78
42.03
37.59
33.45
29.61
26.07
22.81
19.83
17.12
14.67
12.48
10.53
8.83
7.35
6.08
5.00
4.08
3.29
2.60
1.99
1.47
1.03
0.69
0.45
0.27
0.15
0.04
-0.08
-0.22
-0.35
-0.47
-0.53
-0.54
-0.49
-0.45
-0.46
-0.54
-0.71
-0.92
-1.10
-1.20
-1.17
-1.06
-0.96
-0.99
-1.24
-1.69
-2.27
-2.78
-3.08
-3.08
-2.86
-2.65
-2.69
-3.17
-4.10
-5.26
-6.31
-6.94
-6.99
-6.60
-6.16
-6.10
-6.75
-8.11
-9.87
-11.48
-12.49
-12.67
-12.16
-11.41
-10.90
-11.02
-12.08
-14.17
-17.19
-20.54
-23.03
-23.05
-19.13
-10.66
1.49
15.19
27.72
36.96
42.16
44.02
44.06
43.64
43.33
42.87
41.62
39.13
35.50
31.23
26.89
22.93
19.23
15.65
12.04
8.47
5.16
2.34
0.21
-1.29
-2.35
-3.32
-4.52
-6.12
-8.09
-10.20
-12.07
-13.38
-13.97
-13.83
-13.19
-12.31
-11.46
-10.74
-10.20
-9.73
-9.21
-8.54
-7.72
-6.88
-6.21
-5.89
-5.95
-6.33
-6.84
-7.32
-7.74
-8.14
-8.61
-9.14
-9.60
-9.79
-9.62
-9.20
-8.80
-8.68
-8.97
-9.61
-10.39
-11.06
-11.52
-11.81
-12.07
-12.43
-13.00
-13.84
-15.03
-16.62
-18.56
-20.54
-22.02
-22.39
-21.05
-17.76
-12.60
-5.98
1.29
8.35
14.50
19.41
22.99
25.35
26.68
27.12
26.76
25.67
24.00
22.00
19.96
18.19
16.92
16.22
16.04
16.19
16.46
16.72
16.93
17.13
17.26
17.24
16.87
15.99
14.54
12.62
10.44
8.30
6.43
4.87
3.56
2.31
0.92
-0.70
-2.51
-4.34
-5.97
-7.27
-8.23
-9.02
-9.85
-10.90
-12.19
-13.63
-15.02
-16.25
-17.33
-18.45
-19.83
-21.75
-24.39
-27.81
-31.91
-36.31
-40.38
-43.32
-44.30
-42.72
-38.47
-31.94
-23.94
-15.44
-7.24
0.13
6.43
11.66
15.86
19.02
21.11
22.08
21.99
21.05
19.63
18.17
17.04
16.46
16.43
16.82
17.39
18.02
18.59
19.06
19.37
19.42
19.10
18.37
17.30
16.01
14.64
13.29
11.93
10.49
8.97
7.38
5.85
4.45
3.19
1.98
0.68
-0.81
-2.52
-4.37
-6.25
-8.05
-9.76
-11.46
-13.29
-15.41
-17.99
-21.08
-24.68
-28.64
-32.57
-35.90
-37.92
-37.95
-35.55
-30.69
-23.79
-15.61
-7.07
1.06
8.25
14.28
19.11
22.79
25.33
26.74
27.07
26.53
25.45
24.24
23.27
22.71
22.53
22.57
22.63
22.58
22.39
22.11
21.78
21.39
20.87
20.16
19.22
18.11
16.84
15.45
13.89
12.10
10.07
7.85
5.55
3.31
1.20
-0.78
-2.71
-4.68
-6.76
-8.95
-11.19
-13.37
-15.42
-17.27
-18.99
-20.71
-22.63
-24.97
-27.94
-31.59
-35.72
-39.89
-43.39
-45.41
-45.23
-42.47
-37.18
-29.88
-21.42
-12.71
-4.55
2.56
8.40
13.00
16.47
18.95
20.50
21.19
21.16
20.66
20.02
19.57
19.51
19.87
20.47
21.11
21.61
21.93
22.16
22.39
22.59
22.61
22.21
21.19
19.48
17.21
14.71
12.28
10.19
8.53
7.19
5.99
4.70
3.20
1.52
-0.24
-1.90
-3.41
-4.78
-6.08
-7.42
-8.87
-10.43
-12.10
-13.85
-15.70
-17.66
-19.82
-22.27
-25.15
-28.57
-32.57
-36.93
-41.17
-44.48
-45.97
-44.93
-41.09
-34.76
-26.73
-18.04
-9.68
-2.33
3.73
8.58
12.44
15.50
17.85
19.38
20.05
19.86
19.03
17.91
16.91
16.34
16.31
16.73
17.41
18.15
18.83
19.41
19.85
20.07
19.93
19.30
18.07
16.33
14.24
12.08
10.11
8.48
7.21
6.18
5.27
4.32
3.25
1.99
0.54
-1.09
-2.89
-4.78
-6.65
-8.41
-9.98
-11.34
-12.59
-13.89
-15.42
-17.41
-19.99
-23.18
-26.81
-30.48
-33.52
-35.12
-34.57
-31.49
-26.00
-18.74
-10.67
-2.72
4.44
10.51
15.45
19.28
21.95
23.34
23.33
22.06
19.88
17.37
15.08
13.43
12.56
12.46
12.99
13.97
15.23
16.59
17.84
18.78
19.24
19.15
18.49
17.36
15.80
13.90
11.74
9.42
7.05
4.73
2.50
0.32
-1.94
-4.37
-7.01
-9.82
-12.68
-15.46
-18.07
-20.41
-22.52
-24.40
-26.19
-28.07
-30.33
-33.19
-36.75
-40.76
-44.59
-47.35
-48.09
-46.13
-41.31
-34.07
-25.28
-16.02
-7.21
0.55
7.10
12.49
16.90
20.38
22.88
24.26
24.53
23.88
22.72
21.49
20.55
20.04
19.92
20.11
20.49
21.04
21.71
22.43
23.00
23.22
22.93
22.11
20.85
19.29
17.50
15.51
13.33
10.97
8.57
6.26
4.20
2.43
0.90
-0.56
-2.11
-3.91
-5.99
-8.34
-10.85
-13.39
-15.85
-18.16
-20.36
-22.63
-25.24
-28.48
-32.53
-37.34
-42.49
-47.19
-50.45
-51.29
-49.07
-43.71
-35.76
-26.20
-16.21
-6.83
1.28
7.85
12.89
16.55
18.95
20.16
20.26
19.42
17.95
16.22
14.61
13.39
12.68
12.46
12.65
13.15
13.93
14.94
16.10
17.28
18.29
18.98
19.23
19.01
18.38
17.44
16.31
15.04
13.69
12.25
10.72
9.13
7.54
5.99
4.51
3.01
1.41
-0.41
-2.49
-4.74
-7.02
-9.18
-11.18
-13.11
-15.19
-17.65
-20.67
-24.34
-28.53
-32.90
-36.87
-39.64
-40.40
-38.57
-34.01
-27.16
-18.88
-10.20
-1.98
5.26
11.38
16.42
20.36
23.12
24.57
24.70
23.74
22.16
20.53
19.33
18.85
19.09
19.89
20.96
22.06
23.00
23.72
24.24
24.59
24.75
24.59
23.90
22.50
20.35
17.64
14.71
11.89
9.36
7.10
4.91
2.61
0.11
-2.50
-4.99
-7.14
-8.82
-10.01
-10.87
-11.66
-12.72
-14.39
-16.89
-20.26
-24.34
-28.69
-32.67
-35.54
-36.62
-35.41
-31.77
-25.96
-18.57
-10.37
-2.16
5.45
12.06
17.43
21.44
24.02
25.14
24.91
23.62
21.75
19.85
18.40
17.63
17.48
17.71
18.02
18.26
18.40
18.52
18.65
18.66
18.31
17.36
15.72
13.51
10.98
8.41
5.99
3.72
1.52
-0.78
-3.26
-5.96
-8.79
-11.63
-14.33
-16.78
-18.98
-21.04
-23.17
-25.65
-28.70
-32.37
-36.40
-40.27
-43.18
-44.32
-43.06
-39.14
-32.80
-24.71
-15.73
-6.73
1.65
9.03
15.22
20.18
23.90
26.36
27.59
27.70
26.95
25.67
24.26
23.06
22.32
22.11
22.35
22.89
23.54
24.19
24.82
25.37
25.73
25.70
25.03
23.56
21.29
18.44
15.34
12.31
9.51
6.93
4.40
1.74
-1.15
-4.23
-7.35
-10.29
-12.88
-15.03
-16.77
-18.28
-19.83
-21.77
-24.36
-27.77
-31.94
-36.54
-40.93
-44.26
-45.64
-44.37
-40.24
-33.51
-24.96
-15.59
-6.32
2.17
9.54
15.70
20.67
24.45
27.04
28.47
28.89
28.55
27.81
27.03
26.46
26.30
26.58
27.26
28.15
29.07
29.80
30.15
30.05
29.45
28.35
26.78
24.72
22.23
19.41
16.43
13.49
10.78
8.33
6.07
3.91
1.77
-0.33
-2.28
-4.01
-5.55
-7.05
-8.66
-10.45
-12.41
-14.43
-16.45
-18.55
-20.92
-23.79
-27.28
-31.32
-35.59
-39.58
-42.60
-43.94
-43.02
-39.53
-33.58
-25.69
-16.69
-7.47
1.21
8.81
15.09
19.94
23.37
25.43
26.20
25.84
24.58
22.76
20.74
18.90
17.56
16.87
16.81
17.20
17.74
18.20
18.45
18.49
18.40
18.22
17.93
17.40
16.56
15.35
13.84
12.11
10.28
8.38
6.45
4.48
2.49
0.46
-1.59
-3.66
-5.72
-7.67
-9.42
-10.91
-12.21
-13.55
-15.23
-17.51
-20.54
-24.20
-28.26
-32.28
-35.78
-38.21
-39.02
-37.76
-34.24
-28.58
-21.25
-12.96
-4.48
3.49
10.47
16.14
20.34
23.01
24.18
24.06
22.98
21.38
19.70
18.31
17.39
16.96
16.89
16.99
17.08
17.08
17.01
16.93
16.90
16.94
16.96
16.78
16.22
15.14
13.50
11.41
9.06
6.73
4.64
2.92
1.54
0.33
-0.96
-2.56
-4.61
-7.05
-9.72
-12.39
-14.86
-17.07
-19.02
-20.77
-22.44
-24.18
-26.17
-28.62
-31.65
-35.16
-38.72
-41.52
-42.65
-41.36
-37.39
-31.08
-23.25
-14.88
-6.84
0.36
6.53
11.72
15.96
19.20
21.26
22.02
21.50
19.99
17.99
16.06
14.69
14.10
14.29
15.00
15.91
16.77
17.44
17.88
18.11
18.10
17.76
17.01
15.80
14.17
12.27
10.27
8.34
6.56
4.90
3.31
1.73
0.15
-1.34
-2.69
-3.89
-5.09
-6.47
-8.21
-10.37
-12.80
-15.24
-17.43
-19.20
-20.63
-21.91
-23.34
-25.18
-27.61
-30.61
-34.02
-37.44
-40.29
-41.88
-41.56
-38.94
-34.04
-27.28
-19.38
-11.18
-3.41
3.41
9.01
13.31
16.33
18.18
19.01
19.04
18.54
17.76
16.98
16.38
16.11
16.21
16.61
17.18
17.71
18.01
17.89
17.27
16.11
14.49
12.55
10.47
8.44
6.60
4.98
3.55
2.24
0.94
-0.39
-1.73
-2.99
-4.13
-5.12
-5.98
-6.82
-7.71
-8.73
-9.93
-11.29
-12.76
-14.26
-15.68
-16.97
-18.12
-19.23
-20.43
-21.91
-23.80
-26.11
-28.62
-30.93
-32.45
-32.61
-30.97
-27.42
-22.26
-16.05
-9.51
-3.26
2.30
7.02
10.91
14.04
16.37
17.82
18.32
17.89
16.77
15.32
13.94
12.92
12.42
12.40
12.70
13.16
13.57
13.83
13.82
13.47
12.77
11.78
10.61
9.36
8.10
6.82
5.48
4.03
2.45
0.73
-1.07
-2.91
-4.68
-6.30
-7.73
-8.96
-10.09
-11.22
-12.48
-13.92
-15.56
-17.43
-19.51
-21.88
-24.60
-27.73
-31.20
-34.85
-38.35
-41.21
-42.84
-42.65
-40.20
-35.42
-28.67
-20.73
-12.48
-4.75
1.99
7.59
12.14
15.73
18.38
19.95
20.40
19.81
18.51
17.01
15.73
14.95
14.65
14.65
14.74
14.79
14.85
14.98
15.23
15.51
15.64
15.47
14.93
14.10
13.10
12.01
10.84
9.50
7.90
6.00
3.86
1.59
-0.62
-2.64
-4.44
-6.05
-7.60
-9.21
-10.95
-12.76
-14.55
-16.20
-17.70
-19.21
-20.97
-23.24
-26.16
-29.73
-33.71
-37.66
-40.96
-42.88
-42.74
-40.13
-35.08
-28.09
-20.03
-11.85
-4.28
2.29
7.78
12.25
15.76
18.26
19.68
20.02
19.44
18.26
16.88
15.67
14.83
14.43
14.40
14.66
15.15
15.85
16.73
17.70
18.59
19.23
19.46
19.19
18.45
17.28
15.77
14.01
12.06
10.02
8.03
6.21
4.65
3.32
2.11
0.83
-0.64
-2.33
-4.16
-6.04
-7.91
-9.82
-11.87
-14.15
-16.69
-19.43
-22.30
-25.32
-28.57
-32.08
-35.66
-38.81
-40.73
-40.65
-38.07
-33.05
-26.10
-18.12
-9.98
-2.38
4.26
9.76
14.04
17.03
18.69
19.05
18.32
16.86
15.18
13.77
13.00
13.00
13.61
14.55
15.46
16.16
16.61
16.86
16.96
16.89
16.50
15.66
14.34
12.65
10.84
9.18
7.80
6.69
5.67
4.49
2.92
0.84
-1.74
-4.67
-7.70
-10.50
-12.82
-14.54
-15.78
-16.85
-18.24
-20.40
-23.60
-27.77
-32.46
-36.91
-40.22
-41.57
-40.39
-36.50
-30.19
-22.11
-13.15
-4.22
3.96
10.92
16.46
20.66
23.66
25.59
26.53
26.55
25.79
24.51
23.09
21.91
21.27
21.26
21.79
22.66
23.69
24.71
25.63
26.36
26.80
26.84
26.39
25.44
24.04
22.23
20.10
17.68
15.07
12.36
9.73
7.31
5.14
3.14
1.11
-1.18
-3.86
-6.88
-10.02
-13.01
-15.64
-17.90
-19.98
-22.17
-24.76
-27.94
-31.74
-36.01
-40.42
-44.37
-47.10
-47.73
-45.60
-40.45
-32.62
-22.96
-12.56
-2.44
6.69
14.49
20.86
25.78
29.25
31.25
31.86
31.34
30.09
28.63
27.40
26.66
26.47
26.72
27.24
27.92
28.68
29.54
30.44
31.29
31.82
31.78
30.97
29.36
27.21
24.86
22.68
20.81
19.12
17.32
15.08
12.32
9.16
5.99
3.14
0.78
-1.15
-2.91
-4.76
-6.86
-9.22
-11.73
-14.23
-16.64
-18.92
-21.12
-23.36
-25.79
-28.60
-31.92
-35.78
-39.89
-43.68
-46.30
-46.85
-44.68
-39.59
-31.98
-22.73
-12.91
-3.48
4.93
12.07
17.89
22.43
25.68
27.61
28.20
27.63
26.20
24.35
22.54
21.14
20.35
20.15
20.37
20.74
21.09
21.35
21.58
21.85
22.15
22.31
22.09
21.30
19.92
18.16
16.33
14.75
13.56
12.68
11.92
11.06
9.97
8.66
7.23
5.76
4.24
2.61
0.74
-1.44
-3.93
-6.61
-9.29
-11.74
-13.84
-15.59
-17.11
-18.61
-20.41
-22.77
-25.85
-29.58
-33.50
-36.85
-38.67
-38.16
-34.88
-29.00
-21.22
-12.55
-3.95
3.86
10.54
15.95
20.09
22.91
24.37
24.46
23.35
21.36
18.96
16.66
14.89
13.87
13.56
13.77
14.22
14.64
14.93
15.10
15.22
15.37
15.49
15.37
14.75
13.31
10.90
7.57
3.63
-0.43
-4.07
-6.86
-8.60
-9.41
-9.61
-9.67
-10.01
-10.90
-12.43
-14.52
-16.94
-19.41
-21.65
-23.53
-25.05
-26.47
-28.15
-30.43
-33.44
-37.01
-40.59
-43.42
-44.65
-43.62
-40.07
-34.18
-26.56
-18.12
-9.78
-2.25
4.08
9.15
13.08
16.07
18.22
19.58
20.18
20.11
19.53
18.64
17.69
16.89
16.41
16.38
16.80
17.63
18.71
19.83
20.78
21.35
21.39
20.84
19.74
18.18
16.27
14.12
11.75
9.17
6.43
3.59
0.86
-1.58
-3.64
-5.36
-6.93
-8.59
-10.48
-12.61
-14.83
-16.94
-18.80
-20.38
-21.77
-23.18
-24.84
-26.98
-29.76
-33.20
-37.12
-41.07
-44.37
-46.23
-45.94
-43.09
-37.77
-30.51
-22.19
-13.74
-5.89
0.99
6.85
11.81
15.95
19.24
21.53
22.68
22.72
21.94
20.78
19.76
19.27
19.40
20.07
20.99
21.94
22.76
23.43
23.99
24.40
24.52
24.14
23.13
21.48
19.37
17.11
14.95
13.02
11.25
9.49
7.56
5.44
3.21
0.99
-1.13
-3.16
-5.19
-7.31
-9.49
-11.61
-13.52
-15.13
-16.50
-17.89
-19.63
-22.01
-25.17
-29.00
-33.18
-37.22
-40.59
-42.74
-43.23
-41.79
-38.37
-33.17
-26.62
-19.26
-11.63
-4.18
2.75
8.94
14.20
18.33
21.14
22.51
22.42
21.10
18.99
16.65
14.69
13.54
13.36
14.01
15.18
16.46
17.57
18.33
18.67
18.63
18.30
17.80
17.25
16.70
16.09
15.27
14.10
12.51
10.57
8.48
6.39
4.36
2.30
0.11
-2.27
-4.77
-7.23
-9.52
-11.59
-13.53
-15.55
-17.90
-20.78
-24.27
-28.29
-32.58
-36.67
-39.96
-41.83
-41.77
-39.49
-35.03
-28.71
-21.10
-12.86
-4.66
2.93
9.47
14.69
18.46
20.80
21.87
21.93
21.36
20.48
19.58
18.84
18.39
18.29
18.57
19.23
20.25
21.58
23.16
24.89
26.68
28.36
29.68
30.36
30.18
29.08
27.18
24.79
22.26
19.87
17.80
16.01
14.44
12.96
11.46
9.83
8.02
5.95
3.63
1.09
-1.56
-4.23
-6.79
-9.18
-11.37
-13.46
-15.60
-18.08
-21.14
-24.90
-29.22
-33.56
-37.09
-38.86
-38.10
-34.53
-28.47
-20.70
-12.31
-4.28
2.74
8.48
13.02
16.58
19.36
21.43
22.74
23.25
23.01
22.24
21.28
20.45
19.95
19.80
19.83
19.89
19.87
19.81
19.82
19.97
20.24
20.44
20.36
19.80
18.76
17.34
15.74
14.13
12.57
11.03
9.37
7.51
5.43
3.29
1.31
-0.30
-1.45
-2.29
-3.08
-4.14
-5.64
-7.59
-9.82
-12.12
-14.29
-16.28
-18.20
-20.25
-22.68
-25.71
-29.42
-33.71
-38.22
-42.30
-45.17
-46.06
-44.46
-40.27
-33.83
-25.81
-17.04
-8.32
-0.29
6.65
12.31
16.63
19.69
21.61
22.56
22.69
22.17
21.23
20.12
19.09
18.37
18.08
18.20
18.64
19.27
19.96
20.61
21.11
21.29
21.03
20.26
19.01
17.46
15.79
14.16
12.64
11.21
9.79
8.33
6.77
4.99
2.91
0.48
-2.24
-5.06
-7.68
-9.84
-11.43
-12.52
-13.34
-14.13
-15.03
-16.10
-17.32
-18.72
-20.40
-22.50
-25.07
-27.88
-30.43
-32.03
-31.97
-29.85
-25.71
-20.04
-13.58
-7.05
-0.95
4.52
9.30
13.34
16.49
18.47
19.08
18.33
16.57
14.42
12.52
11.35
11.05
11.48
12.33
13.31
14.24
15.10
15.89
16.56
16.97
16.96
16.41
15.32
13.83
12.09
10.25
8.36
6.39
4.32
2.20
0.17
-1.63
-3.11
-4.35
-5.56
-6.96
-8.68
-10.67
-12.74
-14.67
-16.37
-17.85
-19.29
-20.91
-22.89
-25.34
-28.29
-31.64
-35.18
-38.49
-40.98
-42.01
-41.02
-37.75
-32.34
-25.30
-17.40
-9.44
-2.09
4.27
9.49
13.58
16.61
18.66
19.81
20.16
19.92
19.30
18.52
17.75
17.08
16.57
16.26
16.19
16.39
16.80
17.32
17.74
17.84
17.48
16.63
15.35
13.76
12.03
10.26
8.55
6.98
5.60
4.42
3.39
2.43
1.47
0.44
-0.67
-1.78
-2.88
-3.95
-5.06
-6.32
-7.79
-9.48
-11.31
-13.14
-14.89
-16.54
-18.21
-20.03
-22.19
-24.80
-27.90
-31.42
-35.10
-38.45
-40.84
-41.54
-40.00
-36.02
-29.88
-22.27
-14.09
-6.23
0.71
6.45
10.99
14.45
16.97
18.59
19.38
19.37
18.72
17.66
16.49
15.49
14.84
14.59
14.67
14.99
15.46
16.08
16.86
17.74
18.58
19.18
19.32
18.91
18.03
16.86
15.55
14.20
12.76
11.15
9.36
7.45
5.56
3.85
2.37
1.06
-0.26
-1.74
-3.49
-5.50
-7.60
-9.63
-11.45
-13.06
-14.57
-16.17
-18.02
-20.23
-22.80
-25.69
-28.76
-31.78
-34.42
-36.17
-36.48
-34.90
-31.24
-25.68
-18.79
-11.33
-4.07
2.45
7.91
12.19
15.29
17.19
17.92
17.54
16.29
14.54
12.75
11.34
10.59
10.56
11.11
12.01
13.00
13.94
14.72
15.30
15.62
15.56
15.06
14.10
12.74
11.15
9.54
7.99
6.50
4.97
3.28
1.46
-0.43
-2.23
-3.83
-5.23
-6.57
-8.02
-9.67
-11.52
-13.44
-15.31
-17.04
-18.68
-20.38
-22.35
-24.78
-27.78
-31.34
-35.21
-38.92
-41.77
-43.03
-42.09
-38.73
-33.20
-26.13
-18.35
-10.64
-3.56
2.62
7.78
11.93
15.04
17.06
18.00
17.91
16.99
15.57
14.05
12.86
12.30
12.56
13.64
15.43
17.71
20.23
22.72
24.91
26.56
27.42
27.39
26.48
24.88
22.87
20.75
18.70
16.79
14.91
12.97
10.90
8.75
6.70
4.94
3.61
2.70
1.97
1.12
-0.15
-1.93
-4.12
-6.43
-8.56
-10.36
-11.92
-13.54
-15.59
-18.30
-21.72
-25.58
-29.36
-32.38
-33.96
-33.62
-31.27
-27.27
-22.36
-17.38
-13.02
-9.57
-7.00
-5.10
-3.66
-2.65
-2.11
-2.06
-2.37
-2.82
-3.13
-3.20
-3.06
-2.87
-2.72
-2.58
-2.25
-1.41
0.16
2.47
5.30
8.23
10.77
12.54
13.38
13.38
12.85
12.11
11.47
11.01
10.67
10.26
9.60
8.63
7.42
6.15
5.01
4.11
3.39
2.63
1.56
-0.05
-2.27
-4.94
-7.74
-10.31
-12.35
-13.76
-14.66
-15.45
-16.79
-19.46
-24.06
-30.70
-38.65
-46.42
-52.06
-53.90
-51.05
-43.77
-33.29
-21.24
-9.17
1.93
11.52
19.40
25.40
29.32
31.08
30.86
29.22
26.94
24.83
23.42
22.85
22.88
23.15
23.31
23.28
23.11
22.97
22.94
22.93
22.74
22.14
20.98
19.22
16.98
14.41
11.73
9.10
6.63
4.32
2.07
-0.24
-2.74
-5.44
-8.25
-10.99
-13.47
-15.60
-17.41
-19.08
-20.81
-22.84
-25.30
-28.21
-31.45
-34.68
-37.47
-39.28
-39.59
-37.95
-34.16
-28.30
-20.80
-12.32
-3.61
4.63
11.94
18.06
22.90
26.44
28.68
29.66
29.51
28.56
27.28
26.18
25.66
25.86
26.65
27.71
28.65
29.20
29.26
28.86
28.13
27.16
25.93
24.39
22.45
20.13
17.53
14.83
12.19
9.74
7.49
5.38
3.29
1.11
-1.22
-3.72
-6.34
-9.02
-11.65
-14.13
-16.40
-18.46
-20.42
-22.51
-25.04
-28.28
-32.40
-37.29
-42.48
-47.15
-50.29
-50.99
-48.69
-43.43
-35.77
-26.67
-17.14
-8.02
0.18
7.21
13.00
17.57
20.90
23.00
23.92
23.80
22.88
21.45
19.92
18.63
17.89
17.85
18.53
19.77
21.32
22.92
24.32
25.33
25.87
25.90
25.47
24.65
23.50
22.06
20.36
18.37
16.11
13.64
11.06
8.50
6.04
3.69
1.43
-0.79
-3.01
-5.24
-7.48
-9.73
-12.00
-14.31
-16.65
-19.07
-21.66
-24.60
-28.12
-32.31
-37.05
-41.84
-45.84
-48.08
-47.76
-44.52
-38.57
-30.60
-21.57
-12.42
-3.88
3.67
10.04
15.23
19.27
22.17
23.96
24.72
24.63
23.96
23.08
22.32
21.97
22.11
22.70
23.57
24.54
25.42
26.13
26.65
26.92
26.86
26.35
25.26
23.53
21.23
18.55
15.71
12.96
10.47
8.29
6.37
4.62
2.90
1.11
-0.81
-2.84
-4.94
-7.04
-9.08
-11.09
-13.11
-15.24
-17.56
-20.15
-23.09
-26.42
-30.06
-33.69
-36.73
-38.42
-38.01
-35.07
-29.65
-22.31
-13.94
-5.48
2.34
9.15
14.80
19.32
22.70
24.89
25.84
25.64
24.55
22.99
21.44
20.32
19.81
19.89
20.36
20.97
21.53
21.97
22.29
22.52
22.65
22.58
22.21
21.46
20.35
18.99
17.52
16.01
14.49
12.86
10.99
8.82
6.44
3.99
1.65
-0.53
-2.65
-4.87
-7.33
-9.99
-12.65
-15.08
-17.10
-18.73
-20.21
-21.87
-24.09
-27.09
-30.96
-35.54
-40.37
-44.74
-47.70
-48.37
-46.17
-41.05
-33.54
-24.62
-15.34
-6.61
1.05
7.49
12.74
16.89
19.97
21.99
23.00
23.15
22.69
21.94
21.18
20.61
20.33
20.37
20.69
21.29
22.16
23.26
24.47
25.59
26.41
26.70
26.37
25.40
23.98
22.32
20.68
19.20
17.87
16.53
14.95
13.01
10.69
8.18
5.72
3.55
1.75
0.25
-1.12
-2.58
-4.32
-6.41
-8.82
-11.45
-14.12
-16.67
-19.01
-21.20
-23.39
-25.82
-28.77
-32.41
-36.68
-41.23
-45.35
-48.11
-48.58
-46.17
-40.79
-32.98
-23.75
-14.25
-5.46
2.05
8.15
12.99
16.84
19.82
21.99
23.34
23.90
23.86
23.51
23.17
23.08
23.34
23.86
24.48
25.05
25.50
25.83
26.05
26.11
25.89
25.28
24.17
22.58
20.62
18.49
16.38
14.41
12.59
10.82
8.95
6.85
4.50
2.00
-0.38
-2.35
-3.74
-4.58
-5.17
-5.93
-7.20
-9.09
-11.42
-13.83
-15.99
-17.76
-19.25
-20.72
-22.48
-24.80
-27.77
-31.34
-35.23
-38.95
-41.79
-42.94
-41.74
-37.86
-31.53
-23.49
-14.76
-6.36
0.99
6.93
11.48
14.76
16.90
17.93
17.90
16.96
15.42
13.75
12.40
11.66
11.60
12.07
12.87
13.83
14.87
15.94
17.01
17.95
18.61
18.83
18.51
17.64
16.34
14.72
12.94
11.11
9.30
7.50
5.67
3.75
1.69
-0.52
-2.88
-5.35
-7.88
-10.41
-12.86
-15.15
-17.25
-19.18
-21.07
-23.08
-25.44
-28.28
-31.61
-35.27
-38.87
-41.81
-43.39
-42.93
-40.04
-34.74
-27.47
-19.05
-10.34
-2.10
5.17
11.22
15.98
19.41
21.49
22.25
21.84
20.52
18.68
16.79
15.23
14.30
14.11
14.58
15.50
16.58
17.57
18.30
18.73
18.87
18.69
18.16
17.26
16.02
14.56
13.07
11.68
10.41
9.16
7.70
5.88
3.68
1.23
-1.22
-3.50
-5.50
-7.30
-9.04
-10.81
-12.64
-14.46
-16.18
-17.75
-19.21
-20.71
-22.47
-24.74
-27.70
-31.38
-35.59
-39.88
-43.58
-45.94
-46.29
-44.19
-39.64
-33.01
-25.00
-16.44
-8.10
-0.52
6.02
11.47
15.85
19.19
21.45
22.59
22.68
22.00
21.00
20.14
19.76
19.96
20.58
21.39
22.17
22.86
23.49
24.14
24.83
25.46
25.87
25.88
25.35
24.28
22.73
20.83
18.69
16.38
13.93
11.37
8.73
6.14
3.72
1.59
-0.22
-1.82
-3.40
-5.16
-7.19
-9.44
-11.76
-13.96
-15.94
-17.72
-19.45
-21.35
-23.65
-26.50
-30.00
-34.06
-38.41
-42.53
-45.68
-47.08
-46.10
-42.50
-36.56
-29.00
-20.72
-12.64
-5.33
0.92
6.13
10.41
13.83
16.39
18.02
18.74
18.72
18.24
17.68
17.35
17.42
17.93
18.77
19.79
20.82
21.72
22.42
22.85
22.98
22.80
22.29
21.44
20.21
18.62
16.71
14.58
12.39
10.27
8.31
6.51
4.87
3.33
1.89
0.51
-0.83
-2.20
-3.67
-5.28
-7.02
-8.84
-10.68
-12.54
-14.53
-16.83
-19.63
-22.99
-26.77
-30.60
-33.90
-36.05
-36.51
-34.91
-31.18
-25.52
-18.45
-10.61
-2.76
4.44
10.49
15.16
18.47
20.62
21.81
22.22
21.97
21.17
20.00
18.75
17.73
17.20
17.24
17.76
18.55
19.39
20.13
20.67
20.98
21.03
20.77
20.18
19.26
18.09
16.77
15.44
14.17
12.96
11.69
10.24
8.50
6.51
4.37
2.32
0.53
-0.95
-2.26
-3.69
-5.52
-7.89
-10.73
-13.76
-16.61
-19.02
-20.95
-22.63
-24.48
-26.96
-30.34
-34.56
-39.17
-43.36
-46.16
-46.69
-44.45
-39.42
-32.15
-23.56
-14.64
-6.21
1.24
7.55
12.69
16.73
19.68
21.55
22.44
22.55
22.17
21.57
20.98
20.51
20.17
19.98
19.97
20.13
20.46
20.86
21.24
21.46
21.40
21.00
20.24
19.17
17.87
16.45
14.99
13.54
12.10
10.58
8.90
6.98
4.87
2.71
0.72
-0.92
-2.11
-2.98
-3.79
-4.89
-6.54
-8.78
-11.43
-14.13
-16.55
-18.49
-20.04
-21.48
-23.16
-25.40
-28.30
-31.71
-35.28
-38.48
-40.75
-41.50
-40.30
-36.94
-31.57
-24.68
-16.97
-9.25
-2.13
4.03
9.16
13.34
16.62
18.96
20.25
20.43
19.60
18.13
16.48
15.07
14.16
13.77
13.75
13.92
14.19
14.50
14.89
15.33
15.70
15.85
15.61
14.91
13.73
12.21
10.49
8.74
7.11
5.63
4.30
3.01
1.69
0.27
-1.21
-2.70
-4.12
-5.47
-6.86
-8.38
-10.14
-12.09
-14.13
-16.16
-18.14
-20.15
-22.37
-24.97
-28.02
-31.38
-34.64
-37.26
-38.64
-38.31
-36.05
-31.98
-26.47
-20.00
-13.13
-6.34
-0.07
5.28
9.42
12.19
13.60
13.82
13.19
12.10
10.96
10.11
9.75
9.98
10.68
11.64
12.57
13.26
13.59
13.64
13.51
13.31
13.03
12.56
11.74
10.43
8.60
6.36
3.90
1.47
-0.80
-2.86
-4.79
-6.74
-8.85
-11.09
-13.33
-15.30
-16.81
-17.83
-18.62
-19.62
-21.36
-24.18
-28.16
-32.97
-38.01
-42.47
-45.55
-46.60
-45.26
-41.53
-35.78
-28.62
-20.76
-12.82
-5.24
1.67
7.77
12.86
16.77
19.30
20.35
20.06
18.74
16.93
15.21
14.14
14.07
15.12
17.17
19.94
23.04
26.13
28.96
31.38
33.32
34.71
35.43
35.37
34.45
32.74
30.43
27.81
25.16
22.67
20.34
18.06
15.68
13.07
10.23
7.26
4.29
1.48
-1.11
-3.52
-5.86
-8.32
-11.12
-14.47
-18.49
-23.14
-28.11
-32.80
-36.37
-37.97
-37.02
-33.42
-27.59
-20.36
-12.63
-5.13
1.71
7.75
12.97
17.37
20.84
23.22
24.41
24.46
23.62
22.28
20.89
19.79
19.19
19.05
19.27
19.67
20.15
20.68
21.26
21.86
22.36
22.63
22.53
21.95
20.89
19.40
17.56
15.47
13.25
11.03
8.96
7.08
5.40
3.82
2.22
0.53
-1.22
-2.92
-4.46
-5.78
-6.95
-8.15
-9.58
-11.39
-13.63
-16.29
-19.30
-22.56
-25.83
-28.67
-30.49
-30.62
-28.66
-24.56
-18.72
-11.87
-4.84
1.67
7.24
11.67
14.93
17.02
17.97
17.82
16.70
14.85
12.63
10.46
8.72
7.69
7.47
7.98
8.96
10.13
11.17
11.91
12.25
12.21
11.82
11.17
10.33
9.34
8.29
7.23
6.16
5.04
3.77
2.29
0.59
-1.21
-2.93
-4.40
-5.54
-6.41
-7.22
-8.21
-9.59
-11.51
-13.97
-16.93
-20.19
-23.40
-26.07
-27.59
-27.45
-25.35
-21.39
-16.03
-9.97
-3.89
1.67
6.47
10.44
13.60
15.89
17.21
17.46
16.72
15.28
13.56
12.04
11.02
10.59
10.61
10.83
11.03
11.10
11.05
10.94
10.78
10.48
9.88
8.82
7.19
5.07
2.63
0.10
-2.30
-4.50
-6.53
-8.48
-10.44
-12.43
-14.47
-16.56
-18.74
-21.04
-23.37
-25.45
-26.85
-27.12
-25.92
-23.22
-19.27
-14.56
-9.56
-4.67
-0.09
4.11
7.90
11.18
13.77
15.47
16.10
15.71
14.51
12.90
11.33
10.09
9.28
8.81
8.46
8.09
7.66
7.27
7.03
6.93
6.80
6.39
5.46
3.94
1.99
-0.11
-2.06
-3.74
-5.16
-6.51
-7.95
-9.63
-11.62
-13.94
-16.58
-19.48
-22.41
-24.99
-26.75
-27.22
-26.16
-23.57
-19.74
-15.08
-10.00
-4.84
0.12
4.58
8.19
10.65
11.77
11.63
10.51
8.87
7.18
5.81
4.91
4.44
4.26
4.19
4.10
4.04
4.05
4.19
4.44
4.61
4.46
3.76
2.46
0.65
-1.39
-3.39
-5.13
-6.56
-7.80
-9.05
-10.55
-12.52
-15.01
-17.87
-20.71
-22.93
-23.92
-23.22
-20.73
-16.71
-11.71
-6.40
-1.33
3.13
6.80
9.60
11.47
12.38
12.38
11.61
10.31
8.73
7.08
5.48
4.01
2.71
1.69
1.05
0.87
1.16
1.80
2.57
3.23
3.53
3.32
2.50
1.09
-0.77
-2.88
-5.01
-7.00
-8.80
-10.50
-12.30
-14.37
-16.76
-19.36
-21.85
-23.74
-24.55
-23.89
-21.57
-17.75
-12.80
-7.28
-1.71
3.50
8.16
12.18
15.56
18.22
20.12
21.19
21.43
20.94
19.85
18.37
16.70
15.03
13.50
12.26
11.35
10.74
10.36
10.08
9.81
9.48
9.09
8.65
8.13
7.43
6.47
5.15
3.42
1.33
-0.97
-3.30
-5.50
-7.50
-9.32
-11.11
-13.01
-15.15
-17.54
-20.12
-22.65
-24.82
-26.22
-26.42
-25.14
-22.25
-17.90
-12.48
-6.53
-0.62
4.77
9.34
12.98
15.73
17.67
18.89
19.45
19.38
18.78
17.77
16.53
15.31
14.30
13.68
13.49
13.68
14.09
14.49
14.68
14.52
14.00
13.23
12.33
11.38
10.39
9.33
8.16
6.92
5.69
4.58
3.60
2.72
1.84
0.86
-0.31
-1.69
-3.25
-4.90
-6.55
-8.06
-9.35
-10.39
-11.27
-12.16
-13.29
-14.85
-16.95
-19.59
-22.67
-25.91
-28.88
-31.07
-31.92
-31.00
-28.14
-23.51
-17.57
-10.97
-4.40
1.58
6.58
10.44
13.16
14.84
15.70
15.91
15.66
15.05
14.18
13.19
12.20
11.37
10.75
10.34
10.04
9.80
9.61
9.55
9.73
10.16
10.71
11.19
11.35
11.04
10.31
9.33
8.32
7.47
6.84
6.38
5.93
5.36
4.54
3.43
2.06
0.50
-1.13
-2.72
-4.15
-5.35
-6.30
-7.05
-7.72
-8.44
-9.31
-10.36
-11.59
-12.92
-14.24
-15.48
-16.58
-17.62
-18.78
-20.31
-22.41
-25.04
-27.83
-30.12
-31.14
-30.30
-27.42
-22.83
-17.21
-11.28
-5.66
-0.62
3.75
7.46
10.44
12.55
13.66
13.77
13.09
11.96
10.77
9.77
9.05
8.57
8.22
7.91
7.63
7.44
7.43
7.63
8.01
8.43
8.75
8.82
8.61
8.17
7.59
6.95
6.31
5.66
4.99
4.24
3.37
2.41
1.35
0.23
-0.89
-2.00
-3.09
-4.20
-5.33
-6.51
-7.72
-8.91
-10.03
-11.05
-11.95
-12.81
-13.71
-14.79
-16.20
-18.03
-20.23
-22.56
-24.54
-25.60
-25.25
-23.25
-19.70
-15.04
-9.87
-4.78
-0.17
3.77
6.99
9.52
11.35
12.44
12.77
12.41
11.54
10.44
9.45
8.80
8.60
8.77
9.15
9.58
9.97
10.31
10.63
10.90
11.08
11.08
10.86
10.47
9.96
9.42
8.82
8.10
7.19
6.05
4.74
3.32
1.82
0.23
-1.46
-3.26
-5.10
-6.87
-8.47
-9.84
-11.03
-12.09
-13.15
-14.35
-15.81
-17.65
-19.91
-22.50
-25.18
-27.52
-28.97
-29.02
-27.40
-24.16
-19.71
-14.65
-9.58
-4.92
-0.86
2.66
5.66
8.12
9.96
11.10
11.54
11.39
10.86
10.18
9.55
9.10
8.92
9.05
9.43
9.96
10.48
10.90
11.16
11.35
11.52
11.66
11.67
11.33
10.49
9.10
7.31
5.36
3.54
1.98
0.64
-0.65
-2.09
-3.81
-5.77
-7.80
-9.69
-11.26
-12.50
-13.50
-14.47
-15.63
-17.14
-19.08
-21.42
-24.05
-26.71
-29.02
-30.48
-30.59
-28.98
-25.55
-20.52
-14.44
-7.99
-1.81
3.68
8.27
11.93
14.68
16.50
17.32
17.14
16.07
14.40
12.59
11.06
10.10
9.74
9.82
10.10
10.36
10.51
10.61
10.73
10.87
10.96
10.82
10.31
9.33
7.97
6.34
4.58
2.77
0.92
-0.96
-2.87
-4.72
-6.42
-7.94
-9.27
-10.57
-11.98
-13.71
-15.87
-18.44
-21.22
-23.78
-25.58
-26.09
-25.01
-22.33
-18.36
-13.64
-8.70
-3.95
0.36
4.12
7.19
9.43
10.67
10.83
10.02
8.55
6.85
5.31
4.18
3.52
3.20
3.11
3.15
3.36
3.80
4.48
5.30
6.01
6.31
5.98
4.98
3.51
1.87
0.37
-0.84
-1.85
-2.89
-4.28
-6.24
-8.86
-12.06
-15.58
-19.07
-22.04
-23.96
-24.31
-22.72
-19.11
-13.68
-6.95
0.42
7.80
14.67
20.66
25.53
29.13
31.35
32.21
31.87
30.67
29.09
27.61
26.64
26.38
26.77
27.60
28.61
29.62
30.60
31.66
32.84
34.07
35.07
35.40
34.65
32.58
29.24
25.03
20.49
16.26
12.81
10.40
8.94
8.07
7.23
5.92
3.95
1.54
-0.62
-1.65
-0.83
2.05
6.62
12.06
17.43
22.13
25.97
29.16
31.97
34.51
36.58
37.75
37.65
36.14
33.39
29.76
25.61
21.15
16.40
11.40
6.29
1.46
-2.55
-5.28
-6.62
-6.88
-6.77
-7.15
-8.73
-11.85
-16.45
-22.13
-28.38
-34.74
-40.86
-46.57
-51.87
-56.81
-61.57
-66.27
-70.96
-75.47
-79.40
-82.17
-83.25
-82.24
-79.04
-73.75
-66.70
-58.27
-48.93
-39.16
-29.51
-20.54
-12.75
-6.47
-1.85
1.17
2.74
3.18
2.86
2.20
1.59
1.31
1.43
1.88
2.50
3.15
3.79
4.47
5.23
6.02
6.66
6.87
6.40
5.11
3.08
0.55
-2.08
-4.44
-6.24
-7.46
-8.34
-9.32
-10.93
-13.57
-17.37
-22.08
-27.07
-31.43
-34.23
-34.68
-32.39
-27.43
-20.29
-11.73
-2.62
6.25
14.23
20.80
25.54
28.18
28.64
27.17
24.27
20.65
17.03
13.89
11.44
9.59
8.15
6.94
5.93
5.20
4.86
4.91
5.19
5.34
4.92
3.60
1.26
-1.94
-5.60
-9.25
-12.52
-15.33
-17.87
-20.51
-23.65
-27.53
-32.12
-37.07
-41.72
-45.23
-46.74
-45.56
-41.42
-34.54
-25.62
-15.61
-5.51
3.87
11.97
18.49
23.29
26.32
27.61
27.37
25.97
23.94
21.81
20.01
18.72
17.87
17.23
16.62
16.00
15.48
15.28
15.51
16.11
16.80
17.15
16.73
15.27
12.74
9.34
5.44
1.39
-2.58
-6.45
-10.37
-14.60
-19.33
-24.56
-30.02
-35.13
-39.07
-40.99
-40.12
-36.09
-29.02
-19.53
-8.59
2.67
13.30
22.57
30.04
35.52
38.98
40.48
40.26
38.71
36.36
33.75
31.32
29.33
27.76
26.46
25.23
23.93
22.54
21.13
19.76
18.48
17.25
15.96
14.50
12.77
10.76
8.51
6.11
3.61
0.93
-2.15
-5.93
-10.57
-15.97
-21.58
-26.50
-29.69
-30.34
-28.14
-23.38
-16.73
-9.00
-0.91
7.07
14.58
21.28
26.80
30.77
33.00
33.52
32.64
30.75
28.24
25.43
22.50
19.60
16.88
14.45
12.39
10.63
9.05
7.47
5.66
3.49
0.91
-2.06
-5.33
-8.80
-12.39
-16.05
-19.88
-24.02
-28.72
-34.18
-40.42
-47.19
-53.83
-59.45
-63.10
-64.17
-62.55
-58.64
-53.19
-46.96
-40.52
-34.15
-27.89
-21.65
-15.35
-8.93
-2.34
4.47
11.55
18.91
26.53
34.26
41.91
49.22
55.89
61.62
66.11
69.15
70.58
70.39
68.74
65.89
62.24
58.13
53.86
49.53
45.11
40.45
35.36
29.63
23.21
16.21
9.06
2.49
-2.58
-5.22
-4.82
-1.32
4.76
12.46
20.62
28.18
34.42
38.98
41.76
42.87
42.46
40.69
37.81
34.18
30.21
26.32
22.82
19.87
17.41
15.30
13.30
11.25
9.08
6.82
4.56
2.37
0.22
-1.96
-4.29
-6.88
-9.75
-12.91
-16.36
-20.14
-24.30
-28.79
-33.32
-37.28
-39.81
-40.07
-37.48
-32.00
-24.09
-14.64
-4.68
4.86
13.33
20.36
25.76
29.46
31.41
31.59
30.15
27.36
23.71
19.75
16.04
12.94
10.55
8.71
7.11
5.44
3.53
1.42
-0.70
-2.58
-4.14
-5.41
-6.62
-8.03
-9.89
-12.38
-15.54
-19.35
-23.62
-27.97
-31.81
-34.40
-34.99
-33.04
-28.44
-21.59
-13.24
-4.34
4.25
11.90
18.25
23.14
26.53
28.38
28.67
27.42
24.81
21.25
17.32
13.67
10.75
8.71
7.38
6.35
5.27
3.94
2.42
0.89
-0.45
-1.55
-2.50
-3.54
-4.97
-7.05
-9.98
-13.76
-18.21
-22.84
-26.96
-29.82
-30.72
-29.26
-25.42
-19.53
-12.23
-4.29
3.51
10.57
16.43
20.87
23.76
25.07
24.85
23.24
20.51
17.13
13.61
10.44
7.90
6.00
4.54
3.18
1.72
0.19
-1.22
-2.28
-2.93
-3.32
-3.83
-4.86
-6.69
-9.41
-12.88
-16.81
-20.74
-24.16
-26.46
-27.06
-25.58
-21.93
-16.37
-9.45
-1.85
5.82
13.09
19.64
25.22
29.56
32.42
33.62
33.14
31.14
28.00
24.23
20.30
16.65
13.49
10.82
8.54
6.50
4.59
2.83
1.25
-0.09
-1.21
-2.22
-3.26
-4.51
-6.13
-8.31
-11.21
-14.94
-19.45
-24.39
-29.03
-32.45
-33.75
-32.35
-28.18
-21.75
-13.91
-5.65
2.19
9.08
14.75
19.08
22.04
23.60
23.81
22.80
20.85
18.26
15.38
12.49
9.81
7.50
5.65
4.30
3.39
2.79
2.28
1.66
0.73
-0.55
-2.18
-4.07
-6.12
-8.30
-10.67
-13.34
-16.38
-19.78
-23.33
-26.57
-28.83
-29.41
-27.75
-23.66
-17.38
-9.57
-1.17
6.88
13.84
19.29
23.08
25.34
26.25
26.02
24.86
23.00
20.65
18.09
15.56
13.32
11.48
10.07
9.04
8.29
7.72
7.30
6.97
6.66
6.21
5.43
4.20
2.50
0.49
-1.60
-3.62
-5.67
-8.02
-11.00
-14.71
-18.89
-22.84
-25.69
-26.65
-25.29
-21.64
-16.14
-9.48
-2.37
4.56
10.85
16.17
20.37
23.42
25.33
26.12
25.86
24.66
22.77
20.50
18.26
16.34
14.84
13.65
12.56
11.41
10.19
9.08
8.27
7.84
7.65
7.42
6.80
5.62
3.93
1.96
-0.03
-1.85
-3.47
-5.04
-6.78
-8.91
-11.55
-14.74
-18.31
-21.91
-24.96
-26.79
-26.76
-24.54
-20.21
-14.30
-7.62
-0.96
5.06
10.17
14.29
17.43
19.58
20.69
20.76
19.89
18.35
16.46
14.50
12.62
10.89
9.37
8.14
7.28
6.82
6.68
6.67
6.54
6.12
5.32
4.13
2.60
0.75
-1.37
-3.67
-5.96
-8.02
-9.68
-10.92
-11.89
-12.84
-14.02
-15.57
-17.47
-19.60
-21.74
-23.63
-25.04
-25.66
-25.21
-23.46
-20.38
-16.16
-11.26
-6.21
-1.53
2.48
5.69
8.14
9.89
10.95
11.29
10.90
9.85
8.34
6.62
4.98
3.60
2.60
1.95
1.55
1.26
0.96
0.56
0.01
-0.67
-1.44
-2.29
-3.22
-4.27
-5.46
-6.75
-8.06
-9.27
-10.32
-11.23
-12.09
-13.01
-14.05
-15.20
-16.40
-17.55
-18.55
-19.25
-19.47
-18.99
-17.60
-15.24
-12.05
-8.33
-4.46
-0.81
2.40
5.06
7.12
8.52
9.20
9.17
8.49
7.34
5.95
4.51
3.15
1.91
0.80
-0.15
-0.92
-1.47
-1.77
-1.83
-1.70
-1.45
-1.12
-0.79
-0.57
-0.57
-0.89
-1.54
-2.44
-3.42
-4.34
-5.11
-5.80
-6.59
-7.65
-9.08
-10.82
-12.64
-14.30
-15.56
-16.31
-16.52
-16.21
-15.36
-13.97
-12.03
-9.61
-6.91
-4.24
-1.94
-0.29
0.55
0.60
-0.04
-1.13
-2.45
-3.74
-4.84
-5.56
-5.79
-5.53
-4.88
-4.06
-3.34
-2.96
-2.97
-3.27
-3.65
-3.93
-4.01
-3.93
-3.79
-3.70
-3.70
-3.78
-3.91
-4.07
-4.27
-4.54
-4.90
-5.36
-5.90
-6.45
-6.91
-7.11
-6.89
-6.11
-4.79
-3.06
-1.17
0.61
2.10
3.15
3.73
3.83
3.47
2.69
1.58
0.29
-0.98
-2.06
-2.82
-3.24
-3.40
-3.46
-3.58
-3.89
-4.36
-4.89
-5.33
-5.55
-5.56
-5.46
-5.40
-5.46
-5.65
-5.92
-6.25
-6.69
-7.35
-8.36
-9.64
-10.98
-12.01
-12.35
-11.80
-10.38
-8.41
-6.27
-4.37
-2.91
-1.97
-1.40
-1.04
-0.74
-0.47
-0.31
-0.38
-0.78
-1.54
-2.57
-3.73
-4.88
-5.94
-6.88
-7.67
-8.32
-8.81
-9.14
-9.34
-9.49
-9.67
-9.95
-10.35
-10.87
-11.46
-12.13
-12.87
-13.69
-14.56
-15.39
-16.00
-16.16
-15.64
-14.32
-12.23
-9.57
-6.69
-3.91
-1.50
0.47
1.97
3.01
3.52
3.39
2.57
1.18
-0.47
-1.96
-2.93
-3.26
-3.07
-2.68
-2.42
-2.49
-2.86
-3.34
-3.70
-3.79
-3.62
-3.35
-3.22
-3.42
-4.03
-5.08
-6.54
-8.37
-10.55
-12.95
-15.35
-17.35
-18.50
-18.44
-17.02
-14.40
-10.99
-7.29
-3.72
-0.52
2.26
4.62
6.57
7.96
8.67
8.61
7.87
6.67
5.25
3.78
2.31
0.77
-0.87
-2.56
-4.12
-5.37
-6.20
-6.60
-6.70
-6.68
-6.74
-7.01
-7.62
-8.64
-10.08
-11.85
-13.77
-15.56
-16.94
-17.66
-17.57
-16.60
-14.80
-12.30
-9.27
-5.91
-2.46
0.86
3.76
5.96
7.20
7.28
6.20
4.19
1.74
-0.63
-2.46
-3.52
-3.87
-3.74
-3.45
-3.22
-3.16
-3.26
-3.44
-3.63
-3.80
-4.02
-4.46
-5.36
-6.91
-9.20
-12.06
-15.07
-17.63
-19.11
-19.05
-17.30
-13.96
-9.39
-4.01
1.74
7.41
12.59
16.94
20.21
22.36
23.49
23.86
23.71
23.22
22.38
21.13
19.38
17.15
14.53
11.72
8.85
6.01
3.24
0.56
-1.99
-4.41
-6.67
-8.92
-11.33
-14.14
-17.46
-21.17
-24.86
-27.88
-29.56
-29.35
-27.02
-22.76
-17.04
-10.54
-3.90
2.39
8.01
12.78
16.56
19.22
20.63
20.76
19.76
17.91
15.63
13.29
11.16
9.38
7.96
6.88
6.09
5.55
5.25
5.09
4.89
4.45
3.52
1.88
-0.56
-3.79
-7.61
-11.72
-15.67
-18.90
-20.79
-20.82
-18.67
-14.34
-8.19
-0.85
6.92
14.48
21.25
26.81
30.80
32.92
33.01
31.18
27.85
23.75
19.59
15.94
13.02
10.74
8.81
7.02
5.28
3.73
2.54
1.81
1.43
1.07
0.27
-1.45
-4.38
-8.54
-13.62
-19.00
-23.88
-27.37
-28.68
-27.30
-23.13
-16.45
-7.97
1.45
10.93
19.73
27.36
33.45
37.77
40.09
40.35
38.63
35.32
31.04
26.51
22.33
18.86
16.07
13.74
11.59
9.44
7.36
5.55
4.25
3.50
3.10
2.58
1.40
-0.92
-4.57
-9.42
-14.98
-20.51
-25.06
-27.66
-27.55
-24.31
-18.07
-9.48
0.45
10.60
19.99
27.97
34.18
38.46
40.73
40.97
39.27
35.98
31.62
26.95
22.69
19.34
17.09
15.77
14.98
14.30
13.43
12.27
10.91
9.45
7.97
6.39
4.48
1.94
-1.49
-5.96
-11.39
-17.44
-23.45
-28.54
-31.71
-32.08
-29.15
-22.95
-14.06
-3.47
7.68
18.32
27.69
35.30
40.87
44.26
45.40
44.36
41.42
37.10
32.11
27.21
23.01
19.83
17.62
16.06
14.75
13.36
11.82
10.20
8.69
7.43
6.39
5.38
4.01
1.88
-1.41
-6.04
-11.89
-18.49
-24.97
-30.24
-33.19
-32.99
-29.34
-22.55
-13.44
-3.20
7.01
16.24
23.91
29.77
33.76
35.85
36.05
34.37
31.03
26.49
21.45
16.65
12.67
9.75
7.77
6.37
5.12
3.76
2.28
0.86
-0.20
-0.68
-0.58
-0.09
0.40
0.45
-0.36
-2.35
-5.62
-9.98
-14.85
-19.24
-21.97
-21.95
-18.66
-12.28
-3.76
5.54
14.26
21.50
26.86
30.33
32.07
32.16
30.64
27.66
23.55
18.90
14.37
10.48
7.42
5.08
3.15
1.34
-0.47
-2.27
-3.92
-5.29
-6.31
-6.98
-7.42
-7.82
-8.37
-9.26
-10.65
-12.62
-15.25
-18.50
-22.17
-25.76
-28.46
-29.31
-27.48
-22.66
-15.18
-5.99
3.68
12.70
20.35
26.28
30.42
32.81
33.52
32.67
30.53
27.51
24.08
20.64
17.45
14.63
12.19
10.15
8.50
7.22
6.21
5.29
4.29
3.11
1.72
0.18
-1.46
-3.22
-5.16
-7.35
-9.89
-12.84
-16.25
-20.12
-24.33
-28.57
-32.23
-34.55
-34.75
-32.31
-27.14
-19.71
-10.86
-1.67
6.88
14.04
19.40
22.83
24.44
24.41
23.03
20.60
17.54
14.25
11.17
8.63
6.86
5.84
5.42
5.31
5.26
5.09
4.76
4.35
3.90
3.35
2.52
1.14
-0.95
-3.72
-6.91
-10.16
-13.13
-15.61
-17.61
-19.25
-20.75
-22.35
-24.30
-26.74
-29.68
-32.82
-35.55
-37.02
-36.45
-33.34
-27.75
-20.22
-11.68
-3.12
4.64
11.04
15.85
19.03
20.72
21.10
20.33
18.64
16.27
13.54
10.79
8.37
6.56
5.49
5.13
5.32
5.80
6.36
6.82
7.08
7.07
6.75
6.09
5.09
3.72
2.06
0.13
-1.97
-4.15
-6.28
-8.30
-10.19
-11.99
-13.77
-15.59
-17.49
-19.47
-21.56
-23.85
-26.44
-29.35
-32.37
-34.97
-36.37
-35.79
-32.77
-27.35
-20.12
-12.07
-4.17
2.85
8.62
13.05
16.16
17.96
18.40
17.51
15.52
12.86
10.07
7.62
5.82
4.72
4.20
4.08
4.23
4.57
5.05
5.63
6.20
6.60
6.67
6.31
5.50
4.33
2.93
1.39
-0.24
-2.03
-4.09
-6.46
-9.05
-11.63
-13.94
-15.79
-17.21
-18.44
-19.83
-21.71
-24.27
-27.45
-30.96
-34.26
-36.61
-37.24
-35.50
-31.14
-24.45
-16.22
-7.56
0.47
7.13
12.18
15.73
18.07
19.38
19.71
18.96
17.15
14.49
11.45
8.57
6.29
4.82
4.11
3.91
3.99
4.18
4.40
4.66
4.92
5.12
5.15
4.93
4.40
3.51
2.21
0.48
-1.71
-4.30
-7.15
-10.05
-12.78
-15.21
-17.30
-19.14
-20.87
-22.71
-24.85
-27.39
-30.31
-33.26
-35.66
-36.73
-35.75
-32.28
-26.42
-18.77
-10.30
-2.00
5.33
11.23
15.51
18.18
19.31
19.01
17.47
14.98
11.94
8.83
6.08
4.00
2.67
1.96
1.60
1.26
0.71
-0.06
-0.93
-1.64
-2.06
-2.25
-2.50
-3.21
-4.70
-7.01
-9.94
-13.07
-15.98
-18.41
-20.40
-22.25
-24.38
-27.21
-31.01
-35.79
-41.27
-46.81
-51.53
-54.35
-54.38
-51.11
-44.75
-36.17
-26.66
-17.54
-9.71
-3.50
1.27
5.00
8.08
10.69
12.94
14.93
16.80
18.67
20.58
22.42
24.07
25.49
26.80
28.17
29.69
31.24
32.58
33.51
34.02
34.40
35.02
36.22
38.01
40.13
42.05
43.25
43.29
41.87
38.81
34.01
27.47
19.33
10.01
0.27
-8.81
-15.97
-20.11
-20.62
-17.61
-11.87
-4.63
2.84
9.60
15.14
19.33
22.19
23.70
23.71
22.11
18.90
14.35
9.00
3.53
-1.45
-5.52
-8.52
-10.52
-11.74
-12.43
-12.85
-13.18
-13.56
-14.11
-14.87
-15.87
-17.10
-18.51
-19.98
-21.43
-22.84
-24.23
-25.77
-27.70
-30.28
-33.60
-37.43
-41.18
-43.96
-44.81
-43.05
-38.49
-31.57
-23.20
-14.47
-6.37
0.47
5.80
9.59
11.92
12.86
12.43
10.74
8.05
4.82
1.65
-0.85
-2.24
-2.42
-1.56
-0.07
1.58
3.01
3.97
4.37
4.21
3.54
2.39
0.82
-1.14
-3.45
-6.08
-9.02
-12.25
-15.68
-19.07
-22.00
-23.86
-24.05
-22.09
-17.78
-11.30
-3.23
5.56
14.07
21.39
26.88
30.25
31.55
31.08
29.23
26.33
22.70
18.62
14.49
10.75
7.82
5.95
5.05
4.75
4.56
4.08
3.17
1.90
0.50
-0.87
-2.22
-3.64
-5.34
-7.48
-10.23
-13.67
-17.84
-22.59
-27.50
-31.84
-34.68
-35.10
-32.58
-27.14
-19.42
-10.42
-1.25
7.25
14.57
20.53
25.10
28.28
29.96
30.10
28.74
26.21
23.03
19.84
17.20
15.43
14.55
14.29
14.26
14.05
13.39
12.23
10.64
8.79
6.82
4.83
2.83
0.71
-1.72
-4.70
-8.45
-13.02
-18.18
-23.32
-27.48
-29.63
-28.97
-25.24
-18.83
-10.66
-1.88
6.50
13.82
19.80
24.38
27.56
29.34
29.72
28.79
26.84
24.31
21.69
19.38
17.57
16.24
15.23
14.30
13.26
12.01
10.54
8.94
7.28
5.66
4.08
2.52
0.89
-0.91
-3.02
-5.56
-8.65
-12.34
-16.47
-20.61
-24.06
-25.95
-25.49
-22.23
-16.30
-8.33
0.68
9.66
17.72
24.29
29.11
32.16
33.50
33.30
31.74
29.09
25.73
22.08
18.59
15.58
13.23
11.57
10.47
9.70
9.06
8.32
7.35
6.08
4.54
2.81
0.99
-0.80
-2.52
-4.21
-6.01
-8.11
-10.76
-14.10
-18.15
-22.56
-26.70
-29.66
-30.53
-28.68
-23.97
-16.83
-8.15
1.04
9.77
17.39
23.53
28.07
31.02
32.43
32.40
31.11
28.83
25.92
22.85
20.03
17.76
16.13
15.01
14.15
13.34
12.48
11.65
10.98
10.54
10.23
9.77
8.87
7.29
5.01
2.23
-0.82
-3.89
-6.89
-9.89
-13.01
-16.41
-20.15
-24.15
-28.14
-31.61
-33.91
-34.33
-32.35
-27.80
-21.02
-12.71
-3.75
5.00
12.91
19.60
24.89
28.65
30.80
31.37
30.49
28.48
25.82
23.01
20.52
18.61
17.34
16.63
16.23
15.92
15.51
14.86
13.92
12.70
11.22
9.56
7.81
6.04
4.31
2.64
1.05
-0.54
-2.21
-4.12
-6.36
-8.98
-11.91
-14.98
-18.00
-20.86
-23.62
-26.49
-29.74
-33.56
-37.88
-42.28
-46.03
-48.19
-47.91
-44.66
-38.45
-29.86
-19.89
-9.73
-0.35
7.64
14.07
19.10
22.95
25.73
27.35
27.66
26.63
24.51
21.82
19.19
17.18
16.01
15.59
15.58
15.64
15.55
15.32
15.13
15.13
15.35
15.61
15.59
14.96
13.56
11.47
8.95
6.31
3.82
1.61
-0.36
-2.18
-3.96
-5.78
-7.70
-9.72
-11.78
-13.79
-15.62
-17.19
-18.52
-19.78
-21.24
-23.21
-25.88
-29.28
-33.14
-36.87
-39.67
-40.65
-39.13
-34.87
-28.13
-19.71
-10.62
-1.81
6.02
12.55
17.70
21.50
23.99
25.19
25.20
24.23
22.59
20.66
18.74
17.07
15.73
14.77
14.18
13.98
14.12
14.54
15.14
15.70
16.07
16.09
15.67
14.82
13.65
12.32
10.97
9.69
8.47
7.23
5.89
4.41
2.82
1.18
-0.51
-2.31
-4.29
-6.51
-8.87
-11.14
-13.09
-14.61
-15.79
-16.94
-18.42
-20.53
-23.38
-26.78
-30.34
-33.52
-35.68
-36.29
-34.94
-31.51
-26.20
-19.50
-12.07
-4.62
2.29
8.26
13.12
16.83
19.38
20.74
20.95
20.11
18.44
16.33
14.24
12.54
11.43
10.92
10.85
11.06
11.41
11.82
12.25
12.62
12.78
12.56
11.88
10.71
9.14
7.37
5.56
3.88
2.37
1.02
-0.28
-1.67
-3.26
-5.17
-7.36
-9.73
-12.12
-14.36
-16.34
-18.06
-19.63
-21.20
-23.01
-25.27
-28.11
-31.47
-35.03
-38.22
-40.28
-40.51
-38.46
-34.12
-27.93
-20.68
-13.19
-6.17
0.03
5.28
9.63
13.08
15.57
16.99
17.31
16.66
15.38
13.87
12.52
11.55
10.98
10.68
10.46
10.21
9.95
9.77
9.75
9.88
10.04
9.99
9.51
8.52
7.09
5.40
3.69
2.11
0.71
-0.59
-1.87
-3.24
-4.75
-6.40
-8.18
-10.06
-11.98
-13.90
-15.72
-17.36
-18.78
-20.06
-21.42
-23.13
-25.45
-28.51
-32.13
-35.82
-38.82
-40.27
-39.52
-36.29
-30.77
-23.60
-15.63
-7.71
-0.44
5.81
10.90
14.80
17.53
19.13
19.75
19.62
19.05
18.30
17.55
16.85
16.20
15.64
15.22
15.07
15.27
15.77
16.42
16.99
17.29
17.18
16.69
15.90
14.95
13.95
12.89
11.74
10.41
8.85
7.07
5.15
3.13
1.04
-1.19
-3.62
-6.26
-9.03
-11.76
-14.26
-16.37
-18.09
-19.49
-20.75
-22.09
-23.70
-25.75
-28.34
-31.41
-34.72
-37.78
-39.88
-40.25
-38.32
-33.91
-27.35
-19.39
-10.96
-2.92
4.16
10.01
14.63
18.12
20.57
22.02
22.47
22.03
20.90
19.42
17.95
16.77
15.99
15.60
15.47
15.50
15.66
15.97
16.42
16.96
17.41
17.60
17.34
16.62
15.49
14.10
12.59
11.10
9.73
8.56
7.64
6.88
6.15
5.18
3.77
1.84
-0.50
-3.04
-5.51
-7.78
-9.95
-12.24
-14.97
-18.32
-22.33
-26.84
-31.46
-35.64
-38.71
-40.02
-39.07
-35.67
-30.07
-22.90
-14.96
-7.02
0.38
6.95
12.49
16.90
19.99
21.62
21.81
20.77
18.94
16.85
14.98
13.57
12.69
12.25
12.11
12.21
12.54
13.06
13.65
14.06
14.02
13.35
12.11
10.54
8.96
7.63
6.53
5.44
4.02
1.97
-0.77
-4.06
-7.57
-10.98
-14.04
-16.64
-18.84
-20.83
-22.93
-25.49
-28.81
-32.99
-37.77
-42.51
-46.27
-48.05
-47.08
-43.11
-36.48
-27.99
-18.67
-9.45
-1.00
6.35
12.48
17.37
21.02
23.43
24.62
24.69
23.90
22.57
21.04
19.60
18.35
17.34
16.51
15.83
15.29
14.90
14.69
14.61
14.52
14.24
13.63
12.61
11.13
9.23
6.94
4.27
1.26
-2.02
-5.39
-8.62
-11.47
-13.85
-15.82
-17.64
-19.73
-22.46
-26.03
-30.35
-35.05
-39.48
-42.81
-44.24
-43.11
-39.11
-32.39
-23.57
-13.63
-3.67
5.38
12.96
18.92
23.39
26.59
28.66
29.59
29.34
27.98
25.78
23.22
20.80
18.94
17.76
17.21
17.09
17.16
17.25
17.22
16.97
16.39
15.36
13.80
11.75
9.29
6.57
3.76
0.93
-1.89
-4.68
-7.40
-9.96
-12.26
-14.26
-16.11
-18.11
-20.67
-24.08
-28.38
-33.21
-37.87
-41.43
-42.97
-41.79
-37.63
-30.65
-21.47
-11.06
-0.45
9.39
17.77
24.36
29.11
32.17
33.76
34.09
33.39
31.93
30.03
28.04
26.26
24.89
24.00
23.57
23.57
23.93
24.53
25.20
25.70
25.78
25.26
24.10
22.37
20.23
17.85
15.39
12.90
10.37
7.75
4.97
1.99
-1.17
-4.41
-7.56
-10.51
-13.19
-15.70
-18.24
-21.13
-24.58
-28.70
-33.31
-37.88
-41.53
-43.26
-42.15
-37.74
-30.16
-20.19
-9.06
1.93
11.76
19.83
26.02
30.44
33.30
34.74
34.83
33.72
31.69
29.23
26.85
24.95
23.67
22.89
22.38
21.99
21.69
21.65
21.98
22.66
23.44
23.95
23.84
22.95
21.32
19.21
16.87
14.51
12.11
9.57
6.70
3.39
-0.35
-4.34
-8.32
-12.05
-15.43
-18.54
-21.59
-24.90
-28.75
-33.30
-38.46
-43.89
-48.94
-52.70
-54.18
-52.61
-47.65
-39.59
-29.29
-17.96
-6.77
3.37
12.01
19.03
24.47
28.39
30.76
31.60
31.03
29.38
27.21
25.09
23.53
22.75
22.70
23.08
23.51
23.74
23.67
23.41
23.10
22.83
22.55
22.12
21.32
20.02
18.21
16.00
13.61
11.23
8.92
6.65
4.27
1.57
-1.59
-5.20
-9.06
-12.86
-16.26
-19.09
-21.32
-23.22
-25.18
-27.59
-30.78
-34.85
-39.60
-44.48
-48.60
-50.92
-50.48
-46.74
-39.75
-30.23
-19.32
-8.29
1.82
10.39
17.25
22.54
26.46
29.18
30.77
31.27
30.82
29.68
28.20
26.72
25.51
24.67
24.17
23.93
23.85
23.88
24.00
24.21
24.43
24.52
24.30
23.54
22.14
20.09
17.58
14.88
12.27
9.93
7.84
5.77
3.44
0.61
-2.78
-6.58
-10.42
-13.91
-16.73
-18.79
-20.26
-21.54
-23.14
-25.54
-28.99
-33.36
-38.11
-42.38
-45.13
-45.46
-42.87
-37.38
-29.55
-20.26
-10.49
-1.10
7.33
14.43
20.05
24.11
26.64
27.73
27.59
26.51
24.87
23.03
21.28
19.80
18.67
17.87
17.36
17.08
16.97
16.94
16.88
16.56
15.81
14.53
12.76
10.67
8.51
6.45
4.55
2.71
0.81
-1.28
-3.58
-6.07
-8.67
-11.26
-13.74
-16.01
-18.05
-19.93
-21.85
-24.13
-27.03
-30.62
-34.60
-38.27
-40.72
-41.07
-38.75
-33.70
-26.43
-17.86
-9.07
-0.94
5.94
11.37
15.44
18.30
20.02
20.59
19.95
18.24
15.80
13.19
11.01
9.70
9.33
9.73
10.54
11.41
12.10
12.55
12.72
12.64
12.29
11.63
10.62
9.23
7.43
5.24
2.69
-0.14
-3.07
-5.89
-8.42
-10.58
-12.37
-13.98
-15.67
-17.74
-20.46
-23.99
-28.27
-32.94
-37.28
-40.35
-41.16
-39.02
-33.79
-26.02
-16.76
-7.31
1.26
8.33
13.78
17.82
20.73
22.69
23.75
23.86
23.06
21.50
19.53
17.54
15.92
14.89
14.52
14.66
15.14
15.70
16.19
16.49
16.50
16.13
15.32
14.06
12.41
10.47
8.34
6.04
3.51
0.69
-2.42
-5.69
-8.95
-12.06
-14.99
-17.82
-20.72
-23.82
-27.21
-30.92
-34.87
-38.83
-42.33
-44.73
-45.23
-43.22
-38.46
-31.24
-22.35
-12.80
-3.55
4.72
11.69
17.27
21.50
24.42
26.02
26.35
25.54
23.88
21.77
19.60
17.74
16.37
15.55
15.18
15.15
15.29
15.46
15.48
15.16
14.40
13.20
11.67
9.99
8.28
6.53
4.59
2.28
-0.47
-3.59
-6.80
-9.83
-12.47
-14.74
-16.78
-18.79
-21.00
-23.58
-26.66
-30.29
-34.38
-38.55
-42.17
-44.36
-44.26
-41.34
-35.63
-27.70
-18.51
-9.15
-0.46
7.03
13.21
18.15
21.98
24.72
26.31
26.67
25.89
24.25
22.21
20.27
18.78
17.84
17.36
17.08
16.79
16.37
15.85
15.33
14.88
14.51
14.10
13.46
12.37
10.61
8.16
5.12
1.75
-1.63
-4.81
-7.73
-10.52
-13.39
-16.57
-20.18
-24.24
-28.68
-33.28
-37.65
-41.20
-43.21
-42.94
-39.94
-34.20
-26.30
-17.21
-8.04
0.31
7.34
13.02
17.51
21.01
23.48
24.76
24.65
23.27
21.02
18.53
16.41
15.01
14.24
13.80
13.30
12.59
11.75
11.03
10.66
10.60
10.61
10.30
9.35
7.66
5.34
2.70
0.02
-2.50
-4.86
-7.24
-9.88
-13.01
-16.83
-21.40
-26.63
-32.19
-37.45
-41.58
-43.70
-43.11
-39.54
-33.24
-24.90
-15.48
-5.95
2.89
10.49
16.54
20.88
23.47
24.35
23.71
21.83
19.15
16.15
13.32
10.98
9.29
8.21
7.59
7.24
7.06
7.01
7.11
7.29
7.44
7.35
6.82
5.75
4.16
2.17
-0.06
-2.44
-4.99
-7.83
-11.15
-15.03
-19.46
-24.16
-28.62
-32.12
-33.88
-33.23
-29.89
-24.07
-16.40
-7.81
0.77
8.58
15.15
20.25
23.77
25.65
25.96
24.84
22.65
19.84
16.88
14.18
12.02
10.55
9.81
9.72
10.16
10.96
11.90
12.77
13.42
13.70
13.51
12.80
11.55
9.80
7.66
5.18
2.40
-0.76
-4.35
-8.33
-12.39
-15.97
-18.33
-18.80
-16.99
-12.96
-7.19
-0.46
6.38
12.60
17.66
21.22
23.14
23.38
22.08
19.50
16.03
12.21
8.53
5.40
3.10
1.65
0.92
0.64
0.49
0.21
-0.35
-1.19
-2.19
-3.19
-4.05
-4.78
-5.56
-6.68
-8.47
-11.19
-14.91
-19.47
-24.32
-28.69
-31.62
-32.25
-30.09
-25.15
-17.97
-9.48
-0.71
7.51
14.65
20.47
24.94
27.99
29.57
29.61
28.23
25.70
22.55
19.33
16.48
14.22
12.53
11.17
9.88
8.48
6.88
5.14
3.34
1.55
-0.24
-2.04
-3.89
-5.86
-8.01
-10.44
-13.32
-16.76
-20.78
-25.15
-29.30
-32.37
-33.38
-31.64
-26.93
-19.67
-10.79
-1.43
7.39
15.00
21.11
25.70
28.83
30.54
30.88
29.89
27.75
24.74
21.26
17.68
14.36
11.51
9.23
7.53
6.33
5.49
4.83
4.13
3.22
1.94
0.28
-1.67
-3.79
-5.90
-7.94
-9.94
-12.08
-14.62
-17.76
-21.59
-25.87
-30.03
-33.25
-34.63
-33.49
-29.56
-23.14
-14.93
-5.88
3.11
11.39
18.53
24.36
28.77
31.69
33.14
33.16
32.00
30.05
27.76
25.62
23.93
22.79
22.07
21.53
20.89
19.97
18.75
17.32
15.82
14.34
12.93
11.48
9.85
7.88
5.50
2.75
-0.23
-3.23
-6.11
-8.81
-11.41
-14.11
-17.10
-20.57
-24.52
-28.75
-32.77
-35.92
-37.43
-36.67
-33.39
-27.81
-20.56
-12.48
-4.43
2.99
9.41
14.63
18.54
21.08
22.20
22.03
20.84
19.05
17.12
15.40
14.09
13.16
12.51
12.02
11.61
11.31
11.15
11.13
11.19
11.14
10.81
10.05
8.80
7.13
5.22
3.24
1.34
-0.49
-2.37
-4.48
-7.00
-9.90
-13.03
-16.06
-18.71
-20.79
-22.33
-23.55
-24.81
-26.46
-28.73
-31.60
-34.78
-37.66
-39.47
-39.44
-37.04
-32.19
-25.28
-17.08
-8.49
-0.29
7.06
13.37
18.59
22.67
25.48
26.92
27.00
25.98
24.30
22.48
20.94
19.85
19.17
18.70
18.24
17.67
17.01
16.38
15.93
15.75
15.76
15.77
15.44
14.47
12.68
10.21
7.38
4.65
2.34
0.61
-0.67
-1.78
-2.99
-4.43
-6.07
-7.79
-9.38
-10.73
-11.83
-12.76
-13.65
-14.66
-15.89
-17.45
-19.38
-21.67
-24.20
-26.68
-28.66
-29.56
-28.86
-26.26
-21.85
-16.06
-9.59
-3.13
2.78
7.87
12.03
15.21
17.36
18.41
18.37
17.41
15.83
14.06
12.46
11.28
10.56
10.21
10.03
9.79
9.32
8.46
7.16
5.47
3.54
1.60
-0.13
-1.47
-2.34
-2.72
-2.63
-2.08
-1.07
0.36
2.06
3.76
5.13
5.90
5.94
5.32
4.25
3.01
1.76
0.60
-0.50
-1.62
-2.85
-4.28
-5.98
-7.97
-10.22
-12.59
-14.87
-16.86
-18.42
-19.59
-20.58
-21.69
-23.24
-25.39
-28.12
-31.10
-33.77
-35.41
-35.33
-33.05
-28.51
-22.12
-14.65
-7.06
-0.18
5.46
9.69
12.65
14.54
15.53
15.69
15.00
13.53
11.46
9.16
7.08
5.63
5.03
5.26
6.09
7.20
8.28
9.15
9.73
10.06
10.18
10.14
9.91
9.49
8.86
8.05
7.10
6.01
4.78
3.38
1.77
-0.01
-1.88
-3.74
-5.48
-7.05
-8.49
-9.86
-11.26
-12.70
-14.16
-15.56
-16.86
-18.06
-19.29
-20.76
-22.73
-25.37
-28.67
-32.38
-35.97
-38.75
-40.01
-39.21
-36.20
-31.14
-24.55
-17.12
-9.51
-2.31
4.09
9.46
13.70
16.72
18.52
19.19
18.88
17.89
16.57
15.24
14.11
13.30
12.75
12.41
12.19
12.09
12.09
12.22
12.42
12.57
12.50
12.08
11.27
10.14
8.83
7.49
6.21
4.97
3.71
2.35
0.84
-0.81
-2.56
-4.32
-6.02
-7.62
-9.07
-10.38
-11.53
-12.54
-13.43
-14.25
-15.10
-16.07
-17.29
-18.82
-20.71
-22.96
-25.54
-28.35
-31.12
-33.41
-34.62
-34.15
-31.62
-27.03
-20.81
-13.72
-6.58
-0.08
5.41
9.81
13.18
15.56
16.92
17.18
16.32
14.52
12.15
9.73
7.74
6.46
5.95
6.07
6.57
7.30
8.18
9.20
10.34
11.51
12.50
13.07
12.98
12.15
10.64
8.69
6.58
4.55
2.66
0.82
-1.14
-3.34
-5.81
-8.37
-10.82
-12.99
-14.85
-16.53
-18.24
-20.18
-22.47
-25.13
-28.08
-31.10
-33.80
-35.66
-36.06
-34.51
-30.77
-25.03
-17.83
-9.97
-2.20
4.86
10.85
15.61
19.04
21.09
21.73
21.01
19.18
16.70
14.09
11.90
10.45
9.87
10.01
10.65
11.55
12.55
13.60
14.68
15.78
16.83
17.72
18.31
18.43
17.94
16.73
14.80
12.32
9.54
6.73
4.07
1.56
-0.99
-3.81
-6.99
-10.44
-13.88
-16.99
-19.63
-21.88
-24.02
-26.47
-29.49
-33.19
-37.35
-41.52
-45.00
-47.01
-46.86
-44.10
-38.68
-31.00
-21.84
-12.18
-2.90
5.34
12.17
17.52
21.43
23.97
25.25
25.45
24.80
23.67
22.45
21.47
20.92
20.81
21.03
21.45
21.94
22.44
22.92
23.32
23.49
23.30
22.64
21.45
19.74
17.64
15.27
12.77
10.25
7.74
5.20
2.51
-0.47
-3.76
-7.27
-10.76
-13.98
-16.73
-19.05
-21.16
-23.39
-26.07
-29.34
-33.07
-36.87
-40.12
-42.06
-41.99
-39.40
-34.14
-26.50
-17.20
-7.17
2.66
11.56
19.14
25.23
29.79
32.78
34.17
33.98
32.49
30.17
27.61
25.38
23.81
23.00
22.80
23.02
23.52
24.25
25.13
26.06
26.80
27.06
26.56
25.16
22.89
19.93
16.54
12.98
9.47
6.13
3.01
0.07
-2.73
-5.47
-8.19
-10.88
-13.54
-16.25
-19.12
-22.31
-25.83
-29.42
-32.53
-34.33
-34.08
-31.30
-26.03
-18.76
-10.29
-1.50
6.86
14.22
20.20
24.58
27.21
28.13
27.54
25.79
23.38
20.88
18.76
17.33
16.66
16.65
17.08
17.72
18.44
19.16
19.83
20.38
20.63
20.37
19.43
17.79
15.55
12.97
10.30
7.69
5.16
2.63
-0.05
-2.98
-6.16
-9.46
-12.69
-15.69
-18.39
-20.86
-23.31
-26.02
-29.27
-33.17
-37.64
-42.23
-46.21
-48.64
-48.59
-45.46
-39.19
-30.33
-19.93
-9.14
1.07
10.09
17.71
23.95
28.82
32.26
34.16
34.53
33.59
31.79
29.65
27.66
26.12
25.07
24.46
24.13
23.94
23.81
23.74
23.74
23.80
23.81
23.58
22.85
21.45
19.35
16.67
13.67
10.63
7.70
4.91
2.17
-0.65
-3.60
-6.56
-9.39
-11.87
-13.85
-15.30
-16.30
-17.04
-17.78
-18.84
-20.49
-22.97
-26.36
-30.59
-35.24
-39.63
-42.86
-43.98
-42.33
-37.69
-30.43
-21.36
-11.52
-1.89
6.82
14.21
20.19
24.79
28.11
30.23
31.22
31.21
30.30
28.74
26.81
24.89
23.34
22.45
22.33
22.90
23.94
25.09
26.08
26.72
26.94
26.72
26.08
24.98
23.40
21.31
18.78
15.95
13.06
10.38
8.06
6.16
4.54
3.01
1.35
-0.62
-2.95
-5.64
-8.57
-11.63
-14.66
-17.52
-20.09
-22.36
-24.42
-26.52
-28.91
-31.72
-34.78
-37.58
-39.38
-39.35
-36.94
-32.00
-24.95
-16.61
-7.96
0.14
7.13
12.80
17.15
20.20
21.96
22.39
21.52
19.62
17.13
14.64
12.66
11.52
11.25
11.69
12.55
13.56
14.53
15.35
16.03
16.55
16.91
17.01
16.76
16.06
14.92
13.45
11.83
10.21
8.67
7.11
5.41
3.45
1.18
-1.36
-4.06
-6.84
-9.63
-12.34
-14.91
-17.27
-19.43
-21.47
-23.55
-25.90
-28.69
-32.00
-35.69
-39.41
-42.58
-44.45
-44.30
-41.70
-36.59
-29.46
-21.10
-12.43
-4.19
3.20
9.58
14.93
19.21
22.30
24.03
24.33
23.39
21.62
19.59
17.82
16.62
16.04
15.88
15.89
15.82
15.61
15.32
15.06
14.93
14.91
14.89
14.72
14.21
13.29
11.97
10.36
8.57
6.69
4.75
2.71
0.52
-1.83
-4.28
-6.72
-9.03
-11.16
-13.17
-15.09
-16.96
-18.78
-20.53
-22.27
-24.14
-26.37
-29.16
-32.53
-36.22
-39.69
-42.21
-43.00
-41.45
-37.32
-30.84
-22.65
-13.63
-4.68
3.50
10.51
16.22
20.60
23.71
25.57
26.28
26.02
25.05
23.63
22.00
20.39
18.97
17.92
17.38
17.40
17.88
18.63
19.40
19.99
20.25
20.19
19.81
19.14
18.17
16.91
15.36
13.58
11.70
9.82
8.01
6.30
4.57
2.67
0.47
-2.08
-4.86
-7.63
-10.11
-12.12
-13.66
-14.90
-16.15
-17.67
-19.67
-22.20
-25.23
-28.56
-31.83
-34.51
-35.95
-35.55
-32.93
-28.11
-21.52
-13.92
-6.15
1.05
7.17
12.00
15.48
17.66
18.61
18.39
17.17
15.24
12.99
10.91
9.39
8.64
8.66
9.29
10.27
11.38
12.50
13.55
14.47
15.18
15.53
15.38
14.64
13.33
11.58
9.64
7.79
6.28
5.16
4.32
3.41
2.13
0.25
-2.22
-5.05
-7.91
-10.52
-12.76
-14.71
-16.63
-18.86
-21.68
-25.21
-29.39
-33.91
-38.30
-41.87
-43.93
-43.85
-41.27
-36.22
-29.18
-20.93
-12.38
-4.29
2.84
8.81
13.62
17.38
20.08
21.69
22.15
21.49
19.93
17.87
15.79
14.13
13.15
12.89
13.20
13.84
14.61
15.36
16.07
16.71
17.24
17.57
17.57
17.12
16.16
14.69
12.74
10.37
7.66
4.69
1.57
-1.54
-4.44
-7.02
-9.22
-11.08
-12.72
-14.28
-15.88
-17.52
-19.17
-20.77
-22.33
-23.91
-25.69
-27.91
-30.80
-34.45
-38.71
-43.06
-46.65
-48.51
-47.77
-44.00
-37.32
-28.39
-18.24
-7.88
1.85
10.40
17.49
23.01
26.89
29.16
29.93
29.48
28.25
26.69
25.19
23.99
23.12
22.53
22.08
21.72
21.38
21.07
20.76
20.43
20.01
19.45
18.69
17.73
16.58
15.28
13.87
12.34
10.70
8.90
6.95
4.89
2.84
1.00
-0.49
-1.58
-2.37
-3.10
-4.08
-5.48
-7.33
-9.44
-11.58
-13.55
-15.31
-17.01
-18.92
-21.31
-24.40
-28.23
-32.66
-37.26
-41.39
-44.25
-45.05
-43.21
-38.55
-31.42
-22.58
-13.01
-3.68
4.71
11.78
17.43
21.64
24.45
25.92
26.16
25.39
23.97
22.35
20.93
19.96
19.46
19.26
19.16
19.00
18.79
18.66
18.79
19.23
19.83
20.32
20.37
19.71
18.30
16.25
13.79
11.19
8.64
6.24
3.97
1.76
-0.46
-2.74
-5.08
-7.46
-9.85
-12.20
-14.49
-16.66
-18.75
-20.79
-22.97
-25.49
-28.62
-32.51
-37.09
-41.97
-46.46
-49.59
-50.43
-48.31
-43.08
-35.18
-25.54
-15.25
-5.33
3.60
11.22
17.50
22.49
26.21
28.59
29.65
29.53
28.57
27.23
25.96
25.06
24.63
24.58
24.78
25.10
25.48
25.92
26.36
26.67
26.62
26.03
24.84
23.13
21.09
18.92
16.70
14.42
12.01
9.42
6.68
3.92
1.29
-1.14
-3.40
-5.58
-7.80
-10.09
-12.41
-14.69
-16.87
-18.95
-21.05
-23.29
-25.76
-28.52
-31.60
-35.09
-39.06
-43.44
-47.90
-51.64
-53.63
-52.83
-48.66
-41.24
-31.40
-20.41
-9.54
0.30
8.66
15.50
20.96
25.15
28.10
29.78
30.21
29.55
28.12
26.35
24.64
23.27
22.41
22.09
22.31
23.04
24.24
25.78
27.41
28.79
29.59
29.60
28.76
27.25
25.30
23.17
20.99
18.81
16.57
14.17
11.58
8.79
5.93
3.15
0.64
-1.52
-3.38
-5.07
-6.76
-8.58
-10.52
-12.51
-14.45
-16.32
-18.24
-20.44
-23.20
-26.76
-31.24
-36.48
-42.02
-47.06
-50.58
-51.62
-49.52
-44.19
-36.15
-26.36
-15.98
-5.99
2.91
10.40
16.41
20.96
24.07
25.78
26.16
25.44
23.98
22.30
20.87
20.05
19.96
20.44
21.21
21.97
22.56
23.01
23.43
23.90
24.40
24.70
24.46
23.36
21.32
18.49
15.24
12.01
9.13
6.71
4.64
2.68
0.58
-1.79
-4.44
-7.25
-10.08
-12.78
-15.30
-17.67
-20.00
-22.46
-25.24
-28.50
-32.32
-36.54
-40.70
-44.08
-45.83
-45.21
-41.89
-36.00
-28.13
-19.13
-9.80
-0.84
7.32
14.33
19.94
23.93
26.19
26.78
25.99
24.23
22.01
19.79
17.87
16.47
15.68
15.51
15.96
16.92
18.25
19.70
21.02
22.01
22.59
22.71
22.40
21.67
20.45
18.69
16.43
13.77
10.92
8.07
5.32
2.67
0.05
-2.59
-5.27
-7.96
-10.64
-13.34
-16.07
-18.80
-21.48
-24.00
-26.35
-28.61
-31.04
-34.02
-37.83
-42.58
-47.90
-53.01
-56.79
-58.11
-56.15
-50.71
-42.22
-31.70
-20.34
-9.27
0.73
9.24
16.12
21.43
25.26
27.70
28.82
28.78
27.82
26.29
24.60
23.17
22.23
21.87
21.99
22.42
23.03
23.75
24.62
25.61
26.68
27.61
28.14
27.99
26.98
25.12
22.59
19.63
16.56
13.57
10.74
7.99
5.15
2.04
-1.41
-5.14
-8.97
-12.62
-15.84
-18.50
-20.64
-22.46
-24.24
-26.29
-28.84
-32.04
-35.91
-40.25
-44.58
-48.17
-50.08
-49.46
-45.78
-39.12
-30.17
-19.99
-9.76
-0.34
7.78
14.45
19.71
23.62
26.16
27.29
27.07
25.73
23.72
21.56
19.77
18.71
18.47
18.89
19.66
20.40
20.86
20.94
20.61
19.89
18.70
16.94
14.50
11.43
7.89
4.21
0.67
-2.54
-5.38
-7.90
-10.19
-12.32
-14.36
-16.43
-18.73
-21.54
-25.07
-29.35
-34.04
-38.43
-41.56
-42.47
-40.49
-35.49
-27.84
-18.37
-8.08
2.07
11.37
19.38
25.85
30.69
33.77
35.08
34.64
32.69
29.68
26.21
22.90
20.23
18.41
17.36
16.82
16.46
16.05
15.51
14.87
14.17
13.47
12.71
11.76
10.42
8.54
6.01
2.82
-0.86
-4.75
-8.53
-11.99
-15.11
-18.06
-21.16
-24.74
-29.07
-34.28
-40.31
-46.86
-53.30
-58.70
-61.93
-61.94
-58.15
-50.67
-40.36
-28.57
-16.69
-5.74
3.77
11.81
18.57
24.14
28.46
31.32
32.58
32.31
30.88
28.88
26.90
25.40
24.57
24.36
24.54
24.83
25.00
24.87
24.36
23.44
22.13
20.43
18.29
15.71
12.69
9.30
5.71
2.07
-1.44
-4.74
-7.84
-10.80
-13.73
-16.79
-20.19
-24.17
-28.90
-34.30
-39.92
-44.95
-48.32
-49.05
-46.51
-40.67
-32.05
-21.62
-10.47
0.42
10.37
19.01
26.20
31.91
36.12
38.79
39.90
39.54
37.98
35.64
33.08
30.80
29.10
28.07
27.57
27.35
27.16
26.82
26.20
25.19
23.74
21.75
19.22
16.24
12.94
9.51
6.14
3.00
0.16
-2.36
-4.60
-6.68
-8.76
-11.02
-13.68
-16.86
-20.64
-24.99
-29.77
-34.62
-38.91
-41.81
-42.40
-40.03
-34.55
-26.49
-16.93
-7.09
1.98
9.76
16.15
21.26
25.16
27.72
28.72
28.06
25.95
22.94
19.73
16.93
14.89
13.62
12.93
12.63
12.62
12.88
13.40
14.09
14.76
15.13
14.98
14.15
12.64
10.49
7.82
4.75
1.44
-1.95
-5.28
-8.44
-11.44
-14.35
-17.33
-20.55
-24.15
-28.23
-32.79
-37.59
-42.11
-45.60
-47.19
-46.14
-42.10
-35.20
-26.03
-15.46
-4.42
6.26
15.92
24.10
30.48
34.86
37.16
37.46
36.06
33.46
30.28
27.19
24.70
23.04
22.21
22.00
22.16
22.50
22.87
23.17
23.22
22.78
21.61
19.55
16.59
12.90
8.79
4.61
0.67
-2.85
-5.91
-8.62
-11.17
-13.81
-16.75
-20.15
-24.01
-28.17
-32.13
-35.19
-36.50
-35.29
-31.22
-24.42
-15.56
-5.64
4.34
13.56
21.53
27.98
32.73
35.63
36.57
35.62
33.10
29.64
26.00
22.89
20.72
19.55
19.11
19.00
18.92
18.71
18.41
18.10
17.77
17.29
16.45
15.08
13.13
10.71
7.98
5.07
2.01
-1.32
-5.07
-9.32
-14.07
-19.18
-24.45
-29.61
-34.37
-38.34
-41.04
-41.95
-40.66
-37.03
-31.24
-23.83
-15.45
-6.73
1.81
9.76
16.67
21.99
25.19
25.95
24.38
21.10
17.06
13.22
10.23
8.27
7.19
6.70
6.59
6.78
7.30
8.09
8.92
9.44
9.30
8.27
6.32
3.62
0.45
-2.86
-6.10
-9.19
-12.22
-15.44
-19.11
-23.41
-28.25
-33.22
-37.60
-40.54
-41.26
-39.33
-34.73
-27.91
-19.67
-10.85
-2.22
5.64
12.39
17.78
21.59
23.60
23.68
21.89
18.58
14.35
9.94
6.01
2.94
0.79
-0.69
-1.86
-3.03
-4.36
-5.77
-7.10
-8.20
-9.10
-9.99
-11.18
-13.00
-15.57
-18.73
-22.14
-25.35
-28.07
-30.20
-31.90
-33.44
-35.03
-36.77
-38.62
-40.48
-42.15
-43.37
-43.71
-42.68
-39.79
-34.71
-27.43
-18.26
-7.73
3.54
14.89
25.67
35.23
43.00
48.54
51.77
52.97
52.78
52.00
51.37
51.43
52.39
54.17
56.45
58.73
60.51
61.44
61.45
60.80
59.97
59.39
59.18
59.10
58.63
57.26
54.73
51.19
47.10
43.01
39.27
35.91
32.68
29.18
25.11
20.31
14.87
9.08
3.39
-1.55
-4.97
-6.10
-4.39
0.27
7.37
15.95
24.75
32.63
38.87
43.20
45.80
47.01
47.22
46.76
45.86
44.69
43.35
41.85
40.16
38.29
36.26
34.16
32.10
30.16
28.36
26.61
24.80
22.79
20.45
17.65
14.30
10.50
6.52
2.79
-0.41
-3.15
-5.99
-9.95
-16.25
-25.88
-39.39
-56.61
-76.60
-97.64
-117.47
-133.62
-143.99
-147.40
-143.99
-135.20
-123.34
-110.84
-99.57
-90.48
-83.63
-78.50
-74.43
-70.87
-67.56
-64.40
-61.31
-58.11
-54.51
-50.24
-45.25
-39.80
-34.38
-29.53
-25.59
-22.65
-20.52
-19.02
-18.04
-17.76
-18.42
-20.24
-23.18
-26.90
-30.85
-34.51
-37.53
-39.90
-41.87
-43.83
-46.18
-49.13
-52.64
-56.45
-60.02
-62.66
-63.57
-61.99
-57.45
-49.91
-39.87
-28.23
-16.08
-4.38
6.21
15.34
22.86
28.66
32.62
34.71
35.03
33.93
31.95
29.68
27.62
26.03
25.00
24.44
24.21
24.19
24.23
24.21
23.99
23.45
22.47
20.97
18.97
16.48
13.56
10.25
6.63
2.80
-1.07
-4.81
-8.26
-11.35
-14.04
-16.37
-18.37
-20.11
-21.73
-23.47
-25.62
-28.38
-31.64
-34.90
-37.23
-37.61
-35.28
-30.05
-22.38
-13.21
-3.63
5.47
13.53
20.36
25.93
30.23
33.22
34.86
35.16
34.32
32.65
30.49
28.20
26.02
24.13
22.61
21.52
20.90
20.70
20.84
21.12
21.34
21.25
20.71
19.73
18.42
16.96
15.50
14.04
12.49
10.65
8.41
5.69
2.63
-0.60
-3.76
-6.68
-9.32
-11.75
-14.13
-16.67
-19.58
-22.91
-26.49
-29.85
-32.29
-32.98
-31.28
-26.96
-20.24
-11.78
-2.49
6.76
15.28
22.64
28.58
32.98
35.71
36.71
36.00
33.84
30.69
27.13
23.77
21.06
19.21
18.12
17.53
17.13
16.71
16.19
15.63
15.12
14.65
14.13
13.41
12.26
10.55
8.25
5.46
2.40
-0.67
-3.58
-6.24
-8.74
-11.21
-13.79
-16.56
-19.53
-22.66
-25.84
-28.84
-31.20
-32.34
-31.63
-28.65
-23.40
-16.35
-8.31
-0.15
7.42
13.99
19.39
23.58
26.51
28.08
28.21
27.01
24.81
22.13
19.57
17.56
16.30
15.66
15.33
14.96
14.33
13.43
12.38
11.35
10.39
9.40
8.13
6.37
4.04
1.25
-1.78
-4.73
-7.44
-9.89
-12.19
-14.54
-17.13
-20.11
-23.62
-27.74
-32.36
-37.11
-41.29
-43.94
-44.15
-41.35
-35.55
-27.41
-17.97
-8.39
0.44
8.03
14.25
19.15
22.80
25.19
26.23
25.93
24.45
22.20
19.69
17.46
15.84
14.93
14.59
14.58
14.69
14.80
14.89
14.95
14.93
14.64
13.91
12.56
10.53
7.90
4.87
1.71
-1.29
-3.99
-6.35
-8.53
-10.74
-13.25
-16.21
-19.69
-23.69
-28.13
-32.79
-37.25
-40.86
-42.75
-42.13
-38.50
-31.89
-22.93
-12.65
-2.18
7.58
16.06
23.09
28.68
32.88
35.65
36.89
36.58
34.90
32.31
29.39
26.76
24.82
23.64
23.07
22.83
22.71
22.65
22.72
22.95
23.23
23.33
22.98
21.97
20.30
18.17
15.86
13.62
11.51
9.44
7.15
4.45
1.28
-2.16
-5.55
-8.54
-10.93
-12.77
-14.32
-15.98
-18.15
-21.10
-24.93
-29.49
-34.34
-38.81
-42.00
-43.05
-41.33
-36.66
-29.40
-20.38
-10.60
-1.03
7.63
15.01
20.97
25.45
28.40
29.77
29.59
28.05
25.52
22.55
19.73
17.54
16.22
15.77
15.94
16.36
16.68
16.71
16.43
15.96
15.46
14.99
14.49
13.77
12.65
11.01
8.90
6.52
4.08
1.73
-0.54
-2.84
-5.38
-8.27
-11.59
-15.27
-19.19
-23.22
-27.14
-30.63
-33.20
-34.21
-33.05
-29.35
-23.14
-14.94
-5.65
3.70
12.22
19.34
24.83
28.65
30.81
31.37
30.41
28.15
25.02
21.62
18.59
16.38
15.21
14.99
15.44
16.23
17.07
17.75
18.16
18.21
17.79
16.87
15.40
13.45
11.08
8.37
5.34
2.02
-1.57
-5.30
-9.00
-12.51
-15.75
-18.76
-21.65
-24.63
-27.84
-31.37
-35.21
-39.23
-43.14
-46.43
-48.46
-48.56
-46.25
-41.35
-34.15
-25.32
-15.72
-6.25
2.35
9.56
15.12
18.94
21.09
21.75
21.21
19.83
18.00
16.11
14.46
13.28
12.70
12.71
13.25
14.21
15.42
16.73
17.93
18.85
19.28
19.08
18.20
16.73
14.86
12.82
10.76
8.67
6.44
3.89
0.99
-2.18
-5.37
-8.32
-10.89
-13.15
-15.34
-17.79
-20.78
-24.40
-28.43
-32.37
-35.51
-37.10
-36.55
-33.65
-28.52
-21.65
-13.72
-5.46
2.51
9.73
15.86
20.68
24.06
25.92
26.31
25.41
23.55
21.18
18.78
16.77
15.39
14.68
14.52
14.73
15.14
15.62
16.08
16.43
16.52
16.24
15.53
14.43
13.09
11.69
10.37
9.14
7.87
6.34
4.37
1.90
-0.90
-3.73
-6.28
-8.40
-10.13
-11.74
-13.57
-15.92
-18.92
-22.46
-26.20
-29.61
-32.04
-32.85
-31.54
-27.94
-22.28
-15.16
-7.45
0.03
6.64
12.01
16.06
18.84
20.47
21.05
20.68
19.47
17.60
15.36
13.08
11.08
9.61
8.78
8.51
8.61
8.84
8.98
8.90
8.61
8.17
7.60
6.88
5.95
4.77
3.30
1.63
-0.15
-1.96
-3.79
-5.69
-7.74
-9.91
-12.09
-14.13
-15.99
-17.79
-19.81
-22.38
-25.70
-29.64
-33.75
-37.27
-39.41
-39.47
-37.12
-32.44
-25.93
-18.27
-10.25
-2.54
4.36
10.14
14.60
17.63
19.16
19.28
18.16
16.16
13.70
11.26
9.17
7.66
6.82
6.61
6.98
7.84
9.06
10.45
11.77
12.74
13.17
12.95
12.09
10.75
9.16
7.51
5.93
4.42
2.88
1.10
-1.07
-3.73
-6.80
-10.06
-13.24
-16.08
-18.40
-20.26
-21.86
-23.53
-25.67
-28.57
-32.30
-36.56
-40.67
-43.70
-44.72
-43.10
-38.74
-32.05
-23.82
-14.95
-6.24
1.77
8.77
14.60
19.14
22.38
24.36
25.22
25.18
24.49
23.40
22.13
20.90
19.88
19.17
18.82
18.80
19.08
19.56
20.16
20.75
21.14
21.13
20.51
19.19
17.20
14.73
12.05
9.37
6.86
4.55
2.33
0.07
-2.40
-5.15
-8.11
-11.12
-13.92
-16.32
-18.23
-19.78
-21.19
-22.82
-24.96
-27.74
-31.05
-34.45
-37.29
-38.75
-38.15
-35.10
-29.69
-22.50
-14.38
-6.23
1.24
7.66
12.93
17.06
20.04
21.84
22.43
21.92
20.60
18.90
17.23
15.89
14.99
14.45
14.15
14.06
14.22
14.68
15.43
16.27
16.90
17.02
16.44
15.21
13.54
11.69
9.81
7.90
5.87
3.55
0.86
-2.15
-5.37
-8.62
-11.76
-14.70
-17.46
-20.13
-22.88
-25.92
-29.37
-33.15
-36.90
-39.96
-41.51
-40.78
-37.35
-31.29
-23.19
-14.05
-4.90
3.38
10.27
15.65
19.58
22.26
23.79
24.25
23.68
22.21
20.11
17.80
15.70
14.19
13.46
13.48
14.05
14.93
15.91
16.84
17.65
18.21
18.33
17.81
16.47
14.33
11.59
8.59
5.72
3.19
1.04
-0.91
-2.92
-5.24
-7.97
-11.08
-14.40
-17.68
-20.73
-23.49
-26.07
-28.70
-31.71
-35.41
-39.87
-44.87
-49.81
-53.79
-55.82
-55.04
-51.04
-43.99
-34.61
-24.00
-13.34
-3.56
4.82
11.65
17.02
21.06
23.88
25.52
26.04
25.59
24.45
23.02
21.65
20.64
20.08
19.95
20.11
20.42
20.78
21.13
21.50
21.86
22.14
22.15
21.65
20.46
18.54
16.06
13.31
10.61
8.17
5.99
3.86
1.49
-1.30
-4.51
-7.96
-11.33
-14.39
-17.09
-19.53
-22.00
-24.79
-28.17
-32.23
-36.85
-41.64
-45.90
-48.71
-49.16
-46.59
-40.89
-32.48
-22.26
-11.30
-0.60
9.13
17.48
24.25
29.38
32.86
34.74
35.17
34.39
32.78
30.77
28.74
27.01
25.73
24.93
24.56
24.50
24.65
24.91
25.15
25.26
25.08
24.48
23.42
21.95
20.21
18.35
16.48
14.58
12.52
10.13
7.34
4.21
0.90
-2.36
-5.38
-8.11
-10.63
-13.16
-15.91
-19.07
-22.69
-26.68
-30.74
-34.36
-36.89
-37.59
-35.87
-31.48
-24.67
-16.08
-6.67
2.59
10.90
17.78
23.01
26.56
28.48
28.85
27.82
25.61
22.63
19.36
16.31
13.93
12.46
11.91
12.13
12.84
13.78
14.71
15.48
15.98
16.11
15.74
14.80
13.26
11.21
8.77
6.11
3.31
0.40
-2.65
-5.87
-9.21
-12.59
-15.83
-18.85
-21.69
-24.59
-27.87
-31.84
-36.54
-41.67
-46.53
-50.19
-51.69
-50.36
-45.98
-38.77
-29.39
-18.76
-7.86
2.39
11.31
18.50
23.86
27.53
29.76
30.78
30.75
29.81
28.16
26.14
24.13
22.52
21.54
21.16
21.15
21.20
21.02
20.46
19.59
18.51
17.36
16.19
14.91
13.34
11.25
8.53
5.20
1.45
-2.42
-6.14
-9.53
-12.55
-15.24
-17.72
-20.09
-22.50
-25.13
-28.24
-32.03
-36.47
-41.14
-45.21
-47.57
-47.22
-43.56
-36.68
-27.29
-16.53
-5.61
4.46
13.12
20.16
25.67
29.79
32.61
34.14
34.33
33.23
31.08
28.30
25.46
23.07
21.43
20.58
20.34
20.43
20.62
20.78
20.86
20.83
20.62
20.15
19.31
18.06
16.36
14.21
11.64
8.73
5.58
2.32
-0.93
-4.11
-7.25
-10.46
-13.87
-17.61
-21.69
-26.04
-30.44
-34.45
-37.45
-38.68
-37.51
-33.61
-27.19
-18.94
-9.84
-0.86
7.34
14.47
20.48
25.38
29.05
31.24
31.69
30.35
27.53
23.81
19.95
16.60
14.13
12.58
11.73
11.32
11.10
11.00
11.02
11.10
11.12
10.83
9.96
8.37
6.06
3.22
0.14
-2.93
-5.79
-8.40
-10.86
-13.34
-16.02
-19.07
-22.64
-26.74
-31.22
-35.74
-39.68
-42.27
-42.74
-40.54
-35.57
-28.26
-19.48
-10.26
-1.53
6.11
12.39
17.21
20.62
22.59
23.13
22.36
20.53
18.06
15.40
12.93
10.87
9.25
8.02
7.11
6.47
6.07
5.85
5.70
5.44
4.82
3.66
1.89
-0.37
-2.92
-5.50
-7.97
-10.30
-12.57
-14.93
-17.52
-20.55
-24.17
-28.43
-33.20
-38.04
-42.16
-44.62
-44.57
-41.53
-35.58
-27.35
-17.76
-7.80
1.71
10.19
17.28
22.79
26.58
28.62
29.03
28.09
26.16
23.71
21.13
18.70
16.50
14.56
12.87
11.48
10.45
9.83
9.53
9.34
8.94
8.08
6.62
4.61
2.25
-0.27
-2.85
-5.54
-8.48
-11.85
-15.74
-20.14
-24.83
-29.38
-33.14
-35.31
-35.16
-32.27
-26.68
-18.98
-10.09
-1.09
7.12
14.00
19.35
23.19
25.65
26.81
26.71
25.46
23.25
20.45
17.50
14.79
12.61
11.06
10.05
9.39
8.84
8.19
7.32
6.18
4.79
3.18
1.41
-0.51
-2.56
-4.79
-7.26
-10.04
-13.26
-17.00
-21.21
-25.64
-29.78
-32.90
-34.21
-33.08
-29.28
-23.06
-15.07
-6.25
2.51
10.47
17.13
22.23
25.61
27.23
27.13
25.47
22.58
18.93
15.06
11.51
8.66
6.69
5.54
4.99
4.77
4.66
4.52
4.32
4.05
3.64
3.00
2.01
0.59
-1.30
-3.64
-6.41
-9.66
-13.40
-17.56
-21.73
-25.26
-27.27
-27.00
-24.03
-18.48
-11.02
-2.61
5.78
13.39
19.76
24.67
28.04
29.78
29.86
28.37
25.58
21.97
18.17
14.78
12.19
10.52
9.58
9.01
8.41
7.54
6.35
5.00
3.69
2.58
1.68
0.85
-0.18
-1.73
-4.02
-7.22
-11.31
-16.02
-20.82
-24.93
-27.46
-27.65
-25.07
-19.83
-12.50
-3.99
4.75
12.95
20.08
25.88
30.20
32.91
33.92
33.16
30.79
27.15
22.82
18.45
14.62
11.72
9.80
8.66
7.90
7.12
6.06
4.64
2.97
1.28
-0.27
-1.65
-3.07
-4.86
-7.39
-10.91
-15.47
-20.85
-26.56
-31.85
-35.87
-37.73
-36.78
-32.73
-25.82
-16.74
-6.51
3.76
13.17
21.09
27.23
31.50
33.89
34.44
33.22
30.44
26.52
22.10
17.83
14.28
11.69
9.93
8.60
7.26
5.60
3.55
1.28
-0.96
-3.04
-4.99
-7.01
-9.35
-12.24
-15.85
-20.24
-25.31
-30.69
-35.72
-39.50
-41.08
-39.75
-35.30
-28.08
-18.93
-8.88
1.08
10.18
17.90
23.90
27.97
30.06
30.22
28.73
25.95
22.40
18.56
14.89
11.70
9.07
7.00
5.33
3.90
2.60
1.38
0.27
-0.74
-1.74
-2.88
-4.38
-6.45
-9.27
-12.94
-17.42
-22.49
-27.62
-32.01
-34.69
-34.83
-31.97
-26.20
-18.19
-8.95
0.48
9.25
16.87
23.08
27.71
30.60
31.58
30.64
28.06
24.38
20.33
16.55
13.46
11.10
9.29
7.72
6.18
4.60
3.03
1.58
0.28
-0.92
-2.16
-3.71
-5.85
-8.83
-12.76
-17.52
-22.73
-27.75
-31.78
-33.98
-33.68
-30.57
-24.82
-17.04
-8.16
0.77
8.91
15.63
20.62
23.78
25.09
24.60
22.41
18.84
14.41
9.80
5.68
2.50
0.36
-0.93
-1.74
-2.45
-3.23
-4.08
-4.89
-5.59
-6.22
-7.00
-8.24
-10.24
-13.16
-16.96
-21.33
-25.64
-29.15
-31.05
-30.75
-28.02
-23.03
-16.35
-8.69
-0.80
6.72
13.34
18.69
22.44
24.38
24.56
23.21
20.83
17.97
15.11
12.53
10.30
8.33
6.49
4.68
2.90
1.22
-0.31
-1.61
-2.72
-3.69
-4.71
-6.02
-7.88
-10.49
-13.81
-17.54
-21.06
-23.60
-24.43
-23.10
-19.55
-14.13
-7.44
-0.18
7.04
13.70
19.43
23.88
26.74
27.77
26.99
24.63
21.25
17.53
14.13
11.49
9.71
8.63
7.90
7.17
6.24
5.06
3.70
2.27
0.79
-0.81
-2.65
-4.83
-7.47
-10.53
-13.89
-17.20
-19.97
-21.60
-21.58
-19.63
-15.78
-10.43
-4.15
2.41
8.71
14.29
18.80
21.96
23.54
23.48
21.93
19.30
16.14
13.05
10.49
8.65
7.46
6.65
5.91
4.98
3.74
2.22
0.51
-1.23
-2.93
-4.52
-6.05
-7.59
-9.29
-11.24
-13.55
-16.18
-18.93
-21.42
-23.12
-23.49
-22.16
-19.05
-14.45
-8.89
-3.00
2.66
7.72
11.96
15.25
17.46
18.44
18.17
16.78
14.61
12.12
9.77
7.86
6.46
5.45
4.65
3.90
3.14
2.41
1.73
1.06
0.28
-0.72
-1.99
-3.42
-4.86
-6.19
-7.40
-8.64
-10.11
-11.93
-14.15
-16.62
-19.13
-21.35
-22.93
-23.45
-22.57
-20.08
-16.04
-10.80
-4.92
0.94
6.27
10.71
14.07
16.23
17.12
16.70
15.08
12.53
9.55
6.68
4.34
2.74
1.82
1.36
1.11
0.90
0.70
0.48
0.18
-0.34
-1.28
-2.77
-4.80
-7.15
-9.49
-11.50
-12.97
-13.91
-14.53
-15.13
-15.99
-17.30
-19.09
-21.18
-23.27
-24.89
-25.50
-24.60
-21.92
-17.54
-11.89
-5.66
0.37
5.59
9.62
12.36
13.85
14.15
13.39
11.73
9.45
6.99
4.78
3.16
2.28
2.00
2.07
2.21
2.30
2.33
2.37
2.48
2.58
2.50
2.01
0.96
-0.65
-2.66
-4.78
-6.75
-8.39
-9.69
-10.77
-11.88
-13.26
-15.11
-17.51
-20.39
-23.46
-26.26
-28.16
-28.60
-27.17
-23.83
-18.93
-13.11
-7.14
-1.63
3.00
6.60
9.17
10.73
11.31
10.97
9.85
8.22
6.43
4.83
3.66
2.99
2.72
2.67
2.63
2.46
2.12
1.58
0.91
0.12
-0.78
-1.78
-2.89
-4.07
-5.28
-6.42
-7.41
-8.19
-8.75
-9.17
-9.60
-10.26
-11.41
-13.22
-15.68
-18.52
-21.26
-23.26
-23.93
-22.89
-20.09
-15.78
-10.41
-4.51
1.41
6.96
11.80
15.65
18.30
19.57
19.45
18.09
15.83
13.09
10.33
7.91
6.03
4.71
3.84
3.23
2.77
2.41
2.21
2.24
2.47
2.81
3.00
2.82
2.11
0.90
-0.62
-2.24
-3.78
-5.25
-6.77
-8.58
-10.90
-13.83
-17.37
-21.31
-25.24
-28.55
-30.55
-30.64
-28.54
-24.36
-18.60
-11.99
-5.25
1.07
6.62
11.18
14.54
16.50
16.94
15.99
14.01
11.58
9.24
7.37
6.06
5.18
4.59
4.19
3.99
3.99
4.15
4.29
4.13
3.44
2.17
0.42
-1.59
-3.64
-5.63
-7.59
-9.65
-11.97
-14.67
-17.77
-21.24
-24.87
-28.30
-31.02
-32.40
-31.90
-29.24
-24.52
-18.28
-11.29
-4.40
1.77
6.87
10.80
13.56
15.12
15.46
14.57
12.56
9.81
6.83
4.16
2.17
0.99
0.46
0.33
0.35
0.38
0.39
0.34
0.16
-0.28
-1.11
-2.40
-4.09
-6.11
-8.37
-10.90
-13.77
-17.05
-20.64
-24.19
-27.13
-28.75
-28.44
-25.87
-21.05
-14.41
-6.59
1.57
9.33
16.03
21.27
24.82
26.66
26.84
25.54
23.04
19.71
16.06
12.63
9.90
8.11
7.25
7.06
7.23
7.44
7.50
7.33
6.82
5.84
4.25
2.03
-0.73
-3.81
-6.99
-10.20
-13.64
-17.65
-22.53
-28.25
-34.34
-39.82
-43.56
-44.57
-42.37
-37.14
-29.64
-21.03
-12.54
-5.26
0.03
2.93
3.58
2.63
1.19
0.54
1.79
5.44
11.28
18.42
25.66
31.93
36.51
39.22
40.19
39.75
38.22
35.85
32.96
29.87
26.96
24.55
22.79
21.64
20.90
20.32
19.72
19.02
18.23
17.36
16.35
15.11
13.50
11.48
9.06
6.35
3.43
0.27
-3.23
-7.27
-11.98
-17.37
-23.17
-28.79
-33.29
-35.63
-34.90
-30.63
-22.98
-12.79
-1.32
10.13
20.50
29.15
35.80
40.37
42.87
43.32
41.92
39.10
35.51
31.90
28.88
26.71
25.37
24.60
24.14
23.87
23.80
23.98
24.39
24.83
24.97
24.52
23.24
21.15
18.49
15.58
12.73
10.06
7.50
4.86
1.87
-1.51
-5.17
-8.87
-12.32
-15.41
-18.21
-21.00
-24.16
-28.01
-32.72
-38.16
-43.85
-48.96
-52.41
-53.19
-50.56
-44.43
-35.34
-24.37
-12.81
-1.78
7.97
16.12
22.59
27.38
30.46
31.82
31.60
30.11
27.89
25.57
23.66
22.44
21.93
21.97
22.30
22.67
22.96
23.10
23.03
22.72
22.06
20.95
19.36
17.31
14.94
12.44
9.99
7.68
5.60
3.73
2.04
0.46
-1.14
-2.92
-4.98
-7.25
-9.53
-11.49
-12.85
-13.48
-13.58
-13.56
-13.91
-15.04
-17.18
-20.22
-23.79
-27.20
-29.54
-29.83
-27.31
-21.67
-13.24
-2.91
8.16
18.85
28.35
36.22
42.32
46.55
48.83
49.07
47.37
44.07
39.81
35.39
31.53
28.74
27.13
26.53
26.52
26.67
26.68
26.43
25.98
25.39
24.68
23.73
22.37
20.44
17.94
15.04
12.04
9.23
6.74
4.52
2.36
0.01
-2.70
-5.75
-8.96
-12.07
-14.84
-17.17
-19.16
-21.04
-23.09
-25.54
-28.48
-31.88
-35.58
-39.30
-42.62
-44.99
-45.74
-44.27
-40.16
-33.43
-24.53
-14.37
-4.03
5.47
13.39
19.34
23.24
25.20
25.43
24.23
21.97
19.14
16.27
13.84
12.13
11.22
10.97
11.16
11.58
12.13
12.78
13.56
14.39
15.06
15.30
14.81
13.51
11.51
9.14
6.76
4.64
2.81
1.11
-0.69
-2.79
-5.19
-7.79
-10.40
-12.91
-15.30
-17.67
-20.16
-22.88
-25.87
-29.13
-32.51
-35.70
-38.21
-39.42
-38.78
-35.95
-30.99
-24.32
-16.66
-8.73
-1.19
5.54
11.15
15.45
18.30
19.64
19.54
18.24
16.16
13.80
11.61
9.91
8.85
8.36
8.24
8.30
8.36
8.37
8.34
8.35
8.43
8.52
8.47
8.09
7.14
5.48
3.11
0.19
-2.98
-6.04
-8.69
-10.81
-12.51
-14.03
-15.72
-17.85
-20.61
-23.99
-27.76
-31.44
-34.39
-35.88
-35.29
-32.32
-27.10
-20.16
-12.30
-4.38
2.88
9.00
13.73
17.04
19.00
19.72
19.34
18.01
15.99
13.61
11.29
9.45
8.32
7.95
8.15
8.60
9.03
9.27
9.31
9.19
8.93
8.43
7.52
6.05
3.93
1.26
-1.75
-4.78
-7.54
-9.86
-11.77
-13.49
-15.36
-17.71
-20.72
-24.37
-28.44
-32.52
-36.06
-38.38
-38.84
-36.91
-32.38
-25.54
-17.15
-8.23
0.18
7.35
12.97
17.02
19.65
20.93
20.89
19.61
17.31
14.45
11.61
9.28
7.73
6.98
6.80
6.93
7.17
7.40
7.64
7.88
8.11
8.24
8.13
7.62
6.55
4.83
2.52
-0.26
-3.21
-6.10
-8.73
-11.06
-13.20
-15.35
-17.79
-20.70
-24.18
-28.11
-32.13
-35.69
-38.05
-38.53
-36.67
-32.41
-26.10
-18.42
-10.19
-2.14
5.19
11.36
16.14
19.35
20.92
20.96
19.76
17.78
15.54
13.54
12.12
11.37
11.23
11.49
11.93
12.40
12.81
13.12
13.30
13.29
13.02
12.44
11.53
10.30
8.77
6.99
4.97
2.74
0.35
-2.17
-4.78
-7.44
-10.10
-12.70
-15.19
-17.59
-20.00
-22.61
-25.61
-29.01
-32.54
-35.59
-37.33
-36.98
-34.09
-28.71
-21.41
-13.06
-4.62
3.17
9.86
15.26
19.34
22.09
23.49
23.56
22.45
20.44
17.94
15.46
13.43
12.14
11.64
11.78
12.27
12.80
13.11
13.11
12.82
12.30
11.61
10.70
9.47
7.77
5.52
2.79
-0.26
-3.40
-6.42
-9.20
-11.76
-14.24
-16.79
-19.55
-22.62
-25.92
-29.25
-32.23
-34.31
-34.87
-33.40
-29.66
-23.81
-16.39
-8.18
0.05
7.68
14.40
20.00
24.33
27.16
28.30
27.75
25.81
23.09
20.35
18.16
16.79
16.12
15.89
15.80
15.71
15.66
15.65
15.64
15.49
14.99
13.98
12.41
10.31
7.75
4.79
1.54
-1.85
-5.16
-8.14
-10.66
-12.79
-14.78
-17.03
-19.92
-23.63
-28.03
-32.62
-36.63
-39.14
-39.36
-36.81
-31.47
-23.88
-14.92
-5.61
3.21
10.98
17.45
22.56
26.25
28.43
29.00
28.00
25.75
22.83
19.92
17.59
16.16
15.56
15.51
15.67
15.77
15.73
15.57
15.35
15.08
14.64
13.93
12.85
11.36
9.51
7.36
4.99
2.48
-0.14
-2.80
-5.49
-8.24
-11.15
-14.34
-17.94
-22.02
-26.58
-31.49
-36.42
-40.79
-43.80
-44.64
-42.64
-37.62
-29.95
-20.51
-10.42
-0.75
7.77
14.81
20.36
24.55
27.48
29.17
29.68
29.14
27.86
26.22
24.67
23.49
22.82
22.65
22.86
23.37
24.05
24.76
25.25
25.22
24.38
22.54
19.75
16.23
12.35
8.45
4.79
1.40
-1.77
-4.91
-8.12
-11.38
-14.54
-17.34
-19.56
-21.12
-22.21
-23.21
-24.63
-26.90
-30.14
-34.09
-38.06
-41.09
-42.17
-40.51
-35.82
-28.40
-19.05
-8.86
1.11
10.02
17.40
23.04
26.95
29.16
29.80
29.03
27.13
24.51
21.65
19.15
17.66
17.88
20.38
25.47
32.91
41.93
51.30
59.71
66.20
70.35
72.20
72.06
70.19
66.65
61.49
54.85
47.17
39.14
31.49
24.74
19.05
14.22
9.86
5.55
0.97
-4.04
-9.46
-15.15
-20.90
-26.36
-31.10
-34.68
-36.69
-36.94
-35.52
-32.85
-29.53
-26.18
-23.21
-20.80
-18.90
-17.39
-16.25
-15.66
-15.96
-17.61
-20.98
-26.15
-32.69
-39.61
-45.50
-48.95
-49.06
-45.89
-40.40
-34.15
-28.63
-24.73
-22.66
-22.05
-22.48
-23.62
-25.33
-27.48
-29.74
-31.59
-32.55
-32.47
-31.67
-30.91
-30.98
-32.43
-35.10
-38.18
-40.41
-40.50
-37.66
-31.80
-23.59
-14.16
-4.71
3.84
10.96
16.50
20.50
23.01
24.08
23.80
22.37
20.15
17.66
15.40
13.82
13.07
13.12
13.74
14.64
15.61
16.58
17.54
18.42
19.06
19.17
18.41
16.56
13.63
9.92
5.93
2.24
-0.69
-2.69
-4.02
-5.28
-7.20
-10.35
-14.85
-20.15
-25.17
-28.56
-29.09
-26.10
-19.59
-10.19
1.04
12.99
24.68
35.33
44.40
51.49
56.36
58.96
59.58
58.77
57.22
55.47
53.68
51.61
48.69
44.40
38.50
31.12
22.78
14.13
5.87
-1.47
-7.56
-12.33
-15.94
-18.83
-21.50
-24.38
-27.66
-31.28
-34.96
-38.41
-41.52
-44.32
-46.95
-49.59
-52.25
-54.69
-56.34
-56.44
-54.13
-48.85
-40.61
-30.22
-19.15
-9.09
-1.39
3.37
5.60
6.36
6.85
7.97
9.97
12.59
15.26
17.42
18.74
19.10
18.58
17.35
15.61
13.56
11.41
9.34
7.53
6.11
5.13
4.57
4.30
4.14
3.86
3.30
2.38
1.20
-0.07
-1.24
-2.23
-3.11
-4.06
-5.31
-6.97
-9.03
-11.30
-13.56
-15.65
-17.48
-19.02
-20.13
-20.50
-19.59
-16.79
-11.69
-4.22
5.14
15.49
25.62
34.38
40.86
44.59
45.59
44.26
41.30
37.55
33.80
30.66
28.38
26.90
25.84
24.62
22.65
19.50
15.05
9.53
3.47
-2.44
-7.54
-11.29
-13.45
-14.04
-13.29
-11.56
-9.30
-7.05
-5.42
-5.06
-6.47
-9.85
-15.06
-21.61
-28.87
-36.22
-43.14
-49.12
-53.64
-56.24
-56.67
-55.08
-52.00
-48.13
-44.07
-39.96
-35.56
-30.44
-24.30
-17.28
-9.91
-2.97
2.83
7.03
9.55
10.52
10.30
9.29
7.92
6.52
5.35
4.54
4.06
3.84
3.70
3.50
3.12
2.47
1.53
0.28
-1.24
-2.91
-4.67
-6.38
-8.07
-9.84
-11.97
-14.85
-18.78
-23.90
-29.96
-36.26
-41.85
-45.65
-46.81
-44.98
-40.31
-33.49
-25.44
-17.17
-9.50
-3.03
1.85
4.92
6.05
5.23
2.61
-1.44
-6.41
-11.65
-16.56
-20.61
-23.40
-24.61
-23.98
-21.36
-16.77
-10.42
-2.72
5.67
14.15
22.19
29.45
35.79
41.15
45.44
48.48
50.00
49.77
47.65
43.67
38.09
31.36
24.08
17.02
10.91
6.49
4.28
4.47
6.79
10.60
15.05
19.33
22.86
25.37
26.81
27.22
26.59
24.90
22.13
18.45
14.21
9.85
5.88
2.63
0.26
-1.26
-2.09
-2.37
-2.22
-1.74
-1.00
-0.14
0.61
0.95
0.59
-0.69
-2.97
-6.14
-9.90
-13.88
-17.66
-20.88
-23.20
-24.33
-24.05
-22.23
-18.88
-14.20
-8.56
-2.49
3.45
8.77
13.14
16.44
18.70
20.06
20.64
20.55
19.90
18.76
17.32
15.74
14.17
12.67
11.16
9.51
7.66
5.64
3.62
1.85
0.52
-0.24
-0.46
-0.26
0.20
0.76
1.26
1.49
1.20
0.10
-2.01
-5.14
-8.85
-12.37
-14.61
-14.54
-11.56
-5.76
2.05
10.63
18.69
25.31
30.14
33.33
35.30
36.43
36.92
36.80
36.02
34.61
32.75
30.72
28.79
27.16
25.83
24.71
23.66
22.55
21.24
19.61
17.53
14.87
11.56
7.75
3.80
0.17
-2.66
-4.54
-5.63
-6.46
-7.63
-9.44
-11.68
-13.60
-14.22
-12.70
-8.69
-2.46
5.15
13.07
20.28
26.02
29.97
32.14
32.80
32.29
30.96
29.04
26.69
24.06
21.31
18.72
16.51
14.86
13.74
12.98
12.31
11.48
10.38
8.95
7.25
5.35
3.27
1.10
-1.10
-3.26
-5.35
-7.39
-9.42
-11.36
-12.93
-13.71
-13.21
-11.09
-7.31
-2.24
3.47
9.05
13.82
17.36
19.49
20.24
19.72
18.05
15.34
11.75
7.48
2.87
-1.66
-5.67
-8.79
-10.87
-12.03
-12.59
-12.95
-13.40
-14.06
-14.82
-15.52
-16.04
-16.40
-16.74
-17.21
-17.93
-18.92
-20.16
-21.58
-23.05
-24.28
-24.81
-24.13
-21.84
-17.85
-12.47
-6.31
-0.06
5.77
10.91
15.27
18.77
21.26
22.52
22.41
21.00
18.64
15.81
12.96
10.38
8.16
6.33
4.90
3.91
3.41
3.29
3.34
3.31
2.98
2.30
1.36
0.29
-0.81
-1.98
-3.35
-5.10
-7.40
-10.31
-13.70
-17.24
-20.40
-22.51
-23.03
-21.66
-18.52
-14.06
-8.95
-3.83
0.83
4.71
7.65
9.51
10.17
9.62
7.99
5.58
2.82
0.08
-2.37
-4.44
-6.12
-7.42
-8.33
-8.82
-8.88
-8.63
-8.22
-7.81
-7.44
-7.13
-6.86
-6.64
-6.58
-6.79
-7.42
-8.54
-10.18
-12.30
-14.73
-17.17
-19.14
-20.06
-19.42
-16.92
-12.65
-7.05
-0.84
5.22
10.52
14.65
17.45
18.89
19.03
18.00
15.99
13.29
10.24
7.22
4.56
2.47
0.98
0.01
-0.66
-1.26
-1.97
-2.90
-4.01
-5.21
-6.39
-7.48
-8.45
-9.38
-10.33
-11.35
-12.50
-13.88
-15.64
-17.86
-20.54
-23.32
-25.59
-26.54
-25.45
-22.04
-16.49
-9.49
-1.98
5.14
11.12
15.50
18.01
18.61
17.45
14.90
11.54
8.01
4.93
2.71
1.44
0.93
0.80
0.63
0.06
-1.07
-2.67
-4.49
-6.20
-7.57
-8.59
-9.50
-10.71
-12.60
-15.43
-19.14
-23.43
-27.73
-31.34
-33.63
-34.14
-32.72
-29.61
-25.28
-20.30
-15.13
-10.12
-5.45
-1.29
2.14
4.61
5.91
5.98
4.95
3.10
0.83
-1.42
-3.20
-4.18
-4.23
-3.50
-2.42
-1.55
-1.35
-1.93
-3.06
-4.28
-5.18
-5.57
-5.63
-5.75
-6.35
-7.73
-9.92
-12.68
-15.55
-17.94
-19.22
-18.93
-16.87
-13.18
-8.31
-2.79
2.79
8.03
12.56
16.13
18.46
19.33
18.67
16.63
13.64
10.28
7.09
4.50
2.66
1.48
0.74
0.17
-0.40
-0.98
-1.52
-1.90
-2.07
-2.09
-2.14
-2.49
-3.36
-4.87
-7.03
-9.68
-12.60
-15.49
-17.99
-19.73
-20.31
-19.41
-16.90
-12.90
-7.78
-2.08
3.64
8.96
13.50
16.98
19.15
19.79
18.82
16.42
13.01
9.22
5.68
2.85
0.94
-0.12
-0.59
-0.76
-0.82
-0.84
-0.80
-0.62
-0.35
-0.10
-0.04
-0.36
-1.16
-2.47
-4.29
-6.58
-9.22
-11.96
-14.29
-15.61
-15.30
-13.03
-8.88
-3.41
2.59
8.34
13.26
17.06
19.68
21.10
21.35
20.48
18.66
16.21
13.53
11.07
9.11
7.77
6.98
6.53
6.23
5.95
5.62
5.28
4.98
4.74
4.50
4.13
3.44
2.32
0.66
-1.55
-4.25
-7.30
-10.38
-13.04
-14.68
-14.74
-12.93
-9.31
-4.31
1.44
7.26
12.66
17.25
20.75
22.93
23.60
22.73
20.54
17.50
14.23
11.33
9.21
7.98
7.52
7.53
7.68
7.70
7.45
6.94
6.27
5.56
4.91
4.35
3.85
3.34
2.63
1.53
-0.19
-2.65
-5.75
-9.06
-11.89
-13.49
-13.25
-10.94
-6.81
-1.44
4.46
10.21
15.30
19.39
22.22
23.57
23.35
21.62
18.73
15.26
11.83
9.01
7.08
6.04
5.68
5.69
5.79
5.82
5.71
5.49
5.21
4.91
4.55
4.04
3.22
1.98
0.24
-1.99
-4.71
-7.84
-11.24
-14.65
-17.60
-19.49
-19.79
-18.17
-14.68
-9.75
-4.04
1.70
6.85
10.94
13.67
14.93
14.74
13.34
11.09
8.42
5.76
3.46
1.70
0.59
0.08
0.05
0.33
0.73
1.10
1.32
1.32
1.11
0.69
0.08
-0.70
-1.68
-2.87
-4.34
-6.12
-8.30
-10.90
-13.88
-17.01
-19.86
-21.86
-22.40
-21.08
-17.81
-12.92
-7.06
-1.01
4.50
8.97
12.15
14.01
14.64
14.19
12.89
10.97
8.69
6.31
4.09
2.24
0.92
0.19
-0.02
0.14
0.47
0.80
1.02
1.11
1.04
0.76
0.22
-0.63
-1.74
-2.99
-4.23
-5.39
-6.48
-7.66
-9.17
-11.18
-13.68
-16.41
-18.88
-20.43
-20.43
-18.50
-14.63
-9.25
-3.07
3.11
8.61
13.05
16.25
18.25
19.13
19.01
18.03
16.36
14.23
11.87
9.57
7.61
6.19
5.46
5.39
5.80
6.38
6.82
6.90
6.58
5.99
5.32
4.70
4.13
3.53
2.75
1.76
0.57
-0.72
-1.96
-3.06
-3.96
-4.68
-5.25
-5.74
-6.24
-6.86
-7.73
-8.98
-10.75
-13.03
-15.65
-18.20
-20.06
-20.59
-19.33
-16.24
-11.74
-6.59
-1.61
2.65
5.96
8.43
10.22
11.38
11.80
11.29
9.85
7.71
5.39
3.45
2.29
2.01
2.42
3.20
4.05
4.81
5.46
6.06
6.65
7.22
7.68
7.91
7.85
7.48
6.89
6.26
5.75
5.43
5.23
4.95
4.34
3.29
1.86
0.28
-1.15
-2.20
-2.87
-3.28
-3.67
-4.25
-5.20
-6.68
-8.82
-11.64
-15.01
-18.43
-21.17
-22.40
-21.53
-18.52
-13.88
-8.52
-3.31
1.17
4.76
7.55
9.72
11.28
12.14
12.20
11.48
10.21
8.74
7.42
6.49
5.99
5.85
5.97
6.23
6.54
6.86
7.09
7.12
6.83
6.08
4.80
3.02
0.88
-1.40
-3.54
-5.32
-6.63
-7.49
-8.05
-8.53
-9.14
-9.98
-11.05
-12.19
-13.21
-13.96
-14.37
-14.59
-14.81
-15.33
-16.40
-18.15
-20.51
-23.17
-25.62
-27.24
-27.46
-25.92
-22.59
-17.79
-12.08
-6.12
-0.52
4.26
8.02
10.71
12.40
13.23
13.31
12.71
11.52
9.89
8.07
6.35
5.01
4.18
3.80
3.67
3.61
3.51
3.39
3.34
3.42
3.61
3.80
3.86
3.69
3.23
2.57
1.80
1.07
0.51
0.17
-0.03
-0.31
-0.90
-2.00
-3.62
-5.57
-7.51
-9.11
-10.24
-10.98
-11.62
-12.53
-14.00
-16.17
-19.06
-22.49
-26.17
-29.60
-32.16
-33.20
-32.20
-29.03
-23.99
-17.80
-11.34
-5.39
-0.40
3.52
6.47
8.59
9.94
10.51
10.28
9.34
7.90
6.28
4.83
3.84
3.46
3.70
4.41
5.41
6.49
7.51
8.38
9.04
9.53
9.88
10.13
10.27
10.23
9.92
9.26
8.24
6.86
5.24
3.48
1.70
0.00
-1.56
-2.98
-4.32
-5.64
-7.04
-8.54
-10.11
-11.63
-12.98
-14.11
-15.11
-16.19
-17.63
-19.73
-22.65
-26.36
-30.52
-34.46
-37.27
-38.07
-36.25
-31.74
-25.06
-17.14
-9.08
-1.75
4.37
9.20
12.88
15.57
17.32
18.14
18.03
17.18
15.90
14.59
13.58
13.07
13.07
13.46
14.11
14.88
15.67
16.40
17.04
17.55
17.95
18.23
18.37
18.32
18.03
17.46
16.64
15.66
14.58
13.44
12.19
10.76
9.09
7.18
5.12
2.99
0.85
-1.25
-3.32
-5.28
-7.07
-8.62
-9.92
-11.14
-12.52
-14.40
-17.05
-20.60
-24.89
-29.47
-33.61
-36.48
-37.28
-35.50
-31.05
-24.37
-16.27
-7.73
0.34
7.38
13.15
17.67
21.04
23.28
24.36
24.24
23.00
20.94
18.50
16.17
14.37
13.35
13.12
13.55
14.39
15.38
16.31
17.04
17.54
17.78
17.76
17.43
16.73
15.61
14.07
12.22
10.22
8.26
6.49
4.94
3.58
2.29
0.91
-0.72
-2.65
-4.88
-7.26
-9.58
-11.65
-13.38
-14.81
-16.18
-17.79
-19.93
-22.81
-26.41
-30.44
-34.31
-37.19
-38.20
-36.64
-32.29
-25.50
-17.14
-8.31
-0.04
7.02
12.62
16.87
19.95
21.98
22.97
22.85
21.72
19.81
17.59
15.55
14.11
13.46
13.54
14.10
14.85
15.54
16.08
16.44
16.69
16.89
17.01
16.94
16.52
15.61
14.14
12.23
10.12
8.11
6.48
5.28
4.38
3.50
2.36
0.80
-1.13
-3.23
-5.30
-7.18
-8.86
-10.42
-12.00
-13.69
-15.64
-17.97
-20.85
-24.37
-28.43
-32.59
-36.10
-38.01
-37.48
-34.12
-28.07
-20.09
-11.21
-2.47
5.35
11.82
16.87
20.56
23.00
24.25
24.34
23.35
21.51
19.25
17.06
15.36
14.36
14.03
14.12
14.38
14.66
14.98
15.43
16.07
16.81
17.44
17.67
17.31
16.29
14.70
12.77
10.75
8.85
7.19
5.78
4.48
3.08
1.39
-0.68
-3.05
-5.54
-7.93
-10.07
-11.90
-13.48
-14.92
-16.34
-17.89
-19.73
-22.04
-24.94
-28.34
-31.81
-34.64
-35.92
-34.91
-31.26
-25.22
-17.58
-9.33
-1.45
5.40
10.96
15.25
18.38
20.46
21.51
21.56
20.68
19.10
17.19
15.36
13.95
13.18
13.05
13.47
14.20
15.05
15.84
16.45
16.79
16.81
16.47
15.71
14.54
12.98
11.13
9.06
6.89
4.72
2.61
0.64
-1.17
-2.80
-4.28
-5.63
-6.92
-8.17
-9.43
-10.75
-12.22
-13.91
-15.89
-18.19
-20.80
-23.71
-26.86
-30.08
-33.06
-35.22
-35.88
-34.40
-30.49
-24.36
-16.68
-8.40
-0.41
6.64
12.41
16.81
19.88
21.67
22.28
21.88
20.74
19.21
17.70
16.52
15.87
15.73
15.94
16.28
16.60
16.87
17.18
17.60
18.10
18.47
18.41
17.69
16.23
14.20
11.89
9.60
7.49
5.58
3.75
1.84
-0.25
-2.56
-4.99
-7.41
-9.62
-11.53
-13.12
-14.50
-15.93
-17.72
-20.13
-23.32
-27.17
-31.26
-34.88
-37.18
-37.39
-35.07
-30.30
-23.61
-15.85
-7.92
-0.53
5.85
11.02
14.91
17.52
18.87
19.06
18.27
16.84
15.17
13.63
12.47
11.80
11.60
11.77
12.22
12.85
13.57
14.25
14.74
14.87
14.53
13.69
12.41
10.80
9.04
7.23
5.48
3.79
2.11
0.31
-1.72
-4.04
-6.58
-9.15
-11.48
-13.37
-14.74
-15.74
-16.68
-17.99
-20.00
-22.92
-26.62
-30.74
-34.62
-37.42
-38.33
-36.82
-32.76
-26.52
-18.83
-10.55
-2.43
5.00
11.45
16.77
20.83
23.51
24.75
24.65
23.54
21.92
20.30
19.04
18.29
17.97
17.92
17.95
18.00
18.05
18.14
18.25
18.26
17.99
17.26
15.95
14.09
11.86
9.52
7.32
5.38
3.67
2.01
0.18
-1.99
-4.47
-7.09
-9.59
-11.77
-13.57
-15.14
-16.76
-18.74
-21.31
-24.56
-28.38
-32.46
-36.25
-39.05
-40.11
-38.85
-35.02
-28.87
-21.10
-12.66
-4.47
2.82
8.88
13.72
17.42
20.05
21.63
22.12
21.63
20.42
18.89
17.50
16.55
16.14
16.15
16.36
16.54
16.62
16.63
16.64
16.63
16.47
15.93
14.83
13.13
11.01
8.81
6.81
5.18
3.83
2.51
0.93
-1.08
-3.45
-5.95
-8.27
-10.16
-11.61
-12.79
-14.00
-15.60
-17.85
-20.89
-24.65
-28.83
-32.85
-35.91
-37.09
-35.66
-31.35
-24.47
-15.85
-6.59
2.33
10.25
16.86
22.12
26.03
28.54
29.60
29.29
27.91
25.92
23.85
22.09
20.86
20.14
19.79
19.66
19.65
19.72
19.88
20.11
20.31
20.30
19.88
18.85
17.16
14.90
12.31
9.66
7.18
4.94
2.87
0.79
-1.44
-3.87
-6.43
-8.95
-11.23
-13.11
-14.59
-15.84
-17.15
-18.89
-21.31
-24.53
-28.37
-32.35
-35.77
-37.82
-37.79
-35.21
-30.09
-22.88
-14.39
-5.58
2.70
9.89
15.75
20.23
23.35
25.12
25.55
24.77
23.10
21.01
18.95
17.29
16.13
15.40
14.97
14.73
14.64
14.71
14.92
15.16
15.19
14.75
13.66
11.87
9.53
6.94
4.41
2.20
0.38
-1.17
-2.69
-4.46
-6.65
-9.23
-11.97
-14.56
-16.72
-18.38
-19.66
-20.92
-22.60
-25.05
-28.40
-32.45
-36.62
-40.05
-41.79
-41.06
-37.51
-31.33
-23.22
-14.18
-5.20
3.00
9.99
15.64
19.95
22.92
24.49
24.70
23.70
21.84
19.64
17.64
16.25
15.60
15.60
15.96
16.37
16.60
16.58
16.41
16.22
16.11
16.02
15.77
15.14
13.97
12.28
10.27
8.28
6.57
5.24
4.17
3.10
1.76
0.01
-2.04
-4.14
-6.02
-7.49
-8.59
-9.52
-10.62
-12.23
-14.58
-17.73
-21.51
-25.54
-29.21
-31.78
-32.55
-30.98
-26.90
-20.59
-12.73
-4.21
4.05
11.36
17.27
21.62
24.40
25.66
25.50
24.04
21.52
18.32
14.94
11.90
9.60
8.22
7.68
7.67
7.85
7.97
7.90
7.69
7.46
7.29
7.17
7.00
6.63
5.93
4.85
3.51
2.09
0.82
-0.15
-0.78
-1.22
-1.67
-2.31
-3.24
-4.41
-5.66
-6.84
-7.90
-8.86
-9.89
-11.18
-12.89
-15.09
-17.81
-21.03
-24.73
-28.76
-32.78
-36.14
-38.03
-37.63
-34.49
-28.71
-20.99
-12.39
-3.98
3.43
9.51
14.27
17.90
20.53
22.19
22.83
22.40
21.10
19.26
17.40
15.96
15.21
15.17
15.63
16.27
16.81
17.12
17.19
17.13
17.06
17.00
16.83
16.40
15.53
14.12
12.22
10.00
7.70
5.48
3.42
1.49
-0.42
-2.42
-4.54
-6.76
-8.95
-11.00
-12.79
-14.32
-15.65
-16.96
-18.41
-20.20
-22.41
-25.04
-28.06
-31.29
-34.46
-37.08
-38.50
-38.03
-35.16
-29.84
-22.55
-14.18
-5.72
2.05
8.77
14.36
18.90
22.42
24.81
25.96
25.90
24.89
23.41
21.96
20.91
20.43
20.40
20.59
20.73
20.63
20.27
19.75
19.21
18.81
18.52
18.20
17.63
16.61
15.07
13.11
10.92
8.63
6.31
3.91
1.36
-1.38
-4.30
-7.29
-10.26
-13.09
-15.71
-18.04
-20.07
-21.84
-23.48
-25.22
-27.28
-29.83
-32.87
-36.17
-39.26
-41.54
-42.31
-40.99
-37.29
-31.39
-23.87
-15.65
-7.64
-0.52
5.42
10.19
13.95
16.74
18.50
19.09
18.52
17.04
15.12
13.31
12.01
11.37
11.25
11.39
11.55
11.62
11.67
11.82
12.12
12.53
12.84
12.79
12.19
10.94
9.10
6.86
4.48
2.17
0.12
-1.60
-3.06
-4.39
-5.72
-7.12
-8.62
-10.15
-11.61
-12.97
-14.23
-15.44
-16.72
-18.17
-19.97
-22.24
-25.12
-28.51
-32.09
-35.23
-37.12
-37.03
-34.55
-29.77
-23.22
-15.70
-8.00
-0.76
5.66
11.11
15.56
18.97
21.27
22.45
22.55
21.77
20.41
18.88
17.52
16.58
16.10
15.97
16.01
16.04
16.00
15.91
15.84
15.85
15.88
15.78
15.30
14.27
12.64
10.53
8.25
6.16
4.50
3.28
2.28
1.18
-0.31
-2.27
-4.54
-6.86
-8.94
-10.66
-12.05
-13.27
-14.52
-15.97
-17.76
-20.01
-22.81
-26.09
-29.55
-32.60
-34.42
-34.24
-31.63
-26.68
-19.99
-12.47
-5.00
1.84
7.81
12.93
17.20
20.50
22.62
23.36
22.72
21.03
18.82
16.69
15.08
14.12
13.65
13.40
13.16
12.92
12.83
13.05
13.60
14.26
14.68
14.49
13.55
11.93
9.92
7.83
5.89
4.20
2.71
1.30
-0.19
-1.92
-3.96
-6.27
-8.67
-10.93
-12.85
-14.32
-15.43
-16.40
-17.54
-19.16
-21.48
-24.56
-28.20
-31.94
-35.08
-36.84
-36.59
-34.04
-29.36
-23.12
-16.04
-8.86
-2.06
4.06
9.32
13.60
16.76
18.66
19.25
18.69
17.27
15.48
13.75
12.45
11.78
11.73
12.18
12.96
13.87
14.75
15.44
15.79
15.68
15.02
13.82
12.17
10.21
8.09
5.91
3.70
1.45
-0.88
-3.29
-5.76
-8.22
-10.56
-12.71
-14.59
-16.20
-17.60
-18.96
-20.50
-22.40
-24.75
-27.36
-29.77
-31.29
-31.23
-29.12
-24.91
-19.04
-12.24
-5.33
1.06
6.56
11.04
14.51
16.93
18.24
18.38
17.44
15.74
13.77
12.09
11.09
10.92
11.41
12.19
12.90
13.30
13.38
13.29
13.23
13.27
13.32
13.14
12.46
11.08
9.04
6.56
3.93
1.46
-0.71
-2.58
-4.31
-6.10
-8.19
-10.74
-13.86
-17.50
-21.43
-25.23
-28.25
-29.81
-29.33
-26.57
-21.70
-15.28
-8.09
-0.87
5.83
11.72
16.72
20.78
23.80
25.68
26.30
25.79
24.42
22.68
21.04
19.87
19.31
19.26
19.50
19.79
19.91
19.78
19.40
18.78
17.93
16.80
15.27
13.25
10.71
7.70
4.41
1.05
-2.18
-5.14
-7.80
-10.25
-12.59
-15.01
-17.68
-20.76
-24.32
-28.27
-32.26
-35.68
-37.77
-37.80
-35.31
-30.33
-23.37
-15.31
-7.09
0.57
7.25
12.84
17.39
20.89
23.27
24.42
24.35
23.22
21.40
19.30
17.28
15.55
14.15
13.03
12.08
11.21
10.32
9.35
8.26
7.06
5.76
4.42
3.07
1.71
0.31
-1.18
-2.81
-4.61
-6.57
-8.62
-10.65
-12.52
-14.15
-15.49
-16.65
-17.80
-19.18
-21.05
-23.52
-26.54
-29.79
-32.70
-34.52
-34.54
-32.25
-27.58
-20.91
-12.97
-4.58
3.48
10.72
16.92
21.98
25.88
28.58
30.02
30.20
29.31
27.63
25.60
23.63
22.05
21.04
20.64
20.74
21.17
21.74
22.25
22.54
22.50
22.07
21.20
19.93
18.31
16.46
14.54
12.72
11.10
9.67
8.35
7.01
5.54
3.95
2.31
0.72
-0.76
-2.15
-3.52
-4.95
-6.45
-7.96
-9.41
-10.75
-12.04
-13.43
-15.16
-17.40
-20.26
-23.67
-27.41
-31.10
-34.21
-36.11
-36.21
-34.08
-29.63
-23.15
-15.28
-6.82
1.47
9.01
15.49
20.75
24.69
27.27
28.50
28.49
27.53
26.01
24.30
22.71
21.39
20.34
19.54
18.96
18.60
18.49
18.64
18.93
19.19
19.19
18.69
17.60
15.94
13.90
11.73
9.63
7.72
6.01
4.43
2.89
1.38
-0.06
-1.33
-2.36
-3.16
-3.83
-4.53
-5.41
-6.55
-7.92
-9.43
-10.95
-12.35
-13.61
-14.75
-15.85
-17.08
-18.56
-20.42
-22.70
-25.31
-27.98
-30.29
-31.65
-31.52
-29.52
-25.55
-19.88
-13.05
-5.69
1.56
8.27
14.11
18.86
22.30
24.21
24.49
23.27
20.96
18.17
15.54
13.51
12.22
11.53
11.19
10.96
10.73
10.49
10.27
10.05
9.74
9.19
8.28
6.97
5.35
3.59
1.91
0.47
-0.66
-1.59
-2.47
-3.46
-4.60
-5.80
-6.90
-7.81
-8.56
-9.31
-10.20
-11.31
-12.55
-13.76
-14.79
-15.59
-16.24
-16.85
-17.59
-18.59
-19.96
-21.84
-24.33
-27.36
-30.56
-33.28
-34.69
-34.02
-30.90
-25.48
-18.39
-10.55
-2.83
4.14
10.10
15.00
18.82
21.47
22.79
22.65
21.17
18.70
15.83
13.13
11.01
9.57
8.68
8.09
7.59
7.10
6.69
6.48
6.56
6.86
7.20
7.33
7.01
6.17
4.92
3.49
2.19
1.23
0.66
0.41
0.29
0.17
-0.05
-0.40
-0.87
-1.47
-2.20
-3.02
-3.85
-4.59
-5.18
-5.68
-6.22
-6.97
-8.03
-9.34
-10.75
-12.09
-13.31
-14.53
-16.04
-18.11
-20.82
-23.92
-26.85
-28.85
-29.21
-27.50
-23.68
-18.10
-11.37
-4.20
2.74
8.94
14.06
17.89
20.36
21.49
21.40
20.32
18.59
16.58
14.68
13.17
12.20
11.76
11.74
11.91
12.11
12.19
12.11
11.90
11.65
11.41
11.19
10.88
10.29
9.23
7.64
5.63
3.46
1.48
-0.10
-1.26
-2.13
-2.95
-3.84
-4.82
-5.75
-6.46
-6.90
-7.14
-7.39
-7.86
-8.65
-9.72
-10.88
-11.94
-12.81
-13.57
-14.41
-15.54
-17.13
-19.24
-21.84
-24.81
-27.94
-30.82
-32.91
-33.58
-32.30
-28.88
-23.56
-16.94
-9.77
-2.80
3.49
8.80
13.05
16.17
18.13
18.92
18.63
17.49
15.88
14.19
12.75
11.73
11.14
10.87
10.81
10.85
11.03
11.35
11.83
12.39
12.87
13.09
12.87
12.13
10.91
9.35
7.62
5.94
4.46
3.21
2.10
1.00
-0.28
-1.78
-3.45
-5.10
-6.53
-7.58
-8.26
-8.74
-9.27
-10.08
-11.23
-12.62
-14.08
-15.38
-16.49
-17.50
-18.62
-20.08
-22.02
-24.49
-27.44
-30.74
-34.08
-36.97
-38.75
-38.75
-36.51
-31.97
-25.57
-18.06
-10.31
-3.04
3.31
8.55
12.63
15.55
17.29
17.87
17.42
16.19
14.56
12.92
11.63
10.86
10.57
10.60
10.73
10.86
11.01
11.30
11.81
12.50
13.17
13.52
13.34
12.57
11.39
10.07
8.85
7.84
6.93
5.94
4.71
3.19
1.46
-0.28
-1.86
-3.14
-4.11
-4.83
-5.47
-6.19
-7.15
-8.42
-9.98
-11.70
-13.43
-15.04
-16.48
-17.85
-19.32
-21.13
-23.49
-26.49
-30.06
-33.87
-37.35
-39.78
-40.42
-38.73
-34.59
-28.25
-20.40
-11.90
-3.61
3.77
9.79
14.31
17.36
19.11
19.73
19.43
18.39
16.83
15.03
13.33
12.07
11.50
11.66
12.42
13.52
14.67
15.66
16.41
16.93
17.26
17.41
17.35
17.01
16.30
15.22
13.82
12.22
10.56
8.92
7.32
5.75
4.18
2.61
1.07
-0.40
-1.82
-3.23
-4.68
-6.26
-7.93
-9.66
-11.35
-12.99
-14.61
-16.32
-18.27
-20.61
-23.44
-26.74
-30.33
-33.74
-36.34
-37.38
-36.26
-32.67
-26.76
-19.08
-10.42
-1.61
6.68
13.94
19.92
24.42
27.37
28.78
28.76
27.58
25.62
23.34
21.19
19.54
18.64
18.52
19.06
20.04
21.18
22.22
23.00
23.39
23.36
22.91
22.03
20.79
19.27
17.59
15.81
13.99
12.06
9.99
7.75
5.39
2.97
0.60
-1.67
-3.86
-6.01
-8.19
-10.46
-12.83
-15.26
-17.67
-19.97
-22.14
-24.21
-26.34
-28.74
-31.63
-35.06
-38.89
-42.63
-45.53
-46.76
-45.55
-41.51
-34.75
-25.89
-15.91
-5.83
3.51
11.60
18.24
23.39
27.10
29.36
30.14
29.56
27.86
25.48
22.97
20.87
19.54
19.06
19.29
19.93
20.67
21.31
21.78
22.12
22.35
22.43
22.23
21.65
20.61
19.14
17.35
15.37
13.30
11.17
8.99
6.73
4.41
2.09
-0.14
-2.18
-4.00
-5.67
-7.35
-9.21
-11.32
-13.64
-16.00
-18.22
-20.18
-21.93
-23.63
-25.53
-27.90
-30.96
-34.72
-38.94
-43.01
-46.05
-47.10
-45.38
-40.63
-33.21
-24.00
-14.11
-4.56
3.96
11.15
16.96
21.44
24.64
26.55
27.21
26.75
25.47
23.80
22.19
21.02
20.50
20.67
21.38
22.39
23.49
24.48
25.28
25.85
26.15
26.12
25.66
24.69
23.21
21.27
18.97
16.45
13.78
11.03
8.23
5.44
2.75
0.22
-2.12
-4.28
-6.32
-8.26
-10.12
-11.88
-13.56
-15.21
-16.94
-18.85
-21.06
-23.63
-26.62
-29.95
-33.33
-36.19
-37.76
-37.24
-34.08
-28.20
-20.02
-10.39
-0.31
9.34
17.92
25.03
30.42
33.91
35.44
35.07
33.11
30.12
26.83
23.95
22.02
21.20
21.25
21.74
22.19
22.32
22.14
21.83
21.56
21.38
21.10
20.39
18.95
16.66
13.60
10.08
6.49
3.15
0.29
-2.09
-4.15
-6.16
-8.34
-10.81
-13.49
-16.20
-18.69
-20.82
-22.58
-24.11
-25.64
-27.48
-29.89
-33.04
-36.85
-40.91
-44.45
-46.49
-46.09
-42.70
-36.30
-27.54
-17.43
-7.11
2.49
10.78
17.52
22.72
26.42
28.65
29.45
28.91
27.34
25.20
23.01
21.25
20.14
19.65
19.56
19.60
19.62
19.57
19.53
19.54
19.59
19.50
19.07
18.13
16.57
14.42
11.85
9.07
6.33
3.82
1.62
-0.33
-2.20
-4.15
-6.28
-8.52
-10.69
-12.64
-14.31
-15.82
-17.40
-19.33
-21.78
-24.81
-28.40
-32.38
-36.46
-40.10
-42.49
-42.77
-40.22
-34.63
-26.36
-16.29
-5.55
4.81
14.06
21.78
27.83
32.19
34.82
35.74
35.07
33.10
30.30
27.27
24.56
22.58
21.43
20.95
20.81
20.65
20.25
19.61
18.86
18.17
17.54
16.86
15.87
14.36
12.30
9.85
7.32
4.99
3.00
1.28
-0.42
-2.35
-4.65
-7.27
-9.97
-12.49
-14.65
-16.40
-17.91
-19.42
-21.18
-23.40
-26.16
-29.39
-32.88
-36.21
-38.78
-39.86
-38.77
-35.11
-28.93
-20.75
-11.44
-1.97
6.83
14.41
20.49
24.95
27.79
29.04
28.88
27.60
25.62
23.39
21.36
19.80
18.83
18.43
18.46
18.77
19.22
19.69
20.08
20.25
20.03
19.30
17.99
16.18
14.08
11.94
9.96
8.17
6.48
4.67
2.52
-0.05
-2.98
-6.06
-9.02
-11.64
-13.85
-15.77
-17.62
-19.70
-22.27
-25.47
-29.18
-33.03
-36.36
-38.31
-38.06
-35.06
-29.25
-21.20
-11.91
-2.54
5.93
12.90
18.22
22.04
24.51
25.72
25.65
24.33
21.97
19.01
16.05
13.61
11.99
11.19
11.00
11.16
11.50
11.96
12.53
13.17
13.72
13.95
13.61
12.56
10.84
8.62
6.21
3.90
1.92
0.31
-1.07
-2.50
-4.28
-6.58
-9.32
-12.21
-14.84
-16.90
-18.34
-19.37
-20.41
-21.90
-24.16
-27.29
-31.14
-35.38
-39.46
-42.67
-44.21
-43.32
-39.56
-32.98
-24.18
-14.20
-4.18
4.87
12.35
18.05
22.01
24.41
25.38
25.08
23.65
21.32
18.48
15.53
12.90
10.90
9.66
9.14
9.13
9.34
9.47
9.32
8.80
7.95
6.88
5.70
4.41
2.93
1.11
-1.16
-3.88
-6.84
-9.70
-12.13
-13.90
-15.03
-15.78
-16.47
-17.35
-18.45
-19.61
-20.53
-20.96
-20.79
-20.12
-19.17
-18.18
-17.45
-17.22
-17.76
-19.25
-21.62
-24.48
-26.97
-27.95
-26.30
-21.33
-13.03
-2.09
10.26
22.68
34.06
43.71
51.40
57.20
61.27
63.75
64.72
64.30
62.67
60.21
57.39
54.65
52.26
50.21
48.22
45.95
43.11
39.68
35.88
32.02
28.30
24.74
21.17
17.37
13.26
8.87
4.42
0.11
-3.89
-7.49
-10.67
-13.44
-15.80
-17.75
-19.30
-20.53
-21.56
-22.51
-23.49
-24.51
-25.56
-26.55
-27.44
-28.21
-28.93
-29.79
-30.99
-32.72
-35.03
-37.77
-40.50
-42.53
-43.07
-41.40
-37.14
-30.43
-21.89
-12.50
-3.25
5.05
11.96
17.32
21.13
23.43
24.24
23.61
21.74
19.02
16.01
13.28
11.26
10.15
9.85
10.10
10.63
11.21
11.68
11.92
11.88
11.49
10.78
9.77
8.55
7.15
5.56
3.73
1.65
-0.55
-2.71
-4.62
-6.21
-7.54
-8.77
-10.09
-11.59
-13.25
-14.94
-16.59
-18.11
-19.52
-20.83
-22.13
-23.53
-25.23
-27.43
-30.29
-33.69
-37.23
-40.18
-41.68
-40.96
-37.63
-31.76
-23.94
-15.00
-5.89
2.60
9.93
15.81
20.12
22.87
24.12
24.02
22.77
20.67
18.12
15.55
13.35
11.79
10.96
10.80
11.10
11.65
12.27
12.84
13.30
13.59
13.63
13.39
12.83
11.95
10.73
9.17
7.25
5.01
2.54
0.04
-2.33
-4.39
-6.09
-7.48
-8.67
-9.82
-11.07
-12.47
-13.99
-15.52
-16.93
-18.13
-19.16
-20.14
-21.29
-22.86
-25.06
-27.93
-31.28
-34.63
-37.22
-38.17
-36.77
-32.68
-26.12
-17.83
-8.78
0.05
7.95
14.51
19.60
23.22
25.38
26.13
25.57
23.96
21.68
19.21
16.97
15.28
14.25
13.84
13.92
14.32
14.91
15.56
16.13
16.48
16.49
16.08
15.24
14.02
12.46
10.60
8.48
6.19
3.89
1.76
-0.05
-1.52
-2.75
-3.92
-5.22
-6.75
-8.49
-10.37
-12.24
-13.97
-15.48
-16.78
-17.92
-19.05
-20.32
-21.93
-23.97
-26.43
-29.12
-31.65
-33.46
-33.91
-32.47
-28.85
-23.16
-15.90
-7.81
0.33
7.88
14.42
19.75
23.76
26.42
27.69
27.61
26.39
24.38
22.02
19.80
18.11
17.14
16.92
17.26
17.90
18.50
18.82
18.74
18.29
17.57
16.68
15.64
14.35
12.73
10.66
8.18
5.46
2.72
0.21
-1.96
-3.80
-5.47
-7.12
-8.88
-10.75
-12.65
-14.45
-16.12
-17.67
-19.22
-20.90
-22.84
-25.11
-27.75
-30.80
-34.22
-37.80
-41.09
-43.39
-43.94
-42.15
-37.81
-31.20
-23.00
-14.10
-5.29
2.82
9.90
15.78
20.34
23.47
25.08
25.17
23.93
21.74
19.15
16.70
14.84
13.77
13.46
13.73
14.33
15.05
15.77
16.41
16.86
17.02
16.80
16.14
15.08
13.73
12.18
10.49
8.67
6.70
4.62
2.52
0.53
-1.27
-2.85
-4.34
-5.89
-7.67
-9.76
-12.06
-14.37
-16.44
-18.07
-19.24
-20.13
-21.07
-22.43
-24.49
-27.34
-30.85
-34.64
-38.13
-40.58
-41.25
-39.53
-35.24
-28.59
-20.28
-11.21
-2.26
5.89
12.84
18.45
22.65
25.46
26.92
27.14
26.41
25.06
23.51
22.07
20.96
20.22
19.84
19.79
20.00
20.45
21.05
21.66
22.07
22.08
21.56
20.52
19.04
17.28
15.39
13.48
11.60
9.77
8.00
6.30
4.70
3.17
1.71
0.35
-0.90
-2.03
-3.09
-4.20
-5.52
-7.17
-9.17
-11.42
-13.71
-15.90
-17.94
-19.90
-22.01
-24.54
-27.69
-31.49
-35.73
-39.89
-43.19
-44.78
-43.92
-40.24
-33.93
-25.65
-16.38
-7.09
1.49
8.94
15.06
19.80
23.11
24.91
25.30
24.52
22.99
21.22
19.65
18.55
18.01
17.95
18.28
18.90
19.71
20.65
21.63
22.52
23.16
23.39
23.13
22.37
21.21
19.79
18.23
16.58
14.87
13.07
11.18
9.20
7.11
4.91
2.56
0.05
-2.55
-5.10
-7.45
-9.51
-11.26
-12.83
-14.36
-15.98
-17.80
-19.90
-22.37
-25.28
-28.61
-32.08
-35.10
-36.86
-36.56
-33.65
-28.12
-20.45
-11.52
-2.35
6.17
13.42
19.12
23.25
25.94
27.36
27.65
26.92
25.30
23.06
20.54
18.20
16.39
15.34
15.04
15.33
15.99
16.81
17.61
18.24
18.52
18.30
17.46
16.05
14.23
12.23
10.30
8.56
6.97
5.35
3.53
1.43
-0.89
-3.18
-5.19
-6.76
-7.90
-8.87
-9.94
-11.33
-13.07
-14.99
-16.88
-18.63
-20.27
-21.96
-23.95
-26.40
-29.42
-32.97
-36.84
-40.56
-43.43
-44.58
-43.29
-39.22
-32.59
-24.12
-14.86
-5.78
2.41
9.36
15.02
19.42
22.61
24.55
25.23
24.70
23.24
21.24
19.20
17.58
16.65
16.46
16.83
17.46
18.05
18.41
18.49
18.33
17.97
17.41
16.64
15.61
14.35
12.91
11.39
9.83
8.24
6.52
4.63
2.58
0.51
-1.42
-3.06
-4.43
-5.68
-7.02
-8.62
-10.49
-12.49
-14.46
-16.29
-18.00
-19.77
-21.80
-24.28
-27.28
-30.81
-34.70
-38.62
-42.01
-44.14
-44.25
-41.83
-36.78
-29.56
-20.98
-12.00
-3.40
4.32
11.00
16.58
20.95
23.95
25.38
25.20
23.66
21.28
18.75
16.68
15.44
15.08
15.38
16.02
16.75
17.44
18.09
18.76
19.38
19.81
19.83
19.23
17.98
16.14
13.94
11.62
9.34
7.22
5.26
3.40
1.61
-0.15
-1.90
-3.67
-5.49
-7.35
-9.21
-10.96
-12.51
-13.84
-15.05
-16.31
-17.87
-19.91
-22.55
-25.71
-29.10
-32.24
-34.45
-35.03
-33.42
-29.41
-23.24
-15.50
-7.04
1.32
8.89
15.31
20.39
24.10
26.39
27.25
26.72
25.00
22.53
19.92
17.82
16.67
16.53
17.17
18.11
18.98
19.60
20.03
20.36
20.64
20.69
20.23
19.04
17.04
14.42
11.45
8.44
5.59
2.98
0.60
-1.63
-3.83
-6.12
-8.54
-11.05
-13.51
-15.78
-17.73
-19.39
-20.96
-22.73
-25.03
-28.12
-32.08
-36.69
-41.47
-45.62
-48.24
-48.49
-45.89
-40.49
-32.84
-23.83
-14.43
-5.41
2.72
9.69
15.38
19.64
22.37
23.52
23.27
21.99
20.22
18.51
17.26
16.61
16.47
16.61
16.80
16.94
17.03
17.20
17.50
17.90
18.21
18.20
17.65
16.47
14.74
12.66
10.49
8.45
6.62
4.94
3.20
1.18
-1.26
-4.06
-7.00
-9.78
-12.14
-14.04
-15.64
-17.23
-19.14
-21.58
-24.67
-28.39
-32.60
-36.95
-40.80
-43.30
-43.54
-40.89
-35.24
-27.13
-17.57
-7.70
1.56
9.74
16.68
22.47
27.11
30.48
32.38
32.73
31.63
29.51
27.02
24.82
23.41
22.96
23.28
23.99
24.68
25.12
25.25
25.21
25.11
24.95
24.55
23.68
22.17
20.01
17.39
14.61
11.97
9.63
7.56
5.58
3.44
0.96
-1.90
-5.00
-8.11
-10.97
-13.42
-15.42
-17.12
-18.76
-20.68
-23.19
-26.46
-30.48
-34.96
-39.36
-42.92
-44.87
-44.51
-41.46
-35.73
-27.73
-18.22
-8.15
1.59
10.31
17.57
23.18
27.06
29.22
29.71
28.64
26.34
23.32
20.19
17.58
15.91
15.30
15.53
16.25
17.06
17.74
18.25
18.68
19.07
19.29
19.07
18.12
16.32
13.80
10.96
8.26
6.03
4.28
2.78
1.19
-0.77
-3.11
-5.60
-7.90
-9.69
-10.87
-11.59
-12.20
-13.12
-14.75
-17.36
-20.99
-25.44
-30.20
-34.49
-37.36
-37.90
-35.54
-30.20
-22.41
-13.07
-3.26
6.10
14.36
21.20
26.46
30.06
31.96
32.18
30.95
28.69
25.98
23.42
21.43
20.21
19.70
19.70
19.94
20.24
20.51
20.70
20.78
20.67
20.25
19.38
17.96
15.98
13.55
10.80
7.93
5.08
2.29
-0.46
-3.30
-6.32
-9.51
-12.77
-15.93
-18.83
-21.41
-23.82
-26.31
-29.19
-32.71
-36.89
-41.46
-45.77
-48.98
-50.14
-48.53
-43.83
-36.27
-26.63
-15.99
-5.49
3.95
11.81
17.90
22.23
24.89
25.97
25.58
23.98
21.58
18.94
16.58
14.87
13.95
13.74
14.02
14.55
15.13
15.57
15.74
15.54
14.94
13.98
12.75
11.32
9.72
7.87
5.70
3.17
0.32
-2.69
-5.68
-8.48
-11.00
-13.27
-15.42
-17.63
-20.17
-23.24
-26.93
-31.12
-35.43
-39.18
-41.54
-41.70
-39.17
-33.89
-26.35
-17.42
-8.11
0.65
8.29
14.53
19.32
22.72
24.75
25.42
24.86
23.31
21.21
19.03
17.22
16.06
15.59
15.68
16.09
16.56
16.88
16.97
16.77
16.23
15.27
13.75
11.54
8.62
5.15
1.45
-2.07
-5.13
-7.65
-9.78
-11.83
-14.10
-16.79
-19.92
-23.41
-27.15
-30.95
-34.55
-37.49
-39.16
-38.87
-36.15
-30.89
-23.50
-14.78
-5.74
2.74
10.03
15.80
19.98
22.55
23.56
23.08
21.35
18.77
15.90
13.32
11.44
10.45
10.25
10.59
11.16
11.74
12.20
12.50
12.61
12.46
11.93
10.88
9.20
6.95
4.26
1.38
-1.47
-4.12
-6.56
-8.92
-11.42
-14.27
-17.55
-21.14
-24.61
-27.32
-28.56
-27.73
-24.57
-19.24
-12.33
-4.62
3.06
10.10
16.11
20.91
24.39
26.44
27.01
26.14
24.14
21.50
18.80
16.52
14.94
14.10
13.90
14.20
14.87
15.78
16.73
17.43
17.58
16.95
15.49
13.32
10.69
7.87
5.08
2.43
-0.15
-2.77
-5.64
-8.96
-12.89
-17.39
-22.20
-26.76
-30.26
-31.83
-30.77
-26.84
-20.36
-12.19
-3.41
4.99
12.35
18.43
23.24
26.79
29.04
29.84
29.13
27.06
24.11
20.93
18.12
16.08
14.87
14.31
14.07
13.87
13.52
12.97
12.20
11.20
9.96
8.42
6.55
4.39
1.96
-0.69
-3.51
-6.43
-9.35
-12.12
-14.62
-16.81
-18.73
-20.54
-22.46
-24.69
-27.41
-30.67
-34.37
-38.22
-41.67
-43.94
-44.22
-41.86
-36.61
-28.79
-19.20
-8.92
1.04
9.91
17.29
23.04
27.14
29.57
30.37
29.66
27.75
25.14
22.46
20.23
18.72
17.94
17.65
17.54
17.40
17.19
17.01
17.00
17.21
17.48
17.57
17.21
16.23
14.69
12.74
10.60
8.41
6.28
4.21
2.24
0.38
-1.34
-2.91
-4.34
-5.65
-6.88
-8.08
-9.33
-10.71
-12.28
-14.03
-15.86
-17.62
-19.17
-20.47
-21.58
-22.70
-24.04
-25.85
-28.33
-31.55
-35.35
-39.25
-42.46
-44.01
-43.04
-39.12
-32.37
-23.52
-13.63
-3.84
4.99
12.43
18.38
22.94
26.18
28.06
28.51
27.52
25.37
22.59
19.89
17.83
16.69
16.36
16.49
16.71
16.86
16.97
17.23
17.71
18.27
18.62
18.42
17.49
15.90
13.91
11.80
9.76
7.81
5.89
3.93
1.93
-0.04
-1.88
-3.54
-5.05
-6.47
-7.90
-9.39
-10.94
-12.49
-13.98
-15.37
-16.67
-17.93
-19.24
-20.69
-22.42
-24.51
-26.99
-29.73
-32.35
-34.25
-34.69
-33.02
-28.88
-22.42
-14.20
-5.09
3.98
12.23
19.12
24.36
27.83
29.53
29.58
28.25
25.94
23.14
20.40
18.13
16.56
15.71
15.42
15.46
15.65
15.88
16.12
16.33
16.41
16.25
15.70
14.69
13.23
11.45
9.46
7.39
5.29
3.15
0.99
-1.19
-3.29
-5.23
-6.94
-8.47
-9.87
-11.27
-12.73
-14.26
-15.78
-17.24
-18.62
-19.95
-21.33
-22.81
-24.44
-26.23
-28.31
-30.83
-33.86
-37.27
-40.52
-42.76
-43.03
-40.68
-35.59
-28.26
-19.65
-10.79
-2.51
4.75
10.82
15.67
19.24
21.42
22.17
21.58
19.98
17.85
15.69
13.90
12.66
11.93
11.56
11.39
11.31
11.29
11.36
11.50
11.65
11.70
11.52
11.01
10.15
8.98
7.61
6.11
4.52
2.84
1.03
-0.87
-2.81
-4.63
-6.21
-7.47
-8.43
-9.19
-9.89
-10.66
-11.60
-12.71
-13.97
-15.30
-16.58
-17.74
-18.73
-19.62
-20.52
-21.64
-23.19
-25.32
-28.11
-31.42
-34.88
-37.83
-39.46
-38.99
-35.96
-30.39
-22.88
-14.37
-5.87
1.86
8.43
13.74
17.82
20.64
22.13
22.21
21.03
18.96
16.57
14.43
12.91
12.11
11.85
11.87
11.97
12.06
12.14
12.26
12.38
12.43
12.31
11.97
11.41
10.69
9.82
8.80
7.56
6.02
4.18
2.09
-0.08
-2.12
-3.87
-5.21
-6.14
-6.79
-7.36
-8.03
-8.94
-10.11
-11.44
-12.80
-14.07
-15.22
-16.29
-17.40
-18.67
-20.23
-22.20
-24.60
-27.31
-30.00
-32.08
-32.87
-31.74
-28.36
-22.81
-15.63
-7.58
0.54
8.09
14.63
19.90
23.80
26.26
27.30
27.05
25.75
23.77
21.56
19.56
18.12
17.42
17.46
18.02
18.79
19.48
19.90
20.03
19.93
19.68
19.31
18.74
17.83
16.53
14.82
12.75
10.39
7.83
5.16
2.51
-0.00
-2.26
-4.24
-5.98
-7.59
-9.24
-11.01
-12.94
-14.96
-17.00
-18.99
-20.92
-22.86
-24.95
-27.34
-30.19
-33.52
-37.19
-40.84
-43.86
-45.54
-45.22
-42.46
-37.22
-29.90
-21.22
-12.04
-3.19
4.74
11.40
16.65
20.48
22.94
24.12
24.11
23.09
21.34
19.19
17.04
15.23
14.00
13.40
13.31
13.51
13.79
14.02
14.17
14.26
14.29
14.15
13.74
12.97
11.86
10.50
9.04
7.58
6.13
4.66
3.07
1.32
-0.59
-2.66
-4.85
-7.14
-9.44
-11.66
-13.65
-15.28
-16.54
-17.54
-18.55
-19.90
-21.89
-24.69
-28.27
-32.37
-36.51
-39.98
-42.03
-41.97
-39.40
-34.30
-27.10
-18.55
-9.52
-0.79
7.07
13.76
19.10
22.99
25.33
26.12
25.49
23.76
21.44
19.05
17.02
15.58
14.73
14.36
14.33
14.52
14.87
15.36
15.90
16.41
16.71
16.66
16.15
15.17
13.82
12.23
10.58
8.97
7.44
5.96
4.49
2.94
1.25
-0.61
-2.63
-4.75
-6.90
-8.99
-10.97
-12.86
-14.77
-16.81
-19.10
-21.69
-24.51
-27.41
-30.00
-31.77
-32.10
-30.43
-26.48
-20.34
-12.53
-3.82
4.96
13.12
20.20
25.91
30.07
32.55
33.33
32.53
30.51
27.81
25.03
22.65
20.95
19.97
19.57
19.54
19.72
19.95
20.11
20.09
19.83
19.30
18.47
17.33
15.89
14.14
12.16
10.07
8.00
6.02
4.03
1.81
-0.83
-3.99
-7.53
-11.08
-14.30
-16.98
-19.18
-21.15
-23.28
-25.83
-28.90
-32.43
-36.11
-39.49
-41.91
-42.63
-40.96
-36.57
-29.61
-20.80
-11.17
-1.81
6.46
13.27
18.57
22.47
25.06
26.32
26.25
24.95
22.75
20.16
17.69
15.76
14.54
14.00
13.97
14.26
14.71
15.18
15.57
15.73
15.53
14.83
13.57
11.82
9.73
7.49
5.26
3.13
1.08
-0.96
-3.06
-5.23
-7.41
-9.48
-11.39
-13.09
-14.61
-16.04
-17.50
-19.15
-21.16
-23.68
-26.71
-30.05
-33.17
-35.32
-35.67
-33.58
-28.84
-21.76
-13.08
-3.75
5.27
13.27
19.82
24.75
28.08
29.85
30.15
29.11
26.96
24.11
21.07
18.40
16.48
15.46
15.15
15.23
15.37
15.38
15.23
14.97
14.61
14.11
13.37
12.28
10.85
9.07
6.97
4.60
2.01
-0.69
-3.35
-5.77
-7.84
-9.56
-11.06
-12.51
-14.11
-16.05
-18.50
-21.58
-25.23
-29.14
-32.65
-34.90
-35.07
-32.69
-27.79
-20.95
-13.02
-4.93
2.64
9.23
14.66
18.82
21.69
23.22
23.49
22.64
20.97
18.87
16.72
14.89
13.66
13.13
13.29
13.94
14.84
15.74
16.44
16.86
16.96
16.73
16.16
15.21
13.85
12.03
9.82
7.31
4.68
2.10
-0.33
-2.55
-4.65
-6.76
-9.04
-11.62
-14.57
-17.86
-21.33
-24.66
-27.36
-28.83
-28.52
-26.05
-21.41
-14.97
-7.40
0.48
7.90
14.25
19.18
22.49
24.18
24.37
23.27
21.22
18.65
15.98
13.60
11.75
10.55
9.94
9.75
9.79
9.89
9.98
10.01
9.92
9.61
8.94
7.83
6.27
4.38
2.36
0.36
-1.56
-3.44
-5.38
-7.41
-9.51
-11.59
-13.56
-15.42
-17.23
-19.06
-20.95
-22.96
-25.12
-27.56
-30.31
-33.28
-36.07
-37.99
-38.22
-36.06
-31.22
-23.96
-15.04
-5.51
3.59
11.48
17.74
22.25
25.08
26.35
26.25
25.05
23.11
20.86
18.68
16.82
15.27
13.89
12.58
11.42
10.68
10.76
11.91
14.16
17.11
20.06
22.13
22.56
20.97
17.54
12.91
7.99
3.63
0.22
-2.30
-4.38
-6.44
-8.61
-10.58
-11.79
-11.75
-10.38
-8.20
-6.17
-5.44
-6.85
-10.66
-16.29
-22.41
-27.21
-28.87
-26.08
-18.47
-6.74
7.50
22.18
35.32
45.54
52.28
55.73
56.47
55.14
52.05
47.11
39.99
30.48
18.86
5.99
-6.82
-18.19
-27.14
-33.36
-37.23
-39.44
-40.71
-41.24
-41.02
-40.10
-38.76
-37.49
-36.80
-37.03
-38.32
-40.56
-43.27
-46.04
-48.78
-51.87
-55.98
-61.69
-69.26
-78.46
-88.58
-98.17
-106.07
-112.03
-116.94
-122.27
-129.41
-139.20
-151.75
-166.54
-181.15
-193.45
-202.83
-210.50
-218.35
-227.48
-237.42
-246.13
-250.50
-244.29
-223.00
-186.44
-138.90
-86.33
-33.27
17.84
65.62
108.41
148.54
187.15
223.01
253.50
277.73
298.43
320.09
346.27
378.37
422.69
484.25
563.52
654.87
748.57
834.11
901.52
943.45
917.55
803.07
614.92
399.88
205.60
55.76
-49.58
-121.85
-172.67
-209.50
-229.58
-230.02
-214.43
-192.04
-173.21
-163.99
-165.58
-175.20
-188.65
-197.73
-197.34
-188.53
-178.28
-175.99
-184.03
-203.04
-230.86
-263.48
-292.72
-310.81
-313.33
-300.56
-276.37
-245.77
-214.14
-185.35
-161.36
-140.81
-121.57
-102.61
-84.63
-69.21
-57.15
-48.38
-41.54
-34.90
-26.76
-16.55
-5.11
5.77
14.35
19.94
22.64
23.46
23.62
24.01
24.93
26.04
26.69
26.31
24.71
22.03
18.82
15.72
13.17
11.23
9.63
7.89
5.68
2.96
-0.08
-3.02
-5.54
-7.52
-9.13
-10.75
-12.77
-15.48
-18.95
-23.00
-27.18
-30.84
-33.21
-33.53
-31.31
-26.47
-19.41
-10.89
-1.88
6.75
14.38
20.63
25.37
28.51
30.01
29.93
28.42
25.88
22.88
20.03
17.83
16.51
16.06
16.24
16.73
17.28
17.73
18.05
18.23
18.20
17.86
17.05
15.70
13.84
11.60
9.16
6.71
4.36
2.13
-0.03
-2.15
-4.29
-6.45
-8.59
-10.67
-12.64
-14.47
-16.19
-17.91
-19.82
-22.17
-25.10
-28.58
-32.27
-35.51
-37.41
-37.16
-34.23
-28.62
-20.88
-11.93
-2.83
5.58
12.74
18.44
22.63
25.35
26.64
26.52
25.18
22.96
20.37
17.93
16.11
15.12
14.96
15.43
16.28
17.21
18.05
18.63
18.92
18.87
18.43
17.58
16.26
14.51
12.41
10.13
7.80
5.48
3.12
0.59
-2.20
-5.22
-8.27
-11.08
-13.43
-15.27
-16.77
-18.22
-19.90
-22.03
-24.69
-27.86
-31.42
-35.02
-38.11
-39.91
-39.63
-36.69
-30.99
-22.98
-13.54
-3.70
5.65
13.90
20.71
25.94
29.53
31.44
31.75
30.68
28.61
26.03
23.41
21.13
19.41
18.29
17.76
17.68
17.89
18.19
18.43
18.47
18.25
17.70
16.77
15.42
13.64
11.49
9.09
6.66
4.33
2.14
0.03
-2.13
-4.45
-6.88
-9.25
-11.38
-13.14
-14.57
-15.89
-17.37
-19.30
-21.80
-24.79
-27.91
-30.61
-32.21
-32.07
-29.74
-25.14
-18.61
-10.86
-2.79
4.75
11.15
16.12
19.61
21.70
22.50
22.02
20.37
17.73
14.52
11.31
8.70
7.09
6.59
6.99
7.88
8.90
9.77
10.42
10.85
11.07
11.01
10.50
9.39
7.65
5.38
2.84
0.29
-2.07
-4.20
-6.21
-8.29
-10.63
-13.31
-16.31
-19.53
-22.79
-25.90
-28.55
-30.33
-30.73
-29.30
-25.79
-20.33
-13.41
-5.80
1.71
8.49
14.15
18.52
21.58
23.35
23.86
23.21
21.61
19.36
16.84
14.45
12.53
11.27
10.72
10.76
11.17
11.67
12.05
12.19
12.03
11.56
10.76
9.57
7.95
5.93
3.56
0.96
-1.76
-4.45
-6.98
-9.26
-11.23
-12.90
-14.38
-15.84
-17.45
-19.36
-21.69
-24.43
-27.41
-30.26
-32.33
-32.88
-31.23
-27.13
-20.85
-13.15
-5.08
2.46
8.86
13.91
17.63
20.08
21.31
21.34
20.30
18.43
16.18
14.02
12.34
11.32
10.93
10.98
11.22
11.47
11.64
11.72
11.72
11.63
11.30
10.54
9.14
6.98
4.16
0.96
-2.23
-5.06
-7.35
-9.17
-10.73
-12.35
-14.27
-16.63
-19.38
-22.39
-25.36
-27.91
-29.55
-29.76
-28.17
-24.62
-19.32
-12.78
-5.73
1.07
7.01
11.74
15.14
17.27
18.23
18.14
17.15
15.46
13.38
11.28
9.52
8.33
7.75
7.65
7.82
8.04
8.25
8.39
8.43
8.26
7.70
6.58
4.81
2.48
-0.18
-2.87
-5.39
-7.66
-9.82
-12.13
-14.85
-18.06
-21.63
-25.13
-27.88
-29.13
-28.30
-25.14
-19.84
-13.01
-5.46
2.02
8.81
14.50
18.93
22.00
23.69
24.01
23.09
21.21
18.72
16.02
13.41
11.10
9.17
7.66
6.55
5.78
5.29
5.00
4.78
4.53
4.07
3.29
2.06
0.39
-1.65
-3.88
-6.11
-8.23
-10.27
-12.41
-14.95
-18.07
-21.74
-25.57
-28.86
-30.78
-30.59
-27.92
-22.91
-16.16
-8.53
-0.91
5.99
11.76
16.18
19.18
20.75
20.89
19.69
17.35
14.23
10.77
7.49
4.79
2.92
1.93
1.72
2.04
2.66
3.31
3.77
3.85
3.45
2.57
1.32
-0.19
-1.82
-3.52
-5.32
-7.31
-9.59
-12.25
-15.30
-18.65
-22.00
-24.81
-26.37
-25.96
-23.15
-17.97
-10.95
-3.02
4.82
11.77
17.26
21.06
23.11
23.48
22.37
20.08
17.06
13.86
10.96
8.70
7.19
6.32
5.91
5.76
5.75
5.80
5.82
5.70
5.25
4.29
2.70
0.51
-2.13
-4.94
-7.66
-10.05
-12.10
-13.96
-15.99
-18.59
-22.03
-26.23
-30.69
-34.51
-36.71
-36.45
-33.35
-27.61
-19.85
-10.98
-1.93
6.53
13.83
19.65
23.82
26.31
27.17
26.55
24.74
22.10
19.11
16.21
13.81
12.09
11.08
10.63
10.54
10.63
10.81
11.07
11.37
11.63
11.65
11.17
9.94
7.83
4.91
1.47
-2.08
-5.31
-7.93
-9.97
-11.69
-13.52
-15.86
-18.91
-22.59
-26.55
-30.22
-32.91
-33.89
-32.59
-28.69
-22.32
-14.02
-4.71
4.60
12.99
19.93
25.18
28.75
30.72
31.18
30.23
28.14
25.35
22.39
19.75
17.74
16.45
15.76
15.51
15.54
15.80
16.20
16.64
16.92
16.83
16.22
15.05
13.43
11.57
9.64
7.76
5.96
4.20
2.40
0.43
-1.74
-4.10
-6.51
-8.81
-10.85
-12.58
-14.14
-15.78
-17.75
-20.23
-23.23
-26.54
-29.76
-32.30
-33.47
-32.64
-29.40
-23.73
-16.13
-7.51
1.08
8.69
14.77
19.17
22.01
23.45
23.60
22.50
20.28
17.30
14.14
11.43
9.63
8.86
8.92
9.40
9.97
10.43
10.76
11.03
11.26
11.41
11.37
11.05
10.37
9.32
7.90
6.12
4.08
1.87
-0.32
-2.38
-4.23
-5.91
-7.51
-9.12
-10.83
-12.71
-14.82
-17.17
-19.62
-21.79
-23.06
-22.73
-20.24
-15.50
-8.89
-1.22
6.58
13.73
19.74
24.41
27.70
29.61
30.17
29.46
27.66
25.13
22.34
19.74
17.70
16.40
15.84
15.84
16.17
16.59
16.90
16.95
16.68
16.05
15.06
13.75
12.18
10.45
8.65
6.81
4.89
2.74
0.29
-2.46
-5.37
-8.25
-10.93
-13.38
-15.74
-18.21
-21.01
-24.21
-27.64
-30.90
-33.41
-34.50
-33.58
-30.35
-24.93
-17.87
-10.05
-2.41
4.31
9.70
13.69
16.35
17.78
18.00
17.03
15.04
12.42
9.77
7.69
6.60
6.54
7.23
8.25
9.24
10.02
10.58
10.98
11.23
11.20
10.77
9.82
8.37
6.53
4.47
2.34
0.23
-1.81
-3.77
-5.68
-7.54
-9.32
-11.00
-12.54
-13.92
-15.21
-16.58
-18.28
-20.50
-23.27
-26.29
-28.98
-30.56
-30.32
-27.92
-23.43
-17.37
-10.47
-3.46
3.09
8.85
13.59
17.15
19.35
20.06
19.30
17.29
14.50
11.46
8.73
6.64
5.32
4.71
4.62
4.81
5.14
5.49
5.83
6.16
6.48
6.74
6.83
6.62
5.99
4.90
3.39
1.58
-0.40
-2.41
-4.37
-6.23
-7.94
-9.48
-10.90
-12.31
-13.92
-15.90
-18.30
-20.92
-23.30
-24.84
-24.98
-23.32
-19.81
-14.69
-8.43
-1.62
5.16
11.36
16.57
20.50
23.02
24.20
24.25
23.47
22.19
20.72
19.30
18.08
17.16
16.57
16.29
16.23
16.31
16.48
16.69
16.95
17.17
17.20
16.83
15.84
14.17
11.91
9.24
6.41
3.57
0.81
-1.90
-4.55
-7.13
-9.63
-12.07
-14.51
-17.08
-19.90
-22.99
-26.22
-29.28
-31.67
-32.82
-32.27
-29.78
-25.44
-19.64
-13.02
-6.22
0.21
5.87
10.51
13.92
16.01
16.70
16.10
14.42
12.07
9.53
7.25
5.59
4.72
4.58
4.99
5.66
6.36
6.94
7.36
7.58
7.54
7.13
6.25
4.89
3.17
1.29
-0.53
-2.19
-3.73
-5.24
-6.81
-8.36
-9.78
-10.98
-11.96
-12.88
-13.92
-15.25
-16.91
-18.89
-21.14
-23.61
-26.11
-28.27
-29.56
-29.40
-27.40
-23.51
-18.08
-11.71
-5.06
1.32
7.04
11.82
15.47
17.87
18.95
18.78
17.51
15.45
12.95
10.44
8.31
6.93
6.47
6.88
7.88
9.05
10.01
10.51
10.58
10.35
10.02
9.67
9.19
8.38
7.06
5.19
2.89
0.37
-2.18
-4.68
-7.11
-9.54
-11.96
-14.36
-16.70
-19.03
-21.46
-24.02
-26.64
-29.11
-31.23
-32.96
-34.54
-36.43
-38.98
-42.24
-45.60
-48.07
-48.71
-46.94
-42.76
-36.91
-30.61
-25.10
-21.22
-19.16
-18.62
-19.22
-20.68
-22.94
-26.02
-29.75
-33.70
-37.39
-40.45
-43.01
-45.87
-49.37
-52.79
-54.38
-52.16
-45.07
-33.97
-21.19
-10.08
-4.35
-5.54
-12.27
-21.52
-29.89
-34.74
-34.69
-28.35
-15.07
3.47
25.23
48.38
70.03
87.10
97.45
100.67
100.10
100.11
102.18
106.38
111.86
115.40
113.61
104.90
90.45
76.09
68.33
69.51
79.98
99.18
124.10
151.56
179.88
194.29
185.77
179.13
190.27
215.74
251.44
289.25
319.25
333.02
325.94
300.79
249.89
175.16
90.36
14.03
-43.78
-83.47
-109.77
-126.81
-134.89
-133.75
-125.41
-114.93
-105.81
-101.28
-102.90
-109.32
-117.71
-124.72
-128.86
-131.39
-135.91
-146.97
-164.92
-189.78
-218.61
-246.29
-266.74
-275.43
-270.64
-254.01
-229.12
-200.48
-172.03
-145.40
-120.59
-97.01
-74.57
-53.70
-35.21
-19.59
-6.90
2.92
10.48
16.37
20.85
23.89
25.66
26.41
26.66
26.99
27.70
29.03
31.00
33.28
35.36
36.74
37.16
36.67
35.56
34.05
32.35
30.51
28.41
25.89
22.87
19.42
15.74
12.06
8.49
5.04
1.68
-1.59
-4.71
-7.61
-10.24
-12.63
-14.93
-17.33
-20.01
-23.10
-26.65
-30.62
-34.81
-38.82
-42.02
-43.58
-42.70
-38.89
-32.12
-22.97
-12.43
-1.66
8.31
16.73
23.28
27.86
30.57
31.54
31.01
29.29
26.81
24.10
21.65
19.81
18.74
18.42
18.73
19.48
20.49
21.56
22.49
23.05
23.08
22.46
21.19
19.36
17.15
14.73
12.27
9.83
7.42
4.98
2.43
-0.26
-3.05
-5.85
-8.52
-11.03
-13.38
-15.69
-18.12
-20.84
-24.01
-27.68
-31.68
-35.58
-38.63
-39.93
-38.68
-34.54
-27.75
-19.12
-9.72
-0.57
7.64
14.58
20.16
24.30
26.84
27.60
26.55
23.96
20.44
16.83
13.91
12.19
11.78
12.38
13.48
14.57
15.29
15.52
15.33
14.92
14.46
14.11
13.96
14.07
14.47
15.17
16.13
17.26
18.36
19.21
19.58
19.26
18.15
16.30
13.87
11.13
8.35
5.74
3.34
1.06
-1.28
-3.89
-6.85
-10.15
-13.57
-16.86
-19.75
-22.10
-23.95
-25.52
-27.17
-29.32
-32.31
-36.24
-40.87
-45.51
-49.19
-50.83
-49.58
-45.05
-37.46
-27.56
-16.42
-5.22
5.06
13.79
20.69
25.76
29.16
31.01
31.34
30.20
27.78
24.55
21.22
18.55
17.07
16.85
17.50
18.43
19.06
19.14
18.71
18.02
17.27
16.51
15.58
14.23
12.19
9.35
5.71
1.52
-2.87
-7.06
-10.84
-14.17
-17.22
-20.20
-23.19
-26.10
-28.63
-30.38
-31.04
-30.46
-28.82
-26.60
-24.67
-24.28
-26.95
-34.03
-46.22
-62.97
-82.14
-100.11
-112.32
-114.49
-103.96
-80.79
-48.12
-11.60
22.06
46.89
59.05
57.51
43.86
21.62
-4.77
-30.71
-52.41
-67.62
-75.98
-79.06
-79.61
-80.30
-82.44
-85.21
-85.88
-81.07
-68.21
-46.55
-17.44
16.00
49.61
79.06
100.93
113.88
118.86
118.78
117.40
117.84
121.23
126.35
130.45
130.81
126.93
119.86
111.16
101.96
92.59
82.94
72.89
62.71
52.85
45.10
39.87
35.84
30.98
24.54
18.35
16.30
22.78
40.87
73.51
119.68
174.15
229.08
277.04
313.13
335.38
344.24
341.98
334.93
328.23
323.69
319.72
313.50
302.86
287.02
266.49
222.83
150.53
59.19
-31.82
-106.91
-161.13
-196.95
-219.04
-231.28
-237.36
-237.04
-230.69
-221.21
-213.47
-211.86
-218.65
-234.05
-257.18
-282.19
-301.60
-309.71
-304.51
-287.97
-264.34
-238.15
-212.96
-190.82
-172.18
-155.42
-139.27
-124.04
-111.26
-102.09
-96.21
-91.81
-86.50
-78.29
-65.96
-49.79
-31.60
-13.81
1.69
14.15
23.82
31.45
37.68
42.85
46.86
49.30
49.83
48.50
45.86
42.79
40.17
38.61
38.23
38.78
39.76
40.66
41.08
40.87
40.12
39.00
37.67
36.10
34.10
31.44
28.03
23.98
19.58
15.25
11.32
7.95
5.08
2.49
-0.08
-2.85
-5.90
-9.14
-12.42
-15.52
-18.31
-20.76
-23.02
-25.32
-27.97
-31.21
-35.14
-39.63
-44.25
-48.23
-50.65
-50.57
-47.38
-40.95
-31.73
-20.62
-8.79
2.66
12.90
21.42
28.02
32.73
35.61
36.78
36.38
34.66
32.02
29.03
26.27
24.25
23.25
23.26
24.05
25.25
26.49
27.51
28.13
28.26
27.85
26.87
25.32
23.24
20.66
17.71
14.53
11.32
8.26
5.48
2.95
0.57
-1.84
-4.38
-7.05
-9.69
-12.09
-14.10
-15.69
-16.97
-18.15
-19.44
-21.02
-23.04
-25.65
-28.95
-32.94
-37.34
-41.50
-44.48
-45.24
-43.01
-37.57
-29.30
-19.14
-8.24
2.36
11.88
19.85
25.98
30.09
32.09
32.00
30.14
27.08
23.62
20.48
18.18
16.92
16.58
16.91
17.63
18.57
19.60
20.64
21.56
22.19
22.32
21.75
20.39
18.23
15.43
12.28
9.09
6.12
3.47
1.03
-1.47
-4.35
-7.78
-11.69
-15.78
-19.60
-22.77
-25.11
-26.80
-28.27
-30.06
-32.67
-36.33
-41.00
-46.25
-51.39
-55.50
-57.57
-56.70
-52.30
-44.33
-33.41
-20.69
-7.59
4.60
15.00
23.23
29.34
33.54
36.03
36.89
36.20
34.19
31.30
28.19
25.48
23.62
22.72
22.59
22.92
23.43
23.99
24.59
25.22
25.81
26.12
25.88
24.86
22.98
20.36
17.31
14.20
11.34
8.88
6.78
4.79
2.60
-0.05
-3.25
-6.81
-10.40
-13.64
-16.31
-18.41
-20.15
-21.88
-23.95
-26.65
-30.14
-34.48
-39.44
-44.45
-48.61
-50.73
-49.79
-45.20
-37.07
-26.23
-13.94
-1.56
9.88
19.70
27.60
33.46
37.19
38.76
38.28
36.11
32.90
29.45
26.47
24.39
23.27
22.89
22.91
23.12
23.41
23.85
24.44
25.06
25.47
25.34
24.40
22.61
20.04
16.94
13.58
10.21
7.03
4.13
1.55
-0.81
-3.04
-5.25
-7.50
-9.69
-11.67
-13.29
-14.51
-15.42
-16.29
-17.44
-19.16
-21.64
-24.88
-28.58
-32.15
-34.79
-35.60
-33.91
-29.43
-22.43
-13.70
-4.29
4.74
12.58
18.77
23.22
25.99
27.19
26.93
25.32
22.62
19.27
15.86
13.01
11.19
10.53
10.89
11.95
13.36
14.84
16.23
17.40
18.15
18.28
17.65
16.24
14.22
11.86
9.45
7.12
4.85
2.50
-0.12
-3.08
-6.32
-9.65
-12.80
-15.49
-17.56
-18.99
-19.92
-20.69
-21.70
-23.40
-26.07
-29.69
-33.84
-37.65
-40.03
-39.93
-36.74
-30.45
-21.74
-11.74
-1.66
7.53
15.27
21.35
25.79
28.62
29.89
29.65
28.10
25.64
22.78
20.11
18.05
16.81
16.31
16.34
16.62
16.97
17.34
17.80
18.38
18.97
19.35
19.21
18.29
16.49
13.99
11.12
8.26
5.71
3.60
1.84
0.21
-1.56
-3.67
-6.18
-8.95
-11.70
-14.13
-16.02
-17.40
-18.51
-19.80
-21.70
-24.48
-28.14
-32.34
-36.49
-39.82
-41.56
-41.06
-37.94
-32.21
-24.28
-14.93
-5.15
4.10
12.10
18.44
23.04
25.95
27.31
27.24
25.90
23.60
20.78
17.98
15.71
14.26
13.64
13.63
13.93
14.27
14.54
14.80
15.10
15.39
15.49
15.14
14.11
12.35
10.05
7.54
5.18
3.16
1.44
-0.22
-2.06
-4.25
-6.70
-9.19
-11.39
-13.11
-14.29
-15.09
-15.78
-16.69
-18.04
-19.98
-22.54
-25.62
-28.96
-32.12
-34.42
-35.11
-33.58
-29.57
-23.32
-15.49
-7.01
1.23
8.57
14.60
19.12
22.04
23.37
23.19
21.77
19.53
16.99
14.67
12.91
11.87
11.52
11.66
12.04
12.44
12.75
12.92
12.99
12.98
12.83
12.46
11.76
10.67
9.24
7.58
5.80
3.93
1.93
-0.25
-2.68
-5.30
-8.00
-10.62
-12.99
-15.00
-16.62
-17.95
-19.17
-20.54
-22.35
-24.84
-28.06
-31.76
-35.40
-38.19
-39.30
-38.07
-34.20
-27.88
-19.74
-10.68
-1.68
6.43
13.09
18.06
21.36
23.13
23.58
22.90
21.34
19.21
16.87
14.73
13.11
12.17
11.83
11.91
12.17
12.45
12.67
12.83
12.95
12.97
12.80
12.30
11.34
9.87
7.96
5.76
3.52
1.45
-0.31
-1.82
-3.27
-4.89
-6.86
-9.12
-11.45
-13.53
-15.13
-16.22
-17.01
-17.84
-19.08
-20.99
-23.68
-27.06
-30.83
-34.47
-37.26
-38.38
-37.13
-33.19
-26.74
-18.48
-9.43
-0.58
7.28
13.74
18.73
22.34
24.67
25.75
25.61
24.32
22.12
19.48
16.93
14.98
13.92
13.75
14.24
15.03
15.79
16.35
16.63
16.65
16.41
15.83
14.82
13.32
11.37
9.11
6.76
4.52
2.52
0.80
-0.69
-2.05
-3.41
-4.87
-6.49
-8.23
-10.04
-11.76
-13.26
-14.46
-15.39
-16.19
-17.12
-18.44
-20.39
-23.03
-26.23
-29.57
-32.39
-33.93
-33.45
-30.54
-25.19
-17.89
-9.48
-0.92
6.96
13.61
18.80
22.45
24.61
25.30
24.63
22.87
20.48
18.06
16.21
15.29
15.38
16.24
17.49
18.75
19.76
20.43
20.82
20.99
20.99
20.78
20.23
19.20
17.59
15.44
12.92
10.30
7.80
5.50
3.29
0.93
-1.77
-4.86
-8.16
-11.33
-14.04
-16.10
-17.56
-18.71
-19.98
-21.79
-24.40
-27.83
-31.84
-35.89
-39.28
-41.19
-40.94
-38.11
-32.70
-25.17
-16.33
-7.20
1.27
8.41
13.86
17.62
19.92
21.03
21.17
20.53
19.22
17.46
15.53
13.80
12.60
12.13
12.37
13.08
13.91
14.56
14.82
14.69
14.25
13.64
12.88
11.93
10.67
8.99
6.89
4.48
1.97
-0.45
-2.58
-4.36
-5.80
-7.05
-8.25
-9.51
-10.85
-12.20
