1626695544.00
64.000000
-0.00
-0.00
-0.00
-0.00
-0.00
-0.00
-0.00
-0.00
-0.00
-0.00
0.00
0.01
0.01
-0.00
-0.03
-0.05
-0.05
0.00
0.13
0.36
0.66
1.01
1.37
1.72
2.06
2.40
2.79
3.24
3.80
4.42
5.06
5.66
6.20
6.68
7.15
7.68
8.31
9.14
10.09
11.04
11.88
12.56
13.14
13.76
14.65
15.96
17.91
20.32
22.90
25.38
27.58
29.57
31.68
34.32
37.81
42.54
48.15
54.10
59.83
64.97
69.58
74.14
79.34
85.71
93.76
103.00
112.62
121.73
129.77
136.75
143.30
150.75
157.77
166.64
177.95
191.79
206.97
220.57
228.25
225.36
208.53
176.87
132.76
80.05
23.07
-34.94
-92.44
-149.16
-205.23
-260.37
-313.74
-363.87
-409.83
-450.91
-486.50
-515.74
-537.23
-549.22
-549.96
-538.37
-514.21
-478.67
-433.88
-382.45
-327.02
-269.84
-212.63
-156.66
-102.95
-52.37
-5.90
35.58
71.43
101.35
125.50
144.38
158.69
169.15
176.37
180.75
182.57
182.07
179.51
175.23
169.65
163.18
156.15
148.81
141.30
133.69
126.02
118.33
110.69
103.16
95.80
88.68
81.83
75.25
68.95
62.95
57.25
51.86
46.78
42.03
37.59
33.45
29.61
26.07
22.81
19.83
17.11
14.67
12.48
10.54
8.83
7.35
6.07
4.97
4.05
3.27
2.62
2.09
1.65
1.30
1.01
0.79
0.61
0.47
0.37
0.29
0.23
0.18
0.15
0.14
0.13
0.14
0.15
0.17
0.19
0.22
0.26
0.29
0.34
0.38
0.42
0.47
0.52
0.57
0.62
0.67
0.73
0.79
0.86
0.93
1.02
1.11
1.21
1.32
1.45
1.59
1.75
1.92
2.11
2.33
2.57
2.84
3.15
3.50
3.86
4.23
4.59
4.95
5.33
5.75
6.24
6.82
7.47
8.18
8.92
9.65
10.38
11.13
11.94
12.84
13.87
15.00
16.19
17.37
18.48
19.50
20.41
21.24
21.97
22.52
22.71
22.32
21.09
18.85
15.59
11.50
6.86
2.06
-2.63
-7.11
-11.43
-15.74
-20.11
-24.43
-28.37
-31.47
-33.36
-33.95
-33.52
-32.65
-32.04
-32.20
-33.19
-34.66
-35.96
-36.55
-36.17
-35.04
-33.68
-32.72
-32.62
-33.72
-36.20
-39.99
-44.39
-47.90
-48.38
-43.74
-33.03
-17.19
1.02
18.05
30.94
38.54
41.54
41.82
41.18
40.51
39.65
38.05
35.47
32.37
29.62
27.90
27.32
27.36
27.26
26.37
24.59
22.33
20.27
19.04
18.79
19.27
19.94
20.21
19.63
18.11
15.79
12.87
10.07
7.66
5.67
3.96
2.32
0.60
-1.32
-3.53
-6.11
-9.19
-12.94
-17.35
-22.13
-26.68
-30.19
-31.83
-31.01
-27.58
-21.88
-14.73
-7.13
-0.06
5.83
10.27
13.36
15.45
16.88
17.93
18.64
18.96
18.86
18.36
17.59
16.69
15.82
15.04
14.39
13.86
13.48
13.27
13.19
13.12
12.87
12.25
11.10
9.42
7.29
4.94
2.57
0.37
-1.56
-3.26
-4.91
-6.73
-8.90
-11.52
-14.48
-17.56
-20.50
-23.14
-25.43
-27.56
-29.79
-32.44
-35.80
-39.93
-44.63
-49.31
-53.11
-55.08
-54.45
-50.92
-44.82
-36.95
-28.33
-19.91
-12.22
-5.42
0.64
6.17
11.33
16.08
20.31
23.85
26.56
28.45
29.57
30.04
30.00
29.61
29.05
28.46
28.02
27.83
27.94
28.30
28.73
29.03
28.99
28.50
27.57
26.31
24.87
23.33
21.75
20.06
18.17
16.01
13.53
10.81
8.05
5.46
3.16
1.11
-0.97
-3.45
-6.62
-10.50
-14.81
-19.07
-22.80
-25.77
-28.01
-29.86
-31.69
-33.86
-36.63
-40.20
-44.63
-49.76
-55.07
-59.67
-62.52
-62.70
-59.79
-54.02
-46.22
-37.46
-28.75
-20.71
-13.55
-7.15
-1.23
4.40
9.80
14.91
19.56
23.62
26.96
29.60
31.57
32.98
33.99
34.75
35.46
36.28
37.31
38.51
39.73
40.72
41.20
41.01
40.11
38.60
36.66
34.48
32.19
29.88
27.58
25.30
23.07
20.93
18.84
16.75
14.56
12.17
9.58
6.84
4.09
1.42
-1.16
-3.73
-6.43
-9.36
-12.52
-15.82
-19.11
-22.23
-25.11
-27.76
-30.32
-32.94
-35.79
-39.02
-42.72
-46.92
-51.45
-55.84
-59.35
-61.12
-60.38
-56.79
-50.58
-42.52
-33.64
-24.89
-16.91
-9.95
-4.01
1.06
5.38
9.11
12.38
15.38
18.16
20.69
22.77
24.20
24.86
24.85
24.46
24.08
23.99
24.26
24.76
25.28
25.61
25.62
25.28
24.60
23.61
22.28
20.64
18.73
16.68
14.59
12.57
10.64
8.82
7.03
5.24
3.38
1.42
-0.68
-2.93
-5.39
-8.05
-10.90
-13.90
-16.91
-19.80
-22.51
-25.11
-27.89
-31.21
-35.46
-40.77
-46.84
-52.91
-57.85
-60.46
-59.84
-55.72
-48.54
-39.32
-29.35
-19.79
-11.39
-4.35
1.53
6.66
11.39
15.88
20.10
23.90
27.13
29.77
31.81
33.31
34.30
34.75
34.70
34.25
33.60
33.00
32.65
32.62
32.80
32.92
32.71
31.95
30.57
28.70
26.58
24.51
22.68
21.15
19.74
18.15
16.10
13.48
10.46
7.41
4.70
2.51
0.70
-1.15
-3.50
-6.63
-10.45
-14.61
-18.61
-22.13
-25.13
-27.89
-30.86
-34.48
-39.05
-44.54
-50.61
-56.57
-61.51
-64.51
-64.83
-62.14
-56.63
-48.94
-40.02
-30.81
-22.13
-14.44
-7.89
-2.35
2.53
7.08
11.57
16.07
20.45
24.46
27.82
30.39
32.17
33.29
33.99
34.48
34.93
35.44
36.04
36.68
37.28
37.68
37.68
37.11
35.87
34.00
31.69
29.20
26.77
24.49
22.32
20.13
17.77
15.19
12.43
9.62
6.91
4.44
2.26
0.32
-1.54
-3.56
-5.95
-8.83
-12.12
-15.57
-18.85
-21.81
-24.45
-27.05
-30.00
-33.64
-38.21
-43.66
-49.69
-55.66
-60.68
-63.76
-64.07
-61.21
-55.40
-47.41
-38.29
-29.10
-20.57
-13.09
-6.69
-1.24
3.47
7.68
11.57
15.26
18.66
21.59
23.79
25.14
25.69
25.72
25.64
25.81
26.41
27.39
28.61
29.85
30.95
31.81
32.32
32.38
31.87
30.76
29.08
26.92
24.50
22.00
19.61
17.40
15.36
13.35
11.20
8.76
5.96
2.85
-0.45
-3.81
-7.19
-10.64
-14.26
-18.15
-22.31
-26.62
-30.93
-35.14
-39.34
-43.77
-48.72
-54.40
-60.60
-66.63
-71.39
-73.67
-72.61
-68.06
-60.64
-51.47
-41.75
-32.33
-23.57
-15.44
-7.83
-0.74
5.68
11.30
16.16
20.47
24.51
28.39
31.96
34.93
37.00
38.15
38.65
38.99
39.61
40.76
42.39
44.18
45.73
46.68
46.83
46.13
44.65
42.61
40.22
37.74
35.36
33.12
30.96
28.71
26.20
23.36
20.29
17.17
14.18
11.40
8.77
6.09
3.14
-0.28
-4.26
-8.78
-13.70
-18.78
-23.70
-28.17
-32.09
-35.55
-38.97
-42.91
-47.86
-53.96
-60.81
-67.48
-72.75
-75.41
-74.75
-70.67
-63.70
-54.78
-44.88
-34.80
-25.04
-15.89
-7.54
-0.03
6.61
12.49
17.78
22.65
27.15
31.18
34.53
37.06
38.76
39.80
40.45
40.96
41.47
42.02
42.57
43.06
43.42
43.57
43.40
42.83
41.80
40.32
38.46
36.29
33.87
31.20
28.30
25.20
22.02
18.87
15.82
12.81
9.73
6.46
2.95
-0.72
-4.43
-8.08
-11.71
-15.40
-19.27
-23.45
-28.00
-33.03
-38.64
-44.88
-51.58
-58.20
-63.87
-67.59
-68.48
-66.18
-60.91
-53.45
-44.81
-35.95
-27.56
-19.98
-13.28
-7.32
-1.92
3.02
7.56
11.63
15.11
17.95
20.16
21.89
23.37
24.80
26.33
27.95
29.59
31.08
32.25
32.97
33.15
32.77
31.85
30.44
28.62
26.42
23.88
21.02
17.93
14.75
11.70
8.95
6.60
4.59
2.74
0.78
-1.55
-4.42
-7.84
-11.74
-15.94
-20.28
-24.65
-29.07
-33.73
-38.89
-44.78
-51.39
-58.31
-64.66
-69.33
-71.23
-69.63
-64.42
-56.07
-45.55
-33.98
-22.40
-11.57
-1.90
6.46
13.64
19.88
25.45
30.59
35.35
39.66
43.37
46.29
48.36
49.65
50.30
50.51
50.46
50.34
50.30
50.53
51.08
51.86
52.55
52.71
51.99
50.28
47.79
44.96
42.20
39.67
37.20
34.47
31.21
27.39
23.24
19.14
15.39
12.08
9.06
6.03
2.69
-1.14
-5.49
-10.22
-15.12
-19.94
-24.49
-28.68
-32.59
-36.45
-40.65
-45.60
-51.58
-58.56
-66.00
-72.91
-77.99
-80.04
-78.29
-72.68
-63.82
-52.79
-40.77
-28.75
-17.35
-6.82
2.83
11.73
20.04
27.88
35.26
42.03
47.82
52.17
54.69
55.26
54.18
52.06
49.67
47.61
46.15
45.30
44.88
44.68
44.58
44.48
44.23
43.60
42.39
40.52
38.12
35.49
32.94
30.63
28.50
26.29
23.74
20.69
17.20
13.56
10.13
7.23
4.95
3.10
1.28
-0.98
-3.97
-7.70
-11.86
-16.02
-19.81
-23.12
-26.14
-29.24
-32.91
-37.52
-43.23
-49.87
-56.87
-63.31
-68.09
-70.14
-68.73
-63.74
-55.63
-45.40
-34.23
-23.22
-13.13
-4.37
2.99
9.06
14.07
18.26
21.79
24.73
27.02
28.56
29.32
29.42
29.16
28.90
28.96
29.42
30.15
30.88
31.36
31.49
31.37
31.12
30.77
30.23
29.30
27.84
25.85
23.51
21.07
18.70
16.40
14.06
11.54
8.73
5.70
2.53
-0.72
-4.05
-7.49
-11.05
-14.65
-18.20
-21.60
-24.92
-28.35
-32.21
-36.81
-42.29
-48.54
-55.01
-60.80
-64.77
-65.83
-63.33
-57.26
-48.29
-37.60
-26.44
-15.87
-6.48
1.53
8.24
13.82
18.50
22.48
25.99
29.21
32.16
34.74
36.73
37.92
38.26
37.91
37.17
36.42
35.97
35.96
36.40
37.15
37.98
38.60
38.75
38.21
36.89
34.85
32.25
29.30
26.20
23.08
19.99
16.92
13.82
10.63
7.40
4.17
1.03
-1.94
-4.76
-7.52
-10.40
-13.56
-17.13
-21.07
-25.20
-29.26
-33.06
-36.50
-39.71
-42.98
-46.73
-51.38
-57.11
-63.75
-70.62
-76.60
-80.35
-80.72
-77.16
-69.86
-59.74
-48.16
-36.41
-25.39
-15.50
-6.75
1.02
7.98
14.18
19.68
24.49
28.67
32.19
34.98
36.90
37.84
37.83
37.12
36.10
35.16
34.60
34.49
34.70
34.96
34.99
34.58
33.63
32.20
30.42
28.50
26.53
24.54
22.43
20.05
17.31
14.26
11.09
8.01
5.19
2.63
0.21
-2.25
-4.89
-7.74
-10.77
-13.88
-16.96
-19.96
-22.86
-25.66
-28.47
-31.49
-35.01
-39.33
-44.58
-50.57
-56.68
-61.87
-65.02
-65.14
-61.74
-55.01
-45.73
-35.09
-24.31
-14.36
-5.84
1.08
6.56
10.90
14.45
17.52
20.25
22.68
24.76
26.36
27.42
27.93
27.99
27.80
27.59
27.54
27.75
28.24
28.91
29.60
30.10
30.18
29.67
28.48
26.67
24.35
21.73
19.02
16.39
13.95
11.72
9.69
7.73
5.71
3.48
0.95
-1.97
-5.26
-8.79
-12.43
-15.96
-19.23
-22.22
-25.08
-28.12
-31.75
-36.24
-41.67
-47.67
-53.51
-58.20
-60.76
-60.49
-57.11
-50.86
-42.40
-32.64
-22.55
-12.91
-4.25
3.23
9.51
14.72
19.08
22.79
25.99
28.74
31.01
32.77
33.97
34.63
34.86
34.81
34.68
34.62
34.71
34.90
35.11
35.20
35.04
34.52
33.62
32.30
30.62
28.66
26.50
24.18
21.69
18.95
15.88
12.48
8.89
5.33
2.05
-0.84
-3.42
-5.95
-8.72
-11.91
-15.45
-19.07
-22.51
-25.62
-28.52
-31.46
-34.74
-38.56
-42.98
-47.99
-53.48
-59.19
-64.58
-68.79
-70.77
-69.63
-65.05
-57.43
-47.87
-37.67
-27.93
-19.17
-11.42
-4.43
1.96
7.78
12.85
17.04
20.34
22.87
24.83
26.32
27.35
27.98
28.29
28.50
28.83
29.44
30.28
31.20
31.95
32.37
32.39
32.01
31.22
29.98
28.26
26.05
23.48
20.76
18.11
15.65
13.38
11.18
8.87
6.34
3.51
0.42
-2.89
-6.31
-9.76
-13.15
-16.43
-19.61
-22.74
-25.91
-29.32
-33.16
-37.62
-42.75
-48.39
-54.08
-59.13
-62.69
-64.05
-62.71
-58.58
-51.98
-43.51
-33.98
-24.19
-14.90
-6.60
0.48
6.45
11.52
15.97
19.92
23.30
26.01
27.90
29.03
29.51
29.65
29.69
29.84
30.26
30.97
31.94
33.00
33.94
34.50
34.47
33.74
32.34
30.38
28.00
25.34
22.48
19.53
16.57
13.73
11.13
8.81
6.71
4.67
2.50
-0.04
-3.04
-6.52
-10.43
-14.63
-18.95
-23.26
-27.45
-31.52
-35.65
-40.17
-45.47
-51.83
-59.14
-66.73
-73.45
-77.91
-78.96
-76.08
-69.52
-60.24
-49.50
-38.48
-28.01
-18.56
-10.34
-3.40
2.32
6.98
10.89
14.41
17.89
21.46
25.05
28.43
31.35
33.73
35.68
37.41
39.12
40.90
42.68
44.29
45.61
46.60
47.27
47.65
47.69
47.31
46.44
45.04
43.15
40.88
38.28
35.37
32.12
28.58
24.88
21.29
18.03
15.15
12.49
9.67
6.34
2.30
-2.39
-7.46
-12.59
-17.58
-22.39
-27.19
-32.27
-37.93
-44.42
-51.75
-59.59
-67.22
-73.55
-77.44
-78.04
-75.00
-68.70
-59.99
-49.95
-39.54
-29.46
-20.07
-11.56
-3.93
2.87
8.97
14.45
19.39
23.78
27.49
30.46
32.59
33.94
34.65
34.92
34.94
34.88
34.89
35.04
35.36
35.78
36.14
36.25
35.86
34.82
33.02
30.48
27.29
23.61
19.65
15.60
11.62
7.78
4.08
0.47
-3.12
-6.69
-10.21
-13.62
-16.85
-19.89
-22.86
-25.92
-29.35
-33.47
-38.54
-44.65
-51.57
-58.63
-64.83
-69.02
-70.18
-67.81
-61.97
-53.37
-43.05
-32.18
-21.72
-12.26
-4.05
3.00
9.12
14.56
19.45
23.82
27.54
30.52
32.75
34.38
35.70
36.94
38.26
39.61
40.90
42.02
42.94
43.70
44.30
44.67
44.60
43.82
42.13
39.44
35.88
31.77
27.51
23.51
20.07
17.24
14.88
12.58
9.93
6.60
2.53
-2.04
-6.70
-11.07
-14.95
-18.43
-21.85
-25.60
-30.05
-35.47
-41.97
-49.49
-57.66
-65.73
-72.55
-76.81
-77.39
-73.76
-66.25
-55.89
-44.08
-32.17
-21.07
-11.20
-2.57
5.00
11.67
17.57
22.81
27.50
31.72
35.47
38.65
41.03
42.41
42.73
42.16
41.13
40.13
39.60
39.67
40.19
40.75
40.96
40.55
39.50
38.01
36.35
34.73
33.26
31.89
30.50
28.94
27.03
24.69
21.90
18.74
15.35
11.87
8.40
4.95
1.47
-2.13
-5.85
-9.64
-13.35
-16.90
-20.28
-23.63
-27.21
-31.33
-36.25
-42.18
-49.04
-56.52
-63.95
-70.38
-74.71
-75.99
-73.68
-67.86
-59.21
-48.87
-38.08
-27.84
-18.65
-10.59
-3.46
3.03
9.03
14.55
19.56
24.02
27.98
31.48
34.54
37.08
38.96
40.16
40.78
41.07
41.30
41.70
42.32
43.03
43.63
43.88
43.63
42.81
41.41
39.48
37.09
34.34
31.40
28.39
25.41
22.49
19.56
16.53
13.32
9.86
6.12
2.11
-2.16
-6.66
-11.27
-15.78
-19.98
-23.76
-27.22
-30.72
-34.73
-39.63
-45.40
-51.47
-56.83
-60.25
-60.75
-57.88
-51.88
-43.57
-34.05
-24.33
-15.18
-6.92
0.40
6.88
12.64
17.74
22.14
25.72
28.45
30.35
31.55
32.25
32.70
33.11
33.57
34.17
34.88
35.66
36.41
37.05
37.44
37.44
36.94
35.90
34.32
32.28
29.89
27.19
24.28
21.22
18.10
15.06
12.22
9.69
7.40
5.18
2.75
-0.14
-3.57
-7.43
-11.48
-15.41
-19.07
-22.51
-25.90
-29.50
-33.57
-38.33
-43.87
-50.13
-56.76
-63.05
-68.00
-70.54
-69.87
-65.72
-58.51
-49.15
-38.76
-28.39
-18.72
-10.11
-2.63
3.81
9.39
14.31
18.77
22.90
26.72
30.13
32.93
34.95
36.10
36.44
36.17
35.58
34.98
34.64
34.72
35.26
36.08
36.85
37.21
36.83
35.61
33.71
31.40
29.07
26.95
25.11
23.45
21.80
19.98
17.95
15.75
13.48
11.26
9.13
7.07
4.97
2.72
0.21
-2.60
-5.66
-8.88
-12.10
-15.18
-17.98
-20.44
-22.61
-24.68
-26.94
-29.76
-33.47
-38.17
-43.65
-49.25
-54.05
-57.06
-57.52
-55.11
-50.04
-42.95
-34.71
-26.17
-18.00
-10.60
-4.06
1.69
6.86
11.61
16.05
20.11
23.66
26.54
28.67
30.09
30.94
31.45
31.80
32.17
32.67
33.35
34.20
35.11
35.86
36.21
35.95
35.00
33.42
31.43
29.30
27.23
25.30
23.42
21.44
19.24
16.76
14.11
11.44
8.90
6.56
4.40
2.28
0.10
-2.27
-4.83
-7.55
-10.34
-13.10
-15.72
-18.23
-20.76
-23.57
-26.99
-31.24
-36.33
-41.90
-47.27
-51.55
-53.87
-53.67
-50.80
-45.53
-38.47
-30.37
-22.01
-13.99
-6.74
-0.49
4.73
9.03
12.56
15.50
17.92
19.80
21.06
21.62
21.54
21.02
20.35
19.83
19.65
19.81
20.13
20.39
20.40
20.06
19.45
18.67
17.83
16.96
16.02
14.91
13.48
11.63
9.34
6.70
3.85
0.95
-1.84
-4.45
-6.89
-9.24
-11.61
-14.09
-16.74
-19.53
-22.42
-25.31
-28.08
-30.61
-32.79
-34.63
-36.28
-38.07
-40.40
-43.54
-47.43
-51.55
-55.03
-56.89
-56.38
-53.23
-47.68
-40.38
-32.15
-23.71
-15.59
-8.09
-1.30
4.79
10.22
15.09
19.45
23.32
26.72
29.64
32.07
34.02
35.51
36.56
37.23
37.59
37.74
37.78
37.78
37.77
37.69
37.45
36.92
35.99
34.65
32.96
31.04
28.98
26.87
24.74
22.56
20.29
17.89
15.38
12.80
10.22
7.69
5.25
2.90
0.62
-1.62
-3.94
-6.44
-9.26
-12.49
-16.09
-19.92
-23.70
-27.15
-30.10
-32.61
-34.99
-37.71
-41.17
-45.52
-50.46
-55.28
-59.00
-60.68
-59.70
-55.91
-49.72
-41.80
-33.01
-24.11
-15.69
-8.08
-1.42
4.37
9.50
14.23
18.71
22.91
26.60
29.48
31.34
32.23
32.41
32.25
32.05
31.94
31.94
31.99
32.04
32.12
32.20
32.20
32.00
31.45
30.45
29.03
27.29
25.35
23.33
21.28
19.18
16.98
14.66
12.20
9.64
7.01
4.36
1.72
-0.93
-3.64
-6.48
-9.45
-12.51
-15.51
-18.32
-20.89
-23.28
-25.70
-28.42
-31.67
-35.58
-39.99
-44.42
-48.15
-50.38
-50.46
-48.09
-43.44
-37.10
-29.87
-22.53
-15.61
-9.38
-3.90
0.91
5.11
8.75
11.83
14.33
16.28
17.67
18.55
19.01
19.21
19.38
19.68
20.23
20.98
21.78
22.51
23.04
23.34
23.36
23.02
22.23
20.92
19.07
16.81
14.36
11.90
9.55
7.35
5.21
3.07
0.89
-1.27
-3.41
-5.49
-7.54
-9.65
-11.88
-14.27
-16.84
-19.51
-22.16
-24.64
-26.91
-29.04
-31.24
-33.90
-37.40
-41.93
-47.32
-52.94
-57.80
-60.78
-61.04
-58.30
-52.90
-45.68
-37.59
-29.48
-21.85
-14.90
-8.66
-3.09
1.88
6.31
10.36
14.14
17.72
20.96
23.59
25.32
26.00
25.74
24.86
23.80
22.87
22.26
21.94
21.80
21.74
21.69
21.65
21.58
21.41
21.04
20.45
19.71
18.93
18.20
17.50
16.62
15.33
13.44
10.98
8.17
5.36
2.85
0.72
-1.17
-3.11
-5.39
-8.20
-11.47
-14.95
-18.31
-21.31
-23.87
-26.13
-28.43
-31.15
-34.59
-38.78
-43.49
-48.15
-51.99
-54.23
-54.28
-51.89
-47.25
-40.88
-33.49
-25.76
-18.23
-11.19
-4.82
0.84
5.78
10.09
13.89
17.34
20.56
23.56
26.23
28.37
29.84
30.61
30.86
30.85
30.84
30.96
31.18
31.36
31.29
30.88
30.10
29.02
27.74
26.32
24.81
23.27
21.80
20.44
19.18
17.87
16.23
14.07
11.31
8.16
4.98
2.13
-0.16
-2.01
-3.69
-5.54
-7.78
-10.39
-13.17
-15.87
-18.33
-20.59
-22.84
-25.37
-28.43
-32.23
-36.75
-41.70
-46.57
-50.60
-52.96
-53.05
-50.63
-45.92
-39.49
-32.11
-24.49
-17.19
-10.58
-4.87
-0.13
3.70
6.83
9.52
12.02
14.41
16.68
18.64
20.18
21.25
21.88
22.20
22.33
22.35
22.32
22.34
22.44
22.63
22.85
22.92
22.68
22.00
20.85
19.27
17.42
15.38
13.23
10.99
8.60
6.05
3.30
0.35
-2.77
-6.06
-9.50
-13.06
-16.73
-20.44
-24.14
-27.81
-31.53
-35.42
-39.62
-44.12
-48.65
-52.64
-55.37
-56.08
-54.33
-50.14
-43.97
-36.61
-28.91
-21.51
-14.75
-8.66
-3.13
2.00
6.83
11.41
15.74
19.77
23.42
26.59
29.11
30.88
31.89
32.31
32.48
32.80
33.58
34.88
36.47
37.95
38.87
38.95
38.15
36.66
34.73
32.62
30.48
28.35
26.22
24.10
21.96
19.76
17.48
15.08
12.62
10.16
7.77
5.42
3.03
0.44
-2.44
-5.63
-9.06
-12.61
-16.23
-19.90
-23.68
-27.66
-31.97
-36.71
-41.94
-47.51
-52.97
-57.59
-60.44
-60.73
-58.07
-52.71
-45.38
-37.14
-28.88
-21.21
-14.30
-8.07
-2.35
2.96
7.87
12.39
16.57
20.46
24.16
27.63
30.72
33.25
35.06
36.15
36.64
36.75
36.74
36.80
37.05
37.46
37.94
38.23
38.09
37.29
35.80
33.82
31.69
29.77
28.23
26.96
25.60
23.80
21.38
18.45
15.37
12.54
10.19
8.24
6.42
4.38
1.84
-1.26
-4.80
-8.53
-12.14
-15.43
-18.34
-20.98
-23.59
-26.46
-29.89
-34.08
-39.06
-44.64
-50.32
-55.34
-58.75
-59.70
-57.70
-52.85
-45.77
-37.43
-28.81
-20.65
-13.31
-6.87
-1.29
3.53
7.69
11.26
14.35
17.06
19.48
21.68
23.70
25.53
27.17
28.61
29.78
30.68
31.33
31.82
32.23
32.57
32.79
32.73
32.23
31.19
29.63
27.66
25.43
23.07
20.66
18.24
15.83
13.47
11.19
9.02
6.91
4.78
2.48
-0.14
-3.10
-6.31
-9.55
-12.63
-15.40
-17.97
-20.60
-23.68
-27.58
-32.43
-38.13
-44.14
-49.68
-53.76
-55.52
-54.42
-50.43
-44.04
-36.16
-27.76
-19.69
-12.43
-6.11
-0.61
4.27
8.76
12.96
16.94
20.66
24.00
26.80
28.87
30.12
30.62
30.60
30.41
30.37
30.67
31.30
32.14
32.90
33.33
33.19
32.32
30.69
28.44
25.80
23.13
20.75
18.89
17.61
16.79
16.17
15.47
14.45
13.01
11.15
9.06
6.94
4.96
3.18
1.46
-0.49
-2.95
-6.09
-9.88
-14.04
-18.21
-22.12
-25.66
-28.97
-32.39
-36.35
-41.18
-47.01
-53.58
-60.16
-65.66
-68.87
-68.85
-65.24
-58.41
-49.35
-39.28
-29.31
-20.13
-12.06
-5.08
0.94
6.19
10.86
15.13
19.15
22.97
26.54
29.62
31.99
33.50
34.15
34.17
33.86
33.50
33.32
33.37
33.62
33.96
34.27
34.40
34.21
33.63
32.61
31.22
29.57
27.82
26.02
24.15
22.13
19.84
17.24
14.38
11.36
8.36
5.55
3.06
0.98
-0.69
-2.09
-3.44
-4.99
-6.94
-9.31
-11.97
-14.70
-17.29
-19.67
-21.96
-24.41
-27.35
-31.09
-35.81
-41.39
-47.36
-52.87
-56.86
-58.33
-56.69
-51.97
-44.80
-36.20
-27.24
-18.74
-11.17
-4.66
0.89
5.65
9.83
13.59
17.01
20.07
22.65
24.59
25.85
26.50
26.83
27.12
27.59
28.29
29.08
29.79
30.27
30.52
30.58
30.47
30.14
29.45
28.23
26.40
24.03
21.30
18.43
15.57
12.77
9.96
7.03
3.97
0.85
-2.22
-5.15
-7.96
-10.77
-13.70
-16.80
-19.96
-23.00
-25.74
-28.18
-30.56
-33.31
-36.86
-41.46
-46.95
-52.74
-57.86
-61.20
-61.86
-59.41
-54.04
-46.45
-37.68
-28.67
-20.10
-12.30
-5.30
0.96
6.55
11.45
15.69
19.31
22.42
25.08
27.32
29.09
30.34
31.08
31.42
31.57
31.82
32.39
33.40
34.82
36.39
37.81
38.72
38.84
38.11
36.64
34.69
32.58
30.49
28.44
26.30
23.86
20.99
17.70
14.12
10.48
6.96
3.66
0.55
-2.44
-5.42
-8.47
-11.65
-15.00
-18.51
-22.12
-25.69
-29.08
-32.28
-35.46
-39.00
-43.35
-48.79
-55.19
-61.91
-67.79
-71.54
-72.09
-68.94
-62.38
-53.39
-43.28
-33.30
-24.29
-16.51
-9.84
-3.92
1.55
6.76
11.77
16.61
21.28
25.75
29.91
33.55
36.47
38.52
39.72
40.27
40.50
40.76
41.29
42.13
43.08
43.82
44.05
43.55
42.35
40.59
38.54
36.42
34.37
32.41
30.50
28.58
26.53
24.28
21.75
18.91
15.83
12.66
9.58
6.68
3.93
1.11
-2.00
-5.58
-9.57
-13.76
-17.85
-21.58
-24.94
-28.06
-31.28
-34.92
-39.25
-44.42
-50.33
-56.60
-62.49
-67.00
-69.05
-67.82
-63.09
-55.36
-45.71
-35.44
-25.61
-16.85
-9.28
-2.71
3.06
8.18
12.69
16.61
20.01
22.99
25.62
27.86
29.64
30.86
31.52
31.74
31.74
31.77
31.98
32.42
32.99
33.53
33.86
33.80
33.20
31.95
29.98
27.33
24.17
20.76
17.46
14.54
12.13
10.10
8.15
5.89
3.11
-0.19
-3.77
-7.27
-10.39
-13.08
-15.47
-17.87
-20.67
-24.17
-28.58
-33.89
-39.88
-45.98
-51.36
-54.98
-55.93
-53.68
-48.29
-40.41
-31.07
-21.35
-12.15
-3.98
2.95
8.69
13.40
17.31
20.62
23.51
26.06
28.26
30.06
31.43
32.38
33.03
33.50
33.92
34.39
34.95
35.58
36.20
36.65
36.71
36.23
35.13
33.49
31.53
29.45
27.42
25.42
23.28
20.85
18.03
14.86
11.53
8.25
5.20
2.45
-0.02
-2.36
-4.74
-7.34
-10.36
-13.90
-17.98
-22.46
-27.09
-31.56
-35.66
-39.43
-43.14
-47.32
-52.37
-58.40
-64.94
-70.93
-75.01
-75.95
-73.10
-66.65
-57.54
-47.08
-36.51
-26.66
-17.84
-10.04
-3.10
3.04
8.43
13.16
17.42
21.49
25.55
29.56
33.24
36.16
38.01
38.73
38.57
37.97
37.42
37.24
37.54
38.17
38.88
39.38
39.44
38.96
37.94
36.49
34.76
32.89
30.99
29.08
27.10
24.90
22.33
19.32
15.90
12.27
8.71
5.47
2.67
0.21
-2.16
-4.79
-7.95
-11.71
-15.95
-20.40
-24.82
-29.07
-33.17
-37.29
-41.70
-46.70
-52.44
-58.76
-65.11
-70.53
-73.87
-74.07
-70.59
-63.61
-54.03
-43.18
-32.39
-22.59
-14.16
-6.99
-0.65
5.26
11.01
16.62
21.99
26.91
31.23
34.78
37.49
39.33
40.34
40.73
40.79
40.88
41.31
42.16
43.29
44.36
44.99
44.85
43.81
41.94
39.39
36.35
32.98
29.38
25.65
21.88
18.17
14.59
11.20
7.96
4.74
1.41
-2.19
-6.11
-10.32
-14.64
-18.85
-22.79
-26.41
-29.87
-33.54
-37.91
-43.38
-49.97
-57.18
-63.91
-68.74
-70.39
-68.10
-61.86
-52.34
-40.63
-27.95
-15.41
-3.96
5.71
13.21
18.54
22.07
24.44
26.29
28.03
29.72
31.22
32.33
33.00
33.38
33.74
34.32
35.17
36.17
37.08
37.62
37.57
36.79
35.36
33.43
31.25
29.03
26.85
24.67
22.39
19.92
17.24
14.41
11.51
8.57
5.59
2.52
-0.65
-3.94
-7.30
-10.74
-14.25
-17.90
-21.68
-25.55
-29.45
-33.32
-37.26
-41.45
-46.18
-51.67
-58.00
-64.85
-71.51
-76.98
-80.13
-80.12
-76.61
-69.92
-60.90
-50.67
-40.26
-30.38
-21.35
-13.23
-5.93
0.65
6.65
12.20
17.42
22.41
27.09
31.28
34.72
37.23
38.74
39.40
39.50
39.39
39.37
39.64
40.21
40.93
41.53
41.72
41.33
40.30
38.73
36.83
34.81
32.82
30.90
29.01
27.02
24.84
22.36
19.58
16.57
13.45
10.38
7.43
4.57
1.66
-1.55
-5.23
-9.45
-14.11
-19.01
-23.89
-28.56
-32.98
-37.24
-41.58
-46.28
-51.63
-57.74
-64.51
-71.42
-77.55
-81.77
-82.97
-80.49
-74.37
-65.34
-54.58
-43.29
-32.31
-22.06
-12.60
-3.85
4.26
11.69
18.45
24.52
29.94
34.63
38.44
41.19
42.83
43.56
43.81
44.05
44.57
45.40
46.31
46.96
47.13
46.72
45.74
44.21
42.13
39.47
36.24
32.55
28.57
24.48
20.36
16.25
12.16
8.13
4.19
0.31
-3.58
-7.59
-11.77
-16.08
-20.36
-24.47
-28.37
-32.16
-36.06
-40.36
-45.26
-50.89
-57.22
-63.95
-70.40
-75.62
-78.48
-78.07
-74.04
-66.70
-57.02
-46.22
-35.43
-25.45
-16.65
-9.08
-2.57
3.11
8.24
13.05
17.66
22.04
26.09
29.59
32.45
34.69
36.47
38.03
39.52
41.04
42.52
43.87
45.00
45.88
46.48
46.75
46.57
45.83
44.47
42.56
40.25
37.71
35.02
32.07
28.70
24.76
20.27
15.47
10.71
6.25
2.17
-1.68
-5.57
-9.68
-14.07
-18.63
-23.19
-27.59
-31.79
-35.84
-39.93
-44.37
-49.51
-55.72
-63.10
-71.32
-79.47
-86.16
-89.85
-89.24
-83.73
-73.60
-60.08
-44.92
-29.94
-16.51
-5.31
3.79
11.40
18.27
24.97
31.67
38.18
44.13
49.15
53.02
55.72
57.36
58.11
58.20
57.84
57.30
56.81
56.59
56.73
57.16
57.63
57.75
57.12
55.54
53.05
49.96
46.70
43.67
41.00
38.59
36.13
33.34
30.03
26.24
22.19
18.12
14.24
10.65
7.29
3.98
0.52
-3.30
-7.56
-12.18
-16.95
-21.56
-25.77
-29.48
-32.91
-36.48
-40.72
-46.07
-52.67
-60.16
-67.69
-74.02
-77.80
-77.95
-73.95
-66.04
-55.12
-42.54
-29.65
-17.55
-6.85
2.30
10.09
16.82
22.78
28.17
33.04
37.38
41.10
44.07
46.22
47.49
48.00
47.93
47.57
47.23
47.08
47.16
47.36
47.48
47.31
46.69
45.56
43.95
41.93
39.63
37.14
34.57
31.91
29.11
26.07
22.72
19.13
15.52
12.21
9.49
7.44
5.87
4.33
2.37
-0.35
-3.84
-7.81
-11.83
-15.45
-18.51
-21.16
-23.83
-27.10
-31.45
-37.07
-43.70
-50.60
-56.68
-60.72
-61.68
-58.97
-52.68
-43.53
-32.67
-21.43
-10.92
-1.90
5.35
10.91
15.15
18.53
21.42
24.07
26.47
28.47
29.91
30.71
31.00
31.06
31.15
31.42
31.86
32.31
32.62
32.75
32.71
32.55
32.23
31.62
30.56
28.93
26.71
23.99
20.97
17.83
14.75
11.75
8.78
5.67
2.28
-1.48
-5.56
-9.79
-13.98
-17.94
-21.58
-24.90
-27.96
-30.88
-33.82
-37.04
-40.85
-45.51
-51.09
-57.29
-63.30
-67.98
-70.13
-68.85
-63.92
-55.84
-45.65
-34.64
-23.87
-14.05
-5.44
2.01
8.42
13.95
18.72
22.80
26.30
29.26
31.70
33.56
34.76
35.27
35.16
34.64
34.00
33.56
33.52
33.91
34.53
35.06
35.15
34.54
33.18
31.14
28.67
26.02
23.42
20.99
18.74
16.59
14.35
11.83
8.94
5.69
2.27
-1.05
-4.07
-6.75
-9.26
-11.91
-14.97
-18.55
-22.51
-26.56
-30.40
-33.88
-37.05
-40.22
-43.78
-48.12
-53.44
-59.66
-66.27
-72.31
-76.56
-77.77
-75.12
-68.49
-58.57
-46.66
-34.26
-22.60
-12.38
-3.79
3.35
9.35
14.49
18.94
22.83
26.25
29.31
31.99
34.25
35.97
37.03
37.38
37.11
36.51
35.93
35.67
35.91
36.55
37.27
37.62
37.23
35.95
33.87
31.31
28.62
26.07
23.75
21.59
19.43
17.13
14.64
12.03
9.39
6.84
4.41
2.05
-0.32
-2.86
-5.67
-8.79
-12.19
-15.83
-19.55
-23.20
-26.66
-29.91
-33.08
-36.48
-40.58
-45.75
-52.13
-59.27
-66.18
-71.43
-73.61
-71.74
-65.71
-56.25
-44.73
-32.67
-21.26
-11.17
-2.56
4.69
10.77
15.82
19.90
23.10
25.56
27.48
28.98
30.16
31.01
31.49
31.59
31.39
31.03
30.67
30.45
30.42
30.51
30.55
30.33
29.66
28.39
26.50
24.00
21.02
17.73
14.39
11.25
8.51
6.19
4.12
1.95
-0.68
-4.01
-8.01
-12.36
-16.68
-20.58
-23.92
-26.78
-29.43
-32.24
-35.57
-39.67
-44.66
-50.32
-56.01
-60.73
-63.24
-62.47
-57.89
-49.74
-38.99
-27.11
-15.51
-5.26
3.19
9.92
15.34
19.87
23.80
27.20
30.05
32.29
33.92
34.99
35.55
35.66
35.37
34.80
34.14
33.64
33.48
33.72
34.18
34.60
34.62
34.01
32.67
30.74
28.48
26.16
23.99
21.96
19.93
17.68
15.02
11.96
8.70
5.50
2.56
-0.11
-2.68
-5.44
-8.59
-12.22
-16.23
-20.41
-24.57
-28.57
-32.37
-36.08
-39.91
-44.16
-49.13
-55.02
-61.76
-68.84
-75.31
-79.86
-81.21
-78.46
-71.49
-61.04
-48.51
-35.51
-23.34
-12.74
-3.84
3.68
10.24
16.17
21.68
26.82
31.54
35.74
39.25
41.90
43.58
44.27
44.08
43.30
42.28
41.35
40.77
40.60
40.73
40.91
40.79
40.08
38.67
36.60
34.11
31.50
29.00
26.68
24.44
22.03
19.22
15.93
12.26
8.58
5.24
2.51
0.38
-1.43
-3.37
-5.86
-9.16
-13.22
-17.72
-22.24
-26.38
-29.94
-33.05
-36.11
-39.69
-44.33
-50.23
-57.11
-64.08
-69.84
-72.97
-72.33
-67.50
-58.85
-47.51
-34.96
-22.62
-11.49
-2.04
5.70
11.99
17.17
21.54
25.34
28.67
31.51
33.76
35.26
35.93
35.80
35.03
33.90
32.74
31.81
31.23
31.02
31.03
31.02
30.70
29.82
28.24
25.96
23.13
19.94
16.58
13.23
9.99
6.89
3.86
0.75
-2.60
-6.33
-10.45
-14.81
-19.16
-23.29
-27.05
-30.53
-33.99
-37.83
-42.41
-47.89
-54.02
-60.13
-65.12
-67.80
-67.18
-62.84
-55.09
-44.86
-33.44
-22.09
-11.70
-2.69
4.96
11.48
17.22
22.45
27.30
31.77
35.74
39.04
41.52
43.08
43.72
43.58
42.90
41.94
40.99
40.28
39.92
39.90
40.02
39.98
39.45
38.16
35.99
33.02
29.42
25.47
21.45
17.58
13.98
10.68
7.56
4.41
0.96
-3.02
-7.58
-12.59
-17.78
-22.78
-27.32
-31.31
-34.89
-38.36
-42.15
-46.66
-52.21
-58.90
-66.54
-74.47
-81.63
-86.67
-88.28
-85.54
-78.30
-67.27
-53.83
-39.61
-26.05
-14.05
-3.88
4.69
12.10
18.76
24.95
30.76
36.11
40.89
44.93
48.06
50.19
51.30
51.51
51.08
50.33
49.60
49.17
49.16
49.52
50.00
50.25
49.88
48.62
46.44
43.52
40.24
36.98
33.99
31.27
28.61
25.69
22.25
18.26
13.95
9.66
5.70
2.17
-1.08
-4.38
-8.06
-12.26
-16.92
-21.77
-26.44
-30.71
-34.56
-38.20
-42.05
-46.62
-52.29
-59.16
-66.86
-74.48
-80.70
-84.11
-83.62
-78.78
-69.96
-58.22
-44.98
-31.65
-19.28
-8.44
0.76
8.49
15.07
20.80
25.95
30.61
34.76
38.26
40.93
42.63
43.36
43.30
42.74
42.03
41.46
41.19
41.26
41.57
41.93
42.10
41.78
40.72
38.71
35.74
31.97
27.74
23.47
19.56
16.20
13.29
10.55
7.53
3.91
-0.44
-5.32
-10.38
-15.22
-19.60
-23.52
-27.19
-30.95
-35.18
-40.15
-45.97
-52.47
-59.11
-64.94
-68.74
-69.37
-66.16
-59.15
-49.15
-37.45
-25.39
-14.00
-3.80
5.09
12.82
19.57
25.50
30.70
35.18
38.91
41.82
43.86
44.97
45.24
44.85
44.05
43.13
42.34
41.87
41.79
42.09
42.61
43.13
43.32
42.89
41.65
39.61
36.96
33.98
30.99
28.13
25.44
22.73
19.76
16.35
12.45
8.24
4.03
0.11
-3.39
-6.55
-9.65
-13.00
-16.80
-20.98
-25.32
-29.52
-33.36
-36.89
-40.32
-44.02
-48.41
-53.80
-60.27
-67.55
-74.88
-81.07
-84.70
-84.56
-80.00
-71.26
-59.41
-46.01
-32.63
-20.38
-9.80
-0.85
6.79
13.51
19.58
25.12
30.17
34.68
38.59
41.79
44.20
45.72
46.32
46.06
45.15
43.91
42.72
41.89
41.60
41.79
42.22
42.56
42.48
41.77
40.35
38.28
35.76
33.02
30.32
27.83
25.59
23.51
21.39
19.01
16.24
13.08
9.66
6.24
3.05
0.22
-2.26
-4.54
-6.92
-9.65
-12.91
-16.73
-20.95
-25.31
-29.53
-33.39
-36.90
-40.24
-43.82
-48.07
-53.33
-59.54
-66.13
-72.02
-75.83
-76.32
-72.77
-65.31
-54.86
-42.85
-30.76
-19.68
-10.14
-2.16
4.58
10.44
15.71
20.57
25.04
29.08
32.55
35.25
37.00
37.74
37.59
36.87
36.00
35.31
34.99
34.97
35.05
35.02
34.71
34.07
33.12
31.89
30.40
28.61
26.56
24.29
21.88
19.43
16.95
14.47
11.96
9.39
6.77
4.07
1.25
-1.72
-4.85
-8.13
-11.49
-14.81
-18.01
-21.01
-23.84
-26.56
-29.37
-32.54
-36.43
-41.21
-46.79
-52.55
-57.44
-60.17
-59.67
-55.45
-47.82
-37.82
-26.81
-16.10
-6.54
1.54
8.23
13.77
18.38
22.13
24.99
26.99
28.21
28.84
29.06
29.01
28.72
28.19
27.50
26.81
26.38
26.37
26.80
27.46
28.00
28.05
27.41
26.08
24.25
22.15
19.96
17.72
15.36
12.76
9.85
6.67
3.31
-0.05
-3.25
-6.16
-8.76
-11.13
-13.44
-15.88
-18.61
-21.69
-25.07
-28.61
-32.12
-35.49
-38.60
-41.50
-44.33
-47.40
-51.08
-55.61
-60.91
-66.37
-70.88
-73.13
-71.99
-67.03
-58.64
-47.93
-36.34
-25.08
-14.89
-5.98
1.76
8.50
14.31
19.15
23.03
26.07
28.51
30.58
32.39
33.88
34.87
35.20
34.84
33.96
32.88
31.95
31.44
31.46
31.91
32.56
33.05
33.08
32.46
31.17
29.37
27.30
25.19
23.18
21.28
19.40
17.37
15.09
12.47
9.56
6.48
3.40
0.45
-2.30
-4.89
-7.48
-10.26
-13.36
-16.82
-20.51
-24.21
-27.68
-30.75
-33.47
-36.01
-38.77
-42.22
-46.78
-52.62
-59.41
-66.25
-71.80
-74.62
-73.64
-68.58
-59.98
-49.09
-37.33
-25.93
-15.66
-6.87
0.45
6.41
11.23
15.16
18.51
21.62
24.67
27.71
30.55
32.91
34.53
35.30
35.33
34.91
34.41
34.13
34.26
34.76
35.44
35.97
36.05
35.46
34.14
32.19
29.79
27.19
24.61
22.15
19.82
17.57
15.31
12.97
10.54
8.04
5.50
2.93
0.29
-2.50
-5.50
-8.71
-12.10
-15.61
-19.12
-22.57
-25.92
-29.27
-32.88
-37.10
-42.23
-48.27
-54.73
-60.60
-64.57
-65.39
-62.40
-55.68
-46.15
-35.15
-24.01
-13.75
-4.85
2.56
8.65
13.59
17.58
20.77
23.28
25.23
26.66
27.58
27.97
27.91
27.56
27.14
26.90
26.97
27.36
27.97
28.61
29.17
29.49
29.49
29.05
28.04
26.38
24.05
21.16
17.93
14.62
11.47
8.59
5.97
3.45
0.78
-2.29
-5.90
-10.02
-14.47
-18.96
-23.21
-27.06
-30.53
-33.85
-37.31
-41.25
-45.97
-51.61
-58.11
-65.01
-71.43
-76.17
-77.98
-75.98
-70.02
-60.75
-49.44
-37.52
-26.14
-15.91
-6.97
0.87
7.81
14.02
19.57
24.49
28.80
32.47
35.40
37.49
38.71
39.20
39.25
39.20
39.31
39.70
40.34
41.08
41.74
42.17
42.19
41.66
40.52
38.77
36.58
34.12
31.56
28.94
26.23
23.35
20.27
17.03
13.69
10.31
6.89
3.36
-0.34
-4.24
-8.33
-12.55
-16.76
-20.87
-24.79
-28.51
-32.18
-36.11
-40.71
-46.35
-53.14
-60.79
-68.46
-74.92
-78.84
-79.14
-75.36
-67.73
-57.17
-44.96
-32.37
-20.44
-9.74
-0.44
7.58
14.60
20.84
26.45
31.42
35.66
39.03
41.45
42.91
43.54
43.54
43.19
42.71
42.31
42.09
42.08
42.22
42.33
42.22
41.72
40.74
39.27
37.40
35.21
32.75
30.04
27.09
23.96
20.72
17.49
14.31
11.20
8.09
4.89
1.59
-1.84
-5.33
-8.83
-12.31
-15.79
-19.32
-23.00
-26.97
-31.39
-36.47
-42.34
-49.02
-56.15
-62.99
-68.43
-71.24
-70.44
-65.66
-57.29
-46.37
-34.30
-22.38
-11.49
-2.05
5.94
12.65
18.21
22.69
26.15
28.69
30.49
31.80
32.84
33.72
34.45
34.95
35.15
35.07
34.81
34.54
34.40
34.38
34.36
34.05
33.17
31.51
29.05
25.96
22.50
19.01
15.72
12.72
9.91
7.06
3.89
0.20
-4.02
-8.60
-13.25
-17.65
-21.61
-25.12
-28.43
-31.99
-36.29
-41.74
-48.40
-55.78
-62.86
-68.21
-70.42
-68.56
-62.50
-52.97
-41.32
-29.05
-17.34
-6.88
2.14
9.86
16.45
22.06
26.78
30.70
33.96
36.65
38.84
40.45
41.40
41.65
41.31
40.66
40.03
39.72
39.87
40.37
40.97
41.31
41.10
40.14
38.44
36.13
33.49
30.75
28.05
25.36
22.55
19.46
16.03
12.37
8.61
4.93
1.39
-2.07
-5.57
-9.21
-13.04
-17.03
-21.08
-25.10
-29.04
-32.94
-36.86
-40.98
-45.57
-50.93
-57.34
-64.75
-72.66
-80.01
-85.32
-87.18
-84.64
-77.59
-66.85
-53.86
-40.21
-27.20
-15.58
-5.51
3.21
10.93
17.99
24.56
30.66
36.21
41.06
45.07
48.13
50.19
51.32
51.64
51.36
50.75
50.10
49.68
49.62
49.93
50.40
50.72
50.55
49.64
47.95
45.61
42.92
40.16
37.53
35.06
32.60
29.94
26.87
23.35
19.46
15.44
11.52
7.85
4.40
1.00
-2.58
-6.52
-10.86
-15.47
-20.13
-24.56
-28.59
-32.24
-35.71
-39.42
-43.85
-49.36
-55.96
-63.14
-69.86
-74.79
-76.64
-74.59
-68.52
-59.11
-47.52
-35.10
-23.00
-11.92
-2.18
6.26
13.62
20.06
25.69
30.51
34.47
37.48
39.56
40.80
41.33
41.35
41.04
40.53
39.87
39.10
38.27
37.44
36.66
35.93
35.10
33.96
32.22
29.73
26.52
22.83
19.02
15.44
12.25
9.33
6.38
3.00
-1.05
-5.77
-10.86
-15.85
-20.30
-23.98
-26.96
-29.61
-32.46
-36.04
-40.63
-46.21
-52.37
-58.33
-63.02
-65.35
-64.42
-59.87
-51.96
-41.56
-29.93
-18.30
-7.62
1.61
9.29
15.59
20.71
24.81
27.93
30.11
31.41
32.02
32.18
32.16
32.17
32.26
32.37
32.40
32.25
31.96
31.63
31.36
31.09
30.67
29.83
28.33
26.05
23.04
19.47
15.63
11.85
8.40
5.36
2.62
-0.16
-3.35
-7.24
-11.79
-16.71
-21.52
-25.78
-29.33
-32.32
-35.19
-38.47
-42.62
-47.92
-54.35
-61.51
-68.58
-74.42
-77.73
-77.38
-72.86
-64.45
-53.18
-40.56
-28.04
-16.65
-6.82
1.52
8.66
14.86
20.25
24.93
29.00
32.61
35.87
38.74
41.06
42.58
43.15
42.85
42.02
41.07
40.37
40.06
40.06
40.06
39.72
38.79
37.22
35.19
32.92
30.61
28.30
25.88
23.18
20.14
16.82
13.42
10.12
6.96
3.89
0.75
-2.59
-6.13
-9.83
-13.58
-17.30
-20.95
-24.51
-28.02
-31.56
-35.31
-39.49
-44.34
-49.99
-56.31
-62.81
-68.62
-72.57
-73.55
-70.78
-64.16
-54.33
-42.50
-30.10
-18.34
-7.95
0.94
8.59
15.38
21.59
27.31
32.43
36.77
40.18
42.63
44.14
44.84
44.87
44.45
43.78
43.05
42.38
41.79
41.27
40.74
40.13
39.34
38.28
36.88
35.05
32.78
30.13
27.24
24.25
21.24
18.22
15.12
11.86
8.40
4.75
0.97
-2.84
-6.56
-10.06
-13.26
-16.13
-18.79
-21.49
-24.55
-28.35
-33.11
-38.83
-45.12
-51.20
-55.93
-58.17
-57.04
-52.29
-44.37
-34.38
-23.62
-13.31
-4.27
3.19
9.12
13.78
17.41
20.20
22.23
23.52
24.12
24.13
23.73
23.18
22.68
22.40
22.37
22.51
22.72
22.89
22.94
22.83
22.47
21.77
20.60
18.89
16.58
13.73
10.41
6.71
2.83
-1.05
-4.70
-7.99
-10.94
-13.74
-16.75
-20.30
-24.66
-29.90
-35.86
-42.06
-47.78
-52.08
-53.98
-52.76
-48.17
-40.66
-31.16
-20.89
-10.99
-2.19
5.20
11.25
16.22
20.32
23.66
26.22
27.94
28.83
28.97
28.54
27.82
27.02
26.25
25.52
24.74
23.84
22.80
21.67
20.51
19.32
18.01
16.43
14.37
11.76
8.62
5.05
1.25
-2.59
-6.35
-9.95
-13.36
-16.62
-19.81
-23.09
-26.68
-30.86
-35.79
-41.38
-47.11
-52.06
-55.04
-55.03
-51.46
-44.50
-35.02
-24.26
-13.47
-3.58
5.00
12.21
18.27
23.41
27.83
31.62
34.86
37.53
39.55
40.79
41.15
40.64
39.41
37.80
36.17
34.80
33.80
33.10
32.55
32.00
31.33
30.47
29.42
28.11
26.53
24.64
22.46
20.05
17.54
15.04
12.68
10.50
8.48
6.46
4.18
1.35
-2.24
-6.60
-11.50
-16.49
-21.10
-25.06
-28.39
-31.36
-34.38
-37.85
-42.01
-46.88
-52.27
-57.66
-62.21
-64.91
-64.72
-61.03
-53.87
-44.00
-32.74
-21.52
-11.45
-3.06
3.62
8.99
13.55
17.70
21.68
25.55
29.16
32.28
34.62
35.99
36.32
35.70
34.36
32.63
30.82
29.22
28.02
27.34
27.12
27.23
27.43
27.48
27.18
26.36
24.97
23.03
20.63
17.92
15.05
12.20
9.45
6.84
4.32
1.84
-0.66
-3.24
-5.97
-8.91
-12.09
-15.52
-19.09
-22.65
-26.02
-29.11
-31.95
-34.76
-37.85
-41.53
-45.89
-50.61
-54.96
-57.89
-58.35
-55.64
-49.69
-41.15
-31.13
-20.87
-11.31
-2.98
4.09
10.08
15.21
19.58
23.18
25.97
27.98
29.33
30.13
30.48
30.44
30.03
29.36
28.58
27.86
27.39
27.20
27.22
27.26
27.04
26.32
24.99
23.11
20.86
18.49
16.16
13.85
11.45
8.81
5.96
3.03
0.23
-2.29
-4.58
-6.83
-9.29
-12.11
-15.20
-18.33
-21.20
-23.65
-25.65
-27.35
-28.98
-30.80
-33.08
-36.09
-40.06
-45.05
-50.73
-56.35
-60.76
-62.71
-61.25
-56.11
-47.80
-37.41
-26.29
-15.64
-6.27
1.44
7.52
12.24
16.01
19.28
22.39
25.47
28.42
30.91
32.58
33.24
32.95
31.98
30.75
29.61
28.76
28.27
28.10
28.16
28.32
28.41
28.26
27.71
26.69
25.22
23.43
21.51
19.62
17.88
16.31
14.82
13.23
11.31
8.91
5.97
2.70
-0.58
-3.49
-5.76
-7.38
-8.59
-9.78
-11.34
-13.52
-16.31
-19.53
-22.88
-26.08
-28.95
-31.49
-33.85
-36.29
-39.16
-42.79
-47.30
-52.52
-57.80
-62.11
-64.27
-63.31
-58.80
-51.07
-41.11
-30.24
-19.74
-10.49
-2.82
3.35
8.38
12.60
16.32
19.71
22.84
25.70
28.20
30.19
31.48
31.98
31.72
30.89
29.77
28.67
27.81
27.29
27.10
27.07
27.02
26.69
25.89
24.57
22.79
20.77
18.75
16.90
15.22
13.59
11.82
9.78
7.40
4.79
2.11
-0.46
-2.83
-5.02
-7.14
-9.37
-11.81
-14.48
-17.23
-19.89
-22.34
-24.66
-27.12
-30.09
-33.88
-38.53
-43.67
-48.55
-52.19
-53.63
-52.21
-47.75
-40.66
-31.76
-22.11
-12.66
-4.12
3.17
9.17
14.05
17.97
21.09
23.42
24.97
25.74
25.78
25.24
24.33
23.30
22.38
21.72
21.36
21.23
21.25
21.27
21.21
21.03
20.64
19.95
18.86
17.21
14.97
12.20
9.14
6.12
3.43
1.20
-0.71
-2.58
-4.75
-7.41
-10.52
-13.83
-17.04
-19.94
-22.49
-24.89
-27.46
-30.55
-34.44
-39.22
-44.67
-50.17
-54.79
-57.45
-57.25
-53.80
-47.32
-38.59
-28.70
-18.73
-9.47
-1.33
5.59
11.33
16.00
19.72
22.58
24.72
26.28
27.40
28.14
28.54
28.58
28.27
27.73
27.11
26.66
26.52
26.77
27.31
27.96
28.43
28.52
28.04
26.98
25.42
23.50
21.39
19.16
16.83
14.39
11.77
9.00
6.17
3.41
0.85
-1.44
-3.52
-5.56
-7.78
-10.43
-13.65
-17.41
-21.50
-25.61
-29.41
-32.75
-35.67
-38.47
-41.58
-45.43
-50.25
-55.89
-61.70
-66.58
-69.28
-68.76
-64.53
-56.91
-46.86
-35.68
-24.63
-14.54
-5.80
1.64
7.99
13.52
18.41
22.80
26.76
30.32
33.38
35.84
37.57
38.49
38.63
38.15
37.34
36.50
35.91
35.73
35.94
36.29
36.43
36.04
34.94
33.19
31.05
28.82
26.72
24.81
22.99
21.08
18.91
16.44
13.70
10.83
7.94
5.11
2.38
-0.26
-2.85
-5.40
-8.01
-10.72
-13.63
-16.80
-20.19
-23.70
-27.21
-30.66
-34.15
-37.96
-42.47
-47.92
-54.21
-60.69
-66.21
-69.43
-69.26
-65.21
-57.65
-47.62
-36.48
-25.49
-15.48
-6.81
0.54
6.71
11.86
16.13
19.68
22.70
25.35
27.72
29.75
31.35
32.39
32.83
32.72
32.20
31.43
30.53
29.67
28.96
28.47
28.10
27.65
26.80
25.30
23.08
20.29
17.26
14.31
11.60
9.06
6.45
3.53
0.19
-3.49
-7.28
-10.92
-14.28
-17.33
-20.17
-22.92
-25.74
-28.86
-32.57
-37.18
-42.78
-49.12
-55.37
-60.35
-62.79
-61.80
-57.16
-49.46
-39.76
-29.29
-19.09
-9.81
-1.70
5.20
11.01
15.89
20.00
23.45
26.26
28.41
29.86
30.63
30.85
30.77
30.63
30.56
30.61
30.71
30.77
30.73
30.56
30.19
29.47
28.18
26.16
23.33
19.83
15.97
12.11
8.59
5.56
3.01
0.76
-1.48
-4.04
-7.16
-10.94
-15.24
-19.74
-24.06
-27.92
-31.29
-34.51
-38.15
-42.80
-48.85
-56.14
-63.97
-71.08
-76.04
-77.53
-74.82
-67.98
-57.85
-45.77
-33.15
-21.14
-10.35
-0.94
7.22
14.37
20.74
26.52
31.81
36.67
41.04
44.74
47.50
49.10
49.49
48.87
47.64
46.31
45.30
44.78
44.71
44.80
44.70
44.08
42.77
40.78
38.30
35.63
33.03
30.66
28.51
26.37
24.04
21.36
18.33
15.12
11.99
9.09
6.44
3.85
1.04
-2.25
-6.13
-10.49
-15.11
-19.70
-24.13
-28.42
-32.79
-37.58
-43.12
-49.58
-56.85
-64.37
-71.16
-76.01
-77.70
-75.43
-69.09
-59.32
-47.36
-34.66
-22.47
-11.59
-2.25
5.71
12.66
18.94
24.79
30.27
35.26
39.59
43.03
45.45
46.84
47.37
47.31
47.01
46.79
46.87
47.35
48.17
49.15
49.99
50.28
49.72
48.13
45.63
42.55
39.40
36.56
34.24
32.34
30.57
28.58
26.14
23.23
19.98
16.67
13.53
10.74
8.34
6.26
4.38
2.54
0.64
-1.42
-3.66
-6.09
-8.76
-11.76
-15.30
-19.57
-24.64
-30.29
-35.85
-40.26
-42.29
-40.88
-35.53
-26.47
-14.61
-1.27
12.20
24.76
35.82
45.20
53.00
59.42
64.62
68.66
71.53
73.19
73.56
72.61
70.31
66.61
61.52
55.16
47.89
40.34
33.22
27.14
22.23
18.10
13.98
9.11
3.20
-3.44
-9.99
-15.56
-19.70
-22.52
-24.60
-26.58
-28.84
-31.31
-33.66
-35.52
-36.79
-37.62
-38.32
-39.13
-40.16
-41.40
-42.82
-44.41
-46.07
-47.52
-48.21
-47.43
-44.59
-39.44
-32.30
-23.95
-15.39
-7.52
-0.89
4.39
8.50
11.73
14.35
16.47
18.14
19.40
20.34
21.15
22.04
23.20
24.67
26.33
27.89
28.94
29.14
28.25
26.29
23.52
20.33
17.15
14.28
11.86
9.95
8.52
7.51
6.75
5.95
4.71
2.65
-0.51
-4.80
-10.06
-16.01
-22.44
-29.20
-36.13
-42.89
-48.86
-53.16
-54.84
-53.23
-48.14
-39.96
-29.59
-18.13
-6.69
3.94
13.34
21.40
28.24
34.04
38.91
42.93
46.17
48.72
50.77
52.63
54.61
57.07
60.28
64.35
69.21
74.39
79.06
82.12
82.46
79.31
72.46
62.34
49.89
36.18
22.21
8.72
-3.75
-14.84
-24.27
-31.93
-37.87
-42.33
-45.66
-48.21
-50.23
-51.93
-53.49
-55.19
-57.39
-60.49
-64.82
-70.43
-76.99
-83.70
-89.33
-92.54
-92.10
-87.43
-78.75
-67.16
-54.26
-41.72
-30.79
-22.01
-15.25
-9.91
-5.26
-0.72
3.99
8.87
13.68
18.05
21.60
24.05
25.30
25.48
24.94
24.20
23.83
24.27
25.74
28.18
31.26
34.47
37.25
39.10
39.71
39.00
37.11
34.35
31.07
27.51
23.76
19.73
15.28
10.31
4.86
-0.86
-6.53
-11.83
-16.51
-20.54
-23.96
-27.04
-30.17
-33.87
-38.58
-44.53
-51.42
-58.37
-64.09
-67.25
-67.04
-63.46
-57.31
-49.89
-42.44
-35.81
-30.29
-25.78
-22.06
-18.93
-16.34
-14.29
-12.73
-11.57
-10.69
-9.95
-9.21
-8.26
-6.83
-4.64
-1.50
2.56
7.25
12.02
16.29
19.53
21.46
22.07
21.49
19.91
17.50
14.29
10.39
5.92
1.20
-3.48
-7.90
-12.06
-16.10
-20.21
-24.49
-28.89
-33.28
-37.59
-41.73
-45.58
-48.75
-50.60
-50.30
-47.27
-41.45
-33.47
-24.45
-15.64
-7.99
-1.89
2.76
6.41
9.51
12.42
15.28
18.13
20.87
23.33
25.34
26.70
27.35
27.27
26.64
25.66
24.61
23.68
22.96
22.44
21.95
21.33
20.40
19.05
17.28
15.14
12.73
10.16
7.48
4.76
1.99
-0.80
-3.63
-6.49
-9.39
-12.30
-15.22
-18.18
-21.37
-25.06
-29.57
-35.05
-41.21
-47.23
-51.89
-53.92
-52.48
-47.43
-39.44
-29.73
-19.59
-10.07
-1.69
5.48
11.67
17.12
22.01
26.34
30.05
33.02
35.15
36.39
36.78
36.37
35.24
33.48
31.17
28.50
25.73
23.26
21.46
20.55
20.51
21.06
21.72
22.03
21.72
20.76
19.33
17.70
16.05
14.45
12.83
11.04
8.93
6.45
3.62
0.51
-2.80
-6.28
-9.91
-13.68
-17.56
-21.45
-25.34
-29.34
-33.75
-38.90
-44.88
-51.30
-57.21
-61.29
-62.32
-59.67
-53.57
-45.02
-35.40
-25.99
-17.55
-10.30
-4.10
1.31
6.07
10.18
13.57
16.22
18.26
19.94
21.46
22.90
24.17
25.08
25.51
25.50
25.31
25.33
25.83
26.86
28.16
29.27
29.70
29.10
27.37
24.64
21.15
17.23
13.12
9.01
4.97
1.00
-2.92
-6.76
-10.47
-13.96
-17.19
-20.20
-23.18
-26.43
-30.29
-35.05
-40.71
-46.89
-52.76
-57.18
-59.00
-57.43
-52.39
-44.51
-34.95
-24.97
-15.57
-7.31
-0.33
5.49
10.33
14.33
17.53
19.99
21.76
22.95
23.68
24.08
24.28
24.40
24.51
24.66
24.85
25.02
25.14
25.19
25.20
25.16
25.04
24.73
24.07
22.94
21.32
19.26
16.95
14.53
12.04
9.48
6.77
3.91
0.97
-1.90
-4.63
-7.26
-9.98
-12.99
-16.41
-20.19
-24.15
-28.06
-31.80
-35.42
-39.15
-43.34
-48.30
-54.15
-60.66
-67.12
-72.43
-75.34
-74.83
-70.48
-62.61
-52.25
-40.69
-29.18
-18.52
-9.02
-0.62
6.90
13.73
19.98
25.69
30.84
35.46
39.54
43.08
46.05
48.43
50.22
51.43
52.19
52.62
52.90
53.17
53.48
53.82
54.03
53.91
53.20
51.72
49.40
46.35
42.87
39.27
35.84
32.72
29.86
27.07
24.15
20.97
17.52
13.92
10.37
6.99
3.77
0.64
-2.56
-6.01
-9.79
-13.89
-18.19
-22.52
-26.67
-30.51
-34.10
-37.64
-41.54
-46.16
-51.71
-57.92
-64.00
-68.75
-70.89
-69.44
-64.07
-55.23
-44.00
-31.74
-19.70
-8.68
0.96
9.30
16.55
22.90
28.43
33.12
36.91
39.78
41.79
43.05
43.70
43.89
43.72
43.32
42.83
42.38
42.11
42.06
42.20
42.40
42.43
42.06
41.16
39.69
37.78
35.55
33.14
30.56
27.79
24.82
21.68
18.51
15.47
12.63
9.95
7.26
4.31
0.91
-2.96
-7.16
-11.42
-15.41
-18.94
-21.95
-24.60
-27.24
-30.32
-34.23
-39.19
-45.10
-51.43
-57.23
-61.34
-62.66
-60.48
-54.76
-46.11
-35.69
-24.82
-14.66
-5.90
1.22
6.84
11.27
14.79
17.59
19.72
21.21
22.11
22.53
22.66
22.71
22.91
23.39
24.15
25.04
25.86
26.45
26.77
26.91
26.99
27.03
26.86
26.27
25.11
23.38
21.32
19.26
17.45
15.97
14.67
13.30
11.59
9.41
6.76
3.79
0.69
-2.37
-5.30
-8.11
-10.91
-13.88
-17.24
-21.22
-26.01
-31.65
-37.87
-43.99
-48.96
-51.50
-50.59
-45.75
-37.35
-26.44
-14.49
-2.92
7.28
15.64
22.19
27.24
31.19
34.39
37.02
39.18
40.83
41.92
42.44
42.48
42.17
41.64
40.96
40.06
38.84
37.27
35.37
33.30
31.26
29.34
27.55
25.75
23.78
21.58
19.19
16.77
14.48
12.42
10.52
8.60
6.42
3.86
0.92
-2.21
-5.34
-8.37
-11.30
-14.24
-17.28
-20.38
-23.42
-26.32
-29.11
-32.04
-35.47
-39.78
-45.10
-51.16
-57.31
-62.53
-65.68
-65.82
-62.45
-55.70
-46.31
-35.44
-24.32
-14.00
-5.09
2.20
8.02
12.69
16.58
19.97
23.03
25.75
28.02
29.71
30.72
31.10
30.98
30.58
30.08
29.63
29.31
29.20
29.34
29.67
30.03
30.10
29.56
28.22
26.10
23.49
20.75
18.16
15.81
13.58
11.31
8.91
6.38
3.86
1.41
-1.01
-3.50
-6.21
-9.14
-12.21
-15.24
-18.06
-20.58
-22.89
-25.23
-27.90
-31.24
-35.44
-40.41
-45.68
-50.46
-53.73
-54.56
-52.36
-47.05
-39.15
-29.56
-19.38
-9.61
-1.02
5.98
11.34
15.24
18.02
20.01
21.46
22.47
23.02
23.10
22.69
21.91
20.95
19.99
19.19
18.63
18.30
18.19
18.25
18.41
18.60
18.64
18.32
17.38
15.64
13.01
9.66
5.92
2.29
-0.85
-3.29
-5.08
-6.54
-8.06
-9.96
-12.34
-15.09
-17.95
-20.63
-22.97
-24.89
-26.52
-28.12
-30.02
-32.60
-36.18
-40.87
-46.46
-52.29
-57.33
-60.39
-60.41
-56.87
-49.96
-40.55
-29.93
-19.36
-9.75
-1.51
5.40
11.26
16.30
20.64
24.22
26.97
28.86
29.95
30.39
30.37
30.02
29.46
28.80
28.17
27.71
27.54
27.67
27.99
28.24
28.16
27.56
26.41
24.84
23.07
21.27
19.49
17.67
15.70
13.45
10.89
8.04
4.98
1.82
-1.32
-4.36
-7.27
-10.13
-13.08
-16.26
-19.80
-23.65
-27.68
-31.70
-35.56
-39.23
-42.89
-46.86
-51.51
-57.06
-63.36
-69.81
-75.31
-78.58
-78.52
-74.55
-66.86
-56.33
-44.24
-31.92
-20.39
-10.32
-1.91
4.93
10.45
14.95
18.71
21.95
24.82
27.41
29.77
31.89
33.72
35.16
36.15
36.68
36.83
36.79
36.78
36.94
37.26
37.63
37.82
37.56
36.62
34.86
32.27
29.02
25.39
21.73
18.34
15.33
12.60
9.88
6.82
3.17
-1.09
-5.73
-10.37
-14.62
-18.29
-21.48
-24.56
-28.04
-32.42
-37.99
-44.68
-52.02
-59.17
-65.10
-68.77
-69.37
-66.57
-60.53
-51.88
-41.58
-30.68
-20.11
-10.55
-2.36
4.44
10.05
14.76
18.78
22.15
24.77
26.52
27.38
27.54
27.39
27.35
27.67
28.37
29.25
30.02
30.52
30.71
30.65
30.42
29.96
29.07
27.55
25.27
22.31
18.91
15.40
12.07
9.00
6.10
3.10
-0.24
-4.07
-8.34
-12.86
-17.35
-21.60
-25.55
-29.30
-33.16
-37.52
-42.76
-49.15
-56.59
-64.48
-71.71
-76.84
-78.49
-75.83
-68.91
-58.60
-46.35
-33.63
-21.57
-10.79
-1.46
6.46
13.11
18.65
23.26
27.17
30.57
33.54
36.05
38.00
39.30
40.04
40.40
40.70
41.14
41.86
42.80
43.80
44.66
45.17
45.17
44.54
43.18
41.00
37.97
34.17
29.79
25.17
20.67
16.58
12.97
9.67
6.34
2.61
-1.75
-6.69
-12.01
-17.37
-22.47
-27.19
-31.58
-35.86
-40.30
-45.26
-50.99
-57.70
-65.31
-73.36
-80.92
-86.69
-89.28
-87.71
-81.71
-71.82
-59.25
-45.51
-31.92
-19.38
-8.22
1.61
10.39
18.32
25.56
32.05
37.71
42.41
46.09
48.81
50.66
51.76
52.25
52.29
52.12
52.02
52.26
52.90
53.80
54.54
54.65
53.79
51.91
49.19
46.01
42.70
39.43
36.20
32.91
29.42
25.67
21.69
17.57
13.48
9.58
5.97
2.68
-0.47
-3.67
-7.19
-11.11
-15.36
-19.70
-23.91
-27.90
-31.78
-35.84
-40.46
-45.96
-52.45
-59.69
-67.04
-73.45
-77.59
-78.29
-74.81
-67.19
-56.28
-43.46
-30.24
-17.75
-6.58
3.21
11.84
19.52
26.33
32.18
36.93
40.51
43.00
44.57
45.45
45.90
46.14
46.39
46.84
47.64
48.83
50.31
51.86
53.21
54.02
54.09
53.34
51.80
49.59
46.83
43.58
39.85
35.72
31.30
26.82
22.48
18.41
14.60
10.87
6.99
2.76
-1.85
-6.71
-11.58
-16.26
-20.64
-24.76
-28.79
-32.98
-37.61
-42.97
-49.26
-56.45
-64.15
-71.46
-77.11
-79.80
-78.56
-73.14
-64.07
-52.54
-39.97
-27.64
-16.39
-6.55
2.00
9.59
16.53
22.99
28.87
33.92
37.89
40.72
42.56
43.80
44.84
45.98
47.35
48.92
50.60
52.25
53.68
54.62
54.75
53.79
51.65
48.49
44.69
40.71
36.95
33.61
30.74
28.15
25.60
22.84
19.64
15.98
11.95
7.81
3.82
0.07
-3.53
-7.25
-11.38
-16.07
-21.24
-26.65
-31.94
-36.89
-41.44
-45.77
-50.27
-55.39
-61.52
-68.78
-76.81
-84.66
-90.95
-94.16
-93.15
-87.50
-77.67
-64.85
-50.53
-36.11
-22.57
-10.47
0.07
9.17
17.12
24.26
30.89
37.11
42.82
47.62
51.11
53.03
53.46
52.84
51.78
50.87
50.54
50.89
51.80
52.94
53.89
54.25
53.75
52.27
49.93
47.01
43.84
40.69
37.66
34.74
31.80
28.71
25.34
21.66
17.70
13.56
9.40
5.39
1.60
-2.01
-5.63
-9.54
-13.90
-18.71
-23.75
-28.73
-33.38
-37.61
-41.59
-45.69
-50.42
-56.18
-63.06
-70.68
-78.04
-83.80
-86.51
-85.11
-79.30
-69.58
-57.13
-43.40
-29.77
-17.22
-6.26
2.98
10.69
17.19
22.80
27.76
32.16
35.94
38.91
40.94
41.99
42.18
41.78
41.16
40.66
40.50
40.74
41.28
41.86
42.28
42.31
41.84
40.77
39.04
36.61
33.53
29.96
26.21
22.63
19.44
16.62
13.90
10.89
7.24
2.83
-2.18
-7.42
-12.48
-17.06
-21.08
-24.70
-28.28
-32.25
-37.05
-42.96
-49.94
-57.52
-64.73
-70.25
-72.77
-71.34
-65.76
-56.65
-45.24
-32.97
-21.08
-10.33
-0.98
7.05
13.96
19.87
24.80
28.71
31.60
33.56
34.73
35.35
35.64
35.81
36.00
36.29
36.69
37.13
37.51
37.73
37.71
37.43
36.85
35.90
34.46
32.38
29.59
26.07
21.97
17.52
12.96
8.49
4.13
-0.20
-4.67
-9.42
-14.44
-19.56
-24.48
-28.99
-33.04
-36.82
-40.72
-45.21
-50.66
-57.28
-64.98
-73.31
-81.43
-88.11
-92.02
-92.02
-87.53
-78.83
-66.97
-53.43
-39.68
-26.82
-15.41
-5.51
3.04
10.49
17.05
22.84
27.91
32.22
35.65
38.09
39.56
40.24
40.47
40.66
41.12
42.01
43.27
44.71
46.11
47.28
48.04
48.21
47.63
46.14
43.73
40.50
36.75
32.82
29.01
25.47
22.15
18.91
15.61
12.20
8.78
5.44
2.20
-1.14
-4.84
-9.18
-14.22
-19.75
-25.37
-30.70
-35.52
-39.92
-44.27
-49.07
-54.89
-62.02
-70.36
-79.21
-87.29
-92.97
-94.69
-91.55
-83.57
-71.75
-57.74
-43.21
-29.46
-17.18
-6.51
2.70
10.67
17.58
23.57
28.77
33.29
37.14
40.26
42.51
43.82
44.31
44.28
44.14
44.27
44.82
45.68
46.60
47.21
47.20
46.40
44.81
42.58
39.93
37.11
34.28
31.47
28.59
25.49
22.06
18.33
14.41
10.52
6.83
3.40
0.17
-3.04
-6.43
-10.13
-14.24
-18.71
-23.42
-28.15
-32.67
-36.85
-40.75
-44.72
-49.31
-55.07
-62.22
-70.40
-78.55
-85.08
-88.31
-87.01
-80.86
-70.51
-57.43
-43.41
-30.05
-18.40
-8.82
-1.10
5.22
10.65
15.47
19.76
23.42
26.26
28.17
29.16
29.35
28.97
28.31
27.68
27.36
27.62
28.58
30.20
32.21
34.21
35.77
36.66
36.95
36.97
37.20
38.06
39.79
42.33
45.36
48.35
50.67
51.77
51.30
49.29
46.06
42.17
38.21
34.59
31.43
28.59
25.76
22.67
19.21
15.45
11.59
7.84
4.33
1.01
-2.35
-5.99
-10.13
-14.77
-19.76
-24.84
-29.81
-34.56
-39.12
-43.59
-48.11
-52.86
-58.10
-64.18
-71.31
-79.30
-87.37
-94.11
-97.79
-96.97
-91.04
-80.46
-66.63
-51.39
-36.46
-22.95
-11.29
-1.39
7.10
14.55
21.23
27.29
32.80
37.75
42.07
45.65
48.40
50.31
51.48
52.10
52.46
52.81
53.38
54.24
55.36
56.54
57.48
57.90
57.59
56.45
54.57
52.16
49.47
46.68
43.87
40.99
37.89
34.45
30.64
26.60
22.53
18.66
15.16
12.01
9.09
6.16
2.94
-0.78
-5.09
-9.91
-15.02
-20.07
-24.77
-29.04
-33.12
-37.56
-43.04
-50.07
-58.65
-68.07
-76.99
-83.71
-86.66
-84.89
-78.32
-67.75
-54.56
-40.32
-26.39
-13.71
-2.75
6.38
13.85
19.97
25.09
29.55
33.55
37.13
40.16
42.50
44.04
44.85
45.11
45.07
44.94
44.90
45.00
45.26
45.58
45.78
45.63
44.89
43.44
41.34
38.76
35.93
33.03
30.05
26.91
23.51
19.85
16.04
12.25
8.59
5.03
1.43
-2.39
-6.52
-10.92
-15.38
-19.66
-23.59
-27.11
-30.33
-33.50
-37.03
-41.35
-46.83
-53.47
-60.76
-67.56
-72.36
-73.66
-70.50
-62.86
-51.63
-38.35
-24.68
-11.94
-0.84
8.44
16.08
22.35
27.43
31.38
34.23
36.03
36.94
37.24
37.22
37.16
37.23
37.50
37.91
38.35
38.69
38.85
38.81
38.58
38.18
37.56
36.61
35.12
32.90
29.88
26.14
21.98
17.76
13.80
10.26
7.11
4.13
1.02
-2.50
-6.59
-11.20
-16.04
-20.77
-25.05
-28.75
-32.03
-35.25
-38.88
-43.32
-48.80
-55.34
-62.71
-70.35
-77.34
-82.44
-84.27
-81.80
-74.69
-63.52
-49.70
-34.98
-20.99
-8.80
1.20
9.20
15.65
21.05
25.78
30.00
33.77
37.06
39.78
41.84
43.19
43.82
43.81
43.32
42.62
42.01
41.77
42.02
42.69
43.51
44.11
44.11
43.31
41.66
39.27
36.33
33.02
29.47
25.73
21.80
17.69
13.47
9.21
5.02
1.01
-2.78
-6.41
-10.02
-13.79
-17.88
-22.30
-26.94
-31.58
-36.00
-40.09
-43.96
-47.95
-52.53
-58.17
-65.02
-72.70
-80.25
-86.22
-89.05
-87.57
-81.37
-71.01
-57.82
-43.50
-29.60
-17.18
-6.67
2.00
9.18
15.31
20.71
25.61
30.08
34.05
37.38
39.85
41.29
41.71
41.27
40.31
39.25
38.45
38.15
38.35
38.83
39.23
39.15
38.28
36.51
33.91
30.76
27.36
23.98
20.75
17.65
14.57
11.37
7.99
4.46
0.90
-2.55
-5.82
-8.91
-11.95
-15.12
-18.58
-22.36
-26.34
-30.32
-34.08
-37.53
-40.72
-43.86
-47.25
-51.24
-56.10
-61.87
-68.23
-74.34
-78.95
-80.63
-78.20
-71.28
-60.38
-46.92
-32.68
-19.27
-7.64
1.97
9.86
16.46
22.11
26.91
30.85
33.89
36.13
37.74
38.94
39.90
40.74
41.49
42.11
42.54
42.71
42.62
42.35
41.98
41.56
41.00
40.13
38.68
36.50
33.59
30.17
26.54
23.02
19.79
16.87
14.18
11.53
8.78
5.77
2.43
-1.22
-5.12
-9.12
-13.10
-16.95
-20.69
-24.42
-28.40
-32.94
-38.31
-44.63
-51.63
-58.55
-64.23
-67.33
-66.72
-61.92
-53.26
-41.83
-29.15
-16.65
-5.37
4.22
12.14
18.63
23.96
28.33
31.84
34.59
36.70
38.28
39.43
40.16
40.46
40.33
39.90
39.41
39.08
39.08
39.30
39.48
39.24
38.29
36.56
34.19
31.44
28.55
25.65
22.69
19.63
16.39
13.00
9.53
6.13
2.87
-0.21
-3.18
-6.17
-9.36
-12.90
-16.86
-21.18
-25.72
-30.27
-34.67
-38.91
-43.10
-47.55
-52.56
-58.44
-65.28
-72.81
-80.33
-86.68
-90.53
-90.62
-86.26
-77.55
-65.41
-51.36
-36.99
-23.61
-11.94
-2.11
6.16
13.26
19.52
25.05
29.82
33.76
36.84
39.13
40.78
41.92
42.62
42.90
42.79
42.37
41.84
41.43
41.34
41.57
41.88
41.91
41.28
39.83
37.65
35.04
32.38
29.92
27.67
25.43
22.91
19.92
16.45
12.68
8.90
5.30
1.95
-1.25
-4.52
-8.04
-11.93
-16.21
-20.77
-25.49
-30.17
-34.64
-38.83
-42.83
-47.01
-51.88
-57.92
-65.25
-73.37
-81.15
-87.05
-89.53
-87.58
-81.00
-70.50
-57.42
-43.37
-29.74
-17.46
-6.89
2.03
9.59
16.04
21.56
26.22
30.08
33.17
35.59
37.40
38.68
39.48
39.90
40.07
40.14
40.19
40.22
40.18
40.03
39.74
39.28
38.56
37.41
35.60
32.99
29.64
25.84
21.97
18.39
15.21
12.32
9.41
6.12
2.25
-2.21
-7.07
-12.01
-16.72
-21.01
-24.86
-28.43
-32.02
-35.99
-40.64
-46.16
-52.46
-59.09
-65.17
-69.50
-70.90
-68.55
-62.25
-52.58
-40.71
-28.03
-15.81
-4.91
4.30
11.83
17.94
22.88
26.88
29.96
32.10
33.26
33.52
33.11
32.36
31.56
30.88
30.38
30.04
29.88
29.96
30.31
30.84
31.28
31.21
30.27
28.23
25.17
21.39
17.31
13.32
9.60
6.12
2.69
-0.95
-5.02
-9.53
-14.34
-19.14
-23.62
-27.58
-31.06
-34.29
-37.71
-41.88
-47.24
-53.98
-61.81
-69.86
-76.75
-80.90
-81.02
-76.48
-67.52
-55.24
-41.18
-26.93
-13.76
-2.44
6.82
14.24
20.27
25.46
30.26
34.88
39.25
43.04
45.94
47.72
48.47
48.50
48.27
48.18
48.43
49.03
49.83
50.62
51.16
51.23
50.64
49.29
47.17
44.42
41.29
38.03
34.81
31.66
28.45
25.04
21.32
17.30
13.08
8.83
4.69
0.70
-3.20
-7.16
-11.33
-15.83
-20.63
-25.59
-30.50
-35.21
-39.67
-44.05
-48.70
-54.01
-60.32
-67.67
-75.64
-83.33
-89.41
-92.46
-91.35
-85.64
-75.74
-62.83
-48.52
-34.40
-21.64
-10.79
-1.78
5.80
12.53
18.85
24.92
30.65
35.77
39.97
43.09
45.14
46.27
46.76
46.85
46.81
46.86
47.15
47.76
48.57
49.33
49.68
49.27
47.94
45.78
43.08
40.18
37.33
34.56
31.76
28.77
25.49
21.97
18.38
14.89
11.62
8.53
5.44
2.10
-1.69
-6.05
-10.91
-16.04
-21.15
-25.94
-30.26
-34.16
-37.89
-41.90
-46.68
-52.60
-59.62
-67.23
-74.36
-79.62
-81.67
-79.60
-73.20
-63.09
-50.43
-36.72
-23.31
-11.16
-0.71
8.07
15.49
21.92
27.57
32.42
36.31
39.03
40.54
40.99
40.72
40.11
39.45
38.95
38.69
38.72
39.01
39.51
40.06
40.43
40.32
39.45
37.64
34.89
31.39
27.47
23.51
19.81
16.49
13.38
10.19
6.51
2.17
-2.76
-7.94
-12.89
-17.26
-20.98
-24.30
-27.77
-32.02
-37.56
-44.55
-52.73
-61.25
-68.86
-74.11
-75.69
-72.85
-65.64
-54.91
-42.06
-28.62
-15.83
-4.41
5.47
13.95
21.27
27.61
33.01
37.47
40.94
43.49
45.18
46.19
46.68
46.79
46.72
46.61
46.59
46.69
46.87
46.95
46.70
45.88
44.38
42.26
39.68
36.86
33.92
30.86
27.57
24.00
20.18
16.32
12.63
9.24
6.09
2.98
-0.32
-3.97
-8.00
-12.35
-16.99
-21.89
-27.06
-32.40
-37.73
-42.87
-47.71
-52.44
-57.43
-63.22
-70.07
-77.83
-85.64
-92.14
-95.77
-95.29
-90.19
-80.84
-68.41
-54.40
-40.31
-27.16
-15.48
-5.34
3.42
11.04
17.73
23.64
28.92
33.63
37.79
41.35
44.21
46.33
47.72
48.53
48.95
49.26
49.66
50.24
50.96
51.63
52.00
51.80
50.88
49.21
46.86
44.00
40.75
37.23
33.50
29.66
25.80
22.00
18.24
14.43
10.38
5.90
0.94
-4.40
-9.86
-15.14
-20.02
-24.46
-28.61
-32.78
-37.39
-42.82
-49.31
-56.82
-64.91
-72.68
-78.90
-82.26
-81.73
-76.95
-68.26
-56.73
-43.75
-30.63
-18.38
-7.43
2.16
10.62
18.20
25.08
31.32
36.83
41.46
45.04
47.47
48.74
48.98
48.44
47.42
46.23
45.16
44.44
44.20
44.45
45.05
45.66
45.83
45.14
43.35
40.50
36.92
33.03
29.21
25.59
22.05
18.32
14.21
9.69
4.97
0.35
-3.92
-7.76
-11.35
-15.03
-19.21
-24.23
-30.22
-36.96
-43.81
-49.75
-53.59
-54.27
-51.22
-44.58
-35.14
-24.11
-12.73
-1.91
7.81
16.30
23.60
29.79
34.93
39.05
42.16
44.30
45.49
45.76
45.16
43.84
42.01
39.95
37.85
35.79
33.67
31.28
28.42
24.96
20.84
16.11
10.83
5.04
-1.14
-7.55
-13.91
-19.90
-25.15
-29.47
-32.78
-35.20
-37.02
-38.61
-40.43
-42.89
-46.28
-50.56
-55.31
-59.67
-62.58
-63.02
-60.38
-54.60
-46.23
-36.19
-25.52
-15.15
-5.75
2.25
8.72
13.71
17.46
20.27
22.38
23.89
24.79
25.01
24.57
23.67
22.62
21.75
21.28
21.21
21.38
21.58
21.58
21.20
20.31
18.83
16.74
14.18
11.37
8.60
6.10
3.93
1.98
0.03
-2.21
-4.98
-8.51
-12.91
-18.05
-23.50
-28.41
-31.69
-32.29
-29.69
-24.03
-16.16
-7.29
1.50
9.50
16.51
22.66
28.09
32.82
36.64
39.25
40.39
39.97
38.09
35.04
31.20
26.98
22.77
18.92
15.71
13.27
11.60
10.44
9.42
8.06
5.99
3.05
-0.67
-4.84
-9.12
-13.24
-17.16
-21.03
-25.18
-29.93
-35.44
-41.55
-47.67
-52.90
-56.20
-56.72
-54.04
-48.34
-40.33
-31.08
-21.65
-12.95
-5.50
0.50
5.18
8.83
11.77
14.21
16.20
17.65
18.42
18.44
17.77
16.66
15.36
14.14
13.13
12.38
11.88
11.50
11.08
10.35
9.02
6.87
3.85
0.10
-4.09
-8.40
-12.65
-16.82
-21.07
-25.67
-30.87
-36.79
-43.17
-49.39
-54.47
-57.34
-57.22
-53.88
-47.73
-39.71
-30.88
-22.07
-13.77
-6.07
1.10
7.82
14.07
19.72
24.61
28.57
31.48
33.24
33.89
33.60
32.69
31.52
30.36
29.30
28.20
26.90
25.25
23.24
20.97
18.48
15.73
12.56
8.76
4.31
-0.66
-5.86
-10.95
-15.68
-19.92
-23.71
-27.17
-30.55
-34.20
-38.53
-43.84
-50.12
-56.85
-63.01
-67.35
-68.78
-66.77
-61.55
-53.95
-45.07
-35.88
-26.94
-18.45
-10.32
-2.51
4.95
11.92
18.24
23.85
28.80
33.16
36.94
39.98
42.07
42.95
42.58
41.12
39.02
36.81
34.94
33.66
32.95
32.61
32.35
31.91
31.04
29.59
27.44
24.60
21.21
17.54
13.80
10.11
6.36
2.36
-2.06
-6.92
-12.01
-17.06
-21.87
-26.42
-30.84
-35.35
-40.08
-45.07
-50.26
-55.55
-60.76
-65.60
-69.51
-71.80
-71.77
-68.97
-63.42
-55.58
-46.26
-36.30
-26.36
-16.81
-7.75
0.87
9.11
17.08
24.77
32.13
38.98
45.02
49.87
53.19
54.87
55.02
54.03
52.45
50.82
49.53
48.74
48.38
48.25
48.10
47.68
46.74
45.12
42.69
39.44
35.52
31.19
26.77
22.50
18.43
14.36
10.00
5.07
-0.44
-6.25
-11.87
-16.80
-20.75
-23.79
-26.28
-28.71
-31.48
-34.63
-37.81
-40.25
-41.01
-39.19
-34.27
-26.29
-15.97
-4.55
6.56
16.14
23.44
28.33
31.08
32.27
32.45
32.11
31.59
31.07
30.67
30.30
29.82
28.96
27.53
25.44
22.77
19.78
16.76
13.94
11.44
9.29
7.40
5.70
4.12
2.65
1.25
-0.12
-1.52
-3.07
-4.80
-6.75
-8.85
-11.07
-13.37
-15.83
-18.55
-21.65
-25.22
-29.26
-33.64
-38.06
-42.02
-44.90
-46.05
-45.07
-41.91
-36.94
-30.87
-24.44
-18.25
-12.68
-7.89
-3.92
-0.75
1.65
3.45
4.83
6.01
7.05
7.86
8.23
7.95
6.93
5.29
3.25
1.09
-0.95
-2.68
-4.01
-4.86
-5.26
-5.35
-5.38
-5.57
-6.07
-6.83
-7.68
-8.36
-8.73
-8.81
-8.80
-9.02
-9.84
-11.52
-14.23
-17.84
-21.98
-26.01
-29.11
-30.56
-29.90
-27.18
-22.89
-17.86
-12.94
-8.74
-5.46
-2.95
-0.88
1.03
2.88
4.56
5.93
6.92
7.63
8.23
8.85
9.42
9.74
9.54
8.73
7.47
6.10
5.02
4.43
4.34
4.50
4.58
4.24
3.31
1.74
-0.31
-2.58
-4.78
-6.69
-8.24
-9.53
-10.84
-12.47
-14.56
-17.00
-19.38
-21.03
-21.32
-19.77
-16.35
-11.43
-5.69
0.10
5.31
9.61
12.91
15.34
17.09
18.30
19.06
19.42
19.41
19.12
18.68
18.23
17.95
17.95
18.26
18.84
19.60
20.40
21.15
21.76
22.19
22.36
22.22
21.66
20.63
19.06
16.93
14.32
11.40
8.47
5.84
3.71
2.10
0.77
-0.73
-2.90
-6.06
-10.27
-15.27
-20.45
-25.07
-28.34
-29.70
-28.95
-26.32
-22.42
-18.09
-14.10
-11.01
-8.98
-7.89
-7.41
-7.18
-6.90
-6.34
-5.40
-4.05
-2.38
-0.54
1.27
2.89
4.20
5.21
5.96
6.49
6.85
7.06
7.16
7.18
7.14
7.00
6.61
5.79
4.38
2.38
-0.06
-2.58
-4.82
-6.56
-7.79
-8.71
-9.63
-10.79
-12.34
-14.24
-16.34
-18.47
-20.49
-22.33
-24.00
-25.60
-27.28
-29.20
-31.44
-33.94
-36.43
-38.45
-39.41
-38.76
-36.14
-31.54
-25.29
-18.06
-10.64
-3.78
2.04
6.64
10.19
13.02
15.48
17.80
20.03
22.12
23.95
25.50
26.80
27.98
29.14
30.35
31.61
32.87
34.11
35.31
36.43
37.48
38.41
39.14
39.65
39.93
40.03
40.04
40.04
40.06
40.08
40.00
39.65
38.82
37.30
34.94
31.72
27.76
23.26
18.48
13.60
8.81
4.17
-0.19
-4.23
-7.95
-11.45
-14.97
-18.73
-22.79
-26.86
-30.36
-32.62
-33.10
-31.63
-28.44
-24.04
-19.02
-13.86
-8.96
-4.58
-0.91
1.89
3.81
4.91
5.37
5.37
5.05
4.47
3.64
2.60
1.48
0.42
-0.41
-0.90
-1.10
-1.15
-1.22
-1.43
-1.85
-2.39
-2.96
-3.50
-4.10
-4.97
-6.33
-8.31
-10.79
-13.49
-16.05
-18.17
-19.80
-21.04
-22.14
-23.29
-24.67
-26.38
-28.51
-31.18
-34.45
-38.16
-41.89
-44.96
-46.54
-45.99
-43.04
-37.96
-31.41
-24.27
-17.26
-10.83
-5.14
-0.18
4.05
7.44
9.86
11.24
11.71
11.55
11.08
10.52
9.94
9.32
8.59
7.78
7.00
6.32
5.72
5.03
4.07
2.68
0.86
-1.21
-3.27
-5.09
-6.53
-7.60
-8.44
-9.21
-10.02
-10.90
-11.77
-12.51
-13.05
-13.43
-13.83
-14.50
-15.78
-17.91
-20.94
-24.62
-28.38
-31.38
-32.73
-31.78
-28.32
-22.71
-15.71
-8.26
-1.20
4.99
10.13
14.30
17.68
20.35
22.36
23.73
24.49
24.72
24.53
24.05
23.40
22.68
22.00
21.43
21.05
20.87
20.83
20.77
20.49
19.76
18.45
16.56
14.25
11.77
9.37
7.13
5.00
2.76
0.23
-2.68
-5.92
-9.28
-12.56
-15.61
-18.43
-21.15
-24.02
-27.29
-31.14
-35.61
-40.50
-45.30
-49.27
-51.53
-51.35
-48.38
-42.83
-35.40
-27.08
-18.78
-11.14
-4.46
1.26
6.04
9.94
12.89
14.89
15.99
16.35
16.15
15.55
14.70
13.68
12.64
11.74
11.17
11.05
11.37
11.99
12.66
13.11
13.14
12.66
11.71
10.45
9.05
7.66
6.30
4.88
3.24
1.25
-1.12
-3.81
-6.67
-9.57
-12.43
-15.25
-18.14
-21.25
-24.84
-29.17
-34.41
-40.40
-46.57
-51.89
-55.17
-55.47
-52.45
-46.52
-38.67
-30.13
-21.98
-14.83
-8.86
-3.91
0.27
3.94
7.20
10.04
12.38
14.14
15.26
15.84
16.09
16.29
16.68
17.38
18.33
19.36
20.26
20.83
20.96
20.63
19.84
18.69
17.26
15.61
13.75
11.68
9.35
6.79
4.07
1.34
-1.26
-3.63
-5.85
-8.08
-10.60
-13.71
-17.64
-22.44
-27.84
-33.16
-37.35
-39.31
-38.18
-33.67
-26.23
-16.86
-6.76
3.03
11.91
19.62
26.16
31.55
35.78
38.80
40.64
41.47
41.54
41.18
40.68
40.27
40.10
40.24
40.60
41.04
41.31
41.22
40.66
39.62
38.14
36.19
33.64
30.25
25.83
20.37
14.14
7.60
1.23
-4.62
-9.89
-14.74
-19.47
-24.32
-29.47
-34.91
-40.53
-46.00
-50.77
-54.08
-55.10
-53.15
-48.00
-39.97
-29.92
-19.02
-8.38
1.20
9.34
16.08
21.59
26.07
29.61
32.15
33.63
34.09
33.73
32.85
31.82
30.92
30.26
29.79
29.37
28.83
28.07
27.08
25.93
24.67
23.33
21.89
20.25
18.32
15.95
13.07
9.69
5.82
1.60
-2.83
-7.31
-11.73
-16.03
-20.23
-24.36
-28.59
-33.10
-38.16
-43.90
-50.22
-56.50
-61.73
-64.64
-64.16
-59.78
-51.79
-41.17
-29.26
-17.39
-6.52
2.88
10.76
17.29
22.75
27.31
31.11
34.14
36.41
37.88
38.60
38.69
38.31
37.63
36.84
36.08
35.47
35.14
35.11
35.31
35.55
35.51
34.84
33.27
30.71
27.30
23.42
19.53
16.04
13.13
10.63
8.18
5.33
1.80
-2.37
-6.83
-11.12
-14.96
-18.38
-21.80
-25.81
-30.93
-37.33
-44.74
-52.42
-59.34
-64.35
-66.43
-64.96
-59.88
-51.75
-41.61
-30.66
-19.95
-10.16
-1.59
5.78
12.07
17.40
21.90
25.66
28.76
31.24
33.08
34.22
34.70
34.66
34.45
34.48
35.08
36.33
38.00
39.70
40.94
41.32
40.66
38.93
36.37
33.27
29.98
26.74
23.57
20.32
16.72
12.47
7.49
1.91
-3.90
-9.51
-14.61
-19.19
-23.59
-28.37
-34.04
-40.89
-48.65
-56.50
-63.14
-67.08
-66.89
-61.67
-51.34
-36.89
-20.33
-4.17
9.29
18.70
24.06
26.52
27.71
28.92
30.62
32.47
33.83
34.24
33.81
33.05
32.53
32.55
33.04
33.72
34.32
34.75
34.99
35.11
35.08
34.75
33.91
32.35
29.96
26.72
22.79
18.43
13.98
9.72
5.82
2.24
-1.25
-4.96
-9.14
-13.89
-19.11
-24.60
-30.24
-36.09
-42.35
-49.15
-56.19
-62.61
-67.11
-68.32
-65.39
-58.36
-48.19
-36.43
-24.67
-14.01
-4.91
2.75
9.33
15.18
20.43
25.07
29.00
32.11
34.35
35.68
36.13
35.83
34.99
33.89
32.84
32.03
31.55
31.31
31.07
30.55
29.52
27.86
25.58
22.85
19.84
16.76
13.68
10.59
7.38
3.92
0.14
-3.96
-8.28
-12.69
-17.03
-21.23
-25.37
-29.67
-34.48
-40.05
-46.43
-53.22
-59.50
-64.02
-65.54
-63.20
-56.89
-47.29
-35.71
-23.63
-12.32
-2.55
5.48
11.95
17.20
21.56
25.22
28.28
30.78
32.72
34.10
34.89
35.11
34.82
34.16
33.31
32.45
31.66
30.94
30.16
29.19
27.93
26.35
24.49
22.31
19.76
16.71
13.09
8.93
4.45
-0.10
-4.48
-8.62
-12.65
-16.83
-21.41
-26.60
-32.50
-39.10
-46.25
-53.60
-60.50
-65.99
-69.00
-68.67
-64.59
-57.06
-46.94
-35.39
-23.49
-12.02
-1.45
7.94
15.89
22.14
26.50
28.96
29.80
29.49
28.62
27.68
26.98
26.63
26.55
26.54
26.41
26.04
25.41
24.61
23.68
22.65
21.36
19.58
17.01
13.54
9.24
4.41
-0.49
-5.05
-9.01
-12.36
-15.37
-18.46
-22.14
-26.78
-32.51
-39.09
-45.90
-51.97
-56.14
-57.31
-54.80
-48.50
-39.04
-27.54
-15.33
-3.58
6.93
15.88
23.30
29.35
34.24
38.07
40.89
42.69
43.49
43.41
42.66
41.56
40.45
39.60
39.08
38.80
38.55
38.10
37.30
36.11
34.57
32.73
30.57
28.01
24.91
21.19
16.90
12.26
7.62
3.28
-0.61
-4.10
-7.46
-11.02
-15.11
-19.93
-25.58
-32.04
-39.04
-46.04
-52.17
-56.33
-57.46
-54.89
-48.63
-39.40
-28.44
-17.13
-6.59
2.51
10.02
16.11
21.11
25.32
28.92
32.01
34.56
36.50
37.79
38.39
38.40
37.99
37.43
36.97
36.80
36.96
37.31
37.56
37.34
36.36
34.52
31.96
28.98
25.95
23.07
20.31
17.42
14.14
10.29
5.94
1.37
-3.09
-7.19
-10.86
-14.24
-17.60
-21.35
-25.91
-31.58
-38.37
-45.80
-52.82
-57.91
-59.50
-56.54
-48.93
-37.69
-24.61
-11.72
-0.55
8.22
14.73
19.63
23.67
27.32
30.73
33.74
36.15
37.81
38.70
38.91
38.58
37.86
36.85
35.68
34.49
33.49
32.87
32.74
32.96
33.13
32.71
31.19
28.39
24.54
20.25
16.20
12.83
10.13
7.71
5.02
1.67
-2.39
-6.85
-11.25
-15.20
-18.62
-21.71
-24.87
-28.58
-33.14
-38.58
-44.58
-50.38
-54.92
-57.04
-55.83
-50.93
-42.69
-32.11
-20.54
-9.30
0.67
8.91
15.44
20.50
24.41
27.36
29.49
30.88
31.59
31.74
31.40
30.72
29.80
28.78
27.78
26.89
26.17
25.57
25.03
24.40
23.57
22.44
20.95
19.10
16.92
14.53
12.01
9.41
6.72
3.86
0.74
-2.66
-6.27
-9.94
-13.53
-16.95
-20.27
-23.66
-27.42
-31.80
-36.95
-42.69
-48.49
-53.39
-56.30
-56.25
-52.78
-46.09
-37.03
-26.81
-16.62
-7.34
0.57
7.03
12.16
16.16
19.17
21.34
22.81
23.75
24.34
24.70
24.89
24.89
24.61
24.02
23.18
22.25
21.46
20.97
20.77
20.65
20.24
19.19
17.32
14.68
11.53
8.22
5.00
2.00
-0.84
-3.67
-6.63
-9.77
-12.99
-16.18
-19.20
-21.98
-24.60
-27.21
-30.12
-33.63
-37.96
-43.05
-48.41
-53.08
-55.86
-55.64
-51.80
-44.52
-34.73
-23.79
-13.10
-3.66
4.12
10.25
15.04
18.84
21.89
24.40
26.46
28.15
29.50
30.45
30.93
30.86
30.29
29.37
28.36
27.51
26.94
26.65
26.51
26.32
25.85
24.92
23.41
21.36
18.89
16.23
13.56
11.03
8.58
6.04
3.16
-0.18
-3.93
-7.89
-11.75
-15.28
-18.42
-21.33
-24.31
-27.72
-31.84
-36.73
-42.13
-47.40
-51.59
-53.64
-52.67
-48.32
-40.89
-31.28
-20.75
-10.50
-1.43
6.05
11.95
16.47
19.86
22.33
23.96
24.80
24.91
24.43
23.56
22.53
21.51
20.61
19.84
19.16
18.53
17.90
17.27
16.61
15.89
15.02
13.94
12.56
10.77
8.53
5.82
2.71
-0.59
-3.88
-6.99
-9.82
-12.41
-14.86
-17.28
-19.79
-22.58
-25.82
-29.68
-34.06
-38.53
-42.26
-44.22
-43.49
-39.68
-33.05
-24.48
-15.14
-6.17
1.63
7.94
12.84
16.56
19.33
21.24
22.25
22.35
21.63
20.41
19.05
17.90
17.14
16.75
16.61
16.61
16.62
16.63
16.57
16.36
15.90
15.07
13.77
11.96
9.61
6.76
3.50
-0.06
-3.74
-7.37
-10.85
-14.14
-17.30
-20.46
-23.83
-27.67
-32.23
-37.57
-43.39
-48.97
-53.26
-55.14
-53.86
-49.22
-41.71
-32.34
-22.30
-12.63
-4.01
3.23
9.10
13.70
17.14
19.49
20.82
21.24
20.99
20.38
19.73
19.27
19.03
18.94
18.85
18.66
18.36
18.00
17.68
17.39
17.11
16.67
15.92
14.65
12.69
9.95
6.45
2.43
-1.76
-5.73
-9.22
-12.17
-14.77
-17.37
-20.35
-24.03
-28.57
-33.85
-39.43
-44.55
-48.18
-49.31
-47.27
-41.99
-34.08
-24.63
-14.83
-5.70
2.20
8.71
13.96
18.18
21.62
24.43
26.73
28.55
29.84
30.52
30.49
29.83
28.74
27.54
26.57
25.99
25.80
25.78
25.67
25.27
24.47
23.28
21.74
19.90
17.80
15.49
12.99
10.32
7.42
4.27
0.89
-2.59
-6.04
-9.32
-12.43
-15.52
-18.80
-22.51
-26.78
-31.61
-36.79
-41.89
-46.22
-48.86
-48.90
-45.72
-39.30
-30.36
-20.12
-9.98
-1.07
6.08
11.48
15.50
18.59
21.00
22.78
23.88
24.29
24.11
23.58
22.99
22.57
22.41
22.46
22.62
22.72
22.68
22.45
22.05
21.52
20.85
20.00
18.87
17.34
15.31
12.74
9.68
6.25
2.67
-0.83
-4.09
-7.06
-9.85
-12.67
-15.80
-19.56
-24.11
-29.37
-34.92
-39.92
-43.32
-44.15
-41.85
-36.50
-28.80
-19.89
-10.91
-2.72
4.31
10.15
15.00
19.01
22.20
24.54
25.97
26.56
26.49
26.00
25.33
24.61
23.89
23.20
22.57
22.09
21.85
21.84
21.93
21.88
21.42
20.33
18.57
16.26
13.65
11.02
8.59
6.46
4.56
2.69
0.58
-1.98
-5.05
-8.53
-12.12
-15.57
-18.69
-21.46
-24.11
-26.96
-30.37
-34.60
-39.59
-44.92
-49.74
-52.97
-53.57
-50.96
-45.18
-36.98
-27.50
-17.94
-9.21
-1.71
4.52
9.67
14.01
17.65
20.67
23.05
24.81
25.96
26.58
26.75
26.62
26.32
25.97
25.64
25.34
25.04
24.67
24.20
23.60
22.87
21.99
20.91
19.56
17.92
16.00
13.91
11.78
9.70
7.66
5.53
3.15
0.42
-2.68
-6.02
-9.33
-12.39
-15.05
-17.30
-19.25
-21.10
-23.19
-25.83
-29.30
-33.63
-38.52
-43.18
-46.53
-47.51
-45.44
-40.36
-33.00
-24.53
-16.09
-8.50
-2.07
3.27
7.73
11.50
14.68
17.26
19.24
20.61
21.38
21.59
21.32
20.71
19.97
19.26
18.71
18.32
18.06
17.86
17.65
17.34
16.82
15.97
14.68
12.91
10.77
8.41
6.05
3.78
1.63
-0.51
-2.79
-5.27
-7.89
-10.49
-12.89
-14.97
-16.74
-18.37
-20.11
-22.30
-25.18
-28.87
-33.14
-37.41
-40.73
-42.10
-40.76
-36.57
-30.05
-22.25
-14.30
-7.09
-1.05
3.82
7.72
10.84
13.30
15.14
16.43
17.26
17.70
17.80
17.56
17.01
16.25
15.47
14.81
14.35
14.01
13.67
13.23
12.68
12.12
11.63
11.15
10.47
9.31
7.45
4.87
1.81
-1.35
-4.26
-6.76
-8.90
-10.89
-12.97
-15.26
-17.74
-20.34
-23.05
-25.93
-29.13
-32.64
-36.15
-38.96
-40.18
-39.00
-35.09
-28.78
-20.95
-12.71
-5.06
1.44
6.66
10.75
14.01
16.61
18.66
20.21
21.30
21.98
22.27
22.21
21.79
21.01
19.96
18.73
17.47
16.31
15.38
14.74
14.39
14.22
13.98
13.36
12.11
10.19
7.81
5.37
3.28
1.73
0.64
-0.35
-1.68
-3.65
-6.30
-9.39
-12.52
-15.33
-17.62
-19.40
-20.85
-22.30
-24.11
-26.60
-29.94
-34.01
-38.40
-42.31
-44.81
-45.00
-42.42
-37.19
-30.00
-21.93
-14.04
-7.12
-1.49
2.97
6.60
9.82
12.88
15.84
18.57
20.86
22.50
23.42
23.72
23.59
23.28
22.98
22.78
22.68
22.65
22.64
22.64
22.60
22.41
21.95
21.04
19.66
17.83
15.71
13.52
11.45
9.64
8.10
6.75
5.38
3.78
1.71
-0.88
-3.86
-6.94
-9.78
-12.14
-14.01
-15.58
-17.25
-19.37
-22.24
-25.93
-30.28
-34.82
-38.82
-41.37
-41.62
-39.05
-33.69
-26.20
-17.70
-9.39
-2.17
3.53
7.82
11.14
13.92
16.50
18.94
21.17
23.01
24.32
25.05
25.23
24.97
24.46
23.87
23.38
23.13
23.17
23.41
23.67
23.65
23.08
21.81
19.87
17.53
15.15
13.00
11.20
9.60
7.93
5.92
3.47
0.66
-2.28
-5.07
-7.49
-9.50
-11.21
-12.89
-14.90
-17.56
-21.08
-25.33
-29.79
-33.62
-35.83
-35.63
-32.75
-27.55
-20.90
-13.89
-7.47
-2.18
1.92
5.10
7.73
10.07
12.16
13.89
15.09
15.65
15.64
15.20
14.57
13.89
13.24
12.60
11.91
11.14
10.32
9.52
8.80
8.09
7.24
6.12
4.63
2.83
0.84
-1.22
-3.29
-5.39
-7.60
-9.94
-12.37
-14.80
-17.11
-19.22
-21.18
-23.09
-25.13
-27.46
-30.13
-32.97
-35.55
-37.19
-37.21
-35.16
-31.05
-25.34
-18.81
-12.24
-6.20
-0.93
3.58
7.42
10.64
13.23
15.22
16.67
17.76
18.60
19.22
19.50
19.33
18.66
17.62
16.50
15.56
15.02
14.86
14.94
15.04
14.97
14.61
13.91
12.85
11.46
9.83
8.08
6.38
4.82
3.37
1.86
0.06
-2.17
-4.83
-7.75
-10.64
-13.23
-15.39
-17.16
-18.77
-20.57
-22.88
-25.94
-29.73
-33.88
-37.68
-40.20
-40.58
-38.33
-33.54
-26.91
-19.50
-12.36
-6.24
-1.42
2.25
5.15
7.65
10.02
12.30
14.43
16.25
17.65
18.53
18.92
18.90
18.59
18.11
17.55
16.99
16.51
16.19
16.03
16.05
16.12
16.06
15.68
14.84
13.58
12.06
10.49
9.04
7.75
6.51
5.18
3.68
2.03
0.34
-1.24
-2.66
-3.97
-5.32
-6.85
-8.68
-10.79
-13.10
-15.50
-17.85
-20.06
-22.12
-24.14
-26.35
-29.02
-32.32
-36.11
-39.89
-42.85
-44.07
-42.92
-39.28
-33.56
-26.61
-19.38
-12.59
-6.67
-1.71
2.40
5.85
8.81
11.48
13.99
16.38
18.62
20.52
21.86
22.47
22.35
21.66
20.72
19.84
19.22
18.92
18.85
18.85
18.79
18.59
18.22
17.65
16.83
15.65
14.02
11.92
9.46
6.91
4.57
2.71
1.37
0.37
-0.65
-2.05
-4.02
-6.50
-9.21
-11.78
-13.96
-15.65
-17.03
-18.33
-19.84
-21.81
-24.41
-27.73
-31.69
-35.93
-39.78
-42.26
-42.50
-39.95
-34.73
-27.59
-19.64
-12.00
-5.41
-0.17
3.86
6.98
9.51
11.63
13.41
14.87
16.01
16.84
17.39
17.67
17.66
17.40
16.95
16.44
16.05
15.97
16.31
17.00
17.80
18.32
18.23
17.36
15.75
13.66
11.39
9.18
7.10
5.12
3.10
0.89
-1.56
-4.23
-7.01
-9.80
-12.43
-14.81
-16.90
-18.85
-20.93
-23.52
-26.90
-31.12
-35.80
-40.20
-43.36
-44.43
-42.93
-38.91
-32.94
-25.88
-18.56
-11.62
-5.45
-0.20
4.10
7.53
10.25
12.51
14.54
16.48
18.32
19.88
20.95
21.40
21.28
20.81
20.24
19.79
19.48
19.27
19.09
18.86
18.56
18.13
17.46
16.43
14.95
13.08
11.02
9.05
7.39
6.06
4.90
3.57
1.79
-0.58
-3.45
-6.62
-9.78
-12.73
-15.36
-17.69
-19.90
-22.24
-25.05
-28.65
-33.15
-38.36
-43.65
-48.10
-50.73
-50.79
-48.05
-42.80
-35.79
-27.94
-20.09
-12.84
-6.50
-1.13
3.36
7.12
10.33
13.21
15.93
18.62
21.24
23.63
25.57
26.82
27.32
27.16
26.58
25.86
25.18
24.67
24.33
24.14
23.99
23.76
23.25
22.23
20.59
18.36
15.79
13.23
11.00
9.24
7.85
6.54
4.97
2.90
0.25
-2.83
-6.08
-9.21
-12.10
-14.81
-17.66
-21.03
-25.25
-30.44
-36.31
-42.22
-47.25
-50.45
-51.09
-48.87
-44.00
-37.10
-29.11
-20.95
-13.38
-6.91
-1.66
2.51
5.92
8.96
11.93
14.93
17.81
20.31
22.14
23.17
23.48
23.30
22.92
22.55
22.29
22.13
21.99
21.83
21.59
21.22
20.66
19.75
18.32
16.21
13.37
9.89
6.03
2.16
-1.37
-4.35
-6.77
-8.86
-10.93
-13.35
-16.43
-20.37
-25.15
-30.47
-35.71
-39.98
-42.34
-42.04
-38.86
-33.17
-25.85
-17.93
-10.28
-3.39
2.65
7.99
12.77
16.94
20.32
22.68
23.93
24.21
23.85
23.26
22.74
22.39
22.12
21.76
21.22
20.55
19.90
19.45
19.22
19.04
18.59
17.46
15.38
12.29
8.37
4.02
-0.38
-4.54
-8.40
-12.05
-15.73
-19.68
-24.08
-29.05
-34.53
-40.26
-45.73
-50.19
-52.80
-52.87
-50.10
-44.76
-37.59
-29.60
-21.72
-14.59
-8.45
-3.31
0.90
4.16
6.39
7.62
8.12
8.44
9.27
11.15
14.30
18.45
23.04
27.45
31.25
34.34
36.84
38.88
40.44
41.30
41.24
40.14
38.22
35.91
33.73
32.06
31.01
30.39
29.85
28.94
27.35
24.90
21.64
17.75
13.54
9.29
5.22
1.40
-2.27
-6.04
-10.26
-15.25
-21.12
-27.67
-34.25
-39.88
-43.47
-44.14
-41.56
-36.03
-28.36
-19.60
-10.67
-2.25
5.34
11.99
17.74
22.65
26.83
30.34
33.19
35.36
36.81
37.56
37.87
38.06
38.48
39.24
40.16
40.85
40.92
40.26
39.02
37.60
36.28
35.07
33.67
31.58
28.41
24.05
18.67
12.67
6.49
0.50
-5.11
-10.28
-15.07
-19.74
-24.57
-29.88
-35.85
-42.30
-48.70
-54.06
-57.15
-56.78
-52.28
-43.79
-32.34
-19.64
-7.54
2.54
9.98
14.99
18.33
20.80
22.90
24.72
26.07
26.79
26.92
26.70
26.43
26.29
26.25
26.14
25.74
24.99
24.01
23.00
22.20
21.70
21.41
21.06
20.24
18.58
15.87
12.24
8.07
3.97
0.44
-2.29
-4.44
-6.52
-9.16
-12.79
-17.56
-23.20
-29.16
-34.73
-39.09
-41.47
-41.28
-38.28
-32.67
-25.14
-16.65
-8.20
-0.57
5.88
11.15
15.42
18.91
21.63
23.50
24.38
24.26
23.38
22.18
21.12
20.53
20.46
20.67
20.83
20.65
20.06
19.18
18.20
17.26
16.32
15.19
13.63
11.47
8.68
5.43
1.97
-1.41
-4.52
-7.32
-9.92
-12.56
-15.49
-18.96
-23.10
-27.91
-33.08
-38.02
-41.85
-43.63
-42.59
-38.50
-31.74
-23.22
-14.14
-5.59
1.77
7.73
12.43
16.17
19.15
21.47
23.12
24.11
24.52
24.54
24.33
24.03
23.65
23.18
22.58
21.96
21.49
21.33
21.53
21.91
22.15
21.85
20.77
18.89
16.41
13.67
11.00
8.60
6.45
4.39
2.21
-0.28
-3.16
-6.36
-9.70
-12.94
-15.90
-18.53
-20.94
-23.39
-26.20
-29.72
-34.14
-39.44
-45.20
-50.58
-54.44
-55.67
-53.56
-48.10
-40.07
-30.69
-21.27
-12.73
-5.44
0.67
5.93
10.67
15.01
18.95
22.40
25.24
27.35
28.73
29.41
29.53
29.33
29.06
28.87
28.81
28.81
28.75
28.53
28.12
27.53
26.80
25.90
24.78
23.38
21.67
19.67
17.43
15.01
12.50
9.96
7.43
4.96
2.55
0.17
-2.27
-4.90
-7.83
-11.08
-14.57
-18.13
-21.54
-24.67
-27.51
-30.23
-33.10
-36.48
-40.65
-45.63
-51.04
-56.10
-59.72
-60.88
-58.91
-53.77
-46.12
-37.01
-27.60
-18.78
-11.02
-4.42
1.09
5.73
9.69
13.18
16.38
19.37
22.10
24.40
26.08
27.09
27.56
27.76
27.98
28.36
28.84
29.25
29.42
29.27
28.86
28.30
27.64
26.84
25.75
24.23
22.21
19.77
17.10
14.45
12.07
10.04
8.33
6.72
4.95
2.76
0.07
-3.04
-6.33
-9.54
-12.46
-15.03
-17.35
-19.65
-22.20
-25.27
-29.04
-33.50
-38.39
-43.08
-46.67
-48.21
-47.04
-42.99
-36.50
-28.48
-19.99
-11.95
-4.95
0.84
5.46
9.15
12.14
14.65
16.79
18.61
20.09
21.17
21.80
21.98
21.78
21.35
20.84
20.43
20.21
20.24
20.49
20.86
21.16
21.17
20.71
19.64
17.97
15.87
13.56
11.27
9.15
7.21
5.32
3.29
0.93
-1.82
-4.85
-7.99
-10.98
-13.66
-15.96
-17.98
-19.93
-22.13
-24.93
-28.62
-33.30
-38.72
-44.19
-48.70
-51.12
-50.62
-47.00
-40.72
-32.76
-24.25
-16.10
-8.78
-2.41
3.06
7.70
11.56
14.65
17.07
19.01
20.64
22.03
23.11
23.80
24.05
23.93
23.61
23.27
23.01
22.83
22.73
22.68
22.69
22.69
22.48
21.85
20.53
18.46
15.78
12.78
9.79
7.06
4.66
2.50
0.41
-1.76
-4.12
-6.74
-9.64
-12.76
-16.03
-19.27
-22.33
-25.07
-27.51
-29.77
-32.20
-35.22
-39.22
-44.29
-50.06
-55.65
-59.84
-61.45
-59.73
-54.59
-46.70
-37.22
-27.44
-18.38
-10.61
-4.21
1.10
5.73
9.99
14.07
17.92
21.40
24.32
26.54
28.03
28.86
29.12
28.97
28.57
28.03
27.49
27.03
26.75
26.67
26.73
26.79
26.62
25.96
24.64
22.61
20.03
17.14
14.23
11.48
8.98
6.70
4.50
2.25
-0.19
-2.94
-6.01
-9.38
-12.93
-16.49
-19.95
-23.21
-26.34
-29.46
-32.81
-36.64
-41.18
-46.51
-52.39
-58.14
-62.77
-65.13
-64.40
-60.34
-53.40
-44.64
-35.27
-26.34
-18.51
-11.97
-6.57
-2.02
1.96
5.57
8.87
11.85
14.40
16.38
17.71
18.38
18.51
18.29
17.95
17.65
17.45
17.33
17.14
16.75
16.10
15.18
14.06
12.81
11.41
9.81
7.88
5.55
2.80
-0.31
-3.62
-6.99
-10.30
-13.48
-16.51
-19.42
-22.34
-25.48
-29.13
-33.47
-38.46
-43.66
-48.24
-51.14
-51.41
-48.52
-42.62
-34.43
-25.04
-15.53
-6.72
0.99
7.55
13.11
17.85
21.89
25.25
27.91
29.82
31.05
31.73
32.01
32.08
32.03
32.00
32.02
32.13
32.28
32.36
32.20
31.63
30.57
29.01
27.07
24.85
22.40
19.70
16.70
13.36
9.68
5.70
1.49
-2.88
-7.30
-11.58
-15.52
-18.99
-22.12
-25.28
-28.99
-33.67
-39.32
-45.32
-50.53
-53.58
-53.38
-49.45
-42.14
-32.44
-21.68
-11.08
-1.48
6.77
13.73
19.69
24.95
29.69
33.95
37.67
40.75
43.11
44.72
45.55
45.64
45.07
44.05
42.86
41.82
41.17
40.99
41.10
41.13
40.64
39.27
36.93
33.81
30.31
26.88
23.86
21.32
19.11
16.96
14.59
11.78
8.52
4.89
1.06
-2.79
-6.53
-10.11
-13.60
-17.17
-21.15
-25.80
-31.22
-37.08
-42.59
-46.62
-48.04
-46.13
-40.89
-33.08
-23.98
-14.87
-6.71
0.16
5.86
10.75
15.16
19.24
22.98
26.22
28.89
30.94
32.41
33.39
33.97
34.21
34.13
33.80
33.29
32.76
32.34
32.09
31.92
31.57
30.69
29.06
26.63
23.67
20.57
17.72
15.31
13.27
11.36
9.31
6.93
4.22
1.33
-1.54
-4.27
-6.82
-9.27
-11.75
-14.44
-17.52
-21.12
-25.26
-29.72
-34.03
-37.48
-39.27
-38.81
-35.86
-30.67
-23.91
-16.48
-9.26
-2.88
2.41
6.66
10.15
13.14
15.82
18.17
20.09
21.42
22.13
22.33
22.22
22.01
21.82
21.68
21.52
21.27
20.89
20.37
19.76
19.06
18.22
17.20
15.90
14.28
12.34
10.12
7.71
5.20
2.67
0.16
-2.33
-4.80
-7.23
-9.57
-11.81
-14.00
-16.32
-19.00
-22.19
-25.78
-29.35
-32.16
-33.37
-32.34
-28.84
-23.24
-16.32
-9.09
-2.42
3.14
7.43
10.60
12.95
14.76
16.23
17.45
18.40
19.04
19.33
19.28
18.98
18.55
18.07
17.58
17.03
16.33
15.46
14.50
13.56
12.73
12.03
11.32
10.42
9.21
7.69
5.98
4.27
2.71
1.35
0.14
-1.02
-2.26
-3.69
-5.39
-7.38
-9.60
-11.93
-14.18
-16.19
-17.82
-19.06
-20.09
-21.22
-22.84
-25.24
-28.40
-31.91
-35.02
-36.83
-36.60
-34.04
-29.38
-23.30
-16.66
-10.25
-4.54
0.26
4.21
7.41
10.01
12.13
13.90
15.42
16.78
17.97
18.85
19.33
19.30
18.83
18.12
17.42
16.96
16.83
17.02
17.39
17.82
18.17
18.27
18.00
17.25
15.99
14.30
12.40
10.50
8.82
7.39
6.14
4.86
3.40
1.73
-0.06
-1.74
-3.13
-4.16
-4.92
-5.61
-6.45
-7.59
-9.08
-10.80
-12.58
-14.27
-15.81
-17.25
-18.73
-20.42
-22.50
-25.10
-28.25
-31.79
-35.32
-38.14
-39.44
-38.54
-35.20
-29.74
-23.01
-16.03
-9.66
-4.35
-0.12
3.27
6.08
8.43
10.36
11.90
13.13
14.22
15.28
16.35
17.35
18.13
18.59
18.67
18.40
17.89
17.27
16.68
16.19
15.78
15.32
14.66
13.67
12.32
10.71
9.01
7.39
5.91
4.56
3.28
2.07
0.91
-0.18
-1.25
-2.45
-3.98
-5.98
-8.38
-10.92
-13.21
-14.95
-16.09
-16.87
-17.74
-19.12
-21.23
-24.01
-27.15
-30.19
-32.58
-33.83
-33.49
-31.32
-27.35
-22.00
-15.93
-9.96
-4.71
-0.53
2.60
4.97
6.93
8.72
10.43
11.96
13.12
13.78
13.91
13.64
13.22
12.88
12.75
12.80
12.89
12.87
12.67
12.34
11.94
11.55
11.13
10.60
9.88
8.94
7.83
6.59
5.27
3.85
2.32
0.66
-1.14
-3.06
-5.10
-7.24
-9.47
-11.69
-13.77
-15.58
-17.08
-18.29
-19.35
-20.46
-21.78
-23.47
-25.63
-28.40
-31.81
-35.78
-39.95
-43.67
-46.12
-46.53
-44.50
-40.16
-34.17
-27.44
-20.82
-14.85
-9.71
-5.30
-1.39
2.21
5.57
8.75
11.74
14.49
16.91
18.85
20.16
20.80
20.85
20.57
20.26
20.19
20.48
21.10
21.88
22.63
23.13
23.26
22.93
22.12
20.87
19.32
17.61
15.91
14.32
12.83
11.34
9.71
7.86
5.83
3.75
1.78
0.01
-1.66
-3.46
-5.61
-8.20
-11.08
-13.98
-16.61
-18.85
-20.84
-22.93
-25.54
-28.94
-33.21
-38.07
-43.04
-47.37
-50.31
-51.18
-49.58
-45.49
-39.34
-31.93
-24.16
-16.86
-10.54
-5.36
-1.19
2.28
5.34
8.20
10.92
13.44
15.67
17.51
18.94
19.98
20.69
21.08
21.15
20.93
20.51
20.06
19.79
19.81
20.02
20.15
19.86
18.88
17.20
15.00
12.65
10.45
8.58
6.97
5.39
3.59
1.38
-1.26
-4.19
-7.13
-9.82
-12.12
-14.06
-15.89
-17.99
-20.70
-24.20
-28.35
-32.68
-36.47
-38.97
-39.52
-37.77
-33.77
-27.94
-21.03
-13.83
-7.09
-1.24
3.60
7.60
11.07
14.28
17.32
20.13
22.54
24.37
25.57
26.20
26.43
26.43
26.35
26.27
26.20
26.11
25.98
25.77
25.38
24.74
23.72
22.20
20.16
17.63
14.74
11.66
8.56
5.58
2.77
0.08
-2.59
-5.37
-8.34
-11.52
-14.86
-18.21
-21.39
-24.29
-26.88
-29.30
-31.83
-34.83
-38.57
-43.08
-48.04
-52.74
-56.20
-57.52
-56.05
-51.73
-45.08
-36.96
-28.34
-19.94
-12.17
-5.15
1.16
6.80
11.77
16.10
19.84
23.06
25.85
28.16
29.96
31.17
31.83
32.10
32.23
32.42
32.77
33.25
33.74
34.10
34.21
34.03
33.48
32.53
31.16
29.35
27.18
24.74
22.15
19.51
16.89
14.31
11.79
9.33
6.89
4.42
1.82
-1.03
-4.17
-7.56
-11.02
-14.34
-17.36
-20.10
-22.79
-25.83
-29.58
-34.27
-39.81
-45.76
-51.32
-55.53
-57.49
-56.57
-52.70
-46.33
-38.32
-29.66
-21.21
-13.52
-6.78
-0.99
3.97
8.31
12.17
15.72
19.09
22.29
25.20
27.61
29.31
30.14
30.16
29.58
28.70
27.85
27.29
27.16
27.43
27.93
28.35
28.34
27.62
26.08
23.82
21.15
18.48
16.17
14.35
12.91
11.49
9.67
7.15
3.93
0.27
-3.39
-6.72
-9.57
-12.12
-14.75
-17.90
-21.91
-26.85
-32.49
-38.25
-43.27
-46.59
-47.39
-45.30
-40.44
-33.46
-25.25
-16.72
-8.60
-1.30
4.91
9.99
13.97
17.09
19.60
21.78
23.73
25.34
26.41
26.74
26.38
25.59
24.79
24.37
24.52
25.23
26.30
27.42
28.29
28.62
28.15
26.80
24.61
21.85
18.83
15.83
12.97
10.20
7.37
4.36
1.14
-2.22
-5.62
-8.96
-12.18
-15.27
-18.28
-21.35
-24.80
-29.00
-34.22
-40.30
-46.55
-51.71
-54.41
-53.61
-49.05
-41.39
-31.91
-22.10
-13.09
-5.43
0.91
6.28
11.10
15.65
20.01
24.13
27.85
30.98
33.29
34.64
35.06
34.73
34.05
33.39
33.03
33.05
33.33
33.67
33.88
33.82
33.42
32.57
31.22
29.32
26.95
24.27
21.50
18.78
16.17
13.56
10.84
7.94
4.88
1.73
-1.44
-4.67
-8.02
-11.55
-15.18
-18.76
-22.11
-25.20
-28.21
-31.53
-35.61
-40.77
-46.97
-53.73
-60.16
-65.14
-67.53
-66.54
-61.94
-54.18
-44.24
-33.41
-22.89
-13.46
-5.39
1.49
7.55
13.12
18.39
23.33
27.89
31.93
35.34
38.03
39.84
40.71
40.64
39.83
38.58
37.29
36.24
35.58
35.28
35.18
35.04
34.64
33.81
32.41
30.43
27.93
25.09
22.14
19.29
16.71
14.43
12.36
10.28
7.90
4.98
1.42
-2.67
-7.02
-11.22
-14.97
-18.16
-20.96
-23.71
-26.90
-30.88
-35.83
-41.56
-47.52
-52.82
-56.41
-57.31
-54.98
-49.45
-41.36
-31.78
-21.86
-12.48
-4.19
2.89
8.85
13.88
18.11
21.67
24.63
27.10
29.20
30.94
32.30
33.17
33.44
33.12
32.36
31.44
30.70
30.37
30.49
30.89
31.20
31.10
30.32
28.79
26.60
23.92
20.94
17.85
14.77
11.72
8.70
5.63
2.46
-0.82
-4.13
-7.34
-10.37
-13.17
-15.85
-18.60
-21.68
-25.37
-29.88
-35.31
-41.47
-47.83
-53.45
-57.18
-57.96
-55.22
-49.05
-40.28
-30.19
-20.11
-10.99
-3.27
3.13
8.57
13.36
17.69
21.57
24.88
27.53
29.51
30.89
31.78
32.27
32.43
32.29
31.93
31.46
31.00
30.65
30.43
30.29
30.07
29.61
28.79
27.56
25.94
24.02
21.88
19.63
17.32
15.02
12.76
10.57
8.38
6.06
3.46
0.42
-3.09
-6.95
-10.93
-14.80
-18.38
-21.62
-24.66
-27.77
-31.29
-35.53
-40.67
-46.57
-52.66
-57.93
-61.12
-61.14
-57.50
-50.52
-41.23
-30.98
-20.99
-12.05
-4.40
2.00
7.35
11.85
15.67
18.98
21.97
24.74
27.26
29.39
30.93
31.78
31.99
31.73
31.25
30.68
30.11
29.54
28.97
28.42
27.87
27.24
26.35
24.97
22.92
20.21
17.04
13.78
10.73
8.08
5.72
3.42
0.91
-1.91
-4.95
-8.01
-10.86
-13.42
-15.78
-18.15
-20.78
-23.87
-27.55
-31.88
-36.75
-41.84
-46.49
-49.85
-51.02
-49.38
-44.86
-37.96
-29.61
-20.89
-12.67
-5.46
0.59
5.57
9.65
13.01
15.74
17.94
19.63
20.84
21.57
21.81
21.63
21.11
20.41
19.72
19.20
18.95
19.00
19.27
19.54
19.56
19.07
17.92
16.18
14.00
11.67
9.36
7.09
4.74
2.15
-0.77
-3.94
-7.16
-10.24
-13.05
-15.63
-18.13
-20.75
-23.69
-27.20
-31.46
-36.49
-42.03
-47.36
-51.42
-53.01
-51.27
-46.02
-37.87
-28.09
-18.11
-9.09
-1.60
4.37
9.20
13.32
16.97
20.21
22.96
25.16
26.79
27.91
28.57
28.81
28.67
28.19
27.45
26.62
25.85
25.28
24.99
24.89
24.82
24.47
23.58
21.97
19.65
16.85
13.92
11.21
8.93
7.04
5.29
3.35
0.94
-2.06
-5.52
-9.16
-12.67
-15.85
-18.67
-21.32
-24.07
-27.21
-30.96
-35.39
-40.33
-45.39
-49.86
-52.87
-53.55
-51.28
-46.01
-38.27
-29.06
-19.56
-10.77
-3.26
2.88
7.93
12.31
16.34
20.18
23.75
26.86
29.23
30.72
31.28
31.07
30.37
29.47
28.61
27.93
27.47
27.20
27.09
27.10
27.12
26.93
26.28
24.95
22.87
20.20
17.25
14.37
11.82
9.59
7.52
5.32
2.78
-0.15
-3.39
-6.76
-10.07
-13.19
-16.08
-18.81
-21.53
-24.50
-28.03
-32.33
-37.43
-42.96
-48.13
-51.86
-53.06
-51.03
-45.69
-37.72
-28.29
-18.73
-10.14
-3.11
2.31
6.46
9.82
12.78
15.54
18.05
20.13
21.61
22.36
22.45
22.08
21.52
21.06
20.84
20.88
21.07
21.24
21.24
20.97
20.39
19.48
18.23
16.64
14.71
12.47
9.98
7.31
4.52
1.60
-1.39
-4.43
-7.44
-10.33
-13.11
-15.85
-18.75
-22.06
-25.94
-30.34
-34.83
-38.70
-40.99
-40.92
-38.05
-32.51
-24.95
-16.40
-7.88
-0.20
6.21
11.28
15.18
18.16
20.45
22.17
23.41
24.21
24.57
24.56
24.24
23.65
22.87
21.96
21.02
20.17
19.53
19.17
19.07
19.06
18.87
18.23
16.94
15.00
12.59
9.96
7.34
4.82
2.36
-0.18
-2.98
-6.08
-9.42
-12.85
-16.21
-19.44
-22.61
-25.91
-29.62
-33.97
-39.04
-44.53
-49.77
-53.68
-55.15
-53.39
-48.22
-40.27
-30.73
-20.93
-11.92
-4.22
2.14
7.50
12.18
16.47
20.43
24.06
27.29
29.98
31.97
33.12
33.36
32.76
31.62
30.27
29.06
28.18
27.67
27.43
27.32
27.16
26.82
26.17
25.09
23.48
21.32
18.68
15.74
12.74
9.96
7.58
5.62
3.99
2.41
0.61
-1.66
-4.45
-7.65
-11.01
-14.31
-17.45
-20.45
-23.45
-26.58
-29.95
-33.63
-37.70
-42.24
-47.19
-52.20
-56.52
-59.09
-58.90
-55.36
-48.61
-39.52
-29.40
-19.55
-10.81
-3.49
2.54
7.65
12.11
16.09
19.58
22.54
24.90
26.61
27.67
28.10
27.98
27.43
26.64
25.82
25.18
24.86
24.92
25.28
25.73
25.92
25.54
24.33
22.27
19.54
16.51
13.58
10.99
8.78
6.76
4.59
2.03
-0.98
-4.30
-7.59
-10.50
-12.87
-14.79
-16.59
-18.74
-21.72
-25.73
-30.64
-35.86
-40.46
-43.35
-43.66
-40.94
-35.41
-27.81
-19.21
-10.66
-2.92
3.61
8.90
13.12
16.52
19.28
21.53
23.28
24.47
25.05
25.00
24.39
23.32
21.96
20.52
19.22
18.30
17.91
18.09
18.64
19.17
19.28
18.66
17.21
15.10
12.61
10.01
7.44
4.90
2.30
-0.45
-3.36
-6.39
-9.43
-12.40
-15.19
-17.80
-20.27
-22.70
-25.32
-28.37
-32.06
-36.36
-40.90
-44.95
-47.51
-47.69
-44.97
-39.44
-31.85
-23.26
-14.76
-7.14
-0.73
4.49
8.81
12.52
15.83
18.79
21.35
23.41
24.85
25.68
26.02
26.03
25.86
25.62
25.28
24.79
24.16
23.50
22.93
22.54
22.24
21.74
20.70
18.92
16.39
13.42
10.44
7.87
5.87
4.32
2.88
1.20
-0.96
-3.60
-6.50
-9.38
-11.97
-14.18
-16.17
-18.25
-20.83
-24.22
-28.48
-33.29
-38.01
-41.67
-43.33
-42.32
-38.49
-32.31
-24.65
-16.54
-8.89
-2.21
3.33
7.81
11.43
14.38
16.80
18.78
20.38
21.61
22.39
22.65
22.33
21.51
20.39
19.24
18.29
17.68
17.37
17.24
17.12
16.86
16.32
15.43
14.12
12.43
10.44
8.32
6.19
4.13
2.08
-0.09
-2.44
-5.00
-7.64
-10.20
-12.55
-14.62
-16.50
-18.36
-20.48
-23.11
-26.44
-30.42
-34.69
-38.49
-40.85
-40.88
-38.08
-32.61
-25.28
-17.29
-9.80
-3.60
1.14
4.68
7.49
9.97
12.28
14.33
15.97
17.06
17.59
17.65
17.36
16.84
16.16
15.42
14.68
14.06
13.59
13.28
13.06
12.83
12.45
11.80
10.79
9.36
7.52
5.37
3.01
0.59
-1.79
-4.11
-6.39
-8.64
-10.87
-13.07
-15.28
-17.64
-20.38
-23.72
-27.67
-31.84
-35.44
-37.51
-37.23
-34.29
-29.04
-22.33
-15.22
-8.61
-2.98
1.61
5.39
8.61
11.39
13.74
15.59
16.90
17.73
18.20
18.44
18.52
18.44
18.17
17.72
17.13
16.50
15.91
15.40
14.94
14.42
13.75
12.84
11.67
10.24
8.59
6.78
4.85
2.81
0.64
-1.70
-4.24
-7.01
-9.92
-12.86
-15.71
-18.42
-21.05
-23.81
-26.90
-30.53
-34.67
-39.02
-42.98
-45.74
-46.54
-44.87
-40.70
-34.49
-27.07
-19.32
-11.96
-5.40
0.28
5.11
9.27
12.89
16.11
18.99
21.48
23.43
24.59
24.78
24.01
22.51
20.70
18.97
17.60
16.59
15.82
15.09
14.35
13.62
12.99
12.48
11.97
11.21
9.95
7.99
5.37
2.36
-0.70
-3.45
-5.77
-7.75
-9.68
-11.91
-14.68
-18.12
-22.15
-26.53
-30.79
-34.28
-36.21
-35.92
-33.07
-27.88
-21.07
-13.65
-6.63
-0.61
4.23
8.08
11.21
13.80
15.91
17.46
18.44
18.88
18.93
18.71
18.31
17.68
16.74
15.41
13.76
12.00
10.44
9.34
8.82
8.76
8.81
8.58
7.78
6.30
4.29
2.01
-0.24
-2.27
-4.09
-5.87
-7.90
-10.47
-13.80
-17.85
-22.29
-26.54
-29.82
-31.40
-30.80
-27.92
-23.08
-16.93
-10.26
-3.84
1.75
6.24
9.57
11.93
13.64
15.00
16.20
17.24
17.97
18.20
17.78
16.75
15.30
13.70
12.19
10.89
9.84
8.97
8.19
7.42
6.52
5.35
3.76
1.68
-0.85
-3.66
-6.48
-9.03
-11.20
-13.07
-14.93
-17.19
-20.22
-24.12
-28.58
-32.89
-36.10
-37.29
-35.93
-32.04
-26.18
-19.27
-12.27
-5.87
-0.43
4.00
7.57
10.44
12.73
14.51
15.83
16.72
17.22
17.31
17.01
16.27
15.11
13.62
11.92
10.21
8.68
7.47
6.55
5.74
4.73
3.26
1.16
-1.51
-4.55
-7.64
-10.53
-13.13
-15.51
-17.97
-20.84
-24.38
-28.62
-33.23
-37.54
-40.64
-41.68
-40.09
-35.81
-29.32
-21.52
-13.43
-5.90
0.49
5.56
9.40
12.28
14.52
16.38
18.00
19.41
20.44
20.91
20.66
19.65
18.09
16.28
14.57
13.24
12.36
11.81
11.33
10.63
9.51
7.88
5.83
3.50
1.02
-1.51
-4.16
-7.04
-10.31
-14.09
-18.38
-22.95
-27.39
-31.02
-33.12
-33.06
-30.52
-25.64
-19.03
-11.58
-4.23
2.32
7.71
11.93
15.17
17.74
19.87
21.72
23.31
24.63
25.61
26.21
26.43
26.28
25.81
25.04
24.03
22.84
21.59
20.42
19.44
18.63
17.79
16.63
14.86
12.37
9.27
5.89
2.59
-0.40
-3.13
-5.83
-8.91
-12.66
-17.22
-22.41
-27.73
-32.43
-35.65
-36.62
-34.87
-30.45
-23.91
-16.14
-8.13
-0.68
5.76
11.13
15.57
19.28
22.37
24.81
26.53
27.49
27.78
27.58
27.11
26.57
26.02
25.41
24.65
23.65
22.46
21.22
20.11
19.20
18.43
17.53
16.16
14.06
11.16
7.62
3.81
0.16
-3.03
-5.64
-7.80
-9.82
-12.07
-14.93
-18.60
-23.10
-28.16
-33.22
-37.50
-40.16
-40.44
-37.98
-32.92
-25.87
-17.73
-9.50
-1.93
4.52
9.74
13.83
16.97
19.28
20.83
21.65
21.81
21.50
20.94
20.41
20.05
19.77
19.36
18.57
17.31
15.73
14.19
12.96
12.12
11.38
10.30
8.45
5.74
2.42
-1.02
-4.13
-6.71
-8.91
-11.13
-13.83
-17.35
-21.77
-26.91
-32.22
-36.89
-39.98
-40.61
-38.34
-33.29
-26.14
-17.94
-9.72
-2.21
4.25
9.65
14.09
17.68
20.45
22.45
23.77
24.55
24.93
25.01
24.85
24.46
23.89
23.19
22.40
21.50
20.48
19.32
18.04
16.70
15.34
13.90
12.25
10.21
7.66
4.61
1.23
-2.26
-5.63
-8.78
-11.70
-14.43
-17.02
-19.53
-22.10
-24.98
-28.48
-32.78
-37.63
-42.36
-45.87
-47.09
-45.33
-40.58
-33.49
-25.09
-16.40
-8.16
-0.73
5.81
11.47
16.29
20.25
23.36
25.71
27.42
28.63
29.37
29.63
29.29
28.33
26.78
24.88
23.01
21.54
20.71
20.51
20.63
20.65
20.17
19.03
17.31
15.24
13.07
10.94
8.83
6.62
4.19
1.44
-1.62
-4.96
-8.46
-11.99
-15.38
-18.48
-21.22
-23.66
-26.03
-28.70
-32.02
-36.17
-40.93
-45.64
-49.28
-50.71
-49.12
-44.28
-36.72
-27.52
-17.95
-9.10
-1.53
4.71
9.92
14.48
18.67
22.55
26.02
28.92
31.11
32.57
33.35
33.55
33.29
32.69
31.78
30.68
29.45
28.21
27.13
26.29
25.71
25.26
24.71
23.78
22.32
20.35
18.07
15.78
13.71
11.93
10.27
8.41
6.10
3.22
-0.12
-3.66
-7.13
-10.36
-13.32
-16.07
-18.69
-21.24
-23.79
-26.52
-29.71
-33.64
-38.36
-43.49
-48.14
-51.12
-51.30
-48.13
-41.78
-33.16
-23.53
-14.12
-5.74
1.30
7.07
11.83
15.83
19.23
22.08
24.37
26.09
27.25
27.88
28.02
27.78
27.22
26.47
25.65
24.91
24.39
24.16
24.19
24.32
24.30
23.83
22.67
20.75
18.15
15.16
12.17
9.51
7.34
5.56
3.83
1.79
-0.81
-3.94
-7.34
-10.61
-13.44
-15.76
-17.76
-19.85
-22.47
-25.98
-30.46
-35.64
-40.88
-45.25
-47.72
-47.50
-44.22
-38.10
-29.90
-20.72
-11.67
-3.59
3.09
8.38
12.56
15.95
18.77
21.05
22.67
23.55
23.71
23.32
22.68
22.07
21.64
21.37
21.15
20.80
20.21
19.35
18.22
16.88
15.36
13.71
11.93
10.05
8.07
5.94
3.61
1.02
-1.85
-4.95
-8.14
-11.29
-14.29
-17.12
-19.89
-22.82
-26.15
-30.10
-34.70
-39.69
-44.42
-47.94
-49.22
-47.51
-42.60
-35.03
-25.86
-16.35
-7.56
-0.09
5.96
10.83
14.83
18.19
21.01
23.30
25.03
26.18
26.78
26.85
26.50
25.85
25.08
24.32
23.65
23.10
22.68
22.34
22.04
21.66
21.02
19.91
18.21
15.95
13.34
10.68
8.17
5.83
3.45
0.78
-2.30
-5.69
-9.13
-12.34
-15.24
-17.99
-20.90
-24.33
-28.48
-33.32
-38.49
-43.39
-47.13
-48.76
-47.51
-43.11
-35.91
-26.86
-17.23
-8.16
-0.36
6.00
11.12
15.32
18.85
21.79
24.17
26.00
27.39
28.47
29.26
29.72
29.70
29.09
27.91
26.28
24.53
22.99
21.92
21.37
21.16
20.95
20.32
19.03
17.05
14.59
12.01
9.66
7.68
6.02
4.38
2.43
-0.05
-3.10
-6.51
-9.97
-13.14
-15.87
-18.18
-20.37
-22.84
-26.01
-30.15
-35.17
-40.52
-45.28
-48.32
-48.67
-45.80
-39.88
-31.74
-22.58
-13.61
-5.67
0.86
6.04
10.18
13.55
16.35
18.62
20.35
21.56
22.27
22.55
22.46
22.08
21.45
20.67
19.86
19.15
18.68
18.54
18.68
18.90
18.89
18.37
17.17
15.36
13.21
11.03
9.01
7.08
5.05
2.67
-0.17
-3.34
-6.57
-9.58
-12.24
-14.63
-16.99
-19.69
-23.02
-27.12
-31.83
-36.63
-40.74
-43.21
-43.27
-40.52
-35.14
-27.86
-19.65
-11.45
-3.93
2.61
8.14
12.76
16.55
19.54
21.71
23.10
23.74
23.76
23.25
22.37
21.30
20.29
19.61
19.44
19.80
20.49
21.19
21.52
21.23
20.24
18.66
16.68
14.49
12.22
9.86
7.37
4.67
1.73
-1.43
-4.71
-7.98
-11.11
-14.00
-16.60
-18.93
-21.12
-23.42
-26.13
-29.56
-33.78
-38.46
-42.87
-45.94
-46.67
-44.48
-39.40
-32.11
-23.60
-14.93
-6.87
0.12
5.90
10.49
14.02
16.69
18.74
20.47
22.05
23.57
24.92
25.94
26.48
26.52
26.15
25.52
24.78
24.05
23.47
23.09
22.97
23.01
22.98
22.58
21.47
19.56
16.97
14.05
11.23
8.76
6.68
4.74
2.59
0.01
-3.07
-6.42
-9.79
-12.94
-15.83
-18.56
-21.33
-24.33
-27.66
-31.42
-35.62
-40.20
-44.85
-48.97
-51.69
-52.12
-49.64
-44.24
-36.51
-27.51
-18.36
-9.90
-2.59
3.55
8.67
13.01
16.72
19.91
22.69
25.07
27.09
28.69
29.78
30.31
30.26
29.71
28.86
27.94
27.15
26.62
26.33
26.17
25.99
25.65
25.03
24.08
22.78
21.08
19.00
16.59
13.97
11.29
8.67
6.14
3.60
0.89
-2.07
-5.24
-8.38
-11.22
-13.51
-15.24
-16.57
-17.83
-19.40
-21.58
-24.58
-28.44
-33.01
-37.89
-42.42
-45.74
-47.00
-45.61
-41.44
-34.96
-27.03
-18.71
-10.91
-4.21
1.19
5.40
8.70
11.38
13.72
15.86
17.88
19.70
21.14
22.03
22.29
22.00
21.41
20.85
20.51
20.45
20.52
20.51
20.25
19.68
18.83
17.72
16.34
14.66
12.67
10.46
8.20
6.04
4.02
2.07
-0.03
-2.41
-5.11
-8.00
-10.85
-13.47
-15.84
-18.14
-20.71
-23.88
-27.79
-32.23
-36.61
-40.05
-41.66
-40.78
-37.27
-31.51
-24.32
-16.66
-9.37
-2.97
2.35
6.70
10.27
13.29
15.91
18.14
19.92
21.15
21.74
21.75
21.31
20.67
20.04
19.52
19.11
18.76
18.38
18.01
17.68
17.40
17.11
16.57
15.58
14.03
11.99
9.74
7.61
5.83
4.37
3.05
1.56
-0.32
-2.66
-5.36
-8.23
-11.10
-13.83
-16.40
-18.77
-21.03
-23.32
-25.92
-29.09
-32.93
-37.17
-41.10
-43.72
-44.11
-41.74
-36.70
-29.69
-21.80
-14.05
-7.12
-1.30
3.49
7.49
10.92
13.94
16.65
19.09
21.27
23.13
24.56
25.45
25.71
25.38
24.62
23.68
22.88
22.45
22.57
23.24
24.28
25.37
26.12
26.20
25.46
23.97
21.96
19.72
17.52
15.55
13.79
12.19
10.56
8.72
6.48
3.74
0.50
-3.10
-6.86
-10.53
-13.93
-16.91
-19.54
-21.98
-24.55
-27.58
-31.32
-35.70
-40.27
-44.22
-46.61
-46.67
-44.06
-39.00
-32.21
-24.60
-17.04
-10.14
-4.16
0.86
5.04
8.55
11.54
14.16
16.52
18.67
20.56
22.02
22.87
22.97
22.37
21.28
20.05
19.03
18.40
18.18
18.22
18.31
18.25
17.89
17.16
16.08
14.71
13.11
11.36
9.46
7.36
5.02
2.42
-0.30
-2.97
-5.37
-7.39
-9.08
-10.59
-12.18
-14.06
-16.40
-19.30
-22.77
-26.66
-30.58
-33.85
-35.68
-35.35
-32.53
-27.45
-20.85
-13.78
-7.20
-1.70
2.64
6.10
9.07
11.84
14.42
16.64
18.26
19.17
19.45
19.32
19.02
18.70
18.37
18.00
17.58
17.18
16.95
17.00
17.26
17.54
17.52
16.89
15.51
13.48
11.03
8.48
6.00
3.67
1.40
-0.95
-3.52
-6.31
-9.25
-12.16
-14.81
-17.03
-18.81
-20.30
-21.79
-23.62
-26.09
-29.32
-33.21
-37.37
-41.12
-43.63
-44.11
-42.04
-37.42
-30.80
-23.16
-15.53
-8.74
-3.16
1.29
4.94
8.20
11.33
14.42
17.40
20.13
22.41
24.09
25.06
25.32
24.89
23.90
22.53
21.01
19.64
18.71
18.39
18.68
19.32
19.91
20.01
19.39
17.96
15.93
13.57
11.20
9.03
7.21
5.75
4.55
3.38
1.99
0.10
-2.38
-5.39
-8.64
-11.81
-14.63
-16.99
-19.00
-20.94
-23.14
-25.97
-29.61
-33.99
-38.63
-42.68
-45.15
-45.22
-42.55
-37.40
-30.56
-23.02
-15.60
-8.80
-2.80
2.45
7.03
11.03
14.54
17.70
20.64
23.41
25.87
27.75
28.75
28.69
27.67
25.97
24.07
22.34
21.05
20.25
19.88
19.76
19.73
19.62
19.27
18.58
17.53
16.12
14.44
12.61
10.75
8.91
7.12
5.30
3.33
1.06
-1.58
-4.55
-7.69
-10.79
-13.66
-16.22
-18.47
-20.52
-22.58
-24.89
-27.71
-31.21
-35.34
-39.71
-43.57
-45.98
-46.10
-43.47
-38.20
-31.01
-22.91
-14.98
-8.01
-2.39
1.84
4.97
7.37
9.41
11.34
13.26
15.11
16.73
17.91
18.54
18.64
18.37
17.97
17.60
17.36
17.23
17.12
16.92
16.58
16.08
15.38
14.45
13.22
11.72
9.98
8.16
6.39
4.67
2.90
0.87
-1.57
-4.40
-7.35
-10.01
-11.99
-13.13
-13.63
-14.00
-14.87
-16.76
-19.79
-23.61
-27.43
-30.27
-31.28
-29.97
-26.34
-20.89
-14.37
-7.62
-1.29
4.20
8.72
12.35
15.27
17.68
19.70
21.44
22.87
23.96
24.66
24.95
24.87
24.45
23.80
23.03
22.22
21.45
20.75
20.12
19.51
18.90
18.22
17.43
16.43
15.16
13.57
11.69
9.69
7.77
6.11
4.77
3.68
2.61
1.32
-0.37
-2.50
-4.94
-7.51
-9.96
-12.12
-13.91
-15.43
-16.85
-18.46
-20.63
-23.63
-27.59
-32.29
-37.10
-41.08
-43.21
-42.73
-39.39
-33.61
-26.31
-18.61
-11.45
-5.35
-0.40
3.63
7.06
10.10
12.88
15.41
17.71
19.77
21.55
22.98
23.97
24.46
24.50
24.25
23.93
23.71
23.65
23.73
23.79
23.75
23.58
23.29
22.88
22.26
21.30
19.87
17.96
15.67
13.26
10.97
8.95
7.20
5.57
3.87
1.94
-0.29
-2.77
-5.40
-8.03
-10.53
-12.80
-14.75
-16.37
-17.78
-19.21
-20.99
-23.42
-26.64
-30.54
-34.59
-38.02
-39.96
-39.77
-37.19
-32.53
-26.43
-19.73
-13.20
-7.32
-2.32
1.84
5.36
8.46
11.31
13.95
16.27
18.10
19.28
19.76
19.63
19.10
18.43
17.78
17.22
16.75
16.31
15.88
15.49
15.12
14.74
14.26
13.55
12.52
11.15
9.46
7.61
5.69
3.80
1.91
-0.07
-2.26
-4.70
-7.26
-9.74
-11.88
-13.56
-14.90
-16.18
-17.79
-20.08
-23.20
-27.03
-31.15
-34.98
-37.77
-38.84
-37.72
-34.29
-28.90
-22.23
-15.13
-8.38
-2.53
2.25
6.03
9.04
11.57
13.79
15.80
17.54
18.92
19.79
20.15
20.07
19.75
19.39
19.11
18.88
18.64
18.29
17.87
17.48
17.22
17.10
16.96
16.51
15.51
13.85
11.66
9.23
6.88
4.80
3.03
1.40
-0.28
-2.19
-4.38
-6.84
-9.50
-12.30
-15.16
-18.03
-20.79
-23.35
-25.72
-28.01
-30.55
-33.63
-37.41
-41.67
-45.72
-48.62
-49.42
-47.59
-43.16
-36.78
-29.36
-21.80
-14.72
-8.37
-2.77
2.14
6.40
10.00
13.01
15.58
17.93
20.17
22.27
24.00
25.11
25.43
25.01
24.12
23.14
22.37
22.00
22.01
22.27
22.55
22.64
22.39
21.73
20.69
19.34
17.81
16.19
14.56
12.92
11.30
9.65
7.95
6.15
4.20
2.07
-0.20
-2.58
-4.97
-7.29
-9.47
-11.53
-13.47
-15.40
-17.43
-19.72
-22.44
-25.75
-29.78
-34.50
-39.59
-44.44
-48.15
-49.80
-48.73
-44.84
-38.62
-31.03
-23.16
-15.86
-9.54
-4.20
0.38
4.47
8.25
11.71
14.80
17.45
19.61
21.30
22.56
23.46
24.07
24.45
24.63
24.61
24.36
23.90
23.31
22.69
22.15
21.68
21.19
20.52
19.55
18.23
16.63
14.95
13.32
11.81
10.31
8.66
6.69
4.35
1.71
-1.03
-3.67
-6.08
-8.25
-10.27
-12.28
-14.43
-16.92
-19.94
-23.66
-28.09
-32.99
-37.73
-41.44
-43.20
-42.43
-39.03
-33.48
-26.59
-19.24
-12.11
-5.57
0.26
5.40
9.86
13.59
16.53
18.66
20.03
20.75
20.99
20.91
20.68
20.37
20.05
19.76
19.51
19.35
19.35
19.57
19.96
20.39
20.58
20.22
19.12
17.29
14.91
12.27
9.65
7.16
4.75
2.25
-0.48
-3.52
-6.76
-10.05
-13.19
-16.06
-18.70
-21.26
-24.00
-27.25
-31.20
-35.87
-40.89
-45.54
-48.88
-49.97
-48.23
-43.68
-36.88
-28.82
-20.54
-12.83
-6.06
-0.26
4.70
9.00
12.73
15.99
18.85
21.41
23.70
25.66
27.13
27.94
28.04
27.59
26.91
26.40
26.31
26.64
27.19
27.66
27.81
27.51
26.77
25.60
24.01
22.01
19.62
17.00
14.37
11.92
9.74
7.74
5.71
3.41
0.73
-2.36
-5.72
-9.18
-12.58
-15.78
-18.69
-21.35
-23.92
-26.67
-30.01
-34.25
-39.50
-45.37
-51.03
-55.34
-57.16
-55.78
-51.13
-43.79
-34.80
-25.29
-16.18
-7.99
-0.89
5.22
10.55
15.29
19.56
23.42
26.85
29.83
32.30
34.25
35.70
36.66
37.19
37.34
37.24
36.97
36.61
36.17
35.62
34.92
34.02
32.89
31.46
29.69
27.55
25.07
22.33
19.49
16.65
13.87
11.08
8.16
5.01
1.58
-1.99
-5.54
-8.90
-11.98
-14.83
-17.63
-20.56
-23.83
-27.63
-32.07
-37.16
-42.66
-48.01
-52.36
-54.72
-54.26
-50.64
-44.18
-35.75
-26.51
-17.51
-9.42
-2.48
3.41
8.47
12.90
16.80
20.18
23.02
25.27
26.89
27.84
28.11
27.79
27.00
25.93
24.78
23.72
22.86
22.23
21.77
21.36
20.86
20.11
19.02
17.57
15.79
13.72
11.39
8.76
5.81
2.57
-0.83
-4.21
-7.38
-10.31
-13.09
-15.98
-19.34
-23.49
-28.54
-34.30
-40.15
-45.10
-48.05
-48.01
-44.51
-37.76
-28.59
-18.23
-7.93
1.35
9.10
15.22
19.96
23.68
26.74
29.41
31.80
33.87
35.48
36.41
36.54
35.85
34.46
32.64
30.71
29.01
27.77
27.08
26.85
26.85
26.71
26.09
24.72
22.56
19.76
16.57
13.30
10.19
7.32
4.64
2.01
-0.81
-4.02
-7.66
-11.64
-15.74
-19.66
-23.18
-26.22
-28.91
-31.58
-34.63
-38.44
-43.09
-48.25
-53.10
-56.48
-57.18
-54.43
-48.18
-39.16
-28.67
-18.11
-8.54
-0.47
6.17
11.74
16.66
21.23
25.54
29.58
33.24
36.41
38.94
40.70
41.61
41.69
41.10
40.09
38.93
37.85
36.96
36.23
35.59
34.90
34.02
32.85
31.27
29.20
26.61
23.60
20.37
17.21
14.35
11.86
9.62
7.35
4.74
1.60
-2.05
-6.00
-9.95
-13.64
-16.94
-19.89
-22.65
-25.46
-28.61
-32.41
-37.04
-42.42
-48.03
-52.91
-55.90
-55.95
-52.53
-45.89
-36.97
-27.04
-17.36
-8.75
-1.52
4.41
9.36
13.60
17.37
20.77
23.81
26.43
28.47
29.78
30.19
29.71
28.48
26.85
25.19
23.83
22.91
22.42
22.18
22.00
21.63
20.89
19.69
18.00
15.86
13.38
10.66
7.77
4.75
1.61
-1.61
-4.82
-7.93
-10.85
-13.59
-16.29
-19.22
-22.69
-26.91
-31.86
-37.20
-42.21
-45.92
-47.39
-46.00
-41.67
-34.92
-26.63
-17.78
-9.21
-1.42
5.38
11.14
15.93
19.85
23.06
25.71
27.86
29.48
30.41
30.50
29.72
28.26
26.45
24.70
23.35
22.55
22.23
22.18
22.12
21.78
20.98
19.63
17.75
15.44
12.85
10.16
7.52
4.91
2.25
-0.63
-3.91
-7.60
-11.54
-15.42
-18.93
-21.94
-24.62
-27.34
-30.58
-34.67
-39.57
-44.83
-49.62
-52.91
-53.78
-51.64
-46.46
-38.76
-29.54
-19.94
-10.99
-3.33
2.93
8.07
12.61
16.98
21.40
25.75
29.71
32.89
35.05
36.12
36.24
35.67
34.69
33.54
32.46
31.58
31.01
30.74
30.67
30.57
30.20
29.34
27.88
25.85
23.43
20.83
18.23
15.73
13.33
10.95
8.54
6.06
3.48
0.84
-1.89
-4.72
-7.69
-10.82
-14.09
-17.45
-20.80
-24.06
-27.17
-30.13
-33.09
-36.30
-40.04
-44.49
-49.45
-54.29
-58.01
-59.51
-57.98
-53.26
-45.89
-36.91
-27.52
-18.62
-10.66
-3.66
2.55
8.13
13.08
17.36
21.02
24.17
26.99
29.54
31.72
33.27
33.96
33.74
32.79
31.49
30.20
29.19
28.53
28.17
27.96
27.73
27.33
26.61
25.51
24.04
22.29
20.45
18.60
16.79
14.95
12.95
10.72
8.26
5.70
3.18
0.83
-1.34
-3.38
-5.43
-7.63
-10.09
-12.84
-15.82
-18.92
-21.97
-24.86
-27.58
-30.29
-33.28
-36.84
-41.07
-45.73
-50.12
-53.24
-54.07
-51.90
-46.69
-39.06
-30.07
-20.91
-12.50
-5.34
0.53
5.30
9.23
12.51
15.27
17.59
19.52
21.10
22.32
23.11
23.44
23.32
22.85
22.19
21.51
20.91
20.45
20.16
20.06
20.15
20.36
20.53
20.37
19.61
18.04
15.75
13.01
10.21
7.68
5.56
3.74
1.95
-0.11
-2.61
-5.56
-8.85
-12.27
-15.62
-18.77
-21.65
-24.27
-26.76
-29.36
-32.40
-36.13
-40.57
-45.29
-49.47
-52.00
-51.94
-48.78
-42.71
-34.54
-25.38
-16.33
-8.12
-1.09
4.76
9.62
13.71
17.18
20.16
22.72
24.93
26.81
28.30
29.30
29.64
29.31
28.41
27.20
26.02
25.18
24.83
24.94
25.27
25.52
25.40
24.74
23.53
21.93
20.14
18.34
16.59
14.85
12.97
10.86
8.49
5.92
3.30
0.77
-1.59
-3.78
-5.88
-8.01
-10.31
-12.89
-15.76
-18.86
-22.01
-25.03
-27.77
-30.23
-32.58
-35.16
-38.34
-42.40
-47.24
-52.31
-56.62
-58.99
-58.40
-54.35
-47.11
-37.63
-27.25
-17.30
-8.68
-1.74
3.67
7.97
11.64
14.98
18.10
20.94
23.37
25.25
26.51
27.14
27.22
26.88
26.28
25.64
25.15
24.96
25.08
25.45
25.88
26.16
26.13
25.68
24.79
23.50
21.86
19.97
17.91
15.72
13.46
11.08
8.58
5.95
3.22
0.46
-2.28
-5.01
-7.77
-10.64
-13.63
-16.65
-19.57
-22.29
-24.83
-27.35
-30.18
-33.65
-37.92
-42.84
-47.87
-52.11
-54.55
-54.36
-51.17
-45.21
-37.24
-28.28
-19.35
-11.13
-3.99
2.07
7.16
11.42
14.95
17.83
20.17
22.06
23.60
24.76
25.46
25.59
25.15
24.29
23.31
22.53
22.19
22.32
22.80
23.34
23.61
23.35
22.38
20.66
18.29
15.47
12.45
9.49
6.71
4.15
1.67
-0.89
-3.71
-6.87
-10.34
-13.95
-17.47
-20.70
-23.51
-25.96
-28.30
-30.96
-34.35
-38.76
-44.08
-49.71
-54.61
-57.54
-57.43
-53.79
-46.85
-37.55
-27.22
-17.11
-8.16
-0.73
5.27
10.20
14.44
18.32
21.98
25.40
28.45
30.95
32.72
33.63
33.70
33.03
31.88
30.55
29.37
28.54
28.17
28.17
28.37
28.49
28.26
27.52
26.22
24.41
22.22
19.78
17.18
14.46
11.64
8.76
5.89
3.10
0.40
-2.26
-5.03
-8.09
-11.54
-15.39
-19.44
-23.41
-26.98
-29.98
-32.47
-34.77
-37.40
-40.88
-45.46
-50.94
-56.56
-61.16
-63.50
-62.61
-58.19
-50.64
-40.95
-30.33
-19.91
-10.43
-2.27
4.55
10.17
14.84
18.82
22.39
25.75
29.00
32.05
34.66
36.54
37.47
37.43
36.61
35.39
34.20
33.37
33.04
33.13
33.43
33.65
33.58
33.08
32.10
30.69
28.89
26.79
24.47
21.97
19.34
16.60
13.82
11.00
8.17
5.29
2.29
-0.91
-4.32
-7.88
-11.43
-14.81
-17.89
-20.67
-23.25
-25.80
-28.57
-31.80
-35.73
-40.51
-46.03
-51.86
-57.12
-60.67
-61.42
-58.65
-52.41
-43.45
-33.04
-22.53
-12.96
-4.85
1.77
7.15
11.63
15.44
18.69
21.38
23.51
25.13
26.30
27.11
27.65
27.94
28.01
27.90
27.71
27.56
27.60
27.90
28.36
28.74
28.68
27.86
26.14
23.65
20.70
17.68
14.87
12.31
9.83
7.14
4.01
0.41
-3.52
-7.49
-11.25
-14.67
-17.74
-20.57
-23.34
-26.24
-29.56
-33.60
-38.54
-44.25
-50.13
-55.12
-57.92
-57.50
-53.39
-45.94
-36.21
-25.56
-15.22
-5.97
1.91
8.53
14.15
19.04
23.34
27.11
30.38
33.08
35.15
36.50
37.12
37.08
36.60
35.96
35.43
35.16
35.17
35.32
35.43
35.32
34.88
34.10
33.00
31.60
29.92
27.93
25.62
23.02
20.19
17.26
14.29
11.31
8.33
5.32
2.26
-0.88
-4.08
-7.40
-10.86
-14.51
-18.35
-22.30
-26.27
-30.22
-34.18
-38.30
-42.84
-48.03
-53.90
-60.13
-65.95
-70.19
-71.62
-69.32
-63.09
-53.57
-42.04
-30.02
-18.75
-8.92
-0.66
6.28
12.23
17.42
21.98
26.04
29.69
33.05
36.12
38.75
40.71
41.80
41.99
41.47
40.60
39.81
39.40
39.51
40.09
40.84
41.42
41.49
40.80
39.30
37.09
34.41
31.55
28.70
25.96
23.26
20.46
17.45
14.16
10.68
7.16
3.81
0.76
-2.00
-4.64
-7.44
-10.59
-14.18
-18.09
-22.07
-25.88
-29.41
-32.71
-36.01
-39.61
-43.81
-48.77
-54.37
-60.10
-65.02
-67.90
-67.64
-63.62
-55.97
-45.65
-34.04
-22.57
-12.21
-3.42
3.86
9.88
14.93
19.20
22.85
26.01
28.82
31.33
33.44
34.96
35.67
35.51
34.59
33.24
31.90
30.94
30.58
30.83
31.52
32.31
32.82
32.67
31.60
29.53
26.60
23.15
19.59
16.27
13.39
10.89
8.58
6.23
3.62
0.64
-2.74
-6.42
-10.26
-14.07
-17.66
-20.98
-24.10
-27.30
-30.94
-35.36
-40.67
-46.62
-52.54
-57.36
-59.89
-59.17
-54.75
-46.90
-36.57
-25.08
-13.76
-3.58
5.00
11.96
17.53
22.00
25.60
28.48
30.73
32.42
33.56
34.16
34.19
33.66
32.70
31.57
30.58
30.02
30.05
30.56
31.30
31.86
31.91
31.27
29.93
28.07
25.93
23.75
21.61
19.48
17.17
14.48
11.35
7.86
4.28
0.92
-2.07
-4.72
-7.29
-10.13
-13.42
-17.16
-21.08
-24.87
-28.28
-31.23
-33.89
-36.54
-39.50
-43.09
-47.55
-52.96
-59.02
-65.01
-69.78
-72.03
-70.70
-65.38
-56.53
-45.25
-32.99
-21.06
-10.37
-1.32
6.09
12.07
16.96
21.12
24.85
28.38
31.74
34.78
37.21
38.77
39.33
38.97
38.01
36.84
35.87
35.41
35.57
36.26
37.18
37.93
38.11
37.45
35.91
33.68
31.11
28.55
26.25
24.23
22.33
20.30
17.89
15.01
11.72
8.25
4.85
1.70
-1.17
-3.90
-6.74
-9.93
-13.56
-17.56
-21.69
-25.67
-29.35
-32.74
-36.06
-39.67
-43.90
-48.93
-54.70
-60.74
-66.24
-70.11
-71.23
-68.81
-62.63
-53.23
-41.74
-29.58
-18.04
-7.95
0.41
7.19
12.75
17.46
21.54
25.07
28.04
30.44
32.25
33.51
34.25
34.47
34.19
33.45
32.44
31.38
30.59
30.31
30.56
31.11
31.50
31.27
30.07
27.87
24.88
21.50
18.10
14.94
12.08
9.46
6.87
4.15
1.15
-2.21
-5.88
-9.70
-13.42
-16.81
-19.70
-22.13
-24.34
-26.75
-29.84
-34.01
-39.36
-45.55
-51.73
-56.69
-59.13
-58.04
-53.11
-44.79
-34.24
-22.91
-12.17
-2.88
4.60
10.41
14.91
18.52
21.54
24.13
26.28
27.91
28.90
29.24
29.07
28.60
28.14
27.89
27.88
28.02
28.19
28.29
28.34
28.35
28.29
28.07
27.49
26.40
24.72
22.44
19.66
16.51
13.20
9.90
6.77
3.90
1.21
-1.51
-4.47
-7.83
-11.57
-15.52
-19.42
-23.07
-26.39
-29.48
-32.53
-35.78
-39.45
-43.71
-48.64
-54.14
-59.78
-64.76
-67.93
-68.15
-64.61
-57.27
-46.93
-35.00
-23.06
-12.36
-3.51
3.52
9.18
14.04
18.49
22.75
26.78
30.50
33.74
36.29
37.99
38.72
38.51
37.57
36.31
35.17
34.51
34.53
35.10
35.92
36.54
36.57
35.80
34.24
32.12
29.77
27.44
25.27
23.16
20.94
18.41
15.52
12.41
9.31
6.47
3.95
1.63
-0.74
-3.45
-6.62
-10.18
-13.89
-17.48
-20.78
-23.82
-26.82
-30.15
-34.20
-39.24
-45.27
-51.96
-58.54
-63.92
-66.87
-66.40
-62.12
-54.39
-44.30
-33.26
-22.56
-13.04
-5.02
1.63
7.22
12.03
16.26
20.03
23.42
26.49
29.22
31.48
33.10
33.93
34.02
33.59
32.99
32.50
32.25
32.20
32.19
32.07
31.76
31.21
30.40
29.24
27.67
25.65
23.27
20.70
18.09
15.55
13.04
10.45
7.61
4.41
0.86
-2.94
-6.77
-10.41
-13.72
-16.67
-19.37
-22.06
-25.02
-28.53
-32.77
-37.79
-43.44
-49.28
-54.53
-58.21
-59.34
-57.28
-51.99
-44.05
-34.49
-24.49
-15.02
-6.67
0.38
6.21
11.07
15.23
18.91
22.25
25.23
27.69
29.40
30.23
30.20
29.53
28.57
27.65
26.94
26.44
26.04
25.59
25.00
24.19
23.16
21.84
20.17
18.11
15.66
12.97
10.19
7.44
4.71
1.83
-1.41
-5.09
-9.15
-13.31
-17.27
-20.81
-23.94
-26.86
-29.95
-33.60
-38.12
-43.63
-49.96
-56.51
-62.36
-66.36
-67.54
-65.45
-60.36
-53.21
-45.27
-37.71
-31.30
-26.36
-22.79
-20.40
-18.94
-18.28
-18.31
-18.92
-20.05
-21.61
-23.54
-25.73
-27.99
-30.00
-31.30
-31.30
-29.45
-25.27
-18.56
-9.43
1.68
14.07
26.95
39.61
51.42
61.95
70.80
77.66
82.22
84.38
84.22
82.12
78.57
74.08
69.00
63.46
57.46
50.96
44.04
36.92
29.85
23.13
16.89
11.12
5.69
0.38
-5.07
-10.95
-17.47
-24.66
-32.22
-39.37
-44.98
-47.85
-47.10
-42.58
-34.97
-25.59
-15.96
-7.31
-0.23
5.33
9.85
13.90
17.79
21.57
25.12
28.25
30.87
32.96
34.51
35.51
35.90
35.68
34.94
33.97
33.06
32.53
32.50
32.92
33.55
34.09
34.23
33.80
32.76
31.17
29.18
26.96
24.63
22.23
19.78
17.23
14.57
11.83
9.00
6.13
3.20
0.25
-2.63
-5.35
-7.86
-10.19
-12.51
-15.05
-17.98
-21.24
-24.66
-27.94
-30.90
-33.53
-36.01
-38.71
-42.00
-46.12
-51.10
-56.60
-61.89
-65.93
-67.57
-65.90
-60.66
-52.30
-41.95
-30.97
-20.59
-11.54
-3.99
2.26
7.58
12.28
16.51
20.31
23.69
26.66
29.21
31.34
32.98
34.01
34.32
33.90
32.88
31.54
30.22
29.20
28.58
28.24
27.92
27.33
26.29
24.78
22.90
20.79
18.55
16.24
13.87
11.48
9.12
6.84
4.66
2.56
0.46
-1.76
-4.17
-6.80
-9.60
-12.44
-15.17
-17.66
-19.88
-21.96
-24.22
-27.05
-30.79
-35.44
-40.61
-45.40
-48.72
-49.55
-47.29
-41.97
-34.22
-25.11
-15.80
-7.27
-0.13
5.42
9.54
12.60
15.01
17.10
19.03
20.80
22.27
23.29
23.75
23.69
23.26
22.68
22.13
21.76
21.63
21.67
21.77
21.82
21.77
21.59
21.28
20.81
20.06
18.87
17.09
14.69
11.83
8.84
6.06
3.72
1.83
0.17
-1.60
-3.76
-6.46
-9.67
-13.24
-16.91
-20.40
-23.50
-26.13
-28.37
-30.47
-32.72
-35.45
-38.94
-43.29
-48.35
-53.65
-58.30
-61.23
-61.42
-58.24
-51.78
-42.81
-32.58
-22.33
-13.03
-5.15
1.32
6.60
11.02
14.85
18.28
21.46
24.40
27.03
29.22
30.80
31.69
31.96
31.80
31.44
31.08
30.85
30.76
30.81
30.96
31.12
31.18
30.97
30.29
29.03
27.23
25.10
22.92
20.95
19.26
17.77
16.29
14.64
12.74
10.62
8.36
6.06
3.79
1.56
-0.60
-2.73
-4.92
-7.31
-10.00
-13.03
-16.26
-19.47
-22.43
-24.99
-27.25
-29.42
-31.86
-34.90
-38.79
-43.59
-49.15
-54.94
-60.14
-63.68
-64.59
-62.24
-56.65
-48.47
-38.83
-28.91
-19.66
-11.58
-4.76
0.98
5.85
10.06
13.71
16.86
19.59
21.94
23.94
25.53
26.62
27.12
27.05
26.57
25.99
25.62
25.71
26.32
27.27
28.29
29.07
29.42
29.30
28.80
28.06
27.15
26.07
24.76
23.23
21.54
19.87
18.45
17.40
16.72
16.21
15.53
14.39
12.64
10.40
7.97
5.76
4.10
3.15
2.81
2.83
2.86
2.54
1.61
-0.04
-2.19
-4.23
-5.16
-3.83
0.75
9.05
20.83
35.18
50.86
66.55
81.23
94.24
105.31
114.47
121.96
128.04
132.86
136.31
138.00
137.39
134.11
128.20
120.18
110.96
101.51
92.53
84.26
76.46
68.49
59.45
48.34
34.29
16.86
-3.57
-25.52
-46.38
-62.99
-72.42
-73.12
-65.74
-53.27
-40.41
-32.43
-33.86
-47.41
-73.41
-109.74
-152.13
-194.94
-232.21
-258.88
-272.04
-271.50
-259.60
-240.34
-218.02
-196.15
-176.91
-161.34
-149.72
-141.97
-137.63
-135.62
-134.26
-131.51
-125.57
-115.54
-101.66
-85.23
-68.04
-51.72
-37.23
-24.79
-14.00
-4.24
4.94
13.70
21.92
29.28
35.49
40.40
44.03
46.57
48.29
49.43
50.15
50.51
50.54
50.30
49.93
49.59
49.40
49.39
49.39
49.18
48.52
47.28
45.50
43.33
40.93
38.41
35.78
32.96
29.84
26.37
22.64
18.85
15.23
11.96
9.04
6.25
3.25
-0.30
-4.55
-9.42
-14.57
-19.57
-24.01
-27.70
-30.65
-33.17
-35.74
-38.94
-43.29
-48.94
-55.46
-61.81
-66.52
-68.17
-65.87
-59.60
-50.19
-39.01
-27.50
-16.76
-7.44
0.30
6.57
11.66
15.94
19.83
23.68
27.62
31.57
35.19
38.07
39.88
40.52
40.20
39.32
38.36
37.71
37.57
37.93
38.62
39.35
39.81
39.71
38.79
36.93
34.20
30.84
27.20
23.60
20.18
16.85
13.41
9.71
5.73
1.69
-2.14
-5.53
-8.48
-11.19
-13.99
-17.23
-21.21
-26.05
-31.60
-37.35
-42.39
-45.63
-46.02
-43.00
-36.67
-27.82
-17.71
-7.65
1.35
8.81
14.72
19.43
23.36
26.78
29.73
32.05
33.46
33.80
33.13
31.76
30.17
28.80
27.91
27.49
27.40
27.43
27.45
27.44
27.37
27.13
26.50
25.25
23.22
20.46
17.25
13.94
10.80
7.88
5.00
1.91
-1.61
-5.56
-9.75
-13.94
-17.98
-21.95
-26.19
-31.10
-36.92
-43.42
-49.83
-54.96
-57.49
-56.44
-51.52
-43.27
-32.80
-21.51
-10.58
-0.73
7.81
15.15
21.52
27.07
31.83
35.82
39.04
41.54
43.38
44.60
45.24
45.34
44.97
44.28
43.45
42.64
41.93
41.39
41.00
40.72
40.43
40.02
39.30
38.06
36.13
33.48
30.24
26.69
23.18
20.00
17.24
14.75
12.23
9.40
6.08
2.36
-1.54
-5.32
-8.75
-11.83
-14.75
-17.82
-21.39
-25.72
-30.91
-36.86
-43.15
-49.03
-53.48
-55.43
-54.04
-49.07
-40.97
-30.83
-20.02
-9.79
-0.94
6.32
12.20
17.13
21.47
25.46
29.15
32.49
35.37
37.68
39.27
40.08
40.11
39.50
38.49
37.38
36.44
35.79
35.47
35.35
35.28
35.10
34.63
33.76
32.44
30.69
28.58
26.25
23.86
21.49
19.20
16.97
14.72
12.42
10.02
7.53
4.94
2.21
-0.69
-3.79
-7.05
-10.31
-13.38
-16.11
-18.43
-20.46
-22.45
-24.75
-27.69
-31.48
-36.10
-41.20
-46.04
-49.61
-50.88
-49.08
-44.13
-36.60
-27.64
-18.52
-10.25
-3.38
2.08
6.40
9.93
12.96
15.63
17.94
19.85
21.24
22.04
22.23
21.90
21.20
20.36
19.56
18.92
18.48
18.23
18.14
18.14
18.13
17.91
17.27
16.09
14.34
12.23
10.00
7.88
5.94
4.03
1.90
-0.63
-3.55
-6.62
-9.50
-11.90
-13.78
-15.34
-16.98
-19.10
-22.00
-25.72
-30.00
-34.28
-37.78
-39.68
-39.32
-36.44
-31.24
-24.40
-16.82
-9.31
-2.46
3.47
8.44
12.54
15.84
18.43
20.37
21.75
22.67
23.17
23.24
22.87
22.08
21.00
19.88
18.98
18.46
18.36
18.51
18.69
18.70
18.40
17.82
16.99
16.01
14.87
13.56
12.02
10.25
8.32
6.35
4.43
2.59
0.78
-1.12
-3.15
-5.25
-7.29
-9.15
-10.79
-12.30
-13.89
-15.70
-17.81
-20.13
-22.49
-24.80
-27.10
-29.63
-32.74
-36.69
-41.45
-46.59
-51.22
-54.25
-54.70
-52.04
-46.40
-38.55
-29.60
-20.72
-12.72
-5.98
-0.51
3.89
7.48
10.46
13.04
15.39
17.65
19.86
21.93
23.70
24.95
25.56
25.58
25.15
24.57
24.11
24.03
24.42
25.22
26.14
26.86
27.05
26.53
25.32
23.59
21.59
19.51
17.48
15.51
13.60
11.72
9.85
8.01
6.17
4.35
2.55
0.83
-0.78
-2.21
-3.46
-4.63
-5.88
-7.41
-9.37
-11.78
-14.51
-17.30
-19.89
-22.12
-24.01
-25.72
-27.57
-29.90
-32.95
-36.82
-41.27
-45.72
-49.26
-50.89
-49.80
-45.77
-39.16
-30.92
-22.23
-14.09
-7.14
-1.52
2.91
6.48
9.46
12.07
14.44
16.60
18.49
19.97
20.90
21.15
20.74
19.82
18.63
17.42
16.42
15.74
15.46
15.53
15.89
16.36
16.72
16.72
16.13
14.87
13.03
10.84
8.58
6.47
4.59
2.90
1.23
-0.57
-2.59
-4.86
-7.29
-9.80
-12.23
-14.46
-16.39
-18.00
-19.37
-20.69
-22.22
-24.23
-26.94
-30.45
-34.59
-38.90
-42.65
-44.95
-45.02
-42.40
-37.14
-29.86
-21.52
-13.18
-5.72
0.41
5.17
8.85
11.86
14.55
17.05
19.29
21.07
22.22
22.70
22.66
22.40
22.18
22.16
22.37
22.66
22.92
23.07
23.11
23.09
23.00
22.74
22.14
21.07
19.52
17.62
15.59
13.63
11.84
10.14
8.42
6.54
4.42
2.11
-0.27
-2.58
-4.72
-6.70
-8.65
-10.74
-13.13
-15.85
-18.78
-21.71
-24.40
-26.73
-28.77
-30.76
-33.04
-35.95
-39.72
-44.33
-49.38
-54.11
-57.52
-58.61
-56.70
-51.69
-44.07
-34.80
-25.02
-15.77
-7.73
-1.19
3.94
7.99
11.37
14.47
17.50
20.50
23.31
25.69
27.43
28.41
28.64
28.27
27.53
26.70
26.05
25.74
25.86
26.28
26.84
27.27
27.36
26.95
26.02
24.66
23.04
21.38
19.83
18.44
17.19
15.92
14.51
12.86
10.97
8.95
6.92
5.04
3.36
1.84
0.34
-1.38
-3.47
-6.04
-8.99
-12.13
-15.22
-18.07
-20.64
-23.03
-25.49
-28.26
-31.62
-35.72
-40.54
-45.74
-50.65
-54.36
-55.90
-54.59
-50.24
-43.28
-34.59
-25.27
-16.27
-8.31
-1.72
3.49
7.53
10.75
13.51
16.06
18.53
20.81
22.69
23.97
24.61
24.71
24.56
24.40
24.39
24.55
24.76
24.91
24.95
24.94
24.94
24.94
24.83
24.39
23.43
21.80
19.58
16.94
14.16
11.48
9.04
6.85
4.82
2.79
0.67
-1.60
-4.02
-6.57
-9.20
-11.92
-14.73
-17.63
-20.61
-23.73
-27.11
-30.95
-35.43
-40.52
-45.82
-50.57
-53.71
-54.28
-51.69
-46.05
-38.07
-28.90
-19.70
-11.29
-4.05
2.04
7.18
11.61
15.45
18.77
21.59
23.94
25.84
27.26
28.17
28.57
28.56
28.34
28.20
28.36
28.95
29.95
31.17
32.29
33.01
33.07
32.38
30.99
29.16
27.16
25.21
23.38
21.59
19.62
17.35
14.70
11.79
8.79
5.86
3.05
0.32
-2.37
-5.09
-7.81
-10.50
-13.18
-15.95
-18.95
-22.23
-25.76
-29.37
-32.90
-36.37
-40.02
-44.25
-49.31
-55.06
-60.71
-65.00
-66.57
-64.51
-58.66
-49.78
-39.17
-28.28
-18.21
-9.53
-2.31
3.69
8.80
13.30
17.41
21.24
24.86
28.18
31.06
33.25
34.61
35.16
35.10
34.77
34.50
34.51
34.87
35.48
36.20
36.80
37.10
36.93
36.14
34.70
32.74
30.49
28.26
26.25
24.51
22.88
21.08
18.92
16.33
13.47
10.60
7.95
5.59
3.40
1.12
-1.54
-4.73
-8.42
-12.40
-16.39
-20.17
-23.60
-26.73
-29.74
-32.90
-36.58
-41.08
-46.50
-52.53
-58.38
-62.88
-64.82
-63.34
-58.30
-50.28
-40.40
-29.90
-19.77
-10.58
-2.56
4.28
9.94
14.46
17.94
20.61
22.81
24.94
27.17
29.48
31.58
33.09
33.76
33.58
32.87
32.13
31.83
32.25
33.34
34.83
36.30
37.32
37.47
36.25
33.26
28.45
22.54
17.04
13.91
14.70
19.70
27.57
35.74
41.46
42.90
39.76
33.12
24.64
15.70
6.94
-1.66
-10.28
-18.87
-27.05
-34.31
-40.36
-45.20
-49.00
-51.75
-53.08
-52.22
-48.27
-40.68
-29.58
-15.84
-0.98
13.32
25.65
35.21
42.04
46.96
51.22
56.22
62.89
71.47
81.32
91.14
99.43
104.94
107.07
105.97
102.43
97.55
92.44
87.89
84.35
81.91
80.45
79.78
79.62
79.69
79.70
79.43
78.73
77.62
76.29
74.99
73.84
72.79
71.59
69.90
67.47
64.23
60.27
55.66
50.41
44.38
37.38
29.32
20.31
10.69
0.96
-8.45
-17.16
-25.03
-32.08
-38.43
-44.27
-49.83
-55.26
-60.66
-65.91
-70.73
-74.65
-77.15
-77.87
-76.77
-74.26
-71.10
-68.16
-66.17
-65.53
-66.28
-68.17
-70.86
-73.98
-77.20
-80.11
-82.24
-83.18
-82.81
-81.49
-80.00
-79.04
-78.61
-77.50
-73.44
-63.86
-47.16
-23.85
2.97
28.20
45.96
51.09
40.28
12.92
-28.61
-79.17
-131.52
-177.75
-211.13
-227.88
-228.13
-215.52
-195.67
-173.99
-154.25
-138.00
-125.25
-115.40
-107.97
-102.71
-99.26
-96.79
-94.22
-90.62
-85.74
-80.20
-75.32
-72.58
-72.91
-76.32
-81.77
-87.50
-91.45
-91.84
-87.66
-78.88
-66.37
-51.60
-36.19
-21.45
-8.11
3.66
14.07
23.42
31.88
39.42
45.95
51.39
55.78
59.26
61.98
64.04
65.48
66.34
66.72
66.80
66.81
66.95
67.32
67.89
68.49
68.89
68.87
68.21
66.83
64.71
61.94
58.65
55.02
51.19
47.29
43.40
39.54
35.66
31.62
27.29
22.55
17.42
12.09
6.84
1.91
-2.54
-6.58
-10.48
-14.64
-19.50
-25.44
-32.63
-40.97
-49.88
-58.30
-64.82
-67.94
-66.54
-60.26
-49.73
-36.36
-21.99
-8.31
3.54
13.12
20.57
26.35
30.98
34.82
38.11
40.97
43.60
46.22
49.03
52.01
54.97
57.53
59.33
60.26
60.45
60.26
60.00
59.82
59.55
58.92
57.61
55.52
52.77
49.55
46.09
42.48
38.70
34.68
30.41
26.02
21.62
17.35
13.21
9.07
4.74
0.05
-5.02
-10.36
-15.75
-20.98
-26.00
-30.82
-35.58
-40.55
-46.04
-52.42
-59.91
-68.30
-76.74
-83.69
-87.27
-85.87
-78.80
-66.65
-51.05
-34.18
-17.94
-3.56
8.62
18.82
27.43
34.77
41.05
46.43
51.12
55.34
59.23
62.72
65.59
67.55
68.40
68.18
67.19
65.85
64.62
63.81
63.47
63.44
63.34
62.79
61.49
59.41
56.75
53.87
51.08
48.54
46.16
43.68
40.82
37.37
33.33
28.86
24.18
19.54
15.15
11.07
7.25
3.54
-0.25
-4.30
-8.64
-13.22
-17.97
-22.82
-27.82
-33.11
-38.88
-45.31
-52.52
-60.49
-68.85
-76.82
-83.09
-86.11
-84.47
-77.52
-65.69
-50.50
-34.04
-18.32
-4.59
6.86
16.46
24.96
32.87
40.32
47.06
52.74
57.11
60.18
62.11
63.13
63.42
63.14
62.49
61.73
61.16
60.95
61.07
61.21
60.86
59.60
57.24
54.00
50.36
46.85
43.80
41.15
38.56
35.59
31.93
27.54
22.69
17.71
12.92
8.45
4.20
-0.01
-4.35
-8.87
-13.46
-17.91
-22.00
-25.58
-28.72
-31.72
-35.06
-39.28
-44.69
-51.29
-58.45
-65.06
-69.63
-70.75
-67.47
-59.62
-47.92
-33.77
-18.81
-4.62
7.74
17.74
25.38
31.05
35.35
38.86
42.05
45.09
47.96
50.47
52.49
54.03
55.23
56.34
57.55
58.95
60.56
62.28
64.04
65.70
67.14
68.19
68.74
68.71
68.12
67.08
65.80
64.61
63.88
63.94
64.90
66.53
68.33
69.65
70.07
69.52
68.31
66.83
65.30
63.53
61.02
57.30
52.19
46.08
39.74
34.09
29.89
27.61
27.38
29.13
32.65
37.43
42.50
46.24
46.80
42.53
32.83
18.44
1.15
-17.05
-35.18
-53.83
-75.00
-100.96
-132.78
-169.20
-206.50
-239.37
-262.49
-272.16
-267.34
-249.81
-223.41
-192.78
-162.07
-134.14
-110.31
-90.82
-75.34
-63.46
-54.74
-48.56
-43.99
-39.89
-35.28
-29.78
-23.77
-18.23
-14.17
-12.14
-11.97
-12.84
-13.77
-14.05
-13.59
-12.82
-12.41
-12.90
-14.46
-16.86
-19.68
-22.51
-25.21
-27.93
-31.03
-34.96
-40.01
-46.15
-52.77
-58.75
-62.65
-63.10
-59.33
-51.44
-40.48
-28.03
-15.73
-4.74
4.40
11.72
17.60
22.41
26.49
30.04
33.21
36.06
38.58
40.59
41.91
42.42
42.19
41.49
40.71
40.17
40.05
40.29
40.69
41.04
41.12
40.81
40.07
38.87
37.24
35.22
32.87
30.27
27.47
24.50
21.40
18.21
15.02
11.94
9.07
6.45
4.09
1.86
-0.38
-2.81
-5.57
-8.71
-12.22
-15.90
-19.53
-22.86
-25.76
-28.31
-30.79
-33.67
-37.40
-42.26
-48.12
-54.29
-59.61
-62.68
-62.28
-57.85
-49.68
-38.89
-27.08
-15.72
-5.87
2.10
8.29
13.07
16.83
19.86
22.43
24.67
26.68
28.39
29.60
30.12
29.82
28.86
27.60
26.54
26.10
26.49
27.60
29.07
30.39
31.10
30.88
29.66
27.62
25.09
22.42
19.77
17.15
14.37
11.26
7.76
3.98
0.16
-3.45
-6.76
-9.78
-12.59
-15.34
-18.19
-21.34
-25.11
-29.79
-35.48
-41.81
-47.87
-52.30
-53.71
-51.25
-44.92
-35.62
-24.80
-13.99
-4.29
3.83
10.43
15.80
20.28
24.04
27.15
29.59
31.32
32.38
32.79
32.68
32.24
31.76
31.49
31.59
32.06
32.77
33.53
34.20
34.67
34.82
34.51
33.54
31.74
29.07
25.72
22.01
18.34
15.00
12.09
9.51
6.99
4.21
0.94
-2.91
-7.21
-11.71
-16.10
-20.14
-23.77
-27.02
-30.10
-33.30
-36.93
-41.36
-46.80
-53.26
-60.26
-66.82
-71.61
-73.25
-70.83
-64.21
-54.13
-41.97
-29.32
-17.51
-7.30
1.12
7.98
13.69
18.59
22.91
26.77
30.19
33.22
35.84
38.03
39.70
40.77
41.23
41.11
40.61
39.93
39.31
38.90
38.74
38.70
38.54
37.96
36.74
34.79
32.19
29.11
25.75
22.28
18.81
15.40
12.08
8.84
5.60
2.23
-1.43
-5.49
-9.92
-14.51
-18.99
-23.11
-26.84
-30.41
-34.26
-38.89
-44.61
-51.30
-58.35
-64.59
-68.59
-69.02
-65.10
-56.85
-45.21
-31.72
-18.10
-5.75
4.57
12.75
19.15
24.32
28.72
32.60
35.97
38.72
40.67
41.72
41.88
41.28
40.18
38.85
37.54
36.43
35.59
35.00
34.56
34.15
33.56
32.61
31.09
28.93
26.10
22.72
18.96
14.95
10.81
6.62
2.44
-1.65
-5.59
-9.37
-13.11
-17.03
-21.42
-26.52
-32.39
-38.82
-45.16
-50.51
-53.77
-53.98
-50.63
-43.84
-34.36
-23.40
-12.25
-1.98
6.78
13.89
19.48
23.88
27.33
29.97
31.83
32.87
33.14
32.75
31.90
30.87
29.89
29.11
28.51
27.99
27.38
26.63
25.71
24.65
23.40
21.83
19.72
16.86
13.17
8.75
3.87
-1.11
-5.90
-10.34
-14.46
-18.47
-22.72
-27.56
-33.22
-39.63
-46.27
-52.17
-56.12
-57.03
-54.26
-47.89
-38.72
-27.97
-16.92
-6.63
2.32
9.76
15.85
20.85
24.98
28.35
30.91
32.55
33.19
32.83
31.59
29.69
27.42
25.02
22.78
20.91
19.57
18.81
18.51
18.43
18.18
17.39
15.75
13.15
9.74
5.83
1.82
-1.95
-5.37
-8.59
-12.00
-16.13
-21.37
-27.78
-34.92
-41.86
-47.35
-50.16
-49.44
-45.02
-37.42
-27.78
-17.43
-7.56
1.06
8.13
13.77
18.28
22.05
25.34
28.30
30.89
32.91
34.09
34.18
33.13
31.18
28.78
26.49
24.70
23.55
22.83
22.21
21.38
20.22
18.80
17.25
15.63
13.81
11.52
8.52
4.72
0.27
-4.50
-9.24
-13.64
-17.57
-21.04
-24.16
-27.12
-30.18
-33.70
-38.00
-43.25
-49.24
-55.27
-60.18
-62.62
-61.51
-56.46
-47.89
-36.97
-25.17
-13.82
-3.73
4.83
12.05
18.25
23.72
28.60
32.89
36.56
39.55
41.79
43.24
43.86
43.64
42.65
41.11
39.35
37.73
36.57
35.97
35.84
35.91
35.79
35.22
34.01
32.19
29.88
27.26
24.47
21.58
18.64
15.64
12.59
9.47
6.27
2.99
-0.37
-3.79
-7.22
-10.65
-14.11
-17.62
-21.20
-24.80
-28.34
-31.70
-34.86
-37.96
-41.26
-45.15
-49.94
-55.67
-61.97
-67.91
-72.27
-73.71
-71.34
-64.93
-55.14
-43.23
-30.68
-18.79
-8.33
0.47
7.75
13.85
19.11
23.79
28.06
32.03
35.65
38.73
40.98
42.13
42.07
40.95
39.14
37.12
35.29
33.90
33.04
32.61
32.45
32.34
32.06
31.39
30.19
28.38
26.03
23.27
20.29
17.23
14.18
11.22
8.45
6.00
3.90
2.10
0.42
-1.38
-3.46
-5.87
-8.47
-11.13
-13.70
-16.18
-18.66
-21.29
-24.23
-27.63
-31.62
-36.22
-41.32
-46.45
-50.75
-53.18
-52.73
-48.90
-41.92
-32.68
-22.54
-12.76
-4.17
2.93
8.72
13.56
17.75
21.47
24.76
27.65
30.16
32.27
33.93
35.01
35.40
35.07
34.12
32.75
31.18
29.59
28.07
26.69
25.42
24.24
23.05
21.74
20.22
18.45
16.50
14.51
12.65
10.94
9.33
7.68
5.86
3.84
1.73
-0.34
-2.30
-4.19
-6.10
-8.12
-10.26
-12.43
-14.54
-16.50
-18.37
-20.30
-22.47
-25.05
-28.13
-31.69
-35.48
-39.07
-41.80
-42.94
-41.88
-38.40
-32.78
-25.82
-18.54
-11.82
-6.20
-1.75
1.76
4.64
7.14
9.30
11.10
12.55
13.72
14.72
15.63
16.38
16.85
16.88
16.48
15.78
15.01
14.39
14.03
13.90
13.90
13.87
13.73
13.39
12.74
11.69
10.17
8.22
6.01
3.79
1.71
-0.16
-1.89
-3.57
-5.20
-6.67
-7.90
-8.84
-9.66
-10.51
-11.53
-12.66
-13.73
-14.55
-15.11
-15.55
-16.21
-17.41
-19.38
-22.13
-25.39
-28.62
-31.10
-32.14
-31.33
-28.65
-24.54
-19.74
-15.01
-10.89
-7.64
-5.21
-3.41
-1.96
-0.57
0.93
2.55
4.15
5.48
6.33
6.64
6.51
6.24
6.06
6.12
6.39
6.69
6.82
6.65
6.12
5.29
4.28
