1626357339.00
64.000000
-0.00
-0.00
-0.00
-0.00
-0.00
-0.00
-0.00
-0.00
-0.00
-0.00
0.00
0.01
0.01
-0.00
-0.03
-0.05
-0.05
0.00
0.13
0.36
0.66
1.01
1.37
1.72
2.06
2.40
2.79
3.24
3.80
4.42
5.06
5.66
6.20
6.68
7.15
7.68
8.31
9.14
10.09
11.04
11.88
12.56
13.14
13.76
14.65
15.96
17.91
20.32
22.90
25.38
27.58
29.57
31.68
34.32
37.81
42.54
48.15
54.10
59.83
64.97
69.58
74.14
79.34
85.71
93.76
103.00
112.62
121.73
129.77
136.75
143.30
150.75
157.77
166.64
177.95
191.79
206.97
220.57
228.25
225.36
208.53
176.87
132.76
80.05
23.07
-34.94
-92.44
-149.16
-205.23
-260.37
-313.74
-363.87
-409.83
-450.91
-486.50
-515.74
-537.23
-549.22
-549.96
-538.37
-514.21
-478.67
-433.88
-382.45
-327.02
-269.84
-212.63
-156.66
-102.95
-52.37
-5.90
35.58
71.43
101.35
125.50
144.38
158.69
169.15
176.37
180.75
182.57
182.07
179.51
175.23
169.65
163.18
156.15
148.81
141.30
133.69
126.02
118.33
110.69
103.16
95.80
88.68
81.83
75.25
68.95
62.95
57.25
51.86
46.78
42.03
37.59
33.45
29.61
26.07
22.81
19.83
17.11
14.67
12.48
10.54
8.83
7.35
6.07
4.97
4.05
3.27
2.62
2.09
1.65
1.30
1.01
0.79
0.61
0.48
0.38
0.30
0.25
0.21
0.19
0.17
0.17
0.18
0.19
0.20
0.22
0.24
0.27
0.30
0.34
0.38
0.42
0.47
0.52
0.57
0.63
0.69
0.75
0.83
0.90
0.98
1.08
1.18
1.29
1.42
1.56
1.71
1.88
2.06
2.27
2.50
2.75
3.02
3.33
3.66
4.02
4.41
4.84
5.29
5.79
6.31
6.88
7.49
8.14
8.83
9.57
10.34
11.17
12.04
12.99
13.98
15.02
16.07
17.10
18.07
18.92
19.59
20.00
20.12
19.92
19.37
18.45
17.21
15.67
13.92
12.02
10.04
7.96
5.81
3.56
1.20
-1.28
-3.87
-6.50
-9.09
-11.53
-13.72
-15.57
-17.07
-18.22
-19.02
-19.47
-19.56
-19.26
-18.59
-17.59
-16.39
-15.18
-14.12
-13.32
-12.82
-12.49
-12.16
-11.65
-10.92
-10.04
-9.29
-8.93
-9.15
-9.93
-11.07
-12.20
-13.00
-13.34
-13.30
-13.28
-13.70
-14.88
-16.89
-19.50
-22.33
-24.94
-27.09
-28.72
-30.09
-31.59
-33.82
-37.59
-43.51
-51.62
-60.83
-68.83
-72.64
-69.86
-59.73
-43.75
-25.36
-8.61
3.18
8.32
6.74
0.36
-8.83
-18.50
-26.11
-29.22
-25.87
-15.14
2.39
24.62
48.55
71.06
89.78
103.45
111.70
114.82
113.32
107.90
99.45
89.10
77.99
67.15
57.22
48.33
40.23
32.53
24.97
17.59
10.66
4.45
-0.96
-5.84
-10.78
-16.57
-23.97
-33.50
-45.28
-58.82
-72.86
-85.36
-93.80
-95.83
-89.97
-76.16
-55.83
-31.46
-5.84
18.62
40.23
58.02
71.48
80.26
84.22
83.52
78.86
71.44
62.79
54.30
46.91
40.79
35.49
30.20
24.26
17.50
10.25
3.25
-2.89
-7.96
-12.31
-16.76
-22.26
-29.69
-39.48
-51.54
-65.02
-78.25
-88.93
-94.49
-92.91
-83.34
-66.48
-44.33
-19.51
5.50
28.87
49.44
66.43
79.11
86.83
89.21
86.62
80.21
71.74
63.05
55.39
49.21
44.05
39.05
33.35
26.55
18.89
10.98
3.57
-2.90
-8.41
-13.40
-18.57
-24.65
-32.31
-41.98
-53.73
-66.94
-80.10
-90.83
-96.44
-94.70
-84.68
-67.18
-44.44
-19.39
5.24
27.53
46.38
61.22
71.57
77.07
77.53
73.47
66.10
57.20
48.58
41.43
36.04
31.82
27.74
22.90
17.00
10.45
4.06
-1.39
-5.63
-9.04
-12.48
-16.94
-23.26
-31.88
-42.76
-55.28
-68.11
-79.29
-86.56
-87.88
-82.07
-69.30
-50.98
-29.33
-6.76
14.71
33.60
48.88
59.79
65.87
67.05
63.85
57.44
49.36
41.13
33.86
28.07
23.67
20.13
16.84
13.29
9.32
5.05
0.81
-3.17
-6.92
-10.83
-15.56
-21.92
-30.54
-41.53
-54.27
-67.19
-78.02
-84.29
-84.07
-76.56
-62.40
-43.43
-22.00
-0.46
19.41
36.37
49.49
58.09
61.72
60.48
55.22
47.46
38.97
31.19
24.86
19.83
15.45
10.99
6.05
0.70
-4.55
-9.20
-13.00
-16.21
-19.62
-24.24
-31.05
-40.53
-52.35
-65.23
-77.06
-85.32
-87.75
-83.01
-71.13
-53.45
-32.24
-9.98
11.16
29.71
44.73
55.72
62.35
64.54
62.57
57.25
49.79
41.55
33.62
26.59
20.55
15.25
10.42
5.94
1.84
-1.78
-4.94
-7.89
-11.08
-15.13
-20.71
-28.34
-38.19
-49.77
-61.75
-72.01
-78.08
-77.81
-70.17
-55.57
-35.77
-13.33
9.14
29.58
46.66
59.67
68.26
72.33
71.99
67.74
60.53
51.61
42.26
33.41
25.54
18.62
12.38
6.54
0.95
-4.35
-9.28
-13.81
-18.07
-22.42
-27.42
-33.76
-42.05
-52.50
-64.45
-76.29
-85.55
-89.61
-86.56
-75.90
-58.79
-37.54
-14.85
6.99
26.44
42.65
55.06
63.17
66.61
65.43
60.42
52.97
44.81
37.30
31.06
25.90
21.07
15.92
10.19
4.14
-1.66
-6.79
-11.17
-15.26
-19.79
-25.60
-33.24
-42.87
-54.04
-65.63
-75.90
-82.75
-84.20
-79.00
-67.06
-49.58
-28.73
-7.03
13.31
30.64
44.03
53.03
57.55
57.80
54.41
48.40
41.03
33.55
26.71
20.75
15.43
10.37
5.35
0.38
-4.31
-8.58
-12.43
-16.15
-20.21
-25.23
-31.82
-40.51
-51.35
-63.65
-75.78
-85.31
-89.68
-86.96
-76.58
-59.52
-37.97
-14.68
7.84
27.71
43.76
55.35
62.27
64.61
62.90
58.04
51.21
43.63
36.21
29.42
23.34
17.76
12.47
7.36
2.47
-2.07
-6.18
-10.02
-14.00
-18.76
-25.13
-33.78
-44.91
-57.83
-70.82
-81.29
-86.48
-84.28
-73.98
-56.57
-34.34
-10.23
13.09
33.65
50.28
62.39
69.75
72.41
70.81
65.91
59.05
51.68
44.85
38.98
33.84
28.82
23.41
17.47
11.34
5.60
0.70
-3.35
-7.09
-11.46
-17.57
-26.19
-37.55
-50.90
-64.54
-75.96
-82.43
-81.78
-73.07
-57.01
-35.76
-12.20
10.93
31.61
48.74
61.82
70.57
74.80
74.54
70.36
63.46
55.49
47.98
41.90
37.34
33.71
30.22
26.28
21.83
17.21
12.87
9.02
5.44
1.53
-3.56
-10.71
-20.54
-33.04
-47.35
-61.58
-73.00
-78.80
-76.90
-66.75
-49.53
-27.75
-4.33
18.26
38.45
55.49
69.01
78.57
83.68
84.12
80.27
73.34
65.03
56.98
50.26
45.04
40.82
36.74
32.11
26.68
20.65
14.55
8.85
3.80
-0.78
-5.42
-10.88
-17.92
-27.05
-38.31
-50.97
-63.50
-73.66
-79.08
-77.90
-69.40
-54.32
-34.55
-12.60
9.11
28.75
45.24
57.97
66.57
70.90
71.01
67.46
61.28
53.90
46.72
40.70
36.12
32.55
29.19
25.24
20.32
14.64
8.90
3.84
-0.13
-3.30
-6.51
-10.96
-17.67
-27.10
-38.90
-51.82
-63.87
-72.74
-76.27
-73.08
-62.88
-46.68
-26.43
-4.56
16.62
35.35
50.46
61.27
67.43
68.97
66.29
60.30
52.33
43.78
35.75
28.77
22.75
17.22
11.67
5.89
0.01
-5.61
-10.64
-14.97
-18.88
-22.94
-27.92
-34.55
-43.33
-54.18
-66.18
-77.54
-85.87
-88.79
-84.71
-73.34
-55.83
-34.33
-11.38
10.80
30.56
46.89
59.11
66.80
69.80
68.37
63.39
56.16
48.18
40.60
34.00
28.31
23.01
17.59
11.78
5.76
-0.08
-5.29
-9.74
-13.69
-17.87
-23.27
-30.74
-40.61
-52.20
-63.78
-72.81
-76.68
-73.52
-62.91
-45.99
-25.05
-2.85
18.17
36.21
50.24
59.79
64.74
65.36
62.22
56.32
48.82
40.91
33.49
27.01
21.53
16.76
12.34
7.96
3.51
-0.98
-5.40
-9.73
-14.17
-19.19
-25.47
-33.61
-43.79
-55.34
-66.61
-75.22
-78.64
-75.06
-63.99
-46.56
-25.13
-2.56
18.57
36.47
50.17
59.39
64.19
64.90
62.03
56.43
49.09
41.04
33.05
25.50
18.48
11.87
5.65
-0.08
-5.10
-9.22
-12.43
-14.97
-17.39
-20.40
-24.87
-31.46
-40.38
-50.97
-61.59
-69.88
-73.34
-70.21
-60.06
-44.05
-24.45
-3.93
15.08
30.92
42.63
49.82
52.51
51.09
46.36
39.51
31.83
24.41
17.85
12.26
7.42
3.06
-0.96
-4.62
-7.87
-10.77
-13.54
-16.47
-19.96
-24.41
-30.32
-38.07
-47.75
-58.79
-69.67
-78.18
-81.86
-78.86
-68.61
-52.12
-31.61
-9.86
10.61
28.01
41.36
50.28
54.72
54.88
51.22
44.58
36.13
27.11
18.61
11.20
4.98
-0.35
-5.12
-9.45
-13.26
-16.33
-18.65
-20.61
-23.08
-27.17
-33.94
-43.94
-56.74
-70.88
-83.90
-92.97
-95.57
-90.34
-77.42
-58.41
-35.84
-12.43
9.48
28.27
42.94
52.94
58.02
58.37
54.68
48.14
40.34
32.70
26.15
20.91
16.51
12.24
7.49
2.16
-3.40
-8.59
-12.92
-16.35
-19.40
-23.05
-28.40
-36.33
-47.05
-59.82
-72.85
-83.60
-89.27
-87.63
-77.73
-60.23
-37.24
-11.61
13.89
37.18
57.07
72.96
84.49
91.33
93.38
90.96
85.08
77.21
68.89
61.21
54.50
48.45
42.38
35.77
28.54
21.06
13.95
7.65
2.24
-2.70
-7.97
-14.60
-23.58
-35.52
-50.27
-66.64
-82.28
-94.11
-99.12
-95.28
-82.35
-61.90
-36.82
-10.33
14.98
37.48
56.48
71.66
82.73
89.30
91.12
88.47
82.24
73.80
64.64
55.99
48.53
42.37
37.16
32.31
27.30
21.89
16.17
10.51
5.36
0.83
-3.38
-8.09
-14.37
-23.22
-35.18
-49.98
-66.47
-82.56
-95.59
-102.88
-102.38
-93.33
-76.52
-54.13
-29.06
-4.12
18.65
38.23
54.42
67.33
77.02
83.33
86.10
85.48
82.10
77.00
71.36
65.99
61.13
56.43
51.34
45.44
38.73
31.68
24.89
18.81
13.44
8.44
3.22
-2.68
-9.54
-17.48
-26.60
-37.08
-48.90
-61.51
-73.51
-82.71
-86.59
-83.17
-71.78
-53.39
-30.26
-5.24
19.07
40.82
58.97
73.09
83.06
88.89
90.72
88.97
84.41
78.04
70.89
63.83
57.35
51.64
46.54
41.85
37.32
32.80
28.23
23.50
18.56
13.26
7.55
1.44
-4.98
-11.62
-18.54
-26.03
-34.68
-45.05
-57.44
-71.31
-85.13
-96.41
-102.33
-100.63
-90.38
-72.43
-49.13
-23.60
1.20
23.13
41.05
54.69
64.13
69.60
71.33
69.69
65.29
59.00
51.87
44.83
38.56
33.30
28.90
24.98
21.14
17.13
12.89
8.58
4.29
0.12
-4.05
-8.44
-13.32
-18.94
-25.56
-33.42
-42.77
-53.70
-65.82
-78.04
-88.47
-94.73
-94.66
-87.02
-72.10
-51.63
-28.29
-4.84
16.54
34.52
48.53
58.33
63.84
65.00
62.15
56.08
48.14
39.86
32.51
26.78
22.56
19.15
15.67
11.47
6.40
0.87
-4.49
-9.15
-12.95
-16.27
-19.72
-24.04
-29.74
-37.14
-46.30
-56.97
-68.50
-79.58
-88.38
-92.80
-91.14
-82.64
-67.88
-48.55
-26.94
-5.33
14.53
31.43
44.59
53.43
57.60
57.18
52.87
46.00
38.20
31.00
25.29
21.22
18.22
15.43
12.10
7.91
3.07
-1.87
-6.23
-9.64
-12.13
-14.27
-16.96
-21.10
-27.44
-36.14
-46.77
-58.13
-68.41
-75.50
-77.43
-72.94
-61.86
-45.19
-24.91
-3.45
16.86
34.24
47.57
56.40
60.70
60.82
57.40
51.42
44.00
36.30
29.16
22.95
17.58
12.57
7.50
2.16
-3.29
-8.43
-12.88
-16.52
-19.65
-22.95
-27.23
-33.24
-41.36
-51.53
-63.03
-74.53
-84.15
-89.78
-89.64
-82.76
-69.36
-50.87
-29.50
-7.68
12.46
29.46
42.50
51.23
55.63
55.94
52.72
46.85
39.49
31.79
24.64
18.36
12.84
7.62
2.26
-3.39
-9.18
-14.75
-19.83
-24.41
-28.84
-33.81
-40.06
-48.24
-58.58
-70.60
-82.96
-93.56
-99.88
-99.74
-91.97
-76.89
-56.26
-32.65
-8.72
13.50
32.68
48.10
59.24
65.68
67.19
64.01
57.18
48.25
39.00
30.77
24.13
18.86
14.20
9.39
4.00
-1.80
-7.54
-12.64
-16.87
-20.56
-24.57
-30.07
-38.05
-48.94
-62.12
-75.93
-87.83
-95.16
-95.81
-88.82
-74.68
-55.02
-32.10
-8.18
14.82
35.44
52.56
65.24
72.87
75.29
73.02
67.29
59.71
51.84
44.74
38.70
33.36
28.03
22.12
15.50
8.50
1.76
-4.18
-9.11
-13.34
-17.59
-22.68
-29.41
-38.21
-49.09
-61.43
-73.80
-84.07
-89.78
-88.87
-80.36
-64.88
-44.43
-21.64
1.05
22.07
40.73
56.83
70.10
79.86
85.26
85.77
81.67
74.20
65.23
56.59
49.53
44.17
39.75
35.05
29.06
21.61
13.36
5.48
-0.97
-5.71
-9.43
-13.62
-19.82
-29.31
-42.41
-58.47
-75.89
-92.28
-104.57
-109.45
-104.17
-87.51
-60.72
-27.41
7.29
38.48
62.94
79.74
89.76
94.55
95.22
92.14
85.47
75.90
64.98
54.73
46.79
41.62
38.27
35.11
30.65
24.29
16.52
8.37
1.06
-4.87
-9.64
-14.13
-19.61
-27.33
-38.08
-51.83
-67.52
-82.97
-95.31
-101.57
-99.55
-88.48
-69.30
-44.32
-16.51
11.17
36.45
57.71
73.98
84.67
89.51
88.72
83.10
74.15
63.70
53.59
45.03
38.38
33.17
28.48
23.49
17.87
11.89
6.13
1.05
-3.31
-7.44
-12.16
-18.37
-26.78
-37.71
-50.84
-65.10
-78.57
-88.77
-93.22
-90.06
-78.77
-60.20
-36.37
-9.78
17.13
42.25
63.78
80.15
90.17
93.24
89.85
81.52
70.55
59.28
49.33
41.27
34.63
28.50
22.16
15.53
9.10
3.57
-0.68
-4.02
-7.37
-12.07
-19.31
-29.83
-43.69
-60.23
-77.77
-93.56
-104.17
-106.22
-97.74
-78.95
-52.47
-22.40
7.15
33.28
54.77
71.52
83.73
91.27
93.78
91.26
84.57
75.41
65.69
56.81
49.15
42.27
35.40
28.04
20.22
12.38
5.19
-0.94
-5.98
-10.44
-15.26
-21.72
-31.02
-43.88
-59.93
-77.43
-93.43
-104.35
-107.06
-99.89
-83.11
-58.89
-30.41
-1.05
26.50
50.39
69.52
83.23
91.09
93.05
89.65
82.15
72.41
62.38
53.53
46.50
41.08
36.53
32.07
27.31
22.27
17.26
12.54
8.10
3.49
-2.08
-9.53
-19.65
-32.68
-47.96
-63.80
-77.63
-86.56
-88.13
-81.04
-65.53
-43.20
-16.41
12.23
40.44
66.18
87.61
103.01
111.11
111.53
105.14
94.01
80.81
68.01
57.04
48.16
40.64
33.48
26.03
18.32
10.92
4.48
-0.65
-4.83
-9.02
-14.48
-22.49
-33.81
-48.41
-65.22
-82.10
-95.96
-103.41
-101.51
-88.83
-66.18
-36.54
-4.31
26.08
51.36
70.06
82.26
88.76
90.38
87.65
81.17
71.91
61.46
51.58
43.55
37.65
33.12
28.69
23.34
16.78
9.51
2.40
-3.79
-8.91
-13.49
-18.61
-25.50
-35.16
-47.83
-62.79
-78.12
-91.05
-98.56
-98.20
-88.89
-71.24
-47.40
-20.30
7.09
32.46
54.21
71.30
83.01
88.83
88.74
83.40
74.33
63.52
53.02
44.21
37.48
32.33
27.66
22.54
16.49
9.75
2.99
-3.07
-8.11
-12.41
-16.85
-22.64
-30.87
-42.10
-55.88
-70.63
-83.81
-92.47
-94.08
-87.23
-72.15
-50.52
-25.07
1.24
25.71
46.26
61.55
70.87
74.18
72.10
65.90
57.26
47.90
39.19
31.83
25.83
20.72
15.91
11.01
5.97
1.02
-3.54
-7.62
-11.48
-15.65
-20.91
-28.00
-37.44
-49.27
-62.74
-76.21
-87.23
-93.08
-91.51
-81.55
-63.86
-40.61
-14.77
10.66
33.33
51.74
65.12
73.19
76.06
74.22
68.63
60.63
51.65
42.86
34.89
27.81
21.37
15.26
9.33
3.67
-1.60
-6.42
-11.03
-15.86
-21.57
-28.88
-38.42
-50.39
-64.27
-78.54
-90.71
-97.82
-97.33
-87.99
-70.40
-46.78
-20.36
5.70
28.99
48.10
62.38
71.58
75.65
74.80
69.76
61.78
52.53
43.50
35.64
29.07
23.29
17.63
11.65
5.45
-0.53
-5.79
-10.16
-14.00
-18.14
-23.62
-31.43
-42.09
-55.31
-69.77
-83.12
-92.47
-95.06
-89.16
-74.74
-53.45
-28.21
-2.21
21.86
42.23
58.03
68.92
74.81
75.79
72.38
65.60
57.00
48.21
40.48
34.25
29.14
24.34
19.09
13.20
7.05
1.39
-3.24
-6.82
-10.04
-14.09
-20.17
-29.16
-41.15
-55.28
-69.73
-81.92
-89.14
-89.13
-80.83
-64.70
-42.67
-17.52
7.81
30.89
50.05
64.37
73.45
77.27
76.22
71.18
63.54
54.95
46.87
40.18
34.94
30.53
26.11
21.06
15.32
9.38
3.87
-0.78
-4.69
-8.53
-13.28
-19.96
-29.25
-41.28
-55.41
-70.17
-83.34
-92.27
-94.56
-88.68
-74.52
-53.49
-28.10
-1.35
24.08
46.16
63.65
75.87
82.58
83.91
80.45
73.35
64.22
54.81
46.53
40.12
35.46
31.77
28.14
23.91
19.04
13.94
9.21
5.17
1.61
-2.25
-7.49
-15.14
-25.86
-39.48
-54.93
-70.17
-82.50
-89.18
-88.19
-78.85
-62.04
-39.97
-15.49
8.68
30.38
48.20
61.26
69.12
71.70
69.50
63.60
55.63
47.33
39.99
34.14
29.43
25.05
20.21
14.62
8.53
2.59
-2.65
-7.08
-11.12
-15.67
-21.68
-29.96
-40.79
-53.83
-68.00
-81.42
-91.71
-96.37
-93.54
-82.57
-64.37
-41.18
-15.90
8.62
30.26
47.65
60.17
67.55
69.87
67.61
61.75
53.76
45.25
37.59
31.43
26.70
22.68
18.60
13.98
8.80
3.45
-1.62
-6.21
-10.55
-15.26
-21.17
-29.07
-39.35
-51.81
-65.41
-78.30
-87.97
-91.89
-88.20
-76.31
-57.26
-33.39
-7.67
17.12
38.93
56.63
69.66
77.80
80.99
79.48
74.07
66.13
57.44
49.55
43.37
38.84
35.15
31.21
26.21
20.07
13.38
7.00
1.64
-2.65
-6.53
-11.17
-17.79
-27.25
-39.69
-54.29
-69.31
-82.26
-90.39
-91.34
-83.93
-68.49
-46.97
-22.21
2.75
25.56
44.79
59.83
70.45
76.48
77.83
74.66
67.78
58.60
48.85
40.10
33.21
28.26
24.58
21.20
17.22
12.21
6.25
-0.14
-6.30
-11.74
-16.41
-20.76
-25.59
-31.83
-40.24
-51.10
-64.01
-77.76
-90.36
-99.23
-101.89
-96.58
-82.94
-62.29
-37.27
-11.12
13.30
34.06
50.37
62.17
69.67
72.99
72.21
67.67
60.27
51.51
43.09
36.41
32.04
29.57
27.92
25.84
22.46
17.62
11.73
5.51
-0.49
-6.05
-11.42
-17.05
-23.50
-31.17
-40.38
-51.20
-63.31
-75.80
-87.00
-94.65
-96.43
-90.72
-77.21
-57.17
-33.10
-7.92
15.75
36.19
52.43
64.06
70.91
72.96
70.52
64.45
56.19
47.37
39.46
33.28
28.85
25.56
22.49
18.92
14.51
9.51
4.41
-0.22
-4.12
-7.49
-10.92
-15.25
-21.23
-29.39
-39.82
-52.12
-65.19
-77.26
-86.11
-89.49
-85.85
-74.80
-57.43
-35.87
-12.75
9.60
29.48
45.86
58.09
65.67
68.35
66.25
60.24
51.80
42.74
34.63
28.37
24.00
20.83
17.91
14.40
9.99
4.87
-0.39
-5.24
-9.43
-13.24
-17.38
-22.70
-30.01
-39.69
-51.60
-64.92
-78.13
-89.08
-95.38
-94.95
-86.70
-71.04
-49.84
-25.91
-2.18
19.08
36.58
49.92
59.16
64.48
66.06
64.21
59.57
53.19
46.33
40.13
35.19
31.44
28.26
24.82
20.55
15.31
9.48
3.63
-1.80
-6.77
-11.68
-17.21
-24.04
-32.75
-43.54
-56.17
-69.63
-82.22
-91.62
-95.45
-91.99
-80.80
-62.98
-40.87
-17.31
5.13
24.70
40.56
52.49
60.51
64.66
65.04
61.99
56.28
49.12
41.87
35.68
31.08
27.83
25.14
22.04
17.86
12.54
6.48
0.40
-5.16
-10.03
-14.50
-19.10
-24.46
-31.14
-39.61
-50.18
-62.74
-76.53
-89.87
-100.20
-104.68
-101.04
-88.50
-68.10
-42.61
-15.53
9.90
31.53
48.48
60.81
68.94
73.16
73.64
70.57
64.58
56.77
48.55
41.21
35.51
31.41
28.26
25.17
21.44
16.86
11.70
6.49
1.69
-2.57
-6.50
-10.56
-15.26
-21.00
-28.03
-36.52
-46.63
-58.35
-71.30
-84.30
-95.26
-101.57
-100.77
-91.52
-74.20
-50.93
-24.94
0.47
22.80
40.79
54.21
63.38
68.66
70.33
68.64
64.16
57.82
50.85
44.44
39.38
35.90
33.63
31.92
30.11
27.72
24.58
20.71
16.23
11.23
5.79
-0.10
-6.45
-13.31
-20.79
-29.10
-38.55
-49.43
-61.74
-74.75
-86.91
-95.88
-99.17
-94.90
-82.60
-63.40
-39.80
-14.83
8.77
29.13
45.29
56.96
64.16
67.03
65.89
61.41
54.64
46.92
39.55
33.51
29.19
26.33
24.15
21.72
18.26
13.49
7.71
1.60
-4.08
-8.94
-13.19
-17.52
-22.83
-29.91
-39.20
-50.62
-63.62
-77.00
-88.93
-97.12
-99.25
-93.70
-80.21
-60.11
-35.98
-10.80
12.82
33.23
49.59
61.58
69.04
71.83
70.16
64.72
56.83
48.11
40.02
33.41
28.28
24.06
19.94
15.34
10.14
4.61
-0.78
-5.66
-9.96
-13.87
-17.86
-22.55
-28.64
-36.87
-47.71
-61.09
-76.00
-90.36
-101.33
-106.07
-102.68
-90.91
-72.29
-49.56
-25.70
-3.08
16.98
33.99
47.75
57.89
63.85
65.22
62.26
56.10
48.54
41.39
35.79
31.82
28.63
25.02
20.10
13.74
6.59
-0.35
-6.24
-10.91
-14.80
-18.92
-24.29
-31.74
-41.68
-54.10
-68.51
-83.71
-97.80
-108.20
-112.21
-107.84
-94.51
-73.49
-47.46
-19.77
6.63
29.75
48.67
63.13
73.11
78.60
79.68
76.84
71.08
63.81
56.43
49.97
44.76
40.50
36.51
32.12
26.95
21.05
14.83
8.78
3.25
-1.79
-6.86
-12.77
-20.47
-30.74
-43.92
-59.58
-76.35
-91.91
-103.37
-107.87
-103.49
-89.94
-68.67
-42.51
-14.72
11.89
35.52
55.32
70.94
82.16
88.65
90.29
87.38
80.99
72.75
64.41
57.38
52.24
48.78
46.12
43.24
39.35
34.15
27.91
21.16
14.48
8.18
2.22
-3.79
-10.42
-18.35
-28.18
-40.33
-54.78
-70.63
-85.98
-97.97
-103.52
-100.25
-87.39
-66.22
-39.56
-10.92
16.60
40.93
61.08
76.69
87.57
93.54
94.52
90.89
83.68
74.45
64.97
56.63
50.18
45.53
41.98
38.56
34.47
29.36
23.41
17.13
11.05
5.46
0.21
-5.15
-11.24
-18.61
-27.72
-38.84
-51.90
-66.33
-80.64
-92.51
-99.06
-97.70
-87.04
-67.44
-41.10
-11.28
18.57
45.70
68.37
85.78
97.67
103.98
104.89
100.84
92.82
82.26
70.84
60.09
51.04
43.99
38.51
33.73
28.68
22.68
15.53
7.56
-0.61
-8.40
-15.56
-22.39
-29.58
-38.18
-49.12
-62.92
-79.25
-96.67
-112.69
-124.17
-128.04
-122.00
-105.20
-78.53
-44.60
-7.35
28.68
59.32
81.70
94.78
99.36
97.49
91.57
83.63
74.98
66.31
58.16
51.12
45.70
42.05
39.63
37.34
34.01
28.93
22.18
14.52
6.95
0.23
-5.58
-11.12
-17.49
-25.86
-37.17
-51.63
-68.53
-86.03
-101.27
-110.99
-112.35
-103.94
-86.33
-61.96
-34.34
-6.93
17.82
38.75
55.63
68.52
77.29
81.58
81.22
76.71
69.36
61.06
53.56
47.92
44.15
41.38
38.44
34.30
28.65
21.87
14.76
8.16
2.45
-2.55
-7.57
-13.49
-21.05
-30.70
-42.57
-56.49
-71.92
-87.71
-101.82
-111.57
-114.08
-107.38
-91.20
-67.29
-38.95
-9.92
16.69
39.17
56.98
70.31
79.35
84.03
84.26
80.25
72.95
63.85
54.71
46.91
41.10
37.07
33.98
30.80
26.74
21.49
15.32
8.81
2.56
-3.13
-8.41
-13.84
-20.21
-28.28
-38.60
-51.41
-66.45
-82.78
-98.62
-111.40
-118.20
-116.54
-105.32
-85.23
-58.71
-29.20
-0.10
25.99
47.66
64.46
76.45
83.89
87.05
86.29
82.24
75.88
68.36
60.87
54.30
49.06
44.99
41.48
37.73
33.06
27.21
20.34
12.99
5.66
-1.38
-8.24
-15.44
-23.65
-33.58
-45.57
-59.56
-74.72
-89.43
-101.41
-108.10
-107.38
-98.26
-81.25
-58.26
-32.11
-5.65
18.84
39.90
56.77
69.06
76.50
79.03
76.97
71.24
63.30
54.85
47.33
41.52
37.36
34.15
30.90
26.85
21.68
15.58
9.07
2.69
-3.28
-8.92
-14.68
-21.19
-29.17
-39.28
-51.89
-66.81
-82.96
-98.13
-109.34
-113.54
-108.67
-94.42
-72.49
-46.02
-18.50
7.24
29.54
47.79
61.85
71.58
76.62
76.82
72.51
64.89
55.71
46.79
39.44
34.06
30.19
26.91
23.37
19.16
14.51
9.98
6.10
2.96
0.03
-3.64
-9.13
-17.26
-28.39
-42.36
-58.46
-75.39
-91.11
-103.02
-108.31
-104.80
-91.70
-70.16
-42.97
-13.73
14.20
38.57
58.37
73.46
83.97
89.92
91.24
88.15
81.47
72.63
63.36
55.08
48.50
43.50
39.26
34.81
29.45
23.05
16.01
9.02
2.65
-2.90
-7.92
-13.13
-19.41
-27.62
-38.34
-51.71
-67.07
-82.83
-96.50
-105.06
-105.86
-97.42
-80.12
-56.10
-28.60
-0.91
24.52
46.33
64.07
77.64
86.93
91.80
92.34
89.16
83.44
76.61
69.89
63.99
58.93
54.27
49.42
43.99
37.83
31.10
24.14
17.29
10.81
4.76
-1.03
-7.00
-13.68
-21.70
-31.62
-43.78
-58.15
-73.96
-89.58
-102.53
-109.93
-109.34
-99.51
-81.02
-56.13
-28.16
-0.44
24.49
45.20
61.25
72.67
79.63
82.26
80.92
76.29
69.51
61.91
54.67
48.53
43.55
39.38
35.43
31.26
26.62
21.56
16.22
10.75
5.18
-0.56
-6.56
-12.93
-19.75
-27.16
-35.46
-45.13
-56.71
-70.30
-85.12
-99.17
-109.50
-112.97
-107.40
-92.43
-69.77
-42.60
-14.56
11.39
33.50
51.20
64.55
73.80
79.02
80.31
78.01
72.91
66.18
59.09
52.64
47.33
43.12
39.50
35.87
31.74
26.90
21.47
15.69
9.84
3.99
-2.00
-8.43
-15.63
-23.90
-33.46
-44.56
-57.40
-71.96
-87.54
-102.50
-114.24
-119.76
-116.68
-104.14
-83.24
-56.78
-28.28
-0.93
23.15
42.99
58.47
69.73
76.85
79.90
79.12
75.16
69.05
62.05
55.31
49.57
45.00
41.28
37.76
33.80
28.97
23.18
16.70
9.95
3.26
-3.27
-9.80
-16.64
-24.12
-32.42
-41.75
-52.40
-64.72
-78.79
-93.88
-108.13
-118.51
-121.77
-115.47
-99.12
-74.55
-45.25
-15.30
12.01
34.84
52.76
66.13
75.38
80.72
82.14
79.89
74.70
67.77
60.49
53.99
48.80
44.84
41.57
38.32
34.58
30.09
24.87
19.15
13.15
7.02
0.78
-5.59
-12.21
-19.22
-26.83
-35.39
-45.40
-57.26
-70.92
-85.34
-98.38
-107.11
-108.61
-101.08
-84.57
-61.11
-33.98
-6.66
18.15
39.02
55.60
68.11
76.83
81.86
83.25
81.19
76.28
69.43
61.73
54.12
47.25
41.36
36.30
31.75
27.25
22.48
17.21
11.46
5.41
-0.73
-6.75
-12.65
-18.60
-24.91
-32.01
-40.33
-50.22
-61.84
-74.82
-87.97
-99.27
-106.08
-105.90
-97.26
-80.33
-57.06
-30.55
-4.16
19.53
39.01
53.89
64.36
70.77
73.40
72.48
68.53
62.32
54.98
47.63
41.20
36.10
32.22
29.00
25.72
21.78
16.96
11.50
5.91
0.76
-3.71
-7.68
-11.69
-16.49
-22.78
-31.04
-41.39
-53.40
-65.95
-77.21
-84.89
-86.80
-81.64
-69.40
-51.53
-30.44
-8.75
11.39
28.72
42.60
52.81
59.12
61.35
59.60
54.43
47.00
38.77
31.13
24.96
20.45
17.11
14.15
10.78
6.56
1.50
-4.02
-9.49
-14.54
-19.08
-23.38
-27.99
-33.63
-41.03
-50.69
-62.63
-76.07
-89.32
-99.92
-105.18
-103.01
-92.66
-75.07
-52.57
-28.10
-4.35
16.86
34.63
48.62
58.59
64.27
65.52
62.69
56.91
49.81
43.15
38.01
34.53
31.93
29.04
24.93
19.36
12.81
6.17
0.30
-4.47
-8.36
-12.05
-16.38
-22.16
-29.94
-39.98
-52.14
-65.67
-79.15
-90.45
-97.17
-97.25
-89.60
-74.56
-53.87
-30.15
-6.11
16.07
35.13
50.52
62.09
69.68
73.10
72.35
67.86
60.75
52.56
44.82
38.55
33.92
30.33
26.74
22.32
16.72
10.33
3.86
-1.94
-6.79
-10.99
-15.29
-20.65
-27.85
-37.34
-49.04
-62.28
-75.73
-87.46
-95.21
-96.86
-91.11
-77.90
-58.55
-35.42
-11.19
11.78
31.87
48.16
60.24
67.88
71.07
70.03
65.51
58.72
51.17
44.20
38.58
34.37
30.93
27.40
23.04
17.67
11.63
5.58
0.13
-4.51
-8.63
-12.97
-18.38
-25.62
-35.12
-46.85
-60.23
-73.94
-86.03
-94.08
-95.85
-89.90
-76.21
-56.31
-32.77
-8.54
14.00
33.26
48.54
59.53
66.09
68.17
65.96
60.25
52.35
43.93
36.37
30.44
26.02
22.34
18.45
13.70
8.07
2.06
-3.60
-8.43
-12.47
-16.22
-20.53
-26.17
-33.76
-43.50
-55.15
-67.78
-79.75
-88.79
-92.53
-89.21
-78.33
-60.91
-39.15
-15.72
6.97
27.26
44.05
56.69
64.66
67.66
65.92
60.43
52.83
44.95
38.22
33.17
29.41
26.02
22.06
17.10
11.32
5.34
-0.24
-5.21
-9.86
-14.87
-21.04
-29.05
-39.28
-51.61
-65.25
-78.67
-89.61
-95.56
-94.43
-85.26
-68.67
-46.67
-22.05
2.50
24.89
43.87
58.76
69.12
74.62
75.18
71.23
63.85
54.60
45.02
36.22
28.60
21.94
15.75
9.67
3.64
-2.12
-7.31
-11.85
-15.97
-20.29
-25.58
-32.65
-42.13
-54.11
-67.94
-81.97
-93.78
-100.60
-100.16
-91.45
-75.05
-52.93
-27.81
-2.33
21.48
42.26
59.10
71.27
78.20
79.75
76.46
69.70
61.29
53.03
46.05
40.65
36.35
32.36
28.08
23.30
18.29
13.48
9.14
5.17
1.01
-4.19
-11.43
-21.49
-34.63
-50.16
-66.28
-80.26
-89.08
-90.25
-82.73
-67.22
-45.91
-21.64
2.92
25.83
45.92
62.46
74.79
82.37
84.91
82.84
77.31
70.01
62.62
56.23
51.11
46.76
42.35
37.19
31.09
24.38
17.64
11.37
5.61
0.01
-6.13
-13.52
-22.73
-34.06
-47.40
-62.10
-76.76
-89.23
-96.89
-97.36
-89.22
-72.68
-49.57
-22.79
4.62
30.27
52.78
71.61
86.44
96.84
102.19
102.02
96.56
87.01
75.37
63.94
54.52
47.90
43.68
40.71
37.60
33.29
27.36
19.98
11.78
3.39
-4.67
-12.29
-19.80
-27.89
-37.48
-49.35
-63.77
-80.05
-96.42
-110.21
-118.37
-118.13
-107.76
-87.05
-57.77
-23.34
11.78
43.22
67.75
84.02
92.54
95.01
93.41
89.27
83.40
76.27
68.36
60.50
53.66
48.50
44.92
42.12
38.89
34.29
28.03
20.57
12.79
5.66
-0.38
-5.56
-10.71
-16.93
-25.23
-36.20
-49.84
-65.33
-81.07
-94.75
-103.72
-105.61
-98.98
-83.92
-61.97
-35.76
-8.22
18.15
41.57
60.95
75.57
84.93
88.75
87.29
81.49
72.98
63.70
55.28
48.66
43.85
40.17
36.60
32.38
27.21
21.34
15.35
9.73
4.66
-0.15
-5.29
-11.53
-19.50
-29.66
-42.17
-56.72
-72.36
-87.34
-99.17
-105.14
-103.05
-92.04
-72.99
-48.33
-21.22
5.29
29.03
48.81
64.16
74.89
80.85
82.05
78.90
72.48
64.38
56.30
49.51
44.42
40.54
36.85
32.32
26.43
19.43
12.07
5.29
-0.37
-5.02
-9.34
-14.35
-21.05
-30.12
-41.81
-55.77
-70.97
-85.58
-97.13
-102.95
-100.93
-90.22
-71.68
-47.59
-21.02
5.16
28.85
48.92
64.94
76.74
84.15
87.04
85.55
80.34
72.56
63.71
55.15
47.81
41.89
36.98
32.35
27.27
21.41
14.90
8.23
1.95
-3.64
-8.70
-13.79
-19.68
-27.10
-36.55
-48.15
-61.54
-75.72
-88.95
-98.89
-103.06
-99.49
-87.57
-68.28
-44.06
-17.98
7.13
29.37
47.93
62.60
73.38
80.06
82.38
80.28
74.39
66.05
56.94
48.71
42.29
37.81
34.65
31.88
28.70
24.75
20.14
15.27
10.50
5.91
1.24
-4.06
-10.50
-18.49
-28.17
-39.55
-52.47
-66.44
-80.37
-92.34
-99.89
-100.55
-92.75
-76.56
-53.75
-27.36
-0.66
23.69
44.12
60.07
71.49
78.51
81.19
79.83
75.07
68.04
60.10
52.50
46.01
40.73
36.23
31.80
26.81
20.97
14.46
7.72
1.27
-4.56
-9.84
-14.93
-20.41
-26.83
-34.59
-43.94
-54.93
-67.37
-80.54
-93.05
-102.71
-107.04
-103.92
-92.42
-73.32
-48.88
-22.24
3.64
26.57
45.40
59.74
69.52
74.69
75.29
71.66
64.69
55.78
46.55
38.38
31.97
27.22
23.38
19.46
14.73
9.06
2.93
-2.93
-7.87
-11.83
-15.35
-19.43
-25.12
-33.18
-43.83
-56.59
-70.31
-83.18
-92.95
-97.34
-94.61
-84.07
-66.40
-43.52
-18.07
7.27
30.32
49.60
64.27
73.96
78.58
78.44
74.25
67.22
58.79
50.33
42.79
36.43
30.95
25.66
19.98
13.67
6.96
0.43
-5.42
-10.38
-14.77
-19.29
-24.87
-32.37
-42.37
-54.92
-69.31
-83.90
-96.27
-103.61
-103.56
-94.94
-78.26
-55.59
-29.90
-4.15
19.42
39.54
55.68
67.65
75.26
78.35
77.03
71.94
64.34
55.80
47.80
41.23
36.13
31.86
27.46
22.21
15.96
9.17
2.59
-3.16
-7.94
-12.19
-16.72
-22.46
-30.12
-40.14
-52.41
-66.19
-79.92
-91.32
-97.79
-97.15
-88.39
-72.06
-50.17
-25.47
-0.68
22.17
41.87
57.76
69.41
76.41
78.56
76.14
70.08
61.95
53.43
45.94
40.08
35.60
31.66
27.31
22.01
15.82
9.33
3.27
-1.89
-6.18
-10.18
-14.69
-20.53
-28.30
-38.31
-50.57
-64.51
-78.78
-91.18
-98.93
-99.48
-91.39
-75.00
-52.43
-26.84
-1.40
21.59
40.97
56.40
67.85
75.10
77.94
76.40
71.13
63.49
55.22
47.84
42.15
38.12
34.95
31.66
27.47
22.15
16.02
9.73
3.86
-1.33
-6.03
-10.82
-16.35
-23.22
-31.80
-42.29
-54.56
-67.99
-81.27
-92.26
-98.40
-97.39
-88.03
-70.81
-47.84
-22.23
2.92
25.35
43.94
58.43
68.98
75.63
78.25
76.81
71.71
63.94
54.95
46.25
38.85
33.09
28.57
24.54
20.23
15.24
9.64
3.80
-1.84
-6.99
-11.70
-16.30
-21.31
-27.31
-34.88
-44.47
-56.25
-69.77
-83.74
-96.03
-103.98
-105.22
-98.42
-83.82
-63.15
-39.07
-14.34
8.80
28.91
45.18
57.11
64.40
67.00
65.35
60.49
53.92
47.20
41.49
37.27
34.30
31.84
29.00
25.15
20.12
14.26
8.31
3.00
-1.21
-4.45
-7.41
-11.21
-17.01
-25.66
-37.37
-51.53
-66.57
-80.16
-89.56
-92.37
-87.18
-74.13
-54.80
-31.84
-7.98
14.49
34.09
49.98
61.56
68.34
70.03
66.87
59.88
50.78
41.51
33.59
27.72
23.59
20.29
16.74
12.25
6.73
0.63
-5.34
-10.66
-15.17
-19.27
-23.70
-29.42
-37.25
-47.65
-60.39
-74.33
-87.49
-97.28
-101.20
-97.48
-85.80
-67.32
-44.35
-19.64
4.39
26.00
44.19
58.42
68.33
73.67
74.51
71.37
65.35
57.89
50.40
43.85
38.48
33.95
29.52
24.56
18.79
12.42
6.00
0.07
-5.07
-9.64
-14.22
-19.64
-26.79
-36.31
-48.36
-62.32
-76.66
-89.03
-96.70
-97.37
-89.89
-74.71
-53.73
-29.74
-5.47
16.97
36.33
52.01
63.67
71.03
73.90
72.52
67.71
60.89
53.70
47.44
42.68
39.08
35.73
31.67
26.41
20.11
13.54
7.54
2.63
-1.34
-5.09
-9.60
-15.82
-24.36
-35.38
-48.53
-62.78
-76.40
-87.01
-92.09
-89.65
-79.04
-61.17
-38.36
-13.57
10.50
31.91
49.68
63.38
72.77
77.67
78.11
74.59
68.18
60.44
52.88
46.55
41.73
38.02
34.65
30.84
26.15
20.55
14.41
8.20
2.36
-3.02
-8.17
-13.63
-20.12
-28.34
-38.81
-51.49
-65.65
-79.63
-91.02
-97.22
-96.14
-86.94
-70.31
-48.34
-23.71
0.95
23.62
43.01
58.29
68.88
74.43
74.95
71.09
64.19
55.93
47.94
41.32
36.33
32.54
29.09
25.16
20.31
14.61
8.59
2.90
-2.01
-6.15
-10.01
-14.39
-20.09
-27.71
-37.48
-49.13
-61.81
-73.95
-83.45
-87.96
-85.59
-75.50
-58.31
-35.98
-11.27
12.98
34.51
51.86
64.32
71.67
74.09
72.05
66.45
58.62
50.05
42.15
35.79
31.11
27.59
24.29
20.35
15.33
9.38
3.07
-2.96
-8.37
-13.34
-18.54
-24.92
-33.39
-44.43
-57.71
-71.98
-85.05
-94.22
-96.93
-91.59
-78.14
-58.08
-34.03
-8.91
14.82
35.57
52.50
65.20
73.39
76.85
75.71
70.60
62.82
54.01
45.72
38.89
33.67
29.49
25.50
20.97
15.67
9.85
4.09
-1.17
-5.79
-10.17
-15.03
-21.26
-29.63
-40.56
-53.79
-68.24
-81.91
-92.16
-96.33
-92.52
-80.36
-61.08
-37.24
-11.83
12.57
34.22
52.31
66.45
76.43
82.00
83.10
80.14
74.12
66.48
58.71
51.88
46.38
41.87
37.62
32.85
27.20
20.75
14.07
7.81
2.40
-2.20
-6.54
-11.49
-18.01
-26.80
-38.19
-51.83
-66.66
-80.72
-91.51
-96.46
-93.68
-82.64
-64.40
-41.37
-16.47
7.63
29.14
47.14
61.31
71.51
77.50
79.17
76.75
71.06
63.41
55.25
47.79
41.57
36.50
32.06
27.57
22.62
17.13
11.32
5.56
0.15
-4.83
-9.49
-14.10
-19.02
-24.67
-31.55
-40.17
-50.90
-63.43
-76.59
-88.18
-95.41
-95.76
-87.84
-72.01
-50.18
-25.32
-0.38
22.29
41.35
56.20
66.66
72.72
74.40
72.02
66.34
58.60
50.29
42.80
37.03
33.04
30.25
27.62
24.22
19.59
13.98
8.08
2.69
-1.79
-5.58
-9.45
-14.39
-21.21
-30.30
-41.52
-54.20
-67.15
-78.65
-86.66
-89.15
-84.71
-73.03
-55.09
-32.98
-9.29
13.52
33.57
49.68
61.24
68.03
70.14
68.03
62.60
55.09
46.91
39.28
32.92
27.97
23.96
20.17
15.95
10.97
5.39
-0.27
-5.45
-9.89
-13.79
-17.82
-22.96
-30.16
-39.99
-52.38
-66.36
-80.07
-90.97
-96.46
-94.60
-84.74
-67.83
-46.10
-22.35
0.85
21.69
39.17
52.77
62.13
66.94
67.15
63.19
56.26
47.99
40.07
33.63
28.93
25.42
22.13
18.17
13.14
7.27
1.18
-4.50
-9.46
-13.87
-18.39
-23.92
-31.29
-41.07
-53.19
-66.81
-80.24
-91.20
-97.23
-96.42
-87.99
-72.57
-51.99
-28.78
-5.43
16.06
34.40
48.81
58.91
64.50
65.69
63.03
57.53
50.60
43.61
37.55
32.74
28.79
24.88
20.22
14.39
7.63
0.60
-5.90
-11.36
-15.86
-20.04
-24.93
-31.63
-40.97
-53.19
-67.63
-82.69
-95.87
-104.34
-105.67
-98.60
-83.55
-62.45
-38.14
-13.42
9.57
29.56
45.93
58.23
66.05
69.09
67.55
62.35
55.05
47.43
40.83
35.78
31.91
28.30
24.03
18.65
12.33
5.68
-0.59
-6.10
-10.99
-15.87
-21.56
-28.89
-38.43
-50.33
-64.23
-79.05
-92.97
-103.52
-108.19
-105.04
-93.45
-74.42
-50.26
-23.99
1.61
24.47
43.48
58.14
68.23
73.65
74.44
71.11
64.76
56.95
49.32
43.08
38.62
35.56
32.94
29.79
25.56
20.25
14.39
8.61
3.37
-1.34
-5.92
-11.05
-17.56
-26.13
-37.21
-50.61
-65.26
-79.15
-89.55
-93.73
-89.83
-77.52
-58.19
-34.44
-9.25
14.82
36.06
53.45
66.39
74.36
77.05
74.67
68.18
59.32
50.13
42.26
36.48
32.49
29.28
25.66
20.99
15.34
9.33
3.77
-0.99
-5.19
-9.59
-15.14
-22.60
-32.32
-44.23
-57.82
-72.04
-85.24
-95.17
-99.36
-95.79
-83.74
-64.12
-39.29
-12.44
13.51
36.43
55.23
69.46
78.96
83.60
83.42
78.98
71.45
62.57
54.02
47.00
41.78
37.74
33.81
28.96
22.78
15.53
8.02
1.07
-4.89
-10.10
-15.44
-22.06
-31.07
-43.01
-57.58
-73.30
-87.75
-97.88
-100.91
-95.10
-80.43
-58.60
-32.44
-5.08
20.89
43.80
62.75
77.26
86.90
91.40
90.83
85.93
78.07
68.91
59.98
52.20
45.78
40.37
35.39
30.40
25.21
19.87
14.48
9.08
3.57
-2.26
-8.67
-15.98
-24.64
-35.21
-48.13
-63.28
-79.57
-94.69
-105.47
-108.77
-102.37
-85.78
-60.28
-28.54
6.01
39.87
69.86
93.47
109.16
116.53
116.38
110.46
100.96
89.96
79.08
69.29
61.10
54.58
49.48
45.19
40.89
35.82
29.58
22.44
15.13
8.44
2.76
-2.17
-7.28
-13.79
-22.84
-35.05
-50.30
-67.52
-84.73
-99.19
-107.89
-108.28
-99.11
-80.85
-55.72
-27.02
1.81
28.02
50.04
67.28
79.74
87.65
91.18
90.64
86.57
79.99
72.14
64.34
57.54
52.10
47.69
43.60
39.04
33.52
27.12
20.30
13.72
7.74
2.32
-3.04
-9.09
-16.56
-25.99
-37.63
-51.32
-66.22
-80.70
-92.40
-98.67
-97.31
-87.36
-69.50
-45.88
-19.43
6.97
31.12
51.61
67.65
78.73
84.48
84.88
80.50
72.62
63.05
53.63
45.65
39.58
35.02
31.11
26.91
21.91
16.10
9.87
3.78
-1.76
-6.63
-11.07
-15.53
-20.67
-27.18
-35.71
-46.72
-60.08
-74.79
-88.80
-99.26
-103.22
-98.64
-85.14
-64.23
-38.86
-12.30
12.67
34.40
52.24
66.01
75.56
80.59
80.95
77.00
69.89
61.32
53.08
46.46
41.87
38.86
36.41
33.49
29.45
24.23
18.32
12.39
6.96
2.02
-2.93
-8.81
-16.52
-26.75
-39.65
-54.75
-70.82
-85.92
-97.58
-103.29
-101.21
-90.71
-72.75
-49.58
-24.04
1.16
24.07
43.48
58.80
69.58
75.53
76.61
73.29
66.71
58.41
50.03
42.76
37.11
32.85
29.24
25.46
20.91
15.43
9.30
3.08
-2.70
-7.76
-12.25
-16.76
-22.11
-29.20
-38.66
-50.63
-64.41
-78.41
-90.21
-97.09
-96.79
-88.20
-71.84
-49.66
-24.45
1.01
24.55
44.81
61.07
72.85
79.85
81.88
79.27
72.90
64.24
54.97
46.49
39.62
34.35
30.07
25.91
21.12
15.42
8.99
2.37
-3.88
-9.48
-14.56
-19.49
-24.82
-30.97
-38.28
-47.09
-57.62
-69.84
-82.98
-95.34
-104.35
-107.26
-102.06
-88.27
-67.29
-41.84
-15.10
10.22
32.40
50.64
64.69
74.49
79.99
81.26
78.77
73.38
66.25
58.59
51.34
45.07
39.92
35.67
31.88
28.10
23.93
19.18
13.90
8.28
2.58
-3.06
-8.66
-14.43
-20.69
-27.82
-36.27
-46.41
-58.40
-71.80
-85.32
-96.71
-103.27
-102.60
-93.49
-76.50
-53.78
-28.43
-3.49
18.80
37.30
51.71
62.06
68.37
70.58
68.81
63.62
56.15
47.86
40.14
33.86
29.21
25.74
22.64
19.22
15.12
10.43
5.52
0.75
-3.72
-8.07
-12.72
-18.17
-24.73
-32.57
-41.70
-52.00
-63.23
-74.70
-85.09
-92.51
-94.83
-90.39
-78.70
-60.67
-38.44
-14.63
8.35
28.76
45.61
58.34
66.67
70.42
69.68
65.07
57.71
49.18
41.02
34.37
29.58
26.20
23.27
19.75
15.01
9.05
2.46
-4.00
-9.73
-14.61
-19.03
-23.71
-29.42
-36.80
-46.23
-57.59
-70.21
-82.61
-92.64
-97.88
-96.35
-87.18
-70.95
-49.58
-25.67
-1.81
19.97
38.44
52.92
63.12
68.93
70.53
68.41
63.48
56.93
49.92
43.37
37.73
32.96
28.66
24.29
19.47
14.08
8.35
2.68
-2.59
-7.41
-12.04
-17.01
-22.92
-30.32
-39.52
-50.54
-62.91
-75.50
-86.45
-93.44
-94.25
-87.59
-73.59
-53.89
-31.08
-7.89
13.60
32.19
47.40
59.01
66.73
70.26
69.52
65.08
58.17
50.42
43.39
37.93
34.07
31.08
27.98
24.02
19.07
13.51
7.99
3.01
-1.42
-5.64
-10.29
-15.91
-22.84
-31.25
-41.20
-52.63
-65.07
-77.43
-87.74
-93.59
-92.75
-84.08
-68.00
-46.51
-22.48
1.18
22.36
39.93
53.59
63.37
69.32
71.39
69.71
64.83
57.81
50.05
42.87
37.14
33.02
30.06
27.44
24.35
20.30
15.30
9.78
4.31
-0.67
-5.09
-9.27
-13.84
-19.44
-26.60
-35.57
-46.29
-58.35
-70.68
-81.60
-88.86
-90.21
-84.11
-70.39
-50.54
-27.24
-3.61
17.81
35.49
48.97
58.36
63.92
65.78
64.05
59.19
52.14
44.29
37.05
31.46
27.82
25.68
24.09
22.03
18.85
14.41
9.16
3.75
-1.22
-5.52
-9.44
-13.62
-18.90
-26.02
-35.46
-47.16
-60.37
-73.51
-84.33
-90.38
-89.62
-81.18
-65.63
-44.96
-21.81
1.20
22.12
39.83
53.76
63.62
69.10
70.04
66.66
59.81
50.89
41.51
33.07
26.24
20.98
16.62
12.38
7.69
2.45
-3.05
-8.42
-13.40
-18.07
-22.75
-27.89
-34.00
-41.57
-51.03
-62.53
-75.71
-89.26
-100.97
-108.10
-108.25
-100.23
-84.57
-63.37
-39.46
-15.55
6.55
25.92
42.21
55.14
64.18
68.81
68.86
64.92
58.28
50.71
43.76
38.35
34.59
31.78
28.91
25.12
20.02
13.84
7.22
0.88
-4.83
-10.03
-15.36
-21.62
-29.56
-39.56
-51.67
-65.46
-79.92
-93.42
-103.71
-108.38
-105.46
-94.24
-75.59
-51.82
-25.94
-0.79
21.63
40.40
55.23
66.12
72.98
75.70
74.42
69.76
62.91
55.27
48.13
42.30
37.89
34.52
31.40
27.81
23.25
17.66
11.34
4.79
-1.50
-7.33
-12.86
-18.57
-25.11
-33.11
-42.97
-54.79
-68.12
-81.89
-94.22
-102.72
-105.00
-99.35
-85.46
-64.57
-39.23
-12.50
12.87
34.94
52.74
66.01
74.87
79.55
80.39
77.88
72.71
65.84
58.25
50.92
44.53
39.40
35.45
32.23
29.07
25.32
20.56
14.73
8.14
1.28
-5.41
-11.79
-18.14
-25.07
-33.44
-43.96
-57.03
-72.32
-88.64
-103.82
-114.96
-119.13
-114.13
-99.35
-76.05
-47.14
-16.35
12.86
37.97
57.77
72.00
80.98
85.22
85.28
81.92
76.13
69.14
62.10
55.89
50.91
47.05
43.83
40.58
36.74
31.97
26.27
19.90
13.34
6.98
1.02
-4.71
-10.70
-17.63
-26.22
-36.96
-49.97
-64.61
-79.42
-92.14
-100.10
-100.96
-93.42
-77.75
-55.72
-30.06
-3.63
21.28
43.18
61.30
75.17
84.43
88.74
88.17
83.43
75.90
67.36
59.42
53.01
48.21
44.35
40.45
35.71
29.89
23.22
16.30
9.64
3.46
-2.47
-8.64
-15.64
-24.03
-34.24
-46.55
-60.79
-76.13
-90.83
-102.33
-107.84
-105.17
-93.56
-74.02
-49.02
-21.62
5.40
30.20
51.88
70.08
84.45
94.39
99.28
98.83
93.63
85.16
75.48
66.54
59.51
54.42
50.31
45.86
40.02
32.51
23.84
14.98
6.83
-0.24
-6.42
-12.49
-19.39
-28.01
-39.03
-52.69
-68.62
-85.67
-101.70
-113.67
-118.10
-112.05
-94.40
-66.54
-32.39
2.77
34.04
58.38
75.18
85.69
91.76
94.68
94.75
91.77
85.76
77.57
68.78
61.04
55.33
51.56
48.81
45.82
41.72
36.27
29.88
23.37
17.38
12.09
7.08
1.53
-5.50
-14.64
-26.12
-39.75
-55.08
-71.31
-87.12
-100.57
-109.15
-110.39
-102.56
-85.54
-60.94
-31.84
-1.82
25.89
49.14
66.93
79.17
86.32
89.06
88.13
84.44
78.92
72.53
66.06
60.00
54.52
49.48
44.64
39.71
34.49
28.89
22.94
16.73
10.41
4.11
-2.10
-8.27
-14.64
-21.56
-29.52
-39.00
-50.37
-63.61
-78.06
-92.18
-103.59
-109.54
-107.70
-96.98
-78.07
-53.28
-25.92
0.80
24.46
43.80
58.41
68.35
73.73
74.75
71.85
65.93
58.36
50.65
44.07
39.24
36.10
33.93
31.84
29.00
25.01
19.94
14.22
8.47
3.13
-1.63
-6.12
-11.00
-17.09
-25.18
-35.74
-48.71
-63.28
-77.79
-89.89
-96.91
-96.61
-87.93
-71.43
-49.18
-24.14
0.78
23.38
42.42
57.39
68.02
74.11
75.47
72.38
65.80
57.34
48.79
41.59
36.32
32.66
29.70
26.39
22.11
16.78
10.83
4.91
-0.50
-5.31
-9.85
-14.76
-20.81
-28.71
-38.92
-51.59
-66.18
-81.35
-94.87
-103.99
-106.14
-99.79
-85.09
-63.90
-39.17
-14.05
9.03
28.70
44.47
56.28
64.00
67.48
66.75
62.37
55.62
48.15
41.53
36.67
33.50
31.19
28.52
24.58
19.07
12.48
5.75
-0.22
-5.01
-8.97
-13.01
-18.38
-26.13
-36.84
-50.27
-65.30
-79.97
-91.75
-98.07
-96.94
-87.64
-70.93
-48.92
-24.42
-0.16
21.83
40.38
54.97
65.45
71.71
73.78
71.99
67.16
60.52
53.41
46.94
41.60
37.25
33.29
28.98
23.92
18.10
11.94
5.99
0.71
-3.88
-8.15
-12.83
-18.81
-26.89
-37.56
-50.79
-65.73
-80.63
-92.94
-99.79
-98.88
-89.24
-71.67
-48.64
-23.35
1.18
22.98
41.14
55.53
66.11
72.65
74.84
72.69
67.01
59.29
51.37
44.70
39.87
36.48
33.49
29.83
24.94
18.96
12.60
6.67
1.66
-2.47
-6.24
-10.42
-15.70
-22.58
-31.36
-42.11
-54.58
-67.85
-80.17
-89.04
-91.93
-87.03
-74.11
-54.72
-31.62
-7.90
13.95
32.48
47.14
57.80
64.36
66.69
64.89
59.65
52.26
44.36
37.42
32.22
28.67
26.01
23.21
19.52
14.74
9.24
3.71
-1.24
-5.41
-9.10
-13.05
-18.16
-25.19
-34.53
-46.05
-58.95
-71.77
-82.50
-88.93
-89.18
-82.30
-68.58
-49.53
-27.42
-4.67
16.71
35.26
50.09
60.56
66.30
67.24
63.88
57.37
49.32
41.39
34.81
29.98
26.49
23.44
19.88
15.26
9.57
3.23
-3.15
-9.16
-14.69
-19.99
-25.54
-31.92
-39.67
-49.11
-60.09
-71.73
-82.38
-89.76
-91.54
-86.17
-73.46
-54.75
-32.48
-9.37
12.40
31.54
47.54
60.25
69.34
74.38
74.99
71.44
64.78
56.76
49.18
43.36
39.58
37.14
34.83
31.51
26.76
20.90
14.83
9.43
5.09
1.52
-2.24
-7.36
-14.91
-25.44
-38.80
-53.98
-69.10
-81.68
-89.09
-89.30
-81.44
-66.21
-45.65
-22.52
0.46
21.30
38.85
52.67
62.59
68.51
70.36
68.37
63.26
56.23
48.75
42.06
36.92
33.31
30.63
27.99
24.57
19.97
14.31
8.08
1.93
-3.63
-8.48
-12.97
-17.81
-23.93
-32.14
-42.89
-55.92
-70.08
-83.31
-93.00
-96.57
-92.31
-80.02
-61.07
-38.06
-13.95
8.75
28.47
44.50
56.69
65.00
69.36
69.82
66.79
61.26
54.56
48.05
42.70
38.78
36.00
33.57
30.69
26.81
21.79
15.96
9.88
4.17
-0.85
-5.21
-9.38
-14.00
-19.76
-27.20
-36.57
-47.76
-60.10
-72.22
-82.09
-87.33
-85.87
-76.77
-60.64
-39.60
-16.61
5.54
24.89
40.57
52.42
60.44
64.48
64.32
60.13
52.75
43.86
35.40
28.88
24.90
22.82
21.33
18.97
14.98
9.51
3.49
-1.89
-5.85
-8.36
-10.16
-12.37
-16.06
-21.89
-30.04
-40.17
-51.53
-62.86
-72.40
-78.06
-77.92
-70.90
-57.21
-38.52
-17.36
3.68
22.60
38.37
50.66
59.44
64.64
66.14
64.06
59.00
52.12
44.80
38.23
32.98
28.92
25.42
21.67
17.17
11.83
6.03
0.32
-4.93
-9.71
-14.41
-19.71
-26.31
-34.72
-45.20
-57.50
-70.77
-83.37
-93.07
-97.46
-94.70
-84.20
-66.91
-45.10
-21.58
1.12
21.32
38.26
51.72
61.57
67.61
69.69
67.98
63.26
56.76
49.88
43.69
38.63
34.44
30.44
25.90
20.45
14.20
7.72
1.67
-3.49
-7.67
-11.20
-14.72
-18.87
-24.30
-31.49
-40.75
-52.06
-64.80
-77.53
-87.99
-93.50
-91.83
-81.96
-64.62
-42.10
-17.52
6.18
26.93
43.80
56.72
65.97
71.75
74.11
73.15
69.21
63.10
55.95
48.93
42.93
38.32
34.92
32.12
29.20
25.57
21.02
15.68
9.90
4.08
-1.59
-7.12
-12.74
-18.76
-25.48
-33.31
-42.61
-53.66
-66.27
-79.41
-91.03
-98.43
-99.02
-91.28
-75.49
-53.65
-28.88
-4.29
17.80
36.28
50.95
62.04
69.72
73.96
74.78
72.46
67.79
61.85
55.90
50.88
47.24
44.85
43.02
40.90
37.73
33.22
27.55
21.21
14.72
8.31
1.83
-5.17
-13.13
-22.38
-32.99
-44.98
-58.16
-71.97
-85.22
-95.92
-101.64
-100.25
-90.80
-74.02
-52.16
-28.25
-5.14
15.14
31.57
43.79
51.73
55.33
54.70
50.40
43.54
35.65
28.27
22.45
18.50
15.94
13.85
11.22
7.41
2.34
-3.55
-9.53
-14.92
-19.48
-23.48
-27.65
-32.92
-40.07
-49.53
-61.13
-74.02
-86.59
-96.63
-101.72
-99.84
-90.08
-73.01
-50.69
-26.02
-1.92
19.40
36.87
50.18
59.48
64.84
66.27
63.93
58.39
50.86
42.81
35.63
30.07
26.13
23.08
19.98
16.08
11.20
5.63
0.03
-5.04
-9.38
-13.25
-17.39
-22.73
-30.15
-40.27
-52.99
-67.38
-81.48
-92.62
-98.02
-95.60
-84.74
-66.44
-43.10
-17.64
7.18
29.51
48.34
63.21
73.93
80.30
82.20
79.89
74.20
66.45
58.20
50.74
44.72
40.04
36.02
31.82
26.84
21.03
14.75
8.59
2.93
-2.28
-7.41
-13.17
-20.21
-29.09
-40.04
-52.86
-66.71
-79.94
-90.29
-95.24
-92.89
-82.55
-65.12
-42.86
-18.61
5.04
26.30
44.27
58.63
69.12
75.46
77.49
75.37
69.95
62.54
54.67
47.55
41.81
37.33
33.54
29.74
25.35
20.18
14.42
8.51
2.87
-2.23
-6.87
-11.53
-16.86
-23.67
-32.60
-44.02
-57.63
-72.27
-85.89
-95.83
-99.51
-95.22
-82.76
-63.51
-40.01
-15.13
8.67
29.68
46.99
60.11
68.83
73.04
72.99
69.33
63.11
55.67
48.22
41.65
36.31
32.12
28.57
25.07
21.09
16.36
10.94
5.14
-0.67
-6.29
-11.77
-17.49
-23.98
-31.81
-41.42
-52.92
-65.90
-79.25
-91.15
-99.28
-101.44
-96.17
-83.32
-64.14
-40.87
-16.07
8.00
29.64
47.63
61.04
69.16
71.73
69.16
62.74
54.37
46.08
39.36
34.76
31.84
29.53
26.65
22.45
16.85
10.41
3.94
-1.85
-6.79
-11.21
-15.96
-21.99
-30.08
-40.65
-53.55
-67.93
-82.15
-93.92
-100.68
-100.30
-91.75
-75.60
-53.89
-29.44
-5.10
17.07
35.84
50.70
61.34
67.53
69.14
66.47
60.50
52.72
44.81
38.06
32.99
29.29
26.10
22.45
17.74
11.93
5.53
-0.69
-6.19
-10.94
-15.53
-21.07
-28.74
-39.39
-53.12
-68.93
-84.73
-97.65
-104.70
-103.64
-93.78
-76.14
-53.18
-27.92
-3.06
19.58
39.02
54.77
66.40
73.39
75.45
72.89
66.88
59.17
51.60
45.38
40.75
37.07
33.31
28.68
22.96
16.60
10.32
4.70
-0.17
-4.83
-10.15
-17.14
-26.54
-38.62
-53.07
-68.82
-84.00
-96.09
-102.41
-100.88
-90.73
-72.84
-49.48
-23.61
2.06
25.61
46.00
62.63
74.99
82.56
85.00
82.69
76.90
69.54
62.53
57.09
53.33
50.44
47.20
42.69
36.69
29.73
22.78
16.67
11.73
7.61
3.34
-2.23
-10.25
-21.38
-35.62
-52.10
-69.00
-83.61
-92.75
-93.61
-84.73
-66.74
-42.28
-15.32
10.25
31.77
48.17
59.68
66.90
70.19
69.59
65.25
58.04
49.59
41.80
36.03
32.47
30.11
27.40
23.10
16.94
9.63
2.35
-3.85
-8.65
-12.54
-16.67
-22.32
-30.53
-41.74
-55.62
-70.95
-85.60
-96.86
-101.98
-98.94
-87.15
-67.68
-43.02
-16.24
9.80
33.02
52.21
66.74
76.26
80.65
80.21
75.76
68.76
60.86
53.51
47.48
42.78
38.81
34.87
30.42
25.34
19.84
14.21
8.69
3.19
-2.60
-9.26
-17.50
-27.92
-40.69
-55.09
-69.39
-80.89
-86.69
-84.55
-73.69
-55.17
-31.44
-5.56
19.77
42.66
62.06
77.32
87.92
93.38
93.59
89.18
81.55
72.63
64.22
57.32
51.96
47.29
42.22
35.98
28.54
20.57
12.96
6.36
0.71
-4.68
-10.99
-19.32
-30.42
-44.27
-59.94
-75.62
-88.78
-96.67
-97.01
-88.75
-72.44
-50.11
-24.57
1.45
25.93
47.78
66.36
81.16
91.44
96.53
96.26
91.36
83.49
74.68
66.66
60.24
55.20
50.57
45.30
38.85
31.35
23.55
16.29
10.11
4.97
0.23
-5.10
-12.04
-21.38
-33.49
-48.09
-64.11
-79.55
-91.74
-97.77
-95.48
-84.13
-64.76
-39.89
-12.62
14.25
38.90
60.45
78.51
92.66
102.17
106.34
104.93
98.64
89.03
78.18
67.94
59.43
52.82
47.47
42.44
36.90
30.47
23.26
15.72
8.34
1.41
-5.10
-11.54
-18.38
-26.06
-34.89
-45.11
-56.91
-70.29
-84.80
-99.11
-110.99
-117.59
-116.35
-105.89
-86.74
-61.25
-32.85
-4.97
19.89
40.51
56.68
68.63
76.47
80.17
79.73
75.60
68.89
61.09
53.71
47.71
43.24
39.71
36.19
31.92
26.64
20.61
14.40
8.47
2.96
-2.44
-8.32
-15.24
-23.55
-33.32
-44.48
-56.77
-69.66
-82.11
-92.37
-98.20
-97.46
-88.89
-72.69
-50.61
-25.41
-0.01
23.25
42.93
58.38
69.31
75.62
77.29
74.64
68.51
60.23
51.36
43.28
36.77
31.87
27.92
23.95
19.14
13.19
6.46
-0.31
-6.32
-11.30
-15.56
-20.00
-25.71
-33.59
-44.08
-56.94
-71.10
-84.71
-95.35
-100.57
-98.50
-88.54
-71.59
-49.75
-25.66
-1.70
20.40
39.67
55.47
67.23
74.36
76.59
74.26
68.51
61.03
53.52
47.17
42.33
38.56
34.97
30.72
25.37
19.02
12.18
5.46
-0.74
-6.40
-11.88
-17.74
-24.61
-33.03
-43.41
-55.87
-69.94
-84.34
-96.86
-104.80
-105.65
-98.06
-82.41
-60.72
-35.98
-11.13
11.74
31.54
47.90
60.62
69.34
73.69
73.58
69.67
63.19
55.75
48.67
42.64
37.59
32.90
27.88
22.13
15.68
8.98
2.60
-3.00
-7.75
-11.92
-16.12
-21.11
-27.60
-36.12
-46.95
-59.91
-74.23
-88.32
-99.90
-106.33
-105.30
-95.64
-77.74
-53.59
-26.22
1.17
25.95
46.46
61.99
72.47
78.17
79.46
76.89
71.18
63.37
54.65
46.14
38.69
32.67
27.91
23.85
19.82
15.30
10.14
4.54
-1.15
-6.62
-11.84
-17.10
-22.92
-29.87
-38.39
-48.71
-60.67
-73.60
-86.13
-96.30
-101.90
-101.07
-92.92
-77.93
-57.85
-35.07
-12.01
9.47
28.18
43.45
54.78
61.80
64.30
62.52
57.30
49.97
42.03
34.72
28.75
24.13
20.43
16.94
13.07
8.50
3.27
-2.24
-7.64
-12.57
-17.03
-21.33
-26.14
-32.24
-40.33
-50.69
-62.84
-75.41
-86.18
-92.64
-92.65
-85.15
-70.51
-50.48
-27.56
-4.36
17.02
35.19
49.37
59.11
64.22
64.74
61.19
54.65
46.59
38.54
31.60
26.15
21.81
17.77
13.21
7.74
1.54
-4.80
-10.66
-15.77
-20.36
-25.07
-30.70
-37.97
-47.31
-58.72
-71.66
-84.82
-96.19
-103.39
-104.24
-97.45
-83.16
-62.91
-39.16
-14.62
8.49
28.60
44.83
56.64
63.79
66.28
64.62
59.82
53.25
46.31
39.93
34.41
29.44
24.41
18.80
12.47
5.73
-0.93
-7.03
-12.41
-17.30
-22.23
-27.92
-35.10
-44.43
-56.15
-69.80
-83.87
-95.90
-102.95
-102.54
-93.51
-76.56
-53.96
-28.75
-3.78
19.01
38.56
54.42
66.23
73.57
76.16
74.26
68.91
61.76
54.58
48.60
44.13
40.54
36.70
31.68
25.09
17.37
9.41
2.16
-3.90
-8.99
-13.86
-19.60
-27.25
-37.46
-50.29
-64.91
-79.60
-91.86
-98.97
-98.78
-90.32
-74.28
-52.70
-28.34
-3.87
18.68
38.11
53.70
65.03
71.80
74.01
72.16
67.29
60.82
54.13
48.20
43.37
39.44
35.83
31.93
27.38
22.08
16.31
10.54
5.22
0.57
-3.61
-7.94
-13.44
-21.14
-31.74
-45.17
-60.23
-74.63
-85.42
-89.75
-85.80
-73.36
-53.94
-30.26
-5.35
18.28
39.04
56.18
69.33
78.19
82.39
81.84
77.03
69.21
60.08
51.31
44.01
38.42
34.07
30.09
25.72
20.60
14.80
8.77
2.93
-2.43
-7.42
-12.51
-18.44
-26.01
-35.83
-47.98
-61.80
-75.72
-87.42
-94.34
-94.31
-86.21
-70.45
-48.83
-24.06
1.05
24.15
43.73
58.94
69.39
74.93
75.71
72.37
66.01
58.16
50.29
43.50
38.13
33.87
30.00
25.74
20.69
14.93
8.91
3.22
-1.77
-6.17
-10.56
-15.94
-23.35
-33.58
-46.72
-61.87
-77.12
-89.73
-96.84
-96.29
-87.34
-70.94
-49.36
-25.42
-1.57
20.49
39.81
55.75
67.59
74.60
76.33
73.16
66.38
57.92
49.68
42.79
37.39
32.76
27.89
22.10
15.34
8.16
1.30
-4.68
-9.77
-14.42
-19.46
-25.70
-33.74
-43.82
-55.64
-68.27
-80.12
-89.02
-92.68
-89.31
-78.17
-59.99
-36.70
-10.85
15.08
39.22
60.39
77.87
91.06
99.42
102.62
100.78
94.73
85.92
75.99
66.35
57.77
50.29
43.41
36.51
29.18
21.47
13.83
6.81
0.80
-4.31
-9.09
-14.46
-21.27
-30.24
-41.55
-54.94
-69.42
-83.35
-94.53
-100.49
-99.22
-89.68
-72.28
-48.77
-21.71
6.16
32.57
55.87
75.01
89.28
98.28
101.93
100.68
95.50
87.74
78.84
70.01
62.09
55.47
50.21
46.05
42.56
39.20
35.41
30.78
25.07
18.31
10.58
2.06
-7.14
-16.89
-27.09
-37.66
-48.67
-60.41
-73.22
-87.12
-101.39
-114.23
-123.05
-125.11
-118.55
-103.13
-80.40
-53.24
-24.98
1.51
24.38
42.75
56.45
65.64
70.65
71.86
69.88
65.53
59.73
53.43
47.36
42.03
37.64
34.15
31.34
28.81
26.12
22.88
18.88
14.08
8.65
2.82
-3.25
-9.51
-16.03
-22.94
-30.46
-38.90
-48.67
-59.96
-72.48
-84.98
-95.25
-100.55
-98.43
-87.72
-68.99
-44.48
-17.29
9.52
33.68
53.96
69.84
81.17
87.76
89.56
86.79
80.22
71.17
61.22
51.85
43.96
37.74
32.71
28.05
23.03
17.26
10.87
4.27
-2.03
-7.74
-12.86
-17.63
-22.45
-27.76
-34.07
-41.96
-52.02
-64.39
-78.49
-92.57
-103.97
-109.73
-107.50
-96.41
-77.43
-53.04
-26.38
-0.40
22.79
42.14
57.31
68.39
75.52
78.90
78.85
75.93
70.92
64.66
57.93
51.30
45.14
39.61
34.78
30.53
26.59
22.56
18.04
12.80
6.80
0.31
-6.37
-13.01
-19.63
-26.59
-34.49
-44.07
-55.92
-70.06
-85.57
-100.39
-111.56
-116.06
-111.80
-98.41
-77.47
-51.90
-25.06
0.29
22.43
40.61
54.74
64.94
71.40
74.45
74.68
72.85
69.82
66.21
62.42
58.58
54.69
50.75
46.69
42.44
37.80
32.55
26.60
20.00
13.09
6.23
-0.28
-6.47
-12.70
-19.63
-28.05
-38.62
-51.52
-66.15
-80.92
-93.32
-100.47
-99.95
-90.60
-73.08
-49.63
-23.45
2.37
25.55
44.95
60.31
71.74
79.33
83.07
83.06
79.68
73.82
66.58
59.07
52.12
46.10
40.91
36.15
31.30
25.88
19.65
12.68
5.22
-2.34
-9.72
-16.83
-23.87
-31.21
-39.29
-48.57
-59.33
-71.62
-84.98
-98.18
-109.10
-115.23
-114.20
-104.77
-87.32
-63.84
-37.39
-11.01
12.92
33.05
48.83
60.11
66.82
68.97
66.86
61.29
53.61
45.39
38.04
32.38
28.44
25.59
22.90
19.63
15.53
10.87
6.25
2.18
-1.20
-4.27
-7.75
-12.43
-18.89
-27.39
-37.91
-50.19
-63.57
-76.80
-88.00
-94.81
-95.03
-87.36
-71.96
-50.49
-25.66
-0.43
22.80
42.44
57.82
68.78
75.39
77.90
76.79
72.86
67.22
61.14
55.66
51.41
48.43
46.27
44.25
41.71
38.35
34.21
29.70
25.30
21.29
17.60
13.73
9.09
3.10
-4.32
-12.79
-21.49
-29.52
-36.15
-41.15
-44.77
-47.68
-50.74
-54.77
-60.51
-68.41
-78.50
-90.11
-101.73
-111.09
-115.52
-112.81
-101.86
-83.19
-58.86
-31.79
-4.95
19.34
39.65
55.34
66.16
72.08
73.24
70.17
63.88
55.79
47.40
39.86
33.72
28.84
24.66
20.57
16.19
11.51
6.71
2.09
-2.24
-6.34
-10.54
-15.32
-21.27
-29.04
-39.11
-51.57
-65.67
-79.75
-91.26
-97.42
-96.04
-86.24
-68.87
-46.13
-20.90
4.16
27.13
46.91
62.89
74.60
81.61
83.62
80.88
74.37
65.73
56.77
48.95
42.93
38.46
34.71
30.68
25.71
19.65
12.91
6.13
-0.11
-5.54
-10.39
-15.19
-20.79
-27.94
-37.27
-49.03
-62.87
-77.72
-91.65
-102.11
-106.46
-102.74
-90.33
-70.31
-45.14
-17.90
8.50
32.06
51.67
66.89
77.57
83.59
84.94
81.98
75.59
67.10
58.07
49.79
42.97
37.60
33.10
28.70
23.73
18.06
11.87
5.69
-0.05
-5.20
-9.99
-15.03
-20.99
-28.56
-38.15
-49.86
-63.18
-76.82
-88.72
-96.32
-97.22
-89.99
-74.72
-53.06
-27.77
-1.85
22.16
42.51
58.30
69.07
74.76
75.54
71.99
65.19
56.57
47.69
39.75
33.40
28.59
24.75
21.13
17.09
12.40
7.21
1.96
-2.94
-7.29
-11.31
-15.56
-20.84
-27.97
-37.57
-49.77
-63.82
-78.07
-89.98
-96.81
-96.31
-87.51
-71.12
-49.19
-24.50
0.32
23.22
42.93
58.62
69.66
75.57
76.21
72.14
64.65
55.63
46.94
39.86
34.75
31.02
27.58
23.38
17.86
11.20
4.05
-2.74
-8.62
-13.52
-17.88
-22.48
-28.22
-35.87
-45.86
-58.03
-71.38
-84.03
-93.38
-96.83
-92.42
-79.71
-59.86
-35.32
-9.08
16.23
38.80
57.63
72.23
82.24
87.40
87.68
83.57
76.20
67.20
58.22
50.47
44.40
39.67
35.43
30.76
25.13
18.56
11.55
4.78
-1.22
-6.45
-11.39
-16.88
-23.85
-33.06
-44.81
-58.71
-73.49
-87.03
-96.62
-99.73
-94.69
-81.38
-61.23
-36.83
-11.05
13.66
35.67
54.06
68.29
77.96
82.76
82.79
78.72
71.90
64.05
56.73
50.89
46.62
43.29
39.89
35.60
30.08
23.65
16.98
10.77
5.41
0.75
-3.75
-8.89
-15.45
-24.00
-34.84
-47.80
-62.16
-76.33
-88.02
-94.54
-93.61
-84.16
-66.81
-43.77
-18.14
6.96
29.23
47.39
61.04
70.24
75.16
76.03
73.27
67.66
60.34
52.67
45.84
40.53
36.74
33.82
30.81
26.93
21.92
16.12
10.31
5.17
0.94
-2.74
-6.71
-11.86
-18.89
-28.11
-39.41
-52.24
-65.50
-77.61
-86.45
-89.94
-86.54
-75.88
-58.93
-37.85
-15.25
6.44
25.47
40.78
51.81
58.29
60.17
57.77
51.95
44.12
35.95
28.89
23.80
20.69
18.84
17.23
14.90
11.37
6.71
1.41
-3.93
-8.88
-13.40
-17.87
-22.98
-29.60
-38.32
-49.31
-61.83
-74.27
-84.24
-89.17
-87.07
-77.15
-60.19
-38.25
-14.13
9.54
30.67
47.97
60.74
68.64
71.67
70.18
65.05
57.60
49.38
41.77
35.59
30.96
27.34
23.84
19.64
14.40
8.33
2.05
-3.76
-8.79
-13.31
-18.10
-24.10
-32.07
-42.29
-54.41
-67.41
-79.67
-89.14
-93.69
-91.66
-82.34
-66.32
-45.38
-21.98
1.44
22.98
41.40
55.98
66.23
71.85
72.79
69.53
63.17
55.26
47.43
40.82
35.86
32.17
28.88
25.07
20.19
14.26
7.80
1.50
-4.18
-9.21
-14.10
-19.68
-26.88
-36.40
-48.40
-62.26
-76.37
-88.31
-95.29
-94.92
-86.10
-69.34
-46.78
-21.40
3.84
26.67
45.75
60.40
70.31
75.25
75.31
71.13
64.03
55.81
48.22
42.40
38.48
35.69
32.78
28.71
23.07
16.29
9.32
3.10
-1.89
-5.91
-9.80
-14.71
-21.62
-31.18
-43.46
-57.83
-72.90
-86.49
-96.00
-98.88
-93.50
-79.73
-59.13
-34.46
-8.84
15.09
35.65
52.03
64.00
71.48
74.53
73.42
68.90
62.21
54.75
47.80
41.98
37.27
33.10
28.77
23.78
18.09
12.03
6.13
0.80
-3.89
-8.29
-13.10
-19.17
-27.26
-37.79
-50.54
-64.50
-77.80
-88.03
-92.80
-90.33
-80.15
-63.15
-41.46
-17.68
5.65
26.56
43.75
56.43
64.20
66.98
65.15
59.65
51.98
43.85
36.74
31.47
27.98
25.51
22.96
19.52
14.96
9.69
4.50
-0.03
-3.75
-7.18
-11.19
-16.74
-24.54
-34.84
-47.36
-61.09
-74.32
-84.68
-89.66
-87.23
-76.63
-58.69
-35.65
-10.55
13.76
35.10
52.24
64.65
72.17
74.86
73.06
67.56
59.64
50.92
42.78
36.11
30.96
26.72
22.47
17.51
11.65
5.24
-0.98
-6.38
-10.77
-14.57
-18.74
-24.45
-32.72
-43.98
-57.80
-72.73
-86.45
-96.22
-99.56
-94.92
-82.18
-62.61
-38.43
-12.16
13.98
38.29
59.52
76.58
88.43
94.28
93.88
88.00
78.30
67.04
56.32
47.44
40.62
35.08
29.64
23.32
15.83
7.63
-0.40
-7.44
-13.23
-18.26
-23.61
-30.63
-40.37
-53.28
-68.83
-85.46
-100.70
-111.57
-115.03
-108.75
-91.77
-65.05
-31.61
4.15
37.53
64.83
84.23
95.93
101.41
102.47
100.43
95.91
89.30
81.21
72.73
65.12
59.20
54.89
51.19
46.77
40.65
32.75
23.81
15.02
7.45
1.41
-3.57
-8.65
-15.20
-24.39
-36.68
-51.56
-67.44
-81.78
-91.65
-94.46
-88.74
-74.57
-53.68
-28.81
-2.96
21.37
42.56
59.71
72.41
80.37
83.50
82.00
76.64
68.73
59.91
51.67
44.92
39.82
35.82
32.09
27.90
22.99
17.57
12.13
7.19
2.92
-0.93
-4.95
-9.85
-16.35
-24.98
-36.08
-49.55
-64.54
-79.36
-91.37
-97.68
-95.97
-85.38
-66.94
-43.25
-17.62
6.98
28.55
46.14
59.40
68.14
72.14
71.35
66.32
58.36
49.34
41.11
34.84
30.66
27.76
24.88
20.99
15.78
9.67
3.59
-1.63
-5.70
-9.03
-12.58
-17.45
-24.52
-34.21
-46.39
-60.26
-74.42
-86.82
-95.05
-96.91
-91.02
-77.45
-57.74
-34.45
-10.35
12.30
32.06
48.22
60.34
68.04
71.07
69.57
64.34
56.83
48.72
41.39
35.53
31.02
27.19
23.27
18.76
13.59
8.04
2.55
-2.58
-7.31
-11.94
-17.04
-23.31
-31.46
-41.90
-54.52
-68.37
-81.63
-91.76
-96.14
-92.90
-81.53
-63.17
-40.24
-15.66
8.01
29.10
46.86
61.10
71.65
78.25
80.58
78.74
73.40
65.92
57.92
50.74
45.04
40.62
36.74
32.48
27.28
21.11
14.45
7.91
1.90
-3.53
-8.74
-14.25
-20.61
-28.20
-37.36
-48.32
-61.03
-74.85
-88.22
-98.67
-103.34
-99.96
-87.71
-67.72
-42.75
-16.28
8.53
29.68
46.36
58.69
67.12
72.04
73.74
72.51
68.93
63.81
58.12
52.69
47.97
44.00
40.44
36.84
32.90
28.53
23.91
19.28
14.82
10.49
6.10
1.34
-4.01
-10.03
-16.71
-24.04
-32.30
-41.91
-53.28
-66.26
-79.73
-91.47
-98.61
-98.52
-89.77
-72.79
-49.79
-24.01
1.30
23.66
41.80
55.41
64.68
69.93
71.44
69.52
64.71
57.85
49.96
42.11
35.13
29.50
25.26
22.04
19.29
16.44
13.10
9.16
4.73
0.04
-4.73
-9.58
-14.67
-20.22
-26.46
-33.55
-41.70
-51.09
-61.84
-73.65
-85.45
-95.35
-100.84
-99.58
-90.30
-73.37
-50.86
-25.80
-1.27
20.57
38.65
52.80
63.20
69.89
72.73
71.70
67.22
60.33
52.47
45.04
38.98
34.49
31.03
27.73
23.75
18.64
12.49
5.84
-0.71
-6.68
-11.98
-16.92
-22.00
-27.68
-34.32
-42.14
-51.29
-61.73
-72.97
-83.73
-91.97
-95.22
-91.47
-79.97
-61.66
-38.94
-14.88
7.74
27.11
42.45
53.68
60.91
64.24
63.74
59.81
53.37
45.79
38.57
32.88
29.25
27.40
26.44
25.31
23.06
19.23
13.94
7.73
1.31
-4.72
-10.19
-15.37
-20.83
-27.31
-35.46
-45.68
-57.96
-71.60
-85.18
-96.45
-102.83
-102.11
-93.20
-76.64
-54.56
-29.95
-5.74
15.94
34.04
48.30
58.83
65.66
68.74
68.14
64.33
58.24
51.10
44.11
38.10
33.35
29.64
26.42
23.11
19.32
14.98
10.23
5.39
0.67
-3.89
-8.44
-13.28
-18.75
-25.23
-33.14
-42.87
-54.46
-67.29
-79.76
-89.39
-93.42
-89.79
-77.91
-58.99
-35.68
-11.08
12.15
32.35
48.85
61.50
70.33
75.26
76.31
73.82
68.57
61.66
54.25
47.30
41.32
36.47
32.58
29.29
26.20
22.88
19.01
14.42
9.13
3.31
-2.72
-8.76
-14.74
-20.85
-27.53
-35.39
-45.03
-56.67
-69.92
-83.39
-94.82
-101.51
-101.13
-92.57
-76.32
-54.48
-30.02
-5.84
15.89
34.09
48.43
58.98
65.73
68.63
67.79
63.72
57.48
50.40
43.77
38.35
34.24
30.93
27.63
23.68
18.78
13.14
7.22
1.52
-3.68
-8.39
-12.90
-17.63
-22.98
-29.38
-37.19
-46.71
-57.81
-69.72
-80.74
-88.50
-90.54
-85.16
-72.15
-52.90
-29.99
-6.31
15.72
34.64
49.81
60.98
68.00
70.68
69.06
63.73
55.96
47.46
39.84
34.16
30.51
28.22
26.12
23.16
18.76
13.06
6.65
0.24
-5.69
-11.16
-16.62
-22.80
-30.37
-39.81
-51.16
-64.00
-77.29
-89.30
-97.85
-100.73
-96.37
-84.42
-65.98
-43.36
-19.30
3.73
24.03
40.74
53.49
62.16
66.64
67.03
63.83
57.99
50.86
43.77
37.66
32.80
28.84
25.04
20.76
15.75
10.29
4.96
0.35
-3.35
-6.50
-9.87
-14.44
-21.06
-30.26
-42.07
-55.87
-70.29
-83.24
-92.18
-94.74
-89.42
-76.17
-56.54
-33.14
-8.89
13.87
33.68
49.95
62.44
70.96
75.29
75.38
71.73
65.49
58.21
51.37
45.88
41.81
38.50
35.05
30.80
25.58
19.76
13.90
8.44
3.43
-1.44
-6.65
-12.69
-20.00
-28.95
-39.79
-52.51
-66.44
-79.97
-90.64
-95.72
-93.10
-82.16
-64.09
-41.45
-17.33
5.70
26.07
43.21
57.05
67.53
74.34
77.15
75.96
71.45
64.90
57.89
51.70
46.91
43.24
39.83
35.72
30.36
23.89
16.98
10.52
5.05
0.58
-3.48
-7.97
-13.74
-21.31
-30.87
-42.26
-54.99
-68.07
-79.89
-88.39
-91.35
-87.19
-75.47
-57.28
-34.92
-11.24
11.14
30.45
45.83
57.11
64.43
67.99
68.07
65.13
59.99
53.72
47.44
41.97
37.67
34.31
31.30
27.99
23.94
19.08
13.72
8.31
3.19
-1.55
-6.19
-11.25
-17.33
-24.97
-34.42
-45.58
-57.83
-69.95
-80.19
-86.48
-86.95
-80.49
-67.20
-48.43
-26.49
-3.88
17.25
35.48
50.05
60.61
66.98
69.12
67.32
62.35
55.50
48.23
41.79
36.76
32.97
29.71
26.17
21.82
16.60
10.90
5.28
0.22
-4.11
-7.89
-11.56
-15.75
-21.14
-28.34
-37.83
-49.64
-63.05
-76.36
-87.07
-92.42
-90.27
-79.93
-62.48
-40.38
-16.69
5.99
26.05
42.86
56.36
66.43
72.77
74.97
73.03
67.61
60.10
52.22
45.41
40.37
36.89
34.02
30.68
26.08
20.16
13.43
6.68
0.61
-4.63
-9.39
-14.42
-20.55
-28.46
-38.49
-50.50
-63.77
-76.82
-87.55
-93.59
-92.93
-84.56
-68.97
-47.97
-24.20
-0.40
21.30
39.59
53.94
64.23
70.56
73.09
72.14
68.38
62.77
56.50
50.57
45.62
41.73
38.48
35.15
31.08
25.95
19.85
13.27
6.79
0.85
-4.53
-9.72
-15.39
-22.27
-30.94
-41.72
-54.43
-68.33
-81.90
-92.99
-99.19
-98.49
-90.02
-74.42
-53.72
-30.64
-7.76
13.16
31.28
46.35
58.22
66.53
70.85
70.99
67.47
61.44
54.40
47.66
41.93
37.23
33.06
28.79
23.99
18.59
12.85
7.14
1.77
-3.20
-7.92
-12.75
-18.14
-24.48
-32.16
-41.41
-52.24
-64.17
-76.03
-85.85
-91.32
-90.39
-82.01
-66.67
-46.24
-23.39
-0.66
20.04
37.64
51.57
61.41
66.80
67.58
64.17
57.70
49.89
42.47
36.61
32.60
29.82
27.22
23.80
19.11
13.32
7.06
1.08
-4.11
-8.46
-12.44
-16.78
-22.36
-29.85
-39.53
-51.13
-63.64
-75.38
-84.16
-87.83
-84.79
-74.58
-58.06
-37.21
-14.56
7.50
27.14
43.33
55.57
63.73
67.76
67.79
64.32
58.28
50.98
43.78
37.66
32.92
29.23
25.82
21.97
17.35
12.06
6.59
1.36
-3.44
-8.09
-13.15
-19.36
-27.37
-37.56
-49.79
-63.23
-76.26
-86.64
-92.00
-90.53
-81.59
-66.02
-45.86
-23.66
-1.74
18.26
35.45
49.26
59.19
64.72
65.59
62.21
55.77
48.04
40.75
35.02
31.06
28.20
25.39
21.79
17.11
11.75
6.43
1.76
-2.16
-5.85
-10.26
-16.38
-24.95
-36.09
-49.23
-63.04
-75.57
-84.56
-87.88
-84.17
-73.20
-56.15
-35.10
-12.53
9.36
29.14
45.97
59.42
69.08
74.55
75.63
72.69
66.77
59.39
52.15
46.15
41.67
38.16
34.63
30.25
24.65
18.13
11.41
5.25
0.04
-4.37
-8.70
-13.92
-21.04
-30.77
-43.17
-57.45
-71.84
-83.82
-90.60
-90.02
-81.21
-64.94
-43.44
-19.53
4.15
25.77
44.32
59.40
70.74
78.00
80.94
79.69
75.05
68.34
61.10
54.55
49.26
45.04
41.18
36.87
31.56
25.24
18.30
11.36
4.87
-1.07
-6.75
-12.71
-19.44
-27.37
-36.74
-47.59
-59.67
-72.22
-83.76
-92.15
-95.11
-90.85
-78.91
-60.35
-37.50
-13.21
9.98
30.43
47.34
60.47
69.74
75.00
76.14
73.42
67.62
60.01
52.04
44.89
39.10
34.56
30.55
26.20
20.87
14.39
7.16
-0.12
-6.68
-12.12
-16.50
-20.39
-24.60
-29.96
-37.07
-46.14
-56.79
-67.96
-77.90
-84.43
-85.46
-79.60
-66.68
-47.91
-25.46
-1.87
20.62
40.42
56.55
68.48
75.90
78.73
77.24
72.23
65.00
57.03
49.62
43.48
38.66
34.65
30.76
26.42
21.43
15.98
10.42
5.12
0.19
-4.47
-9.23
-14.55
-20.94
-28.93
-38.87
-50.70
-63.59
-75.85
-85.14
-89.01
-85.76
-75.02
-57.96
-36.78
-14.13
7.79
27.44
43.96
56.85
65.69
70.18
70.28
66.54
60.10
52.48
45.11
38.95
34.26
30.59
27.19
23.27
18.47
12.90
7.07
1.58
-3.27
-7.57
-11.84
-16.86
-23.39
-31.92
-42.48
-54.49
-66.62
-76.88
-82.96
-82.86
-75.55
-61.42
-42.18
-20.40
1.42
21.36
38.38
52.08
62.23
68.61
70.93
69.21
64.07
56.75
48.84
41.74
36.18
32.06
28.69
25.21
21.01
16.00
10.48
4.87
-0.50
-5.55
-10.43
-15.37
-20.72
-26.91
-34.46
-43.82
-54.97
-67.14
-78.56
-86.82
-89.46
-84.83
-72.75
-54.51
-32.52
-9.50
12.28
31.38
47.14
59.36
67.88
72.45
72.94
69.58
63.20
55.14
46.88
39.63
33.95
29.67
26.10
22.42
18.04
12.86
7.19
1.63
-3.35
-7.61
-11.44
-15.53
-20.67
-27.55
-36.51
-47.38
-59.47
-71.43
-81.43
-87.35
-87.35
-80.40
-66.70
-47.74
-25.82
-3.46
17.27
35.03
49.23
59.63
66.16
68.81
67.76
63.57
57.21
49.90
42.81
36.76
32.01
28.31
25.05
21.57
17.42
12.50
7.10
1.68
-3.35
-7.87
-12.15
-16.76
-22.39
-29.62
-38.78
-49.77
-61.93
-73.98
-84.05
-90.01
-89.99
-82.98
-69.21
-50.19
-28.28
-5.94
14.79
32.66
47.02
57.58
64.08
66.40
64.71
59.70
52.61
44.88
37.82
32.17
27.96
24.63
21.40
17.63
13.09
8.00
2.86
-1.79
-5.70
-8.96
-12.01
-15.49
-20.08
-26.34
-34.57
-44.74
-56.21
-67.71
-77.38
-83.05
-82.85
-75.83
-62.34
-43.96
-23.08
-2.10
16.99
33.05
45.51
54.18
58.97
59.87
57.14
51.45
43.98
36.15
29.23
23.94
20.19
17.24
14.11
10.09
5.10
-0.32
-5.33
-9.37
-12.40
-15.08
-18.37
-23.18
-30.05
-39.04
-49.68
-61.04
-71.73
-79.94
-83.77
-81.64
-72.88
-58.00
-38.60
-16.91
4.77
24.50
40.89
53.00
60.26
62.52
60.15
54.10
45.80
36.86
28.61
21.82
16.57
12.43
8.77
5.04
1.06
-3.09
-7.12
-10.84
-14.28
-17.77
-21.85
-27.13
-34.12
-43.08
-53.84
-65.56
-76.73
-85.20
-88.73
-85.64
-75.42
-58.99
-38.37
-16.14
5.39
24.59
40.57
52.90
61.33
65.63
65.80
62.27
56.06
48.63
41.36
35.14
30.10
25.69
21.11
15.79
9.72
3.41
-2.38
-7.14
-10.85
-14.08
-17.77
-22.87
-30.13
-39.81
-51.58
-64.41
-76.56
-85.86
-90.07
-87.53
-77.66
-61.22
-40.09
-16.71
6.53
27.71
45.55
59.24
68.30
72.53
72.17
67.99
61.30
53.60
46.27
40.02
34.88
30.28
25.52
20.16
14.25
8.20
2.58
-2.29
-6.46
-10.33
-14.59
-19.96
-27.10
-36.46
-48.00
-60.99
-73.72
-83.80
-88.64
-86.26
-76.07
-59.04
-37.44
-14.03
8.71
29.07
46.04
59.11
67.90
72.15
71.88
67.63
60.56
52.16
43.96
36.89
31.21
26.47
21.89
16.87
11.16
5.10
-0.72
-5.75
-9.82
-13.34
-17.10
-22.15
-29.32
-39.08
-51.16
-64.47
-77.15
-86.86
-91.30
-88.84
-79.03
-62.76
-41.96
-19.08
3.50
23.87
40.67
52.99
60.30
62.49
60.02
53.96
45.86
37.47
30.18
24.78
21.20
18.85
16.85
14.52
11.64
8.38
5.15
2.18
-0.63
-3.79
-8.03
-14.09
-22.43
-33.07
-45.38
-58.02
-69.00
-75.95
-76.72
-70.02
-55.89
-35.80
-12.29
11.82
34.01
52.55
66.50
75.43
79.29
78.39
73.43
65.64
56.57
47.75
40.29
34.56
30.25
26.63
22.96
18.82
14.25
9.56
5.13
1.09
-2.86
-7.38
-13.40
-21.77
-32.83
-46.07
-59.95
-72.03
-79.56
-80.30
-73.24
-58.99
-39.51
-17.52
4.42
24.33
41.07
54.04
62.89
67.39
67.53
63.81
57.29
49.48
41.80
35.17
29.77
25.07
20.39
15.26
9.72
4.26
-0.57
-4.54
-7.95
-11.64
-16.60
-23.71
-33.34
-45.18
-58.14
-70.39
-79.63
-83.63
-80.72
-70.43
-53.59
-32.23
-8.87
13.98
34.40
51.15
63.48
71.07
73.85
72.21
67.07
59.83
51.99
44.76
38.66
33.56
28.86
23.95
18.53
12.73
6.99
1.77
-2.71
-6.58
-10.37
-14.84
-20.87
-29.22
-40.16
-53.20
-66.71
-78.22
-84.85
-84.24
-75.32
-58.77
-36.83
-12.51
11.27
32.47
50.07
63.84
73.76
79.76
81.72
79.66
74.13
66.29
57.67
49.72
43.38
38.71
35.06
31.42
26.95
21.35
14.99
8.62
2.99
-1.59
-5.41
-9.32
-14.38
-21.61
-31.60
-44.23
-58.47
-72.36
-83.27
-88.52
-86.16
-75.60
-57.95
-35.60
-11.50
11.70
32.22
49.17
62.25
71.35
76.36
77.25
74.36
68.54
61.08
53.38
46.52
41.06
36.83
33.37
29.99
26.19
21.78
16.83
11.64
6.45
1.40
-3.62
-8.90
-14.86
-21.92
-30.42
-40.57
-52.24
-64.83
-77.03
-86.95
-92.34
-91.31
-82.92
-67.65
-47.27
-24.32
-1.38
19.58
37.37
51.47
61.64
67.72
69.65
67.64
62.41
55.16
47.34
40.22
34.52
30.27
26.87
23.54
19.61
14.86
9.58
4.27
-0.51
-4.57
-8.11
-11.71
-16.07
-21.85
-29.53
-39.25
-50.67
-62.85
-74.20
-82.59
-85.88
-82.41
-71.71
-54.64
-33.27
-10.25
11.90
31.23
46.66
57.64
64.06
65.96
63.76
58.27
50.75
42.70
35.48
29.85
25.80
22.69
19.57
15.68
10.80
5.23
-0.41
-5.51
-9.79
-13.45
-17.05
-21.36
-27.16
-35.00
-45.04
-56.69
-68.56
-78.48
-83.99
-83.06
-74.78
-59.76
-39.89
-17.75
4.26
24.34
41.43
54.91
64.30
69.18
69.41
65.45
58.43
50.00
41.81
35.04
30.02
26.30
22.96
19.15
14.42
8.91
3.21
-1.99
-6.29
-9.80
-13.16
-17.26
-23.01
-30.99
-41.37
-53.61
-66.51
-78.15
-86.18
-88.38
-83.28
-70.75
-52.14
-29.85
-6.64
15.15
34.03
49.31
60.76
68.23
71.60
70.87
66.52
59.65
51.74
44.29
38.25
33.75
30.20
26.62
22.17
16.57
10.15
3.64
-2.26
-7.15
-11.20
-14.99
-19.35
-25.18
-33.16
-43.70
-56.56
-70.68
-84.06
-94.00
-97.81
-93.66
-81.28
-62.15
-38.96
-14.77
7.93
27.68
43.89
56.44
65.21
69.97
70.62
67.50
61.64
54.50
47.55
41.85
37.67
34.59
31.79
28.53
24.40
19.54
14.44
9.59
5.30
1.44
-2.47
-7.11
-13.12
-21.01
-31.02
-43.02
-56.41
-69.86
-81.37
-88.55
-89.26
-82.29
-67.89
-47.81
-24.77
-1.59
19.52
37.27
51.20
61.22
67.33
69.50
67.90
63.13
56.30
48.83
42.00
36.57
32.56
29.41
26.28
22.46
17.71
12.27
6.67
1.46
-3.06
-7.02
-10.94
-15.50
-21.40
-29.11
-38.83
-50.33
-62.85
-74.99
-84.79
-90.03
-88.81
-80.23
-64.72
-44.12
-21.08
1.71
22.15
39.11
52.10
61.08
65.98
66.86
64.01
58.20
50.75
43.10
36.49
31.50
27.97
25.16
22.24
18.57
14.03
8.94
3.85
-0.77
-4.81
-8.58
-12.70
-17.92
-24.86
-33.93
-45.05
-57.63
-70.30
-81.05
-87.51
-87.62
-80.32
-65.98
-46.40
-24.10
-1.67
18.93
36.50
50.36
60.09
65.35
66.07
62.70
56.37
48.62
41.02
34.64
29.79
26.07
22.68
18.91
14.38
9.24
3.98
-0.84
-4.94
-8.48
-12.10
-16.69
-23.14
-32.04
-43.40
-56.45
-69.65
-80.74
-87.33
-87.41
-80.08
-65.83
-46.36
-24.14
-1.58
19.32
37.21
51.20
60.74
65.47
65.51
61.51
54.76
46.83
39.13
32.56
27.20
22.54
17.87
12.70
6.96
1.08
-4.34
-8.82
-12.30
-15.23
-18.33
-22.49
-28.46
-36.71
-47.30
-59.59
-72.20
-82.96
-89.35
-89.18
-81.37
-66.50
-46.61
-24.54
-3.02
15.98
31.48
43.16
50.92
54.67
54.48
50.90
45.11
38.84
33.72
30.76
29.93
30.26
30.44
29.34
26.60
22.58
18.16
14.16
10.93
8.22
5.15
0.64
-6.33
-16.30
-29.12
-43.67
-57.98
-69.47
-75.59
-74.52
-65.77
-50.32
-30.37
-8.55
12.75
31.83
47.69
59.84
67.93
71.77
71.40
67.38
60.80
53.14
45.81
39.74
35.17
31.68
28.51
24.98
20.70
15.77
10.56
5.52
0.94
-3.17
-7.13
-11.44
-16.72
-23.62
-32.64
-43.93
-56.89
-70.00
-80.87
-86.78
-85.54
-76.22
-59.67
-38.15
-14.66
8.08
28.19
44.78
57.60
66.54
71.48
72.31
69.30
63.28
55.66
48.01
41.54
36.78
33.39
30.50
27.20
22.93
17.73
12.12
6.81
2.23
-1.58
-5.08
-8.98
-14.10
-21.06
-30.17
-41.27
-53.58
-65.59
-75.21
-80.20
-78.70
-69.95
-54.55
-34.38
-12.05
9.86
29.29
45.03
56.51
63.61
66.38
65.08
60.32
53.14
44.94
37.17
30.90
26.50
23.58
21.26
18.52
14.71
9.73
4.04
-1.62
-6.63
-10.79
-14.45
-18.43
-23.78
-31.35
-41.58
-54.05
-67.44
-79.56
-87.87
-90.04
-84.72
-72.02
-53.48
-31.66
-9.24
11.57
29.44
43.74
54.23
60.72
63.06
61.45
56.61
49.84
42.73
36.54
31.89
28.53
25.65
22.31
17.94
12.52
6.60
0.92
-3.94
-7.85
-11.21
-14.78
-19.48
-26.06
-34.98
-46.16
-58.75
-71.18
-81.15
-86.22
-84.41
-74.98
-58.72
-37.79
-15.02
6.93
26.21
41.95
53.93
62.21
66.78
67.61
64.94
59.46
52.30
44.80
38.14
32.94
29.21
26.35
23.57
20.13
15.71
10.48
4.90
-0.39
-4.99
-8.90
-12.56
-16.72
-22.21
-29.70
-39.57
-51.67
-65.17
-78.44
-89.20
-94.89
-93.44
-83.88
-66.88
-44.49
-19.67
4.64
26.21
43.76
56.92
65.79
70.74
72.15
70.57
66.67
61.29
55.33
49.52
44.38
40.07
36.54
33.52
30.74
27.89
24.69
20.89
16.31
10.93
4.88
-1.54
-8.01
-14.38
-20.70
-27.37
-34.91
-43.95
-54.86
-67.53
-81.08
-93.68
-102.85
-105.95
-101.10
-87.79
-67.29
-42.20
-15.74
9.24
30.88
48.29
61.31
70.08
74.90
76.20
74.75
71.56
67.59
63.50
59.49
55.40
51.05
46.45
41.89
37.74
34.19
31.06
27.91
24.16
19.45
13.73
7.22
0.31
-6.65
-13.45
-20.15
-27.00
-34.46
-43.08
-53.25
-64.95
-77.33
-88.70
-96.69
-98.87
-93.54
-80.36
-60.60
-36.74
-11.78
11.60
31.56
47.29
58.70
66.09
69.84
70.36
68.13
63.78
58.15
52.11
46.46
41.70
38.00
35.20
32.93
30.73
28.19
25.10
21.35
17.06
12.37
7.38
2.13
-3.40
-9.28
-15.56
-22.37
-29.98
-38.77
-49.02
-60.60
-72.53
-82.91
-89.22
-89.05
-80.98
-65.27
-43.83
-19.70
3.95
24.74
41.47
54.11
63.13
69.01
71.95
71.86
68.79
63.18
56.01
48.50
41.82
36.60
32.81
29.91
27.09
23.68
19.39
14.33
8.87
3.38
-1.92
-7.08
-12.38
-18.19
-24.84
-32.64
-41.86
-52.70
-64.91
-77.59
-88.96
-96.58
-98.01
-91.66
-77.55
-57.34
-33.95
-10.52
10.48
27.74
41.10
50.91
57.62
61.38
62.19
60.15
55.76
49.97
43.93
38.66
34.67
31.83
29.54
27.01
23.64
19.21
13.93
8.24
2.55
-2.92
-8.24
-13.63
-19.45
-26.04
-33.76
-42.97
-53.89
-66.23
-78.91
-89.93
-96.70
-96.88
-89.11
-73.74
-52.61
-28.60
-4.58
17.25
35.66
50.24
60.91
67.75
70.82
70.39
67.04
61.73
55.59
49.61
44.44
40.25
36.79
33.55
30.08
26.04
21.39
16.31
11.10
6.02
1.16
-3.56
-8.44
-13.91
-20.48
-28.66
-38.82
-50.95
-64.28
-77.19
-87.26
-91.89
-89.15
-78.49
-61.03
-39.26
-16.18
5.62
24.53
39.96
51.93
60.54
65.73
67.35
65.51
60.82
54.45
47.77
41.94
37.52
34.33
31.70
28.80
25.14
20.65
15.65
10.61
5.82
1.29
-3.26
-8.23
-14.04
-20.96
-29.21
-38.93
-50.01
-61.87
-73.18
-81.94
-85.86
-83.13
-73.10
-56.68
-36.03
-13.89
7.27
25.74
40.71
51.95
59.35
62.83
62.32
58.18
51.29
43.04
34.97
28.27
23.40
20.03
17.29
14.27
10.43
5.83
0.97
-3.52
-7.24
-10.31
-13.25
-16.81
-21.68
-28.36
-37.08
-47.73
-59.69
-71.67
-81.71
-87.46
-86.88
-78.90
-63.96
-43.85
-21.22
1.27
21.58
38.51
51.50
60.33
64.94
65.44
62.35
56.65
49.67
42.76
36.84
32.25
28.68
25.44
21.84
17.39
12.09
6.29
0.58
-4.55
-8.96
-12.95
-17.25
-22.79
-30.38
-40.43
-52.61
-65.69
-77.61
-85.82
-88.04
-82.90
-70.53
-52.50
-31.35
-9.67
10.58
28.32
43.13
54.76
62.72
66.49
65.81
61.21
54.06
46.20
39.32
34.34
31.17
28.92
26.43
22.83
17.94
12.16
6.25
0.87
-3.73
-7.80
-12.01
-17.16
-23.98
-32.90
-43.92
-56.40
-68.96
-79.57
-85.76
-85.48
-77.62
-62.63
-42.42
-19.74
2.63
22.68
39.36
52.40
61.77
67.47
69.48
67.98
63.70
57.83
51.71
46.35
42.07
38.39
34.39
29.16
22.24
13.89
4.94
-3.54
-10.72
-16.30
-20.60
-24.45
-28.86
-34.81
-42.87
-53.11
-64.83
-76.55
-86.08
-91.02
-89.39
-80.26
-64.20
-43.13
-19.73
3.38
24.20
41.63
55.27
65.05
71.00
73.18
71.88
67.75
61.83
55.34
49.29
44.26
40.22
36.71
33.09
28.99
24.34
19.49
14.90
10.85
7.26
3.57
-1.02
-7.33
-15.94
-27.02
-40.33
-55.14
-70.18
-83.63
-93.35
-97.23
-93.81
-82.88
-65.57
-44.19
-21.46
0.17
19.06
34.37
45.81
53.25
56.64
56.09
52.13
45.85
38.67
31.99
26.70
22.91
20.06
17.26
13.79
9.38
4.36
-0.67
-5.04
-8.44
-11.07
-13.54
-16.74
-21.55
-28.65
-38.23
-49.85
-62.30
-73.53
-81.15
-82.87
-77.34
-64.58
-46.06
-24.20
-1.70
19.25
37.22
51.44
61.54
67.25
68.54
65.75
59.79
52.09
44.17
37.23
31.75
27.47
23.64
19.51
14.64
9.10
3.41
-1.88
-6.43
-10.37
-14.18
-18.59
-24.32
-31.86
-41.43
-52.74
-64.85
-76.06
-84.06
-86.46
-81.66
-69.43
-51.13
-29.30
-6.74
14.34
32.70
47.90
59.76
67.99
72.11
71.83
67.45
60.11
51.48
43.19
36.33
31.07
26.86
22.78
18.10
12.61
6.66
0.88
-4.20
-8.41
-12.14
-16.15
-21.36
-28.53
-38.08
-49.76
-62.59
-74.74
-83.86
-87.57
-84.21
-73.40
-56.24
-34.99
-12.35
9.38
28.65
44.75
57.37
66.29
71.18
71.90
68.73
62.57
54.90
47.22
40.65
35.54
31.56
27.91
23.85
19.00
13.43
7.58
1.90
-3.34
-8.25
-13.18
-18.71
-25.43
-33.83
-44.13
-56.04
-68.54
-79.79
-87.46
-89.26
-83.75
-70.88
-52.08
-29.79
-6.65
15.14
34.16
49.66
61.19
68.44
71.27
69.89
65.13
58.35
51.13
44.74
39.81
36.19
33.12
29.69
25.22
19.59
13.26
6.99
1.50
-2.92
-6.54
-10.17
-14.78
-21.22
-29.90
-40.66
-52.65
-64.43
-73.99
-79.29
-78.61
-71.19
-57.45
-38.96
-17.99
3.13
22.47
38.71
51.13
59.33
63.23
63.03
59.33
53.13
45.66
38.12
31.40
25.85
21.29
17.24
13.15
8.72
3.96
-0.75
-5.03
-8.62
-11.72
-14.87
-18.88
-24.58
-32.55
-42.85
-54.80
-66.92
-76.98
-82.52
-81.59
-73.29
-58.29
-38.51
-16.57
5.07
24.61
41.03
53.83
62.67
67.28
67.55
63.91
57.45
49.71
42.23
35.98
31.12
27.06
22.94
18.07
12.36
6.23
0.42
-4.49
-8.38
-11.68
-15.26
-20.06
-26.87
-36.00
-47.06
-58.95
-69.82
-77.46
-79.78
-75.41
-64.20
-47.30
-26.92
-5.57
14.49
31.83
45.73
55.97
62.46
65.17
64.25
60.23
54.17
47.38
41.05
35.81
31.62
27.87
23.85
19.15
13.83
8.40
3.42
-0.80
-4.37
-7.86
-12.08
-17.89
-25.98
-36.57
-49.18
-62.48
-74.27
-82.02
-83.52
-77.63
-64.74
-46.60
-25.72
-4.61
14.91
31.77
45.48
55.66
61.96
64.10
62.28
57.34
50.70
43.94
38.24
34.07
31.04
28.32
24.99
20.57
15.12
9.17
3.39
-1.77
-6.30
-10.71
-15.80
-22.50
-31.45
-42.79
-55.85
-69.10
-80.35
-87.16
-87.54
-80.54
-66.62
-47.46
-25.50
-3.24
17.33
34.89
48.74
58.47
63.89
65.02
62.36
56.93
50.16
43.52
37.99
33.86
30.65
27.51
23.67
18.82
13.24
7.55
2.45
-1.77
-5.25
-8.62
-12.72
-18.38
-26.16
-36.15
-47.81
-59.81
-70.19
-76.62
-77.14
-70.66
-57.44
-39.03
-17.77
3.83
23.74
40.54
53.46
62.13
66.41
66.46
62.85
56.62
49.13
41.75
35.41
30.40
26.34
22.45
18.03
12.79
7.00
1.31
-3.59
-7.41
-10.44
-13.48
-17.56
-23.55
-31.92
-42.39
-54.04
-65.21
-73.81
-77.77
-75.55
-66.67
-51.86
-32.89
-12.04
8.53
27.10
42.61
54.36
61.98
65.28
64.48
60.29
53.86
46.58
39.51
33.21
27.60
22.23
16.64
10.69
4.64
-0.97
-5.69
-9.39
-12.40
-15.43
-19.30
-24.83
-32.55
-42.57
-54.30
-66.32
-76.40
-82.01
-80.98
-72.33
-56.71
-36.22
-13.71
8.09
27.30
43.04
55.14
63.64
68.54
69.77
67.53
62.48
55.77
48.75
42.58
37.92
34.73
32.48
30.40
27.85
24.52
20.51
16.21
12.05
8.33
5.06
1.99
-1.12
-4.45
-7.92
-11.34
-14.46
-17.22
-19.71
-22.19
-25.00
-28.54
-33.29
-39.73
-48.20
-58.44
-69.36
-78.97
-84.77
-84.56
-77.18
-63.05
-43.92
-22.29
-0.63
19.15
35.79
48.55
56.96
60.74
60.06
55.71
49.07
41.80
35.37
30.55
27.31
24.91
22.38
18.96
14.49
9.35
4.26
-0.16
-3.77
-6.91
-10.47
-15.45
-22.68
-32.38
-43.91
-55.69
-65.42
-70.68
-69.56
-61.38
-46.82
-27.87
-7.07
13.08
30.71
44.67
54.43
59.81
60.89
58.09
52.24
44.67
36.84
30.00
24.80
21.12
18.29
15.47
12.09
8.08
3.82
-0.14
-3.48
-6.24
-8.93
-12.29
-17.05
-23.72
-32.36
-42.44
-52.67
-61.15
-65.71
-64.54
-56.79
-42.95
-24.74
-4.55
15.21
32.71
46.74
56.66
62.17
63.21
60.14
53.75
45.38
36.53
28.46
21.89
16.78
12.63
8.73
4.59
0.05
-4.69
-9.30
-13.52
-17.28
-20.81
-24.55
-29.13
-35.16
-43.10
-52.86
-63.59
-73.65
-80.75
-82.65
-77.83
-66.06
-48.48
-27.27
-4.94
16.25
34.62
49.08
58.97
63.98
64.18
60.20
53.26
44.95
36.85
30.03
24.78
20.66
16.82
12.47
7.25
1.35
-4.68
-10.17
-14.78
-18.60
-22.29
-26.76
-32.98
-41.60
-52.56
-64.92
-76.78
-85.68
-89.11
-85.37
-74.02
-56.14
-33.93
-10.12
12.77
32.90
49.13
60.95
68.12
70.65
68.85
63.45
55.66
46.89
38.47
31.20
25.32
20.51
16.17
11.80
7.16
2.38
-2.30
-6.68
-10.92
-15.55
-21.38
-29.29
-39.93
-53.32
-68.57
-83.79
-96.31
-103.39
-102.92
-94.12
-77.77
-55.91
-31.19
-6.14
17.30
37.84
54.70
67.26
75.10
78.05
76.50
71.48
64.44
56.97
50.28
44.89
40.56
36.50
31.85
26.07
19.28
12.08
5.33
-0.38
-4.98
-9.10
-13.80
-20.30
-29.48
-41.52
-55.63
-69.99
-82.10
-89.24
-89.24
-81.12
-65.41
-43.98
-19.44
5.55
28.94
49.36
66.10
78.69
86.79
90.26
89.26
84.58
77.48
69.48
61.83
55.25
49.70
44.62
39.28
33.19
26.30
18.98
11.83
5.30
-0.46
-5.76
-11.21
-17.57
-25.60
-35.80
-48.32
-62.58
-77.16
-89.79
-97.74
-98.55
-90.83
-74.87
-52.59
-26.92
-0.96
22.90
43.30
59.74
72.15
80.54
84.88
85.24
82.03
76.07
68.55
60.65
53.28
46.90
41.45
36.52
31.61
26.38
20.74
14.90
9.18
3.86
-1.07
-5.83
-10.91
-16.85
-24.16
-33.26
-44.33
-57.21
-71.05
-84.15
-94.04
-98.05
-94.14
-81.69
-61.89
-37.33
-11.27
13.41
34.80
52.08
65.14
74.12
79.09
80.07
77.31
71.45
63.64
55.25
47.48
41.06
36.05
31.96
28.00
23.54
18.33
12.58
6.80
1.44
-3.32
-7.68
-12.14
-17.29
-23.62
-31.46
-41.01
-52.22
-64.68
-77.31
-88.26
-95.12
-95.56
-88.10
-72.79
-51.31
-26.46
-1.33
21.59
40.79
55.70
66.26
72.56
74.75
73.05
68.09
60.91
52.82
45.09
38.61
33.67
29.97
26.85
23.56
19.58
14.73
9.23
3.56
-1.84
-6.72
-11.26
-15.93
-21.37
-28.19
-36.85
-47.48
-59.80
-72.93
-85.25
-94.58
-98.55
-95.36
-84.32
-66.29
-43.36
-18.31
6.17
28.09
46.27
60.28
70.06
75.77
77.70
76.27
72.15
66.16
59.18
52.06
45.46
39.82
35.24
31.57
28.33
24.97
20.98
16.13
10.48
4.35
-1.86
-7.88
-13.65
-19.34
-25.21
-31.62
-38.96
-47.61
-57.91
-69.73
-82.24
-93.66
-101.50
-103.16
-96.86
-82.34
-61.05
-35.75
-9.62
14.57
35.10
51.24
63.03
70.75
74.68
75.10
72.40
67.21
60.42
53.03
45.87
39.50
34.12
29.62
25.73
22.11
18.52
14.73
10.69
6.38
1.82
-2.94
-7.94
-13.20
-18.86
-25.04
-32.05
-40.29
-50.12
-61.57
-73.90
-85.46
-93.82
-96.45
-91.52
-78.63
-59.03
-35.25
-10.30
13.15
33.32
49.40
61.25
69.04
72.98
73.33
70.46
65.03
57.97
50.33
43.08
36.87
31.91
28.01
24.69
21.46
17.89
13.85
9.37
4.65
-0.10
-4.79
-9.49
-14.40
-19.79
-25.97
-33.25
-41.92
-52.14
-63.72
-75.82
-86.77
-94.25
-95.85
-89.89
-76.13
-56.02
-32.26
-8.00
14.15
32.65
47.04
57.53
64.46
67.97
68.11
65.06
59.46
52.35
45.02
38.56
33.55
29.93
27.06
24.14
20.50
15.90
10.59
5.10
-0.05
-4.61
-8.79
-13.12
-18.25
-24.72
-32.80
-42.52
-53.56
-65.21
-76.22
-84.78
-88.90
-86.83
-77.86
-62.53
-42.61
-20.56
1.24
20.89
37.29
49.80
58.15
62.15
61.92
58.00
51.38
43.45
35.52
28.57
22.99
18.60
14.93
11.47
7.83
3.86
-0.38
-4.77
-9.13
-13.46
-17.87
-22.65
-28.31
-35.42
-44.48
-55.55
-67.98
-80.23
-90.07
-95.07
-93.32
-84.12
-68.18
-47.49
-24.60
-1.95
18.67
36.24
50.25
60.37
66.29
67.85
65.29
59.49
51.82
43.85
36.80
31.14
26.60
22.36
17.64
12.04
5.77
-0.54
-6.20
-10.83
-14.64
-18.33
-22.93
-29.35
-38.23
-49.56
-62.57
-75.70
-86.75
-93.29
-93.30
-85.78
-71.13
-51.08
-28.14
-4.86
16.69
35.30
50.33
61.47
68.49
71.28
70.03
65.44
58.72
51.23
44.15
38.05
32.81
27.86
22.53
16.45
9.78
3.04
-3.15
-8.37
-12.72
-16.76
-21.41
-27.68
-36.36
-47.75
-61.34
-75.68
-88.44
-96.86
-98.54
-92.13
-77.88
-57.55
-33.76
-9.22
13.93
34.34
51.22
63.94
71.92
74.75
72.57
66.34
57.79
48.90
41.28
35.64
31.62
28.23
24.33
19.34
13.37
7.11
1.37
-3.38
-7.28
-11.06
-15.75
-22.38
-31.55
-43.28
-56.84
-70.72
-82.80
-90.64
-92.10
-85.93
-72.17
-52.23
-28.43
-3.42
20.47
41.47
58.45
70.71
77.91
80.11
77.85
72.24
64.69
56.71
49.32
42.97
37.48
32.28
26.85
20.96
14.79
8.76
3.28
-1.52
-5.91
-10.50
-16.07
-23.38
-32.95
-44.81
-58.28
-71.82
-83.08
-89.35
-88.38
-79.13
-62.25
-39.92
-15.13
9.17
30.80
48.47
61.59
69.90
73.30
72.03
66.78
58.88
49.96
41.55
34.56
29.06
24.49
19.99
15.00
9.40
3.60
-1.80
-6.38
-10.17
-13.77
-18.13
-24.36
-33.23
-44.91
-58.54
-72.32
-83.68
-89.89
-88.87
-79.75
-63.24
-41.32
-16.68
7.95
30.35
48.91
62.68
71.14
74.25
72.50
67.02
59.33
51.02
43.35
36.82
31.27
26.09
20.71
14.95
9.11
3.77
-0.60
-3.98
-6.92
-10.46
-15.80
-23.99
-35.54
-50.03
-66.01
-80.97
-91.63
-94.71
-87.83
-70.46
-44.40
-13.43
17.77
44.99
65.61
78.98
85.93
87.96
86.42
82.17
75.80
67.94
59.39
51.06
43.54
36.92
30.82
24.74
18.40
11.95
5.80
0.34
-4.30
-8.54
-13.23
-19.55
-28.45
-40.30
-54.24
-68.20
-79.12
-83.85
-80.19
-67.68
-47.79
-23.34
2.31
26.32
46.77
62.78
74.11
80.78
83.00
81.14
75.94
68.46
59.96
51.54
43.89
37.17
31.11
25.30
19.42
13.52
7.86
2.77
-1.64
-5.75
-10.39
-16.68
-25.54
-37.25
-50.97
-64.71
-75.66
-80.91
-78.34
-67.34
-49.00
-25.81
-0.83
23.06
43.72
59.86
70.94
76.84
77.90
74.83
68.81
61.28
53.63
46.83
41.17
36.33
31.67
26.65
21.08
15.22
9.56
4.48
-0.01
-4.40
-9.54
-16.44
-25.81
-37.66
-51.01
-63.86
-73.57
-77.46
-73.72
-61.94
-43.33
-20.27
4.35
27.85
48.26
64.29
75.27
80.92
81.43
77.46
70.24
61.32
52.23
44.01
37.03
31.03
25.49
20.06
14.74
9.78
5.50
1.89
-1.41
-5.13
-10.10
-17.02
-26.24
-37.47
-49.71
-61.13
-69.31
-71.83
-66.96
-54.35
-35.28
-12.35
11.25
32.63
49.80
61.87
68.83
71.18
69.65
65.05
58.20
49.99
41.26
32.69
24.74
17.67
11.54
6.33
1.90
-1.92
-5.36
-8.76
-12.48
-17.02
-22.95
-30.81
-40.77
-52.31
-63.94
-73.34
-77.95
-75.74
-65.94
-49.41
-28.29
-5.44
16.42
35.20
49.62
59.19
63.94
64.36
61.24
55.61
48.55
40.99
33.60
26.77
20.65
15.22
10.40
6.02
1.96
-1.96
-5.86
-9.93
-14.49
-20.04
-27.22
-36.48
-47.63
-59.52
-70.05
-76.59
-76.79
-69.47
-54.99
-35.18
-12.70
9.71
29.89
46.43
58.61
66.12
68.98
67.54
62.64
55.51
47.59
40.07
33.59
28.14
23.25
18.41
13.32
8.07
3.00
-1.57
-5.60
-9.41
-13.73
-19.42
-27.30
-37.70
-50.12
-62.99
-73.89
-80.11
-79.47
-71.15
-55.97
-36.09
-14.27
6.95
25.74
41.01
52.16
58.83
60.88
58.58
52.77
44.85
36.36
28.57
22.07
16.76
12.13
7.65
3.08
-1.46
-5.67
-9.29
-12.42
-15.49
-19.22
-24.37
-31.54
-40.90
-51.98
-63.57
-73.79
-80.45
-81.51
-75.75
-63.16
-45.02
-23.53
-1.25
19.51
37.06
50.40
59.05
62.98
62.58
58.66
52.37
45.08
37.89
31.45
25.80
20.61
15.41
9.95
4.30
-1.24
-6.35
-10.96
-15.23
-19.61
-24.67
-30.97
-38.89
-48.43
-58.91
-68.83
-76.03
-78.17
-73.50
-61.48
-43.08
-20.53
3.37
25.99
45.38
60.41
70.69
76.24
77.28
74.27
67.88
59.05
48.84
38.31
28.25
19.11
10.96
3.63
-3.10
-9.36
-15.11
-20.27
-24.83
-29.08
-33.61
-39.23
-46.76
-56.51
-67.94
-79.45
-88.58
-92.67
-89.69
-79.05
-61.78
-40.28
-17.41
4.34
23.39
39.08
51.18
59.51
63.74
63.68
59.61
52.61
44.27
36.26
29.66
24.65
20.60
16.53
11.72
6.11
0.32
-4.79
-8.66
-11.36
-13.70
-16.94
-22.29
-30.50
-41.52
-54.27
-66.82
-76.71
-81.51
-79.57
-70.44
-55.08
-35.46
-13.96
7.25
26.56
42.96
55.75
64.37
68.42
67.90
63.42
56.23
47.92
39.93
33.11
27.62
23.00
18.63
14.03
9.14
4.19
-0.39
-4.32
-7.58
-10.48
-13.58
-17.60
-23.30
-31.27
-41.64
-53.71
-65.70
-75.00
-78.75
-74.86
-62.80
-43.88
-20.82
3.25
25.71
45.01
60.60
72.52
80.87
85.65
86.82
84.56
79.38
72.03
63.28
53.75
43.73
33.33
22.50
11.32
0.08
-10.68
-20.24
-28.03
-33.85
-38.11
-41.69
-45.81
-51.52
-59.45
-69.49
-80.74
-91.51
-99.61
-102.80
-99.36
-88.68
-71.44
-49.53
-25.54
-2.05
18.90
35.99
48.56
56.37
59.42
58.00
52.80
44.97
35.98
27.30
20.00
14.52
10.61
7.55
4.57
1.15
-2.76
-6.81
-10.63
-13.96
-17.01
-20.23
-24.35
-30.01
-37.69
-47.45
-58.67
-70.00
-79.33
-84.32
-83.00
-74.47
-59.34
-39.50
-17.59
3.82
22.76
38.08
49.21
55.87
57.99
55.75
49.86
41.56
32.44
23.98
17.18
12.22
8.58
5.37
1.79
-2.50
-7.34
-12.17
-16.44
-19.93
-22.98
-26.41
-31.26
-38.43
-48.20
-59.95
-72.07
-82.21
-87.84
-86.93
-78.64
-63.43
-43.00
-19.72
3.98
25.99
44.69
58.91
67.91
71.37
69.67
63.84
55.49
46.38
37.86
30.61
24.50
18.95
13.26
7.11
0.62
-5.72
-11.42
-16.31
-20.63
-25.09
-30.48
-37.57
-46.79
-58.14
-71.02
-84.12
-95.45
-102.65
-103.53
-96.81
-82.61
-62.42
-38.69
-14.08
9.26
29.89
46.99
60.10
68.95
73.45
73.92
71.23
66.54
61.03
55.46
50.08
44.66
38.82
32.37
25.41
18.35
11.64
5.60
0.23
-4.79
-10.11
-16.57
-24.93
-35.56
-48.05
-60.95
-71.84
-77.93
-76.94
-67.88
-51.53
-30.13
-6.66
16.11
36.22
52.69
65.15
73.47
77.54
77.34
73.32
66.47
58.26
50.17
43.16
37.44
32.48
27.54
22.04
15.98
9.78
4.04
-0.88
-5.20
-9.63
-15.18
-22.77
-32.93
-45.58
-59.88
-74.14
-86.06
-93.15
-93.33
-85.65
-70.59
-50.02
-26.54
-2.83
19.03
37.72
52.48
62.90
68.72
69.97
67.12
61.24
53.82
46.35
39.89
34.81
30.79
27.15
23.28
18.92
14.20
9.50
5.10
0.97
-3.30
-8.37
-14.94
-23.62
-34.68
-47.99
-62.69
-77.15
-89.01
-95.67
-95.01
-86.16
-69.89
-48.39
-24.51
-0.86
20.77
39.58
55.27
67.60
76.13
80.42
80.42
76.76
70.72
63.76
56.99
50.83
44.94
38.67
31.55
23.63
15.54
8.20
2.32
-1.92
-5.00
-7.90
-11.75
-17.54
-25.74
-36.22
-48.01
-59.44
-68.23
-72.06
-69.17
-58.92
-42.05
-20.50
3.09
26.11
46.42
62.48
73.40
78.72
78.55
73.51
64.91
54.44
43.87
34.58
27.21
21.64
17.24
13.24
9.09
4.65
0.09
-4.33
-8.46
-12.51
-16.99
-22.66
-30.25
-40.21
-52.39
-65.80
-78.55
-88.10
-91.94
-88.20
-76.43
-57.72
-34.41
-9.40
14.59
35.51
52.18
64.03
70.96
73.15
71.17
65.98
58.87
51.20
44.04
37.93
32.78
28.08
23.24
17.89
12.07
6.14
0.57
-4.38
-8.84
-13.41
-18.98
-26.52
-36.69
-49.41
-63.63
-77.22
-87.37
-91.29
-87.09
-74.48
-54.90
-31.10
-6.16
17.25
37.44
53.58
65.38
72.67
75.36
73.68
68.42
60.97
52.99
45.86
40.19
35.74
31.70
27.22
21.92
16.00
10.11
4.91
0.63
-3.07
-7.02
-12.26
-19.75
-30.02
-42.94
-57.61
-72.18
-84.17
-90.84
-90.06
-80.96
-64.36
-42.53
-18.45
5.06
26.06
43.59
57.37
67.32
73.28
75.07
72.84
67.30
59.74
51.72
44.46
38.61
33.99
29.98
25.86
21.25
16.22
11.16
6.52
2.44
-1.35
-5.47
-10.68
-17.61
-26.68
-37.95
-51.00
-64.79
-77.56
-86.97
-90.63
-86.76
-74.98
-56.47
-33.71
-9.66
13.10
32.95
49.22
61.80
70.64
75.53
76.24
72.93
66.41
58.17
49.94
43.11
38.27
35.05
32.43
29.31
25.09
19.85
14.23
8.98
4.55
0.76
-3.02
-7.55
-13.49
-21.14
-30.58
-41.67
-53.95
-66.46
-77.46
-84.68
-85.84
-79.53
-65.79
-46.31
-23.85
-1.27
19.17
36.27
49.59
59.04
64.51
65.84
63.17
57.18
49.25
41.08
34.15
29.25
26.28
24.34
22.29
19.20
14.65
8.88
2.56
-3.54
-8.86
-13.31
-17.28
-21.51
-26.89
-34.16
-43.62
-54.90
-66.83
-77.46
-84.48
-85.72
-79.90
-66.97
-48.29
-26.13
-3.13
18.47
37.14
51.98
62.56
68.64
70.20
67.61
61.80
54.17
46.26
39.28
33.75
29.45
25.69
21.72
17.08
11.76
6.11
0.66
-4.14
-8.16
-11.57
-14.93
-19.02
-24.79
-33.02
-43.99
-57.18
-70.99
-83.00
-90.41
-90.90
-83.41
-68.49
-48.19
-25.30
-2.54
18.14
35.64
49.51
59.53
65.47
67.19
64.90
59.41
52.07
44.45
37.77
32.60
28.74
25.48
22.02
17.88
13.17
8.37
4.12
0.82
-1.61
-3.77
-6.60
-11.07
-17.94
-27.54
-39.66
-53.39
-67.13
-78.63
-85.44
-85.48
-77.74
-62.68
-42.20
-19.04
4.04
24.88
42.32
55.92
65.64
71.45
73.32
71.40
66.27
59.04
51.14
43.88
38.08
33.80
30.50
27.32
23.51
18.77
13.22
7.35
1.69
-3.42
-8.03
-12.47
-17.31
-23.20
-30.78
-40.43
-52.09
-64.87
-77.04
-86.12
-89.59
-85.63
-73.90
-55.71
-33.57
-10.39
11.40
30.32
45.73
57.41
65.20
68.86
68.32
64.04
57.15
49.20
41.74
35.81
31.64
28.74
26.24
23.33
19.61
15.12
10.27
5.47
1.00
-3.18
-7.32
-11.78
-16.97
-23.28
-31.10
-40.68
-51.88
-63.87
-74.96
-82.81
-85.03
-80.03
-67.65
-49.31
-27.59
-5.36
15.06
32.25
45.69
55.26
60.90
62.49
60.08
54.27
46.29
37.88
30.68
25.73
23.04
21.70
20.38
17.91
13.87
8.60
3.00
-2.04
-6.12
-9.53
-13.12
-17.87
-24.58
-33.57
-44.63
-56.97
-69.24
-79.62
-85.97
-86.46
-80.00
-66.83
-48.45
-27.27
-5.84
13.75
30.22
43.01
51.90
56.82
57.82
55.24
49.92
43.11
36.28
30.60
26.59
24.02
22.06
19.72
16.32
11.77
6.47
1.12
-3.70
-7.88
-11.82
-16.29
-22.19
-30.20
-40.54
-52.72
-65.37
-76.42
-83.40
-84.09
-77.30
-63.23
-43.59
-20.97
1.89
22.84
40.60
54.59
64.49
70.01
70.95
67.50
60.59
51.84
43.08
35.77
30.38
26.48
22.98
18.92
13.86
8.08
2.27
-2.87
-7.09
-10.71
-14.47
-19.29
-25.92
-34.76
-45.74
-58.08
-70.28
-80.17
-85.41
-84.06
-75.26
-59.69
-39.25
-16.62
5.67
25.71
42.44
55.38
64.36
69.26
70.16
67.53
62.32
55.80
49.20
43.28
38.13
33.27
27.99
21.81
14.73
7.18
-0.15
-6.71
-12.35
-17.34
-22.30
-27.97
-35.10
-44.17
-55.21
-67.50
-79.44
-88.67
-92.61
-89.30
-78.12
-60.15
-37.81
-14.13
8.29
27.73
43.46
55.34
63.33
67.33
67.35
63.77
57.56
50.19
43.14
37.45
33.38
30.34
27.33
23.44
18.36
12.44
6.52
1.42
-2.51
-5.54
-8.53
-12.52
-18.40
-26.63
-37.14
-49.23
-61.54
-72.16
-78.88
-79.72
-73.51
-60.38
-41.78
-20.13
1.95
22.22
39.21
52.16
60.82
65.20
65.51
62.21
56.16
48.57
40.84
34.07
28.88
25.14
22.17
19.10
15.31
10.70
5.61
0.62
-3.84
-7.76
-11.51
-15.78
-21.32
-28.69
-38.17
-49.49
-61.66
-72.97
-81.15
-83.93
-79.81
-68.54
-51.39
-30.60
-8.75
12.03
30.36
45.48
56.94
64.24
67.04
65.32
59.82
52.05
43.90
37.07
32.40
29.66
27.76
25.38
21.58
16.28
10.18
4.32
-0.48
-4.07
-7.05
-10.48
-15.49
-22.93
-33.06
-45.50
-59.10
-71.98
-81.78
-86.07
-83.13
-72.48
-55.22
-33.69
-10.74
11.02
29.91
45.12
56.45
63.86
67.31
66.85
62.89
56.43
48.90
41.76
36.02
31.97
29.08
26.44
23.17
18.83
13.60
8.08
2.96
-1.34
-4.94
-8.48
-12.90
-19.18
-28.04
-39.67
-53.54
-68.19
-81.40
-90.45
-92.85
-87.13
-73.40
-53.45
-30.14
-6.53
14.99
33.16
47.62
58.48
65.75
69.35
69.23
65.79
60.03
53.34
47.09
42.12
38.56
35.87
33.26
30.02
25.86
20.89
15.49
10.07
4.88
-0.09
-5.11
-10.53
-16.72
-24.03
-32.74
-43.08
-55.00
-67.95
-80.54
-90.57
-95.50
-93.15
-82.65
-64.76
-41.79
-16.81
7.30
28.54
45.93
59.21
68.43
73.61
74.81
72.38
67.16
60.39
53.47
47.48
42.97
39.81
37.40
35.00
32.00
28.12
23.45
18.27
12.94
7.70
2.63
-2.39
-7.58
-13.21
-19.59
-27.08
-36.12
-46.94
-59.27
-71.97
-82.93
-89.47
-89.18
-80.79
-64.81
-43.43
-19.78
3.09
23.00
38.98
50.92
59.07
63.59
64.55
62.10
56.85
49.88
42.57
36.16
31.38
28.28
26.22
24.31
21.68
17.90
13.03
7.50
1.92
-3.32
-8.12
-12.79
-17.77
-23.52
-30.36
-38.48
-47.98
-58.70
-70.00
-80.49
-88.04
-90.26
-85.32
-72.72
-53.68
-30.76
-7.07
14.70
32.93
47.01
57.00
63.15
65.57
64.40
59.99
53.21
45.36
37.87
31.92
28.04
25.94
24.72
23.25
20.63
16.55
11.36
5.82
0.71
-3.63
-7.44
-11.46
-16.59
-23.56
-32.74
-44.00
-56.72
-69.75
-81.35
-89.39
-91.84
-87.25
-75.39
-57.41
-35.54
-12.44
9.56
28.84
44.59
56.40
64.06
67.47
66.79
62.72
56.50
49.65
43.51
38.86
35.67
33.26
30.71
27.27
22.67
17.12
11.17
5.35
0.03
-4.79
-9.46
-14.59
-20.89
-28.95
-39.17
-51.39
-64.80
-77.79
-88.11
-93.42
-91.84
-82.67
-66.64
-45.76
-22.67
0.05
20.57
37.87
51.51
61.30
66.99
68.40
65.79
60.03
52.64
45.29
39.26
34.99
32.07
29.57
26.55
22.57
17.69
12.41
7.20
2.32
-2.34
-7.10
-12.38
-18.49
-25.69
-34.24
-44.33
-55.96
-68.49
-80.43
-89.46
-92.99
-89.05
-77.12
-58.51
-35.92
-12.56
9.00
27.35
42.20
53.78
62.19
67.17
68.33
65.67
59.94
52.63
45.41
39.54
35.44
32.58
29.99
26.70
22.23
16.75
10.86
5.24
0.28
-4.12
-8.54
-13.72
-20.37
-28.89
-39.33
-51.30
-63.91
-75.77
-84.97
-89.49
-87.64
-78.74
-63.43
-43.60
-21.81
-0.54
18.37
33.98
45.95
54.26
58.90
59.90
57.55
52.63
46.33
39.99
34.67
30.76
27.94
25.40
22.27
18.06
12.83
7.13
1.66
-3.12
-7.21
-11.10
-15.57
-21.48
-29.44
-39.69
-51.80
-64.61
-76.19
-84.16
-86.35
-81.43
-69.45
-51.85
-30.99
-9.40
10.89
28.61
43.09
53.89
60.62
62.97
61.08
55.74
48.43
40.84
34.34
29.54
26.11
23.11
19.59
15.03
9.60
3.97
-1.06
-5.06
-8.15
-11.04
-14.70
-20.10
-27.90
-38.24
-50.57
-63.58
-75.23
-83.12
-85.04
-79.72
-67.23
-49.11
-27.84
-6.07
14.06
31.27
45.04
55.17
61.56
64.07
62.79
58.32
51.83
44.86
38.72
34.10
30.84
28.08
24.82
20.40
14.82
8.64
2.69
-2.47
-6.77
-10.73
-15.20
-21.15
-29.30
-39.89
-52.47
-65.66
-77.32
-84.87
-86.02
-79.59
-65.94
-46.92
-25.25
-3.59
16.22
33.26
47.29
58.23
65.74
69.45
69.21
65.55
59.74
53.35
47.72
43.45
40.29
37.35
33.71
28.84
22.83
16.32
10.05
4.56
-0.12
-4.43
-9.11
-14.89
-22.38
-31.93
-43.52
-56.65
-70.10
-81.91
-89.60
-90.90
-84.47
-70.51
-50.81
-28.14
-5.33
15.54
33.44
48.22
60.01
68.74
74.11
75.73
73.66
68.56
61.74
54.65
48.54
43.95
40.74
38.25
35.63
32.27
27.89
22.64
16.88
10.94
5.02
-0.97
-7.22
-14.08
-21.81
-30.69
-40.95
-52.68
-65.64
-78.81
-90.46
-98.18
-99.70
-93.53
-79.63
-59.45
-35.47
-10.43
13.34
34.23
51.37
64.29
72.82
77.05
77.30
74.26
68.84
62.06
54.85
48.04
42.11
37.26
33.33
29.81
26.14
21.83
16.69
10.81
4.49
-2.02
-8.63
-15.32
-22.24
-29.51
-37.39
-46.25
-56.53
-68.33
-80.98
-92.83
-101.31
-103.75
-98.11
-83.78
-61.71
-34.20
-4.33
24.65
49.83
69.07
81.29
86.59
86.08
81.58
74.97
67.82
61.09
55.26
50.54
46.94
44.36
42.37
40.25
37.20
32.64
26.53
19.29
11.68
4.38
-2.28
-8.46
-14.72
-21.82
-30.48
-41.17
-53.91
-68.03
-82.06
-93.84
-100.86
-100.99
-93.14
-77.74
-56.64
-32.57
-8.34
13.91
32.96
48.44
60.39
68.94
74.16
76.20
75.43
72.47
68.12
63.09
57.86
52.59
47.32
42.06
36.89
31.95
27.26
22.66
17.87
12.61
6.78
0.47
-6.11
-12.81
-19.65
-26.90
-34.94
-44.20
-54.96
-67.15
-80.07
-92.21
-101.39
-105.16
-101.64
-90.16
-71.64
-48.28
-22.92
1.78
23.98
42.63
57.34
68.00
74.68
77.67
77.60
75.43
72.17
68.67
65.28
61.95
58.41
54.43
50.10
45.76
41.89
38.76
36.33
34.13
31.41
27.43
21.73
14.30
5.56
-3.68
-12.68
-20.94
-28.51
-35.90
-44.00
-53.71
-65.51
-79.04
-92.88
-104.66
-111.57
-111.19
-102.31
-85.41
-62.62
-36.95
-11.47
11.55
30.90
46.27
57.78
65.64
70.03
71.21
69.78
66.62
62.78
59.06
55.86
53.10
50.35
47.28
43.80
40.20
36.92
34.23
31.98
29.55
26.14
21.09
14.28
6.13
-2.51
-10.79
-18.24
-24.87
-31.23
-38.13
-46.44
-56.72
-68.88
-81.90
-93.82
-102.07
-104.14
-98.43
-84.82
-64.82
-41.03
-16.39
6.66
26.57
42.65
54.82
63.18
67.93
69.34
67.91
64.38
59.61
54.48
49.59
45.28
41.60
38.46
35.67
33.08
30.47
27.54
23.96
19.44
13.84
7.29
0.18
-7.00
-13.89
-20.38
-26.75
-33.57
-41.54
-51.20
-62.62
-75.09
-87.03
-96.16
-100.03
-96.79
-85.83
-68.08
-45.78
-21.79
1.19
21.26
37.47
49.64
57.99
62.93
64.93
64.50
62.31
58.99
55.11
51.01
46.86
42.67
38.49
34.43
30.60
27.07
23.72
20.25
16.25
11.38
5.49
-1.30
-8.66
-16.15
-23.42
-30.35
-37.12
-44.27
-52.50
-62.49
-74.43
-87.60
-100.20
-109.60
-113.11
-108.76
-96.12
-76.46
-52.42
-27.09
-3.24
17.32
33.82
46.27
55.10
60.79
63.79
64.50
63.32
60.70
57.07
52.90
48.52
44.17
40.01
36.09
32.49
29.16
26.08
23.07
19.89
16.28
12.00
6.95
1.16
-5.22
-12.01
-19.03
-26.29
-33.99
-42.60
-52.66
-64.34
-77.07
-89.18
-98.18
-101.39
-96.85
-84.14
-64.63
-41.02
-16.42
6.50
26.11
41.80
53.57
61.65
66.25
67.68
66.42
63.25
59.03
54.51
50.14
46.00
42.00
38.04
34.10
30.23
26.46
22.68
18.70
14.31
9.36
3.86
-2.11
-8.36
-14.76
-21.21
-27.70
-34.41
-41.73
-50.23
-60.32
-71.86
-83.76
-93.95
-99.81
-99.02
-90.48
-74.68
-53.68
-30.31
-7.34
13.21
30.31
43.62
53.19
59.11
61.50
60.66
57.25
52.24
46.71
41.61
37.47
34.37
31.96
29.79
27.38
24.45
20.90
16.77
12.16
7.17
1.93
-3.44
-8.78
-14.05
-19.30
-24.81
-31.06
-38.64
-48.02
-59.17
-71.23
-82.36
-90.02
-91.69
-85.75
-72.20
-52.68
-30.00
-7.17
13.45
30.54
43.78
53.34
59.41
62.05
61.36
57.70
51.92
45.23
38.88
33.77
30.21
27.86
25.95
23.68
20.49
16.26
11.24
5.85
0.46
-4.80
-10.03
-15.42
-21.16
-27.36
-34.22
-42.12
-51.56
-62.72
-75.06
-86.91
-95.69
-98.60
-93.72
-80.76
-61.30
-38.19
-14.53
7.22
25.77
40.78
52.41
60.78
65.82
67.44
65.80
61.57
55.85
49.85
44.55
40.34
37.06
34.10
30.82
26.74
21.79
16.24
10.52
4.99
-0.25
-5.32
-10.52
-16.17
-22.54
-29.87
-38.45
-48.55
-60.18
-72.71
-84.60
-93.54
-97.00
-93.16
-81.57
-63.53
-41.52
-18.41
3.46
22.77
39.06
52.33
62.57
69.52
72.92
72.73
69.44
63.96
57.44
50.90
45.03
40.02
35.67
31.58
27.33
22.68
17.66
12.42
7.18
2.02
-3.15
-8.61
-14.65
-21.53
-29.44
-38.57
-49.10
-61.04
-73.94
-86.49
-96.60
-101.69
-99.64
-89.54
-72.20
-50.00
-25.96
-2.96
17.16
33.62
46.48
55.98
62.24
65.21
64.90
61.74
56.62
50.82
45.49
41.40
38.62
36.64
34.68
31.96
28.09
23.19
17.76
12.41
7.59
3.38
-0.58
-4.84
-10.06
-16.67
-25.01
-35.21
-47.11
-60.16
-73.04
-83.76
-89.89
-89.31
-80.98
-65.46
-44.88
-22.16
-0.14
19.24
35.10
47.40
56.34
62.02
64.35
63.37
59.50
53.64
47.01
40.78
35.73
31.99
29.19
26.64
23.67
19.99
15.61
10.94
6.36
2.14
-1.80
-5.86
-10.55
-16.35
-23.58
-32.46
-43.01
-54.95
-67.40
-78.68
-86.53
-88.61
-83.38
-70.69
-52.04
-30.00
-7.42
13.38
31.07
45.13
55.50
62.20
65.24
64.78
61.37
55.99
49.85
44.13
39.54
36.25
33.83
31.57
28.75
24.92
20.11
14.65
9.10
3.86
-0.95
-5.63
-10.70
-16.78
-24.49
-34.25
-46.16
-59.66
-73.38
-85.08
-92.13
-92.21
-84.24
-68.81
-48.07
-24.96
-2.23
18.22
35.58
49.73
60.69
68.32
72.39
72.84
70.11
65.19
59.36
53.75
49.06
45.37
42.31
39.29
35.87
31.84
27.31
22.60
17.99
13.61
9.32
4.72
-0.69
-7.43
-15.94
-26.49
-39.16
-53.63
-68.93
-83.28
-94.24
-99.27
-96.48
-85.44
-67.41
-44.95
-21.20
1.18
20.50
36.16
48.24
57.02
62.66
65.17
64.68
61.62
56.83
51.37
46.25
42.08
38.98
36.61
34.35
31.66
28.21
23.97
19.14
14.00
8.72
3.34
-2.29
-8.35
-15.06
-22.60
-31.16
-41.00
-52.30
-64.88
-77.83
-89.29
-96.72
-97.57
-90.23
-74.79
-53.13
-28.37
-3.85
17.86
35.52
49.02
58.88
65.67
69.66
70.89
69.44
65.71
60.44
54.61
49.15
44.64
41.17
38.44
35.91
33.09
29.70
25.72
21.34
16.74
12.00
7.09
1.85
-3.75
-9.73
-16.09
-23.08
-31.19
-40.96
-52.59
-65.30
-77.28
-85.88
-88.52
-83.59
-71.21
-53.21
-32.44
-11.83
6.55
21.71
33.57
42.36
48.22
51.05
50.76
47.59
42.34
36.25
30.63
26.43
23.87
22.47
21.33
19.50
16.49
12.33
7.56
2.85
-1.34
-4.98
-8.52
-12.63
-18.01
-25.11
-34.08
-44.69
-56.21
-67.37
-76.41
-81.36
-80.48
-72.93
-59.08
-40.49
-19.49
1.50
20.53
36.38
48.49
56.77
61.23
62.11
59.84
55.17
49.12
42.78
37.05
32.40
28.78
25.69
22.47
18.57
13.76
8.30
2.68
-2.55
-7.13
-11.14
-15.08
-19.63
-25.50
-33.26
-43.09
-54.61
-66.69
-77.52
-84.84
-86.56
-81.40
-69.40
-51.93
-31.25
-9.80
10.40
28.10
42.62
53.62
60.85
64.13
63.60
59.89
54.14
47.76
42.01
37.63
34.63
32.38
29.93
26.51
21.80
16.11
10.14
4.62
-0.05
-4.00
-7.80
-12.22
-17.98
-25.59
-35.21
-46.56
-58.77
-70.24
-78.85
-82.40
-79.24
-68.99
-52.64
-32.35
-10.69
10.08
28.41
43.53
55.09
62.92
66.89
67.05
63.88
58.36
51.82
45.59
40.57
37.01
34.45
32.11
29.19
25.31
20.58
15.53
10.73
6.53
2.88
-0.66
-4.75
-10.08
-17.19
-26.35
-37.33
-49.33
-60.79
-69.61
-73.67
-71.38
-62.36
-47.56
-29.04
-9.25
9.63
26.11
39.45
49.39
55.90
58.93
58.62
55.39
50.03
43.66
37.39
32.05
27.91
24.70
21.76
18.41
14.23
9.26
3.91
-1.31
-5.99
-10.14
-14.10
-18.50
-24.01
-31.16
-40.21
-50.93
-62.56
-73.65
-82.20
-86.06
-83.57
-74.17
-58.64
-39.01
-17.81
2.58
20.57
35.42
46.91
55.06
59.74
60.86
58.54
53.44
46.72
39.73
33.62
28.93
25.46
22.50
19.24
15.15
10.26
5.02
0.05
-4.26
-7.94
-11.41
-15.39
-20.53
-27.37
-36.10
-46.55
-58.00
-69.03
-77.66
-81.70
-79.45
-70.26
-54.95
-35.52
-14.53
5.65
23.41
37.88
48.72
55.80
59.03
58.53
54.81
48.93
42.24
36.03
31.06
27.46
24.67
21.90
18.43
14.01
8.85
3.50
-1.46
-5.71
-9.40
-13.07
-17.59
-23.76
-32.16
-42.84
-55.15
-67.63
-78.16
-84.44
-84.56
-77.69
-64.38
-46.39
-26.09
-5.74
13.07
29.49
43.09
53.55
60.39
63.19
61.96
57.39
50.82
43.90
37.97
33.65
30.71
28.27
25.33
21.24
15.95
9.98
4.06
-1.21
-5.74
-9.91
-14.49
-20.27
-27.82
-37.38
-48.78
-61.32
-73.72
-84.12
-90.30
-90.23
-82.82
-68.34
-48.56
-26.14
-3.85
16.28
33.20
46.75
57.02
64.01
67.54
67.45
64.06
58.24
51.34
44.65
39.02
34.65
31.06
27.56
23.53
18.74
13.35
7.73
2.28
-2.83
-7.68
-12.65
-18.19
-24.77
-32.74
-42.34
-53.56
-65.96
-78.49
-89.47
-96.76
-98.33
-92.86
-80.23
-61.64
-39.23
-15.48
7.47
28.14
45.71
59.79
70.08
76.30
78.27
76.18
70.74
63.17
55.00
47.62
41.85
37.83
34.92
32.13
28.46
23.36
16.94
9.80
2.78
-3.51
-8.95
-14.00
-19.44
-26.23
-35.01
-46.14
-59.38
-73.85
-87.93
-99.29
-105.19
-103.04
-91.33
-70.35
-42.52
-11.86
17.14
40.81
57.38
66.97
71.02
71.25
68.89
64.55
58.46
51.11
43.37
36.41
31.10
27.66
25.50
23.58
20.91
17.01
12.05
6.63
1.52
-2.87
-6.61
-10.32
-14.94
-21.40
-30.33
-41.83
-55.34
-69.55
-82.56
-92.06
-95.87
-92.50
-81.63
-64.30
-42.55
-18.88
4.48
25.88
44.30
59.12
69.77
75.84
77.17
74.24
68.23
60.77
53.49
47.48
42.99
39.55
36.30
32.48
27.74
22.23
16.40
10.72
5.41
0.36
-4.85
-10.74
-17.87
-26.70
-37.51
-50.30
-64.48
-78.62
-90.52
-97.58
-97.53
-89.23
-73.17
-51.34
-26.65
-1.94
20.64
39.89
55.36
66.87
74.30
77.48
76.54
72.11
65.37
57.83
50.86
45.30
41.22
38.08
34.97
31.14
26.26
20.56
14.60
8.98
3.99
-0.57
-5.32
-11.08
-18.58
-28.29
-40.28
-54.06
-68.52
-81.81
-91.58
-95.39
-91.48
-79.39
-60.30
-36.70
-11.59
12.30
33.21
50.31
63.42
72.51
77.52
78.49
75.80
70.47
63.92
57.61
52.52
48.83
45.98
43.01
39.10
33.83
27.40
20.40
13.57
7.44
2.14
-2.66
-7.66
-13.67
-21.48
-31.58
-44.02
-58.09
-72.28
-84.34
-91.78
-92.47
-85.35
-70.82
-50.62
-27.33
-3.59
18.51
37.66
53.17
64.68
71.95
74.86
73.64
69.04
62.28
54.86
48.01
42.47
38.25
34.82
31.42
27.43
22.70
17.46
12.22
7.40
3.18
-0.69
-4.69
-9.45
-15.58
-23.51
-33.49
-45.32
-58.21
-70.52
-80.01
-84.22
-81.33
-70.79
-53.65
-32.25
-9.40
12.36
31.38
46.79
58.27
65.58
68.50
67.05
61.70
53.69
44.70
36.41
29.95
25.51
22.39
19.46
15.80
11.12
5.86
0.86
-3.17
-6.11
-8.55
-11.55
-16.24
-23.40
-33.23
-45.25
-58.38
-70.94
-80.87
-86.03
-84.73
-76.26
-61.10
-40.89
-17.95
5.35
27.01
45.62
60.29
70.47
75.88
76.64
73.41
67.35
59.98
52.66
46.33
41.22
36.94
32.84
28.27
22.98
17.12
11.20
5.74
0.99
-3.31
-7.93
-14.01
-22.71
-34.78
-50.12
-67.52
-84.71
-98.73
-106.73
-106.74
-98.24
-82.33
-61.26
-37.74
-14.15
7.82
27.14
43.12
55.05
62.34
64.66
62.42
56.83
49.64
42.59
36.80
32.47
29.00
25.47
21.20
16.02
10.34
4.79
-0.15
-4.44
-8.48
-13.02
-18.90
-26.81
-37.09
-49.52
-63.10
-76.08
-86.16
-90.99
-88.82
-79.00
-62.13
-39.83
-14.34
11.86
36.38
57.04
72.17
80.79
82.93
79.64
72.74
64.30
56.03
48.93
43.26
38.67
34.61
30.54
26.11
21.16
15.78
10.17
4.66
-0.54
-5.41
-10.33
-15.96
-23.12
-32.48
-44.10
-57.17
-69.86
-79.67
-84.05
-81.22
-70.83
-54.09
-33.36
-11.32
9.74
28.39
43.94
56.02
64.28
68.36
68.13
64.11
57.60
50.36
44.06
39.65
37.07
35.47
33.68
30.81
26.62
21.50
16.13
11.07
6.48
2.06
-2.71
-8.39
-15.39
-23.97
-34.16
-45.63
-57.51
-68.23
-75.73
-77.94
-73.46
-62.13
-45.15
-24.71
-3.33
16.75
34.00
47.55
56.99
62.19
63.24
60.60
55.13
48.04
40.69
34.20
29.15
25.48
22.55
19.46
15.50
10.42
4.61
-1.19
-6.17
-9.99
-12.98
-16.05
-20.47
-27.29
-37.03
-49.27
-62.65
-75.04
-83.92
-87.10
-83.23
-72.29
-55.52
-35.09
-13.37
7.63
26.51
42.41
54.70
62.86
66.51
65.77
61.45
54.95
47.91
41.59
36.57
32.58
28.94
24.88
20.09
14.66
9.06
3.77
-0.99
-5.30
-9.61
-14.45
-20.45
-28.11
-37.72
-49.22
-61.83
-74.05
-83.65
-88.26
-86.02
-76.31
-60.02
-39.29
-16.83
4.93
24.27
40.39
52.91
61.66
66.43
67.12
64.09
58.29
51.19
44.31
38.76
34.80
31.92
29.19
25.66
20.92
15.09
8.71
2.46
-3.19
-8.18
-12.87
-17.88
-24.01
-31.96
-42.12
-54.21
-67.06
-78.63
-86.38
-87.98
-82.06
-68.75
-49.65
-27.30
-4.41
16.84
35.11
49.80
60.74
67.83
71.09
70.66
67.06
61.21
54.28
47.36
41.23
36.12
31.80
27.76
23.51
18.80
13.71
8.58
3.71
-0.73
-4.94
-9.37
-14.58
-21.08
-29.19
-39.00
-50.29
-62.40
-74.10
-83.51
-88.48
-87.14
-78.57
-63.32
-43.32
-21.28
0.14
19.05
34.55
46.50
55.06
60.31
62.27
61.06
57.23
51.74
45.74
40.25
35.75
32.20
29.11
25.86
21.98
17.35
12.16
6.82
1.70
-2.99
-7.27
-11.48
-16.02
-21.39
-27.98
-36.10
-45.80
-56.68
-67.75
-77.29
-83.20
-83.45
-76.84
-63.56
-45.10
-23.95
-2.71
16.53
32.56
44.92
53.51
58.33
59.39
56.97
51.77
45.00
38.08
32.20
27.90
24.93
22.49
19.62
15.72
10.75
5.21
-0.14
-4.73
-8.40
-11.55
-14.93
-19.43
-25.72
-34.14
-44.52
-56.14
-67.69
-77.34
-83.07
-83.09
-76.47
-63.45
-45.47
-24.80
-3.79
15.60
32.18
45.37
54.92
60.68
62.55
60.69
55.72
48.78
41.27
34.41
28.87
24.67
21.25
17.90
14.09
9.64
4.78
-0.11
-4.68
-8.85
-12.84
-17.11
-22.25
-28.89
-37.53
-48.29
-60.67
-73.31
-84.07
-90.50
-90.49
-83.05
-68.72
-49.37
-27.60
-5.90
13.92
30.83
44.38
54.27
60.26
62.20
60.39
55.68
49.39
42.95
37.39
33.10
29.71
26.47
22.63
17.82
12.21
6.31
0.69
-4.34
-8.95
-13.59
-18.87
-25.30
-33.18
-42.63
-53.47
-65.18
-76.57
-85.89
-90.97
-89.90
-81.66
-66.67
-46.70
-24.35
-2.24
17.69
34.42
47.66
57.43
63.71
66.38
65.45
61.32
54.94
47.62
40.67
34.96
30.65
27.19
23.69
19.37
13.95
7.76
1.57
-3.86
-8.20
-11.74
-15.36
-20.12
-26.95
-36.31
-48.02
-61.20
-74.28
-85.19
-91.68
-91.90
-84.91
-71.03
-51.78
-29.45
-6.49
15.02
33.65
48.53
59.18
65.40
67.26
65.24
60.26
53.52
46.33
39.69
34.17
29.77
26.09
22.53
18.55
13.96
8.87
3.68
-1.16
-5.39
-9.10
-12.74
-17.05
-22.88
-30.90
-41.35
-53.78
-66.85
-78.45
-86.04
-87.40
-81.30
-68.04
-49.33
-27.77
-5.96
14.09
31.29
45.16
55.41
61.71
63.74
61.57
55.96
48.40
40.68
34.26
29.76
26.83
24.44
21.50
17.37
12.14
6.43
1.05
-3.54
-7.39
-11.07
-15.44
-21.38
-29.48
-39.91
-52.27
-65.50
-77.82
-87.02
-90.89
-87.84
-77.44
-60.63
-39.42
-16.37
6.19
26.44
43.31
56.14
64.64
68.69
68.59
65.10
59.47
53.12
47.19
42.27
38.23
34.46
30.25
25.19
19.35
13.19
7.32
2.09
-2.51
-6.98
-12.14
-18.93
-28.08
-39.75
-53.28
-67.00
-78.49
-85.11
-84.75
-76.57
-61.26
-40.82
-17.93
4.85
25.55
43.00
56.53
65.85
70.78
71.42
68.26
62.27
54.70
46.75
39.27
32.51
26.28
20.16
13.88
7.48
1.31
-4.20
-8.80
-12.63
-16.34
-20.85
-27.13
-35.81
-46.89
-59.46
-71.76
-81.46
-86.18
-84.19
-74.91
-59.13
-38.79
-16.38
5.69
25.55
42.03
54.52
62.75
66.70
66.67
63.35
57.87
51.49
45.27
39.76
34.91
30.29
25.43
20.17
14.70
9.45
4.72
0.55
-3.41
-7.75
-13.14
-20.16
-29.15
-40.05
-52.15
-63.96
-73.29
-77.73
-75.35
-65.42
-48.76
-27.50
-4.50
17.53
36.55
51.39
61.62
67.25
68.56
66.08
60.68
53.51
45.82
38.60
32.45
27.36
22.95
18.73
14.36
9.83
5.37
1.27
-2.35
-5.71
-9.38
-14.22
-21.04
-30.33
-41.85
-54.39
-65.82
-73.50
-75.10
-69.30
-56.30
-37.69
-15.91
6.46
27.35
45.36
59.65
69.65
74.99
75.63
72.08
65.47
57.36
49.26
42.12
36.16
30.97
25.90
20.49
14.72
8.92
3.51
-1.32
-5.82
-10.52
-16.16
-23.36
-32.48
-43.33
-55.06
-66.14
-74.50
-78.03
-75.14
-65.36
-49.43
-29.11
-6.71
15.57
35.84
52.79
65.50
73.41
76.41
74.93
69.93
62.71
54.58
46.51
38.91
31.77
24.80
17.84
10.89
4.20
-2.01
-7.66
-12.96
-18.37
-24.46
-31.80
-40.77
-51.50
-63.51
-75.66
-86.00
-92.19
-92.02
-84.18
-68.80
-47.39
-22.40
3.62
28.64
51.34
70.87
86.46
97.24
102.37
101.58
95.45
85.53
73.87
62.47
52.60
44.59
37.98
31.93
25.79
19.30
12.68
6.33
0.57
-4.65
-9.76
-15.41
-22.33
-31.06
-41.87
-54.57
-68.32
-81.54
-92.01
-97.32
-95.56
-85.95
-69.19
-47.22
-22.65
2.04
24.93
44.85
61.02
72.89
80.04
82.32
80.14
74.48
66.76
58.40
50.52
43.73
38.22
33.83
30.27
27.13
24.03
20.64
16.76
12.35
7.51
2.39
-2.96
-8.69
-15.09
-22.61
-31.71
-42.69
-55.42
-69.11
-82.12
-92.10
-96.61
-93.75
-82.94
-65.09
-42.41
-17.68
6.45
28.00
45.81
59.32
68.41
73.17
73.94
71.32
66.23
59.72
52.77
46.15
40.24
35.13
30.66
26.57
22.63
18.63
14.45
10.05
5.40
0.52
-4.52
-9.70
-15.03
-20.60
-26.67
-33.67
-42.11
-52.33
-64.14
-76.51
-87.51
-94.59
-95.37
-88.46
-73.95
-53.54
-29.92
-5.98
16.00
34.67
49.42
60.11
66.64
68.98
67.31
62.28
55.05
47.01
39.47
33.25
28.54
25.00
22.00
18.94
15.46
11.44
6.99
2.32
-2.43
-7.16
-11.95
-16.97
-22.56
-29.16
-37.27
-47.21
-58.78
-70.97
-81.92
-89.21
-90.56
-84.56
-71.31
-52.27
-29.94
-6.99
14.35
32.73
47.57
58.77
66.37
70.42
71.02
68.40
63.13
56.09
48.28
40.67
33.90
28.21
23.42
19.17
15.06
10.85
6.48
1.90
-2.90
-8.08
-13.80
-20.16
-27.15
-34.79
-43.19
-52.57
-63.06
-74.21
-84.78
-92.60
-95.25
-90.77
-78.48
-59.34
-35.67
-10.44
13.65
34.67
51.63
64.22
72.48
76.58
76.75
73.49
67.64
60.30
52.53
45.25
38.93
33.62
29.07
24.86
20.64
16.15
11.28
6.06
0.59
-5.00
-10.65
-16.41
-22.44
-28.98
-36.37
-45.00
-55.19
-67.08
-80.12
-92.96
-103.28
-108.42
-106.09
-95.29
-76.76
-52.81
-26.59
-1.09
21.53
40.25
54.83
65.47
72.38
75.72
75.72
72.84
67.85
61.67
55.24
49.20
43.88
39.23
34.99
30.87
26.61
22.08
17.22
11.95
6.25
0.06
-6.58
-13.64
-21.00
-28.59
-36.34
-44.32
-52.86
-62.40
-73.36
-85.55
-97.82
-107.95
-113.13
-110.82
-99.79
-80.68
-55.89
-28.77
-2.52
20.58
39.50
54.12
64.71
71.53
74.76
74.64
71.66
66.61
60.45
54.04
48.00
42.58
37.78
33.40
29.25
25.13
20.91
16.53
11.91
7.06
1.94
-3.43
-9.07
-14.97
-21.22
-28.03
-35.78
-44.98
-56.00
-68.66
-81.87
-93.61
-101.20
-102.20
-95.16
-80.17
-58.97
-34.29
-9.11
14.15
33.96
49.64
61.04
68.17
71.17
70.29
66.12
59.62
51.98
44.44
37.87
32.66
28.63
25.26
21.85
17.88
13.18
7.91
2.47
-2.77
-7.64
-12.32
-17.19
-22.80
-29.63
-38.02
-48.14
-59.82
-72.39
-84.50
-94.14
-98.98
-97.06
-87.46
-70.69
-48.69
-24.13
0.27
22.46
41.28
56.27
67.34
74.49
77.68
77.03
72.98
66.38
58.43
50.35
43.04
36.86
31.63
26.80
21.75
16.15
10.04
3.80
-2.11
-7.45
-12.25
-16.90
-21.95
-28.02
-35.62
-45.16
-56.68
-69.67
-82.87
-94.14
-100.94
-100.95
-92.87
-76.98
-55.00
-29.63
-3.65
20.64
41.73
58.76
71.31
79.15
82.30
81.18
76.61
69.80
62.06
54.52
47.84
42.19
37.24
32.45
27.28
21.45
14.98
8.24
1.71
-4.22
-9.52
-14.53
-19.93
-26.55
-35.14
-46.13
-59.32
-73.71
-87.38
-97.81
-102.40
-99.30
-87.96
-69.48
-46.13
-20.75
4.07
26.49
45.49
60.57
71.45
77.99
80.16
78.33
73.31
66.29
58.58
51.25
44.93
39.67
35.11
30.70
25.96
20.76
15.26
9.82
4.76
0.11
-4.38
-9.19
-14.83
-21.77
-30.37
-40.90
-53.27
-66.83
-80.03
-90.53
-95.70
-93.46
-83.06
-65.44
-42.95
-18.49
5.28
26.59
44.49
58.57
68.50
73.98
74.87
71.49
64.88
56.61
48.34
41.36
36.16
32.38
29.08
25.26
20.34
14.41
8.10
2.21
-2.76
-6.88
-10.75
-15.23
-21.14
-28.98
-38.93
-50.89
-64.25
-77.83
-89.66
-97.26
-98.25
-91.17
-76.09
-54.71
-29.86
-4.53
18.86
38.86
54.83
66.55
73.83
76.57
74.90
69.56
61.87
53.47
45.76
39.54
34.73
30.57
26.16
20.85
14.64
8.06
1.90
-3.28
-7.42
-11.00
-14.87
-19.93
-26.95
-36.35
-48.10
-61.52
-75.12
-86.69
-93.62
-93.66
-85.63
-69.93
-48.42
-23.79
1.23
24.57
44.96
61.74
74.48
82.80
86.39
85.30
80.22
72.41
63.52
55.01
47.84
42.19
37.54
33.08
28.03
22.07
15.33
8.35
1.74
-4.12
-9.28
-14.20
-19.63
-26.37
-35.09
-46.08
-59.02
-72.74
-85.25
-93.98
-96.44
-90.99
-77.46
-57.27
-33.01
-7.64
16.32
37.21
54.28
67.27
76.13
80.75
81.17
77.72
71.28
63.13
54.73
47.27
41.39
37.02
33.54
30.11
26.03
21.00
15.22
9.12
3.18
-2.39
-7.70
-13.15
-19.22
-26.42
-35.18
-45.72
-58.01
-71.34
-84.28
-94.54
-99.53
-97.06
-86.17
-67.61
-43.63
-17.35
8.21
30.86
49.48
63.76
73.70
79.36
80.75
78.12
72.22
64.27
55.75
47.94
41.56
36.62
32.57
28.65
24.29
19.27
13.78
8.25
3.04
-1.65
-6.01
-10.42
-15.45
-21.60
-29.28
-38.75
-49.94
-62.35
-74.80
-85.45
-91.99
-92.25
-84.92
-70.09
-49.33
-25.24
-0.74
21.73
40.63
55.23
65.35
71.04
72.47
70.02
64.42
56.81
48.48
40.65
34.08
28.97
24.93
21.29
17.35
12.73
7.43
1.88
-3.36
-7.89
-11.71
-15.27
-19.29
-24.57
-31.72
-40.98
-52.08
-64.14
-75.59
-84.31
-88.03
-84.91
-74.24
-56.77
-34.58
-10.54
12.52
32.48
48.18
59.24
65.74
68.00
66.47
61.84
55.12
47.52
40.15
33.78
28.56
24.15
19.92
15.35
10.23
4.77
-0.59
-5.39
-9.41
-12.85
-16.24
-20.43
-26.32
-34.60
-45.44
-58.20
-71.34
-82.59
-89.43
-89.81
-82.74
-68.62
-49.08
-26.54
-3.48
18.01
36.45
50.94
60.96
66.32
67.14
64.00
57.97
50.44
42.81
36.08
30.66
26.26
22.21
17.78
12.61
6.79
0.89
-4.46
-8.88
-12.47
-15.89
-20.12
-26.13
-34.60
-45.65
-58.60
-71.98
-83.56
-90.87
-91.77
-85.10
-71.18
-51.66
-29.12
-6.24
14.79
32.56
46.34
55.79
60.79
61.35
57.91
51.38
43.05
34.34
26.30
19.32
13.17
7.21
0.85
-6.07
-13.21
-19.85
-25.32
-29.33
-32.28
-35.09
-39.06
-45.43
-55.01
-67.77
-82.63
-97.36
-109.01
-114.57
-111.95
-100.71
-82.32
-59.70
-36.19
-14.50
3.94
18.91
30.93
40.50
47.74
52.44
54.40
53.81
51.33
48.03
44.96
42.93
42.38
43.55
46.79
52.61
61.59
74.10
89.90
107.97
126.74
144.35
158.93
168.62
171.30
164.55
145.94
114.12
70.25
18.93
-32.14
-74.10
-99.73
-105.92
-94.61
-71.70
-44.62
-19.64
-0.35
12.45
19.55
22.16
21.11
17.00
10.65
3.38
-3.15
-7.66
-9.76
-10.12
-10.11
-11.15
-14.06
-18.82
-24.68
-30.67
-36.15
-41.11
-46.38
-53.14
-62.35
-73.98
-86.54
-97.28
-102.91
-100.74
-89.67
-70.62
-46.17
-19.63
5.95
28.40
46.49
59.73
67.97
71.27
70.08
65.22
58.03
49.99
42.44
36.14
31.20
27.12
23.09
18.47
12.98
6.90
0.77
-4.81
-9.67
-14.20
-19.29
-26.02
-35.21
-47.03
-60.66
-74.41
-85.79
-92.20
-91.52
-82.80
-66.58
-44.72
-19.88
5.29
28.62
48.67
64.62
75.88
82.13
83.37
80.18
73.73
65.60
57.30
49.85
43.59
38.19
33.07
27.76
22.12
16.40
11.02
6.30
2.21
-1.66
-6.06
-11.80
-19.64
-29.98
-42.59
-56.47
-69.68
-79.68
-83.89
-80.50
-68.99
-50.49
-27.31
-2.25
22.19
44.20
62.67
76.91
86.32
90.48
89.36
83.59
74.58
64.21
54.30
46.02
39.64
34.60
29.92
24.71
18.58
11.74
4.75
-1.75
-7.40
-12.25
-16.72
-21.47
-27.24
-34.75
-44.46
-56.40
-69.76
-82.82
-93.08
-97.86
-95.14
-84.20
-65.97
-42.70
-17.23
7.79
30.45
49.68
65.01
76.19
83.04
85.45
83.64
78.31
70.68
62.21
54.28
47.76
42.86
39.13
35.79
32.04
27.42
21.89
15.83
9.67
3.80
-1.69
-6.98
-12.43
-18.51
-25.67
-34.36
-44.80
-56.86
-69.66
-81.56
-90.26
-93.39
-89.27
-77.49
-59.16
-36.56
-12.44
10.71
31.16
47.91
60.57
68.91
72.89
72.64
68.75
62.25
54.48
46.82
40.22
35.14
31.42
28.54
25.88
22.95
19.46
15.33
10.61
5.49
0.15
-5.20
-10.51
-15.86
-21.57
-28.07
-35.84
-45.22
-56.11
-67.76
-78.68
-86.73
-89.63
-85.68
-74.31
-56.45
-34.26
-10.52
12.16
31.94
47.83
59.61
67.34
71.20
71.44
68.52
63.22
56.56
49.69
43.47
38.43
34.56
31.50
28.72
25.75
22.29
18.27
13.78
8.92
3.76
-1.81
-7.96
-14.94
-22.92
-32.04
-42.39
-53.84
-66.03
-78.06
-88.42
-95.09
-96.08
-90.01
-76.69
-57.38
-34.36
-10.43
11.99
31.19
46.39
57.45
64.55
67.96
67.94
64.86
59.35
52.31
44.78
37.70
31.68
26.88
23.08
19.88
16.84
13.63
10.02
5.83
0.98
-4.51
-10.47
-16.57
-22.54
-28.26
-33.88
-39.85
-46.76
-55.19
-65.38
-76.98
-88.79
-98.78
-104.47
-103.63
-95.05
-79.02
-57.40
-32.95
-8.53
13.60
32.16
46.68
57.18
63.84
66.92
66.84
64.22
59.87
54.64
49.18
43.87
38.81
33.94
29.22
24.65
20.37
16.51
13.08
9.94
6.72
3.01
-1.56
-7.07
-13.36
-20.11
-27.04
-34.18
-41.91
-50.86
-61.47
-73.61
-86.11
-96.89
-103.40
-103.32
-95.50
-80.26
-59.41
-35.63
-11.74
10.09
28.48
42.89
53.28
59.81
62.76
62.49
59.57
54.77
48.98
43.00
37.41
32.55
28.46
24.99
21.89
18.84
15.58
11.88
7.65
2.94
-2.12
-7.34
-12.56
-17.75
-23.06
-28.77
-35.33
-43.20
-52.75
-63.87
-75.79
-86.83
-94.72
-97.13
-92.46
-80.46
-62.35
-40.46
-17.48
4.28
23.30
38.87
50.76
58.94
63.37
64.20
61.79
56.87
50.45
43.57
37.13
31.58
27.02
23.16
19.53
15.69
11.34
6.47
1.24
-4.05
-9.21
-14.22
-19.29
-24.80
-31.18
-38.85
-48.11
-59.05
-71.30
-83.84
-94.86
-102.06
-103.23
-96.93
-83.15
-63.33
-40.03
-16.05
6.27
25.49
40.99
52.64
60.49
64.48
64.69
61.48
55.67
48.41
40.91
34.17
28.66
24.36
20.82
17.52
13.95
9.88
5.25
0.12
-5.39
-11.25
-17.48
-24.15
-31.30
-39.00
-47.35
-56.48
-66.48
-77.08
-87.34
-95.56
-99.56
-97.27
-87.56
-70.79
-48.75
-24.19
0.09
21.97
40.34
54.89
65.65
72.65
75.85
75.28
71.31
64.81
57.00
49.14
42.19
36.57
32.18
28.46
24.85
20.89
16.46
11.73
6.94
2.31
-2.22
-6.91
-12.14
-18.22
-25.40
-33.89
-43.97
-55.96
-69.69
-84.23
-97.49
-106.56
-108.53
-101.56
-85.68
-62.82
-36.17
-9.07
15.88
37.27
54.66
68.09
77.59
83.10
84.56
82.22
76.84
69.58
61.79
54.60
48.67
44.09
40.46
37.14
33.46
29.06
23.88
18.11
12.08
6.03
0.02
-6.05
-12.44
-19.51
-27.66
-37.32
-48.81
-62.02
-76.09
-89.23
-98.88
-102.35
-97.73
-84.55
-64.10
-39.04
-12.54
12.54
34.29
51.80
64.91
73.74
78.44
79.22
76.43
70.84
63.58
55.96
49.12
43.75
39.88
36.98
34.25
31.01
26.89
21.96
16.58
11.12
5.80
0.62
-4.64
-10.31
-16.81
-24.56
-34.01
-45.40
-58.44
-72.05
-84.21
-92.33
-93.88
-87.34
-72.71
-51.62
-26.84
-1.39
22.20
42.32
58.21
69.60
76.49
79.00
77.52
72.84
66.12
58.70
51.72
45.82
41.08
37.09
33.21
28.94
24.06
18.71
13.32
8.33
3.95
0.03
-3.94
-8.73
-15.08
-23.57
-34.40
-47.29
-61.36
-75.03
-86.14
-92.33
-91.61
-82.97
-66.84
-44.95
-19.91
5.60
29.35
49.87
66.35
78.37
85.72
88.36
86.62
81.28
73.60
65.02
56.81
49.84
44.28
39.77
35.58
31.04
25.76
19.78
13.49
7.38
1.78
-3.37
-8.43
-13.99
-20.69
-28.99
-39.22
-51.32
-64.75
-78.19
-89.63
-96.68
-97.17
-89.96
-75.24
-54.57
-30.33
-5.01
19.30
41.05
59.15
72.82
81.43
84.80
83.26
77.80
69.89
61.13
52.84
45.73
39.90
34.90
30.14
25.11
19.65
13.98
8.48
3.48
-1.04
-5.39
-10.20
-16.06
-23.47
-32.69
-43.71
-56.23
-69.39
-81.77
-91.31
-95.78
-93.32
-83.09
-65.63
-42.73
-16.88
9.46
34.26
56.14
74.10
87.33
95.14
97.15
93.67
85.75
75.19
63.89
53.43
44.59
37.32
31.06
25.12
19.10
12.96
7.03
1.60
-3.16
-7.42
-11.65
-16.48
-22.60
-30.51
-40.39
-51.92
-64.17
-75.57
-84.10
-87.70
-84.74
-74.55
-57.62
-35.56
-10.68
14.46
37.49
56.56
70.39
78.33
80.38
77.21
70.07
60.55
50.33
40.71
32.48
25.76
20.26
15.43
10.75
5.88
0.78
-4.39
-9.44
-14.21
-18.78
-23.53
-29.01
-35.91
-44.69
-55.29
-66.86
-77.72
-85.56
-88.06
-83.60
-71.81
-53.72
-31.42
-7.44
15.92
36.86
54.21
67.13
75.03
77.75
75.63
69.67
61.38
52.35
43.85
36.47
30.21
24.58
19.06
13.33
7.38
1.55
-3.80
-8.40
-12.39
-16.31
-21.00
-27.36
-35.95
-46.74
-58.86
-70.67
-80.04
-84.83
-83.44
-75.25
-60.79
-41.52
-19.42
3.45
25.24
44.49
59.96
70.76
76.35
76.80
72.88
65.93
57.55
49.11
41.44
34.71
28.61
22.67
16.56
10.30
4.19
-1.36
-6.09
-10.04
-13.64
-17.59
-22.73
-29.70
-38.73
-49.46
-60.69
-70.56
-76.85
-77.59
-71.65
-59.15
-41.47
-20.73
0.77
21.20
39.29
54.25
65.47
72.37
74.57
72.14
65.85
57.14
47.71
39.04
31.94
26.41
21.82
17.35
12.43
6.96
1.27
-4.09
-8.72
-12.63
-16.27
-20.44
-26.01
-33.64
-43.45
-54.82
-66.30
-75.81
-81.16
-80.53
-73.16
-59.49
-41.09
-20.09
1.34
21.45
39.00
53.07
62.99
68.32
68.99
65.59
59.33
51.78
44.40
38.08
32.94
28.50
24.04
19.05
13.47
7.70
2.34
-2.18
-5.77
-8.82
-12.00
-16.15
-21.98
-29.93
-39.91
-51.16
-62.23
-71.11
-75.70
-74.39
-66.55
-52.76
-34.62
-14.37
5.82
24.14
39.36
50.74
57.85
60.60
59.24
54.49
47.53
39.71
32.28
25.97
20.92
16.71
12.72
8.41
3.62
-1.45
-6.38
-10.84
-14.72
-18.32
-22.31
-27.53
-34.79
-44.44
-56.05
-68.21
-78.73
-85.14
-85.45
-78.79
-65.70
-47.93
-27.88
-7.87
10.23
25.21
36.39
43.49
46.59
46.09
42.77
37.63
31.71
25.81
20.35
15.34
10.56
5.70
0.65
-4.49
-9.37
-13.56
-16.72
-18.86
-20.37
-22.03
-24.86
-29.89
-37.77
-48.42
-60.81
-73.02
-82.52
-86.84
-84.26
-74.29
-57.84
-36.88
-13.86
8.83
29.29
46.23
58.85
66.79
70.05
69.02
64.52
57.68
49.83
42.13
35.36
29.72
24.84
20.04
14.63
8.28
1.15
-6.12
-12.74
-18.09
-22.05
-25.14
-28.37
-32.95
-39.75
-48.81
-59.09
-68.51
-74.50
-74.73
-67.98
-54.54
-36.12
-15.22
5.71
24.94
41.63
55.61
66.85
75.21
80.46
82.56
82.00
79.84
77.41
75.76
75.27
75.54
75.69
74.85
72.70
69.65
66.71
65.08
65.75
69.04
74.65
81.68
89.00
95.52
100.42
103.38
104.45
104.00
102.36
99.68
95.70
89.75
80.87
68.02
50.46
28.06
1.60
-27.10
-55.23
-79.43
-96.49
-104.28
-102.46
-92.77
-78.65
-64.09
-52.53
-45.86
-44.17
-46.10
-49.70
-53.30
-55.92
-57.38
-58.01
-58.34
-58.99
-60.68
-64.17
-70.05
-78.37
-88.18
-97.49
-103.55
-103.68
-96.14
-80.87
-59.56
-35.11
-10.80
10.69
27.74
39.89
47.43
50.99
51.26
48.83
44.32
38.40
31.77
25.03
18.57
12.54
6.85
1.46
-3.67
-8.40
-12.62
-16.32
-19.78
-23.51
-28.28
-34.91
-43.98
-55.48
-68.46
-81.08
-90.76
-94.94
-91.80
-80.91
-63.38
-41.45
-17.88
4.84
24.81
40.89
52.52
59.53
62.09
60.71
56.33
50.11
43.20
36.44
30.18
24.33
18.57
12.61
6.41
0.22
-5.61
-10.82
-15.43
-19.83
-24.72
-30.98
-39.27
-49.80
-61.92
-74.00
-83.70
-88.45
-86.29
-76.47
-59.76
-38.15
-14.32
9.13
30.15
47.36
60.03
67.85
70.92
69.73
65.17
58.44
50.72
42.95
35.62
28.83
22.49
16.49
10.82
5.61
0.97
-3.17
-7.04
-11.11
-15.93
-22.13
-30.24
-40.40
-52.15
-64.20
-74.44
-80.37
-79.86
-71.77
-56.48
-35.79
-12.31
11.19
32.49
50.15
63.42
72.03
76.02
75.71
71.78
65.26
57.33
49.09
41.28
34.20
27.72
21.58
15.58
9.75
4.31
-0.52
-4.69
-8.48
-12.48
-17.49
-24.31
-33.32
-44.23
-55.80
-65.99
-72.30
-72.54
-65.51
-51.41
-31.84
-9.28
13.55
34.35
51.46
63.97
71.47
73.98
71.99
66.46
58.71
50.18
41.98
34.69
28.31
22.44
16.66
10.75
4.82
-0.82
-5.90
-10.32
-14.31
-18.45
-23.53
-30.40
-39.62
-51.14
-63.88
-75.79
-84.19
-86.52
-81.24
-68.38
-49.58
-27.55
-5.31
14.66
30.69
42.00
48.39
50.03
47.38
41.15
32.34
21.99
11.06
0.18
-10.34
-20.32
-29.64
-38.03
-45.21
-50.92
-55.02
-57.57
-58.74
-58.89
-58.60
-58.72
-60.08
-63.12
-67.31
-70.88
-71.14
-65.27
-51.36
-29.18
-0.38
32.07
64.96
95.75
123.16
147.14
168.30
187.23
203.83
217.18
225.73
227.65
221.35
205.83
180.90
147.53
108.19
66.90
28.66
-1.72
-21.29
-30.03
-30.87
-28.55
-27.82
-31.76
-41.10
-54.44
-69.21
-82.51
-91.71
-94.75
-90.33
-78.25
-59.60
-36.67
-12.45
10.17
29.02
42.93
51.67
55.63
55.65
52.78
48.16
42.73
37.07
31.31
25.24
18.69
11.71
4.75
-1.59
-6.84
-10.91
-14.19
-17.33
-21.05
-25.91
-32.23
-40.09
-49.29
-59.19
-68.53
-75.52
-78.14
-74.80
-64.86
-49.06
-29.31
-8.15
11.90
28.98
41.96
50.47
54.59
54.72
51.56
46.06
39.34
32.40
25.96
20.21
14.95
9.80
4.48
-1.00
-6.36
-11.19
-15.27
-18.70
-21.97
-25.91
-31.39
-39.02
-48.78
-59.77
-70.14
-77.50
-79.54
-74.71
-62.82
-45.11
-23.95
-2.09
17.92
34.37
46.37
53.83
57.10
56.79
53.65
48.46
42.07
35.22
28.47
22.12
16.21
10.63
5.23
0.03
-4.82
-9.06
-12.54
-15.38
-18.10
-21.53
-26.63
-34.06
-43.73
-54.57
-64.52
-71.04
-71.83
-65.63
-52.62
-34.41
-13.56
7.25
25.80
40.72
51.46
57.96
60.53
59.58
55.71
49.70
42.46
34.86
27.56
20.87
14.80
9.14
3.70
-1.62
-6.70
-11.35
-15.50
-19.35
-23.44
-28.58
-35.52
-44.54
-55.03
-65.44
-73.52
-76.91
-74.01
-64.44
-49.18
-30.24
-10.00
9.40
26.43
40.14
50.06
55.99
57.95
56.33
51.89
45.66
38.68
31.72
25.09
18.73
12.41
6.03
-0.28
-6.17
-11.30
-15.58
-19.19
-22.69
-26.71
-32.00
-38.97
-47.63
-57.21
-66.12
-72.29
-73.56
-68.49
-56.85
-39.83
-19.64
1.08
19.99
35.49
46.78
53.76
56.71
56.17
52.84
47.52
41.02
34.04
27.07
20.36
14.00
8.02
2.44
-2.72
-7.38
-11.55
-15.29
-18.84
-22.59
-27.10
-32.98
-40.62
-49.88
-59.82
-68.66
-74.19
-74.33
-67.87
-54.96
-37.04
-16.57
3.83
21.85
36.04
45.75
51.03
52.35
50.36
45.80
39.47
32.11
24.44
17.04
10.26
4.28
-0.93
-5.53
-9.66
-13.45
-17.01
-20.46
-24.00
-28.04
-33.13
-39.83
-48.44
-58.48
-68.60
-76.61
-80.05
-77.04
-66.93
-50.70
-30.50
-9.08
11.13
28.38
41.75
50.94
55.93
56.96
54.49
49.33
42.52
35.09
27.81
21.05
14.86
9.07
3.55
-1.73
-6.71
-11.32
-15.60
-19.74
-24.20
-29.60
-36.66
-45.78
-56.67
-68.04
-77.68
-82.92
-81.53
-72.53
-56.49
-35.54
-12.50
9.75
29.06
44.18
54.76
60.96
63.22
62.12
58.30
52.50
45.49
38.05
30.78
24.01
17.78
11.85
6.00
0.14
-5.64
-11.12
-16.17
-21.03
-26.35
-33.07
-41.93
-52.92
-64.91
-75.61
-82.20
-82.19
-74.29
-58.88
-37.91
-14.18
9.47
30.79
48.39
61.60
70.21
74.28
74.14
70.44
64.12
56.31
48.06
40.11
32.79
26.07
19.76
13.63
7.61
1.70
-4.05
-9.68
-15.45
-21.84
-29.53
-39.01
-50.31
-62.55
-73.89
-81.82
-83.81
-78.26
-65.02
-45.57
-22.49
1.32
23.35
41.97
56.36
66.29
71.78
73.08
70.63
65.25
57.96
49.89
41.91
34.43
27.46
20.70
13.93
7.13
0.57
-5.39
-10.59
-15.31
-20.40
-26.94
-35.96
-47.71
-61.25
-74.41
-84.18
-87.62
-82.72
-69.18
-48.45
-23.30
3.01
27.54
48.22
63.93
74.32
79.57
80.12
76.79
70.55
62.57
53.99
45.63
38.01
31.20
25.09
19.50
14.32
9.48
4.88
0.35
-4.57
-10.51
-18.22
-28.18
-40.21
-53.10
-64.67
-72.16
-73.06
-65.95
-51.11
-30.43
-6.81
16.65
37.47
54.06
65.77
72.55
74.72
72.90
67.87
60.58
52.00
42.92
33.87
25.03
16.46
8.17
0.32
-6.82
-13.07
-18.35
-22.97
-27.57
-33.10
-40.39
-49.82
-60.82
-71.69
-79.94
-82.91
-78.69
-66.81
-48.43
-25.96
-2.29
19.98
39.02
53.83
64.03
69.63
70.88
68.35
62.89
55.54
47.33
39.05
31.14
23.76
16.85
10.37
4.33
-1.27
-6.43
-11.37
-16.49
-22.46
-29.94
-39.35
-50.41
-61.86
-71.59
-76.99
-75.85
-67.06
-51.14
-30.07
-6.73
15.96
35.77
51.41
62.47
69.05
71.55
70.44
66.38
60.20
52.81
45.05
37.51
30.40
23.67
17.20
10.96
5.06
-0.33
-5.20
-9.82
-14.79
-20.89
-28.82
-38.76
-50.07
-61.11
-69.51
-72.82
-69.31
-58.61
-41.89
-21.54
-0.29
19.38
35.81
48.18
56.32
60.46
61.08
58.86
54.56
48.97
42.70
36.15
29.57
23.13
17.01
11.39
6.40
2.04
-1.86
-5.57
-9.49
-14.08
-19.92
-27.47
-36.74
-46.95
-56.43
-62.91
-64.20
-58.94
-47.13
-30.21
-10.51
9.33
27.12
41.44
51.56
57.33
58.94
56.85
51.70
44.37
35.91
27.28
19.23
12.15
6.11
0.92
-3.61
-7.64
-11.24
-14.52
-17.76
-21.44
-26.26
-32.84
-41.45
-51.58
-61.80
-69.92
-73.53
-70.74
-60.83
-44.58
-23.98
-1.70
19.68
38.21
52.66
62.54
67.76
68.61
65.61
59.63
51.72
42.96
34.27
26.17
18.90
12.40
6.55
1.22
-3.73
-8.45
-13.20
-18.31
-24.21
-31.33
-39.95
-49.98
-60.66
-70.50
-77.45
-79.40
-74.71
-62.86
-44.53
-21.48
3.88
29.07
51.70
69.88
82.26
88.29
88.26
83.30
74.97
64.85
54.08
43.22
32.41
21.73
11.52
2.37
-5.07
-10.52
-14.35
-17.54
-21.49
-27.48
-36.38
-48.16
-61.86
-75.56
-86.61
-92.03
-89.11
-76.27
-53.79
-24.32
7.67
37.05
59.59
73.29
78.58
77.73
73.42
67.64
61.22
54.16
46.32
37.95
29.71
22.24
15.82
10.22
4.95
-0.37
-5.79
-11.12
-16.25
-21.35
-27.11
-34.36
-43.67
-54.71
-65.93
-74.73
-78.17
-73.94
-61.25
-41.24
-16.65
9.01
32.45
51.38
64.69
72.40
75.11
73.72
69.15
62.30
53.98
44.94
35.80
27.00
18.84
11.47
4.93
-0.77
-5.71
-10.04
-14.04
-18.14
-23.02
-29.33
-37.60
-47.77
-58.92
-69.16
-76.00
-77.02
-70.64
-56.79
-36.95
-13.82
9.53
30.40
46.93
58.26
64.35
65.76
63.31
58.00
50.80
42.60
34.09
25.78
17.99
10.91
4.64
-0.77
-5.34
-9.25
-12.78
-16.40
-20.67
-26.25
-33.79
-43.56
-55.13
-67.07
-76.98
-82.02
-79.77
-69.19
-51.00
-27.59
-2.31
21.61
41.75
56.90
66.84
71.97
72.96
70.51
65.37
58.31
50.15
41.62
33.28
25.44
18.23
11.62
5.52
-0.12
-5.36
-10.34
-15.37
-20.97
-27.89
-36.76
-47.77
-60.12
-71.89
-80.32
-82.57
-76.72
-62.53
-41.63
-17.04
7.80
30.00
47.74
60.34
67.93
70.99
70.13
66.06
59.63
51.82
43.56
35.59
28.26
21.63
15.55
9.90
4.59
-0.35
-5.03
-9.68
-14.88
-21.39
-29.97
-41.00
-53.97
-67.30
-78.44
-84.47
-82.98
-72.95
-55.23
-32.26
-7.36
16.19
35.98
50.70
60.05
64.40
64.45
61.08
55.26
47.97
40.10
32.24
24.67
17.35
10.13
3.00
-3.91
-10.32
-16.00
-20.92
-25.29
-29.55
-34.23
-39.79
-46.39
-53.72
-60.74
-65.75
-66.75
-61.99
-50.67
-33.40
-12.12
10.41
31.33
48.41
60.39
66.92
68.39
