12.45
19.55
22.16
21.11
17
10.65
3.38
-3.15
-7.66
-9.76
-10.12
-10.11
-11.15
-14.06
-18.82
-24.68
-30.67
-36.15
-41.11
-46.38
-53.14
-62.35
-73.98
-86.54
-97.28
-102.91
-100.74
-89.67
-70.62
-46.17
-19.63
5.95
28.4
46.49
59.73
67.97
71.27
70.08
65.22
58.03
49.99
42.44
36.14
31.2
27.12
23.09
18.47
12.98
6.9
0.77
-4.81
-9.67
-14.2
-19.29
-26.02
-35.21
-47.03
-60.66
-74.41
-85.79
-92.2
-91.52
-82.8
-66.58
-44.72
-19.88
5.29
28.62
48.67
64.62
75.88
82.13
83.37
80.18
73.73
65.6
57.3
49.85
43.59
38.19
33.07
27.76
22.12
16.4
11.02
6.3
2.21
-1.66
-6.06
-11.8
-19.64
-29.98
-42.59
-56.47
-69.68
-79.68
-83.89
-80.5
-68.99
-50.49
-27.31
-2.25
22.19
44.2
62.67
76.91
86.32
90.48
89.36
83.59
74.58
64.21
54.3
46.02
39.64
34.6
29.92
24.71
18.58
11.74
4.75
-1.75
-7.4
-12.25
-16.72
-21.47
-27.24
-34.75
-44.46
-56.4
-69.76
-82.82
-93.08
-97.86
-95.14
-84.2
-65.97
-42.7
-17.23
7.79
30.45
49.68
65.01
76.19
83.04
85.45
83.64
78.31
70.68
62.21
54.28
47.76
42.86
39.13
35.79
32.04
27.42
21.89
15.83
9.67
3.8
-1.69
-6.98
-12.43
-18.51
-25.67
-34.36
-44.8
-56.86
-69.66
-81.56
-90.26
-93.39
-89.27
-77.49
-59.16
-36.56
-12.44
10.71
31.16
47.91
60.57
68.91
72.89
72.64
68.75
62.25
54.48
46.82
40.22
35.14
31.42
28.54
25.88
22.95
19.46
15.33
10.61
5.49
0.15
-5.2
-10.51
-15.86
-21.57
-28.07
-35.84
-45.22
-56.11
-67.76
-78.68
-86.73
-89.63
-85.68
-74.31
-56.45
-34.26
-10.52
12.16
31.94
47.83
59.61
67.34
71.2
71.44
68.52
63.22
56.56
49.69
43.47
38.43
34.56
31.5
28.72
25.75
22.29
18.27
13.78
8.92
3.76
-1.81
-7.96
-14.94
-22.92
-32.04
-42.39
-53.84
-66.03
-78.06
-88.42
-95.09
-96.08
-90.01
-76.69
-57.38
-34.36
-10.43
11.99
31.19
46.39
57.45
64.55
67.96
67.94
64.86
59.35
52.31
44.78
37.7
31.68
26.88
23.08
19.88
16.84
13.63
10.02
5.83
0.98
-4.51
-10.47
-16.57
-22.54
-28.26
-33.88
-39.85
-46.76
-55.19
-65.38
-76.98
-88.79
-98.78
-104.47
-103.63
-95.05
-79.02
-57.4
-32.95
-8.53
13.6
32.16
46.68
57.18
63.84
66.92
66.84
64.22
59.87
54.64
49.18
43.87
38.81
33.94
29.22
24.65
20.37
16.51
13.08
9.94
6.72
3.01
-1.56
-7.07
-13.36
-20.11
-27.04
-34.18
-41.91
-50.86
-61.47
-73.61
-86.11
-96.89
-103.4
-103.32
-95.5
-80.26
-59.41
-35.63
-11.74
10.09
28.48
42.89
53.28
59.81
62.76
62.49
59.57
54.77
48.98
43
37.41
32.55
28.46
24.99
21.89
18.84
15.58
11.88
7.65
2.94
-2.12
-7.34
-12.56
-17.75
-23.06
-28.77
-35.33
-43.2
-52.75
-63.87
-75.79
-86.83
-94.72
-97.13
-92.46
-80.46
-62.35
-40.46
-17.48
4.28
23.3
38.87
50.76
58.94
63.37
64.2
61.79
56.87
50.45
43.57
37.13
31.58
27.02
23.16
19.53
15.69
11.34
6.47
1.24
-4.05
-9.21
-14.22
-19.29
-24.8
-31.18
-38.85
-48.11
-59.05
-71.3
-83.84
-94.86
-102.06
-103.23
-96.93
-83.15
-63.33
-40.03
-16.05
6.27
25.49
40.99
52.64
60.49
64.48
64.69
61.48
55.67
48.41
40.91
34.17
28.66
24.36
20.82
17.52
13.95
9.88
5.25
0.12
-5.39
-11.25
-17.48
-24.15
-31.3
-39
-47.35
-56.48
-66.48
-77.08
-87.34
-95.56
-99.56
-97.27
-87.56
-70.79
-48.75
-24.19
0.09
21.97
40.34
54.89
65.65
72.65
75.85
75.28
71.31
64.81
57
49.14
42.19
36.57
32.18
28.46
24.85
20.89
16.46
11.73
6.94
2.31
-2.22
-6.91
-12.14
-18.22
-25.4
-33.89
-43.97
-55.96
-69.69
-84.23
-97.49
-106.56
-108.53
-101.56
-85.68
-62.82
-36.17
-9.07
15.88
37.27
54.66
68.09
77.59
83.1
84.56
82.22
76.84
69.58
61.79
54.6
48.67
44.09
40.46
37.14
33.46
29.06
23.88
18.11
12.08
6.03
0.02
-6.05
-12.44
-19.51
-27.66
-37.32
-48.81
-62.02
-76.09
-89.23
-98.88
-102.35
-97.73
-84.55
-64.1
-39.04
-12.54
12.54
34.29
51.8
64.91
73.74
78.44
79.22
76.43
70.84
63.58
55.96
49.12
43.75
39.88
36.98
34.25
31.01
26.89
21.96
16.58
11.12
5.8
0.62
-4.64
-10.31
-16.81
-24.56
-34.01
-45.4
-58.44
-72.05
-84.21
-92.33
-93.88
-87.34
-72.71
-51.62
-26.84
-1.39
22.2
42.32
58.21
69.6
76.49
79
77.52
72.84
66.12
58.7
51.72
45.82
41.08
37.09
33.21
28.94
24.06
18.71
13.32
8.33
3.95
0.03
-3.94
-8.73
-15.08
-23.57
-34.4
-47.29
-61.36
-75.03
-86.14
-92.33
-91.61
-82.97
-66.84
-44.95
-19.91
5.6
29.35
49.87
66.35
78.37
85.72
88.36
86.62
81.28
73.6
65.02
56.81
49.84
44.28
39.77
35.58
31.04
25.76
19.78
13.49
7.38
1.78
-3.37
-8.43
-13.99
-20.69
-28.99
-39.22
-51.32
-64.75
-78.19
-89.63
-96.68
-97.17
-89.96
-75.24
-54.57
-30.33
-5.01
19.3
41.05
59.15
72.82
81.43
84.8
83.26
77.8
69.89
61.13
52.84
45.73
39.9
34.9
30.14
25.11
19.65
13.98
8.48
3.48
-1.04
-5.39
-10.2
-16.06
-23.47
-32.69
-43.71
-56.23
-69.39
-81.77
-91.31
-95.78
-93.32
-83.09
-65.63
-42.73
-16.88
9.46
34.26
56.14
74.1
87.33
95.14
97.15
93.67
85.75
75.19
63.89
53.43
44.59
37.32
31.06
25.12
19.1
12.96
7.03
1.6
-3.16
-7.42
-11.65
-16.48
-22.6
-30.51
-40.39
-51.92
-64.17
-75.57
-84.1
-87.7
-84.74
-74.55
-57.62
-35.56
-10.68
14.46
37.49
56.56
70.39
78.33
80.38
77.21
70.07
60.55
50.33
40.71
32.48
25.76
20.26
15.43
10.75
5.88
0.78
-4.39
-9.44
-14.21
-18.78
-23.53
-29.01
-35.91
-44.69
-55.29
-66.86
-77.72
-85.56
-88.06
-83.6
-71.81
-53.72
-31.42
-7.44
15.92
36.86
54.21
67.13
75.03
77.75
75.63
69.67
61.38
52.35
43.85
36.47
30.21
24.58
19.06
13.33
7.38
1.55
-3.8
-8.4
-12.39
-16.31
-21
-27.36
-35.95
-46.74
-58.86
-70.67
-80.04
-84.83
-83.44
-75.25
-60.79
-41.52
-19.42
3.45
25.24
44.49
59.96
70.76
76.35
76.8
72.88
65.93
57.55
49.11
41.44
34.71
28.61
22.67
16.56
10.3
4.19
-1.36
-6.09
-10.04
-13.64
-17.59
-22.73
-29.7
-38.73
-49.46
-60.69
-70.56
-76.85
-77.59
-71.65
-59.15
-41.47
-20.73
0.77
21.2
39.29
54.25
65.47
72.37
74.57
72.14
65.85
57.14
47.71
39.04
31.94
26.41
21.82
17.35
12.43
6.96
1.27
-4.09
-8.72
-12.63
-16.27
-20.44
-26.01
-33.64
-43.45
-54.82
-66.3
-75.81
-81.16
-80.53
-73.16
-59.49
-41.09
-20.09
1.34
21.45
39
53.07
62.99
68.32
68.99
65.59
59.33
51.78
44.4
38.08
32.94
28.5
24.04
19.05
13.47
7.7
2.34
-2.18
-5.77
-8.82
-12
-16.15
-21.98
-29.93
-39.91
-51.16
-62.23
-71.11
-75.7
-74.39
-66.55
-52.76
-34.62
-14.37
5.82
24.14
39.36
50.74
57.85
60.6
59.24
54.49
47.53
39.71
32.28
25.97
20.92
16.71
12.72
8.41
3.62
-1.45
-6.38
-10.84
-14.72
-18.32
-22.31
-27.53
-34.79
-44.44
-56.05
-68.21
-78.73
-85.14
-85.45
-78.79
-65.7
-47.93
-27.88
-7.87
10.23
25.21
36.39
43.49
46.59
46.09
42.77
37.63
31.71
25.81
20.35
15.34
10.56
5.7
0.65
-4.49
-9.37
-13.56
-16.72
-18.86
-20.37
-22.03
-24.86
-29.89
-37.77
-48.42
-60.81
-73.02
-82.52
-86.84
-84.26
-74.29
-57.84
-36.88
-13.86
8.83
29.29
46.23
58.85
66.79
70.05
69.02
64.52
57.68
49.83
42.13
35.36
29.72
24.84
20.04
14.63
8.28
1.15
-6.12
-12.74
-18.09
-22.05
-25.14
-28.37
-32.95
-39.75
-48.81
-59.09
-68.51
-74.5
-74.73
-67.98
-54.54
-36.12
-15.22
5.71
24.94
41.63
55.61
66.85
75.21
80.46
82.56
82
79.84
77.41
75.76
75.27
75.54
75.69
74.85
72.7
69.65
66.71
65.08
65.75
69.04
74.65
81.68
89
95.52
100.42
103.38
104.45
104
102.36
99.68
95.7
89.75
80.87
68.02
50.46
28.06
1.6
-27.1
-55.23
-79.43
-96.49
-104.28
-102.46
-92.77
-78.65
-64.09
-52.53
-45.86
-44.17
-46.1
-49.7
-53.3
-55.92
-57.38
-58.01
-58.34
-58.99
-60.68
-64.17
-70.05
-78.37
-88.18
-97.49
-103.55
-103.68
-96.14
-80.87
-59.56
-35.11
-10.8
10.69
27.74
39.89
47.43
50.99
51.26
48.83
44.32
38.4
31.77
25.03
18.57
12.54
6.85
1.46
-3.67
-8.4
-12.62
-16.32
-19.78
-23.51
-28.28
-34.91
-43.98
-55.48
-68.46
-81.08
-90.76
-94.94
-91.8
-80.91
-63.38
-41.45
-17.88
4.84
24.81
40.89
52.52
59.53
62.09
60.71
56.33
50.11
43.2
36.44
30.18
24.33
18.57
12.61
6.41
0.22
-5.61
-10.82
-15.43
-19.83
-24.72
-30.98
-39.27
-49.8
-61.92
-74
-83.7
-88.45
-86.29
-76.47
-59.76
-38.15
-14.32
9.13
30.15
47.36
60.03
67.85
70.92
69.73
65.17
58.44
50.72
42.95
35.62
28.83
22.49
16.49
10.82
5.61
0.97
-3.17
-7.04
-11.11
-15.93
-22.13
-30.24
-40.4
-52.15
-64.2
-74.44
-80.37
-79.86
-71.77
-56.48
-35.79
-12.31
11.19
32.49
50.15
63.42
72.03
76.02
75.71
71.78
65.26
57.33
49.09
41.28
34.2
27.72
21.58
15.58
9.75
4.31
-0.52
-4.69
-8.48
-12.48
-17.49
-24.31
-33.32
-44.23
-55.8
-65.99
-72.3
-72.54
-65.51
-51.41
-31.84
-9.28
13.55
34.35
51.46
63.97
71.47
73.98
71.99
66.46
58.71
50.18
41.98
34.69
28.31
22.44
16.66
10.75
4.82
-0.82
-5.9
-10.32
-14.31
-18.45
-23.53
-30.4
-39.62
-51.14
-63.88
-75.79
-84.19
-86.52
-81.24
-68.38
-49.58
-27.55
-5.31
14.66
30.69
42
48.39
50.03
47.38
41.15
32.34
21.99
11.06
0.18
-10.34
-20.32
-29.64
-38.03
-45.21
-50.92
-55.02
-57.57
-58.74
-58.89
-58.6
-58.72
-60.08
-63.12
-67.31
-70.88
-71.14
-65.27
-51.36
-29.18
-0.38
32.07
64.96
95.75
123.16
147.14
168.3
187.23
203.83
217.18
225.73
227.65
221.35
205.83
180.9
147.53
108.19
66.9
28.66
-1.72
-21.29
-30.03
-30.87
-28.55
-27.82
-31.76
-41.1
-54.44
-69.21
-82.51
-91.71
-94.75
-90.33
-78.25
-59.6
-36.67
-12.45
10.17
29.02
42.93
51.67
55.63
55.65
52.78
48.16
42.73
37.07
31.31
25.24
18.69
11.71
4.75
-1.59
-6.84
-10.91
-14.19
-17.33
-21.05
-25.91
-32.23
-40.09
-49.29
-59.19
-68.53
-75.52
-78.14
-74.8
-64.86
-49.06
-29.31
-8.15
11.9
28.98
41.96
50.47
54.59
54.72
51.56
46.06
39.34
32.4
25.96
20.21
14.95
9.8
4.48
-1
-6.36
-11.19
-15.27
-18.7
-21.97
-25.91
-31.39
-39.02
-48.78
-59.77
-70.14
-77.5
-79.54
-74.71
-62.82
-45.11
-23.95
-2.09
17.92
34.37
46.37
53.83
57.1
56.79
53.65
48.46
42.07
35.22
28.47
22.12
16.21
10.63
5.23
0.03
-4.82
-9.06
-12.54
-15.38
-18.1
-21.53
-26.63
-34.06
-43.73
-54.57
-64.52
-71.04
-71.83
-65.63
-52.62
-34.41
-13.56
7.25
25.8
40.72
51.46
57.96
60.53
59.58
55.71
49.7
42.46
34.86
27.56
20.87
14.8
9.14
3.7
-1.62
-6.7
-11.35
-15.5
-19.35
-23.44
-28.58
-35.52
-44.54
-55.03
-65.44
-73.52
-76.91
-74.01
-64.44
-49.18
-30.24
-10
9.4
26.43
40.14
50.06
55.99
57.95
56.33
51.89
45.66
38.68
31.72
25.09
18.73
12.41
6.03
-0.28
-6.17
-11.3
-15.58
-19.19
-22.69
-26.71
-32
-38.97
-47.63
-57.21
-66.12
-72.29
-73.56
-68.49
-56.85
-39.83
-19.64
1.08
19.99
35.49
46.78
53.76
56.71
56.17
52.84
47.52
41.02
34.04
27.07
20.36
14
8.02
2.44
-2.72
-7.38
-11.55
-15.29
-18.84
-22.59
-27.1
-32.98
-40.62
-49.88
-59.82
-68.66
-74.19
-74.33
-67.87
-54.96
-37.04
-16.57
3.83
21.85
36.04
45.75
51.03
52.35
50.36
45.8
39.47
32.11
24.44
17.04
10.26
4.28
-0.93
-5.53
-9.66
-13.45
-17.01
-20.46
-24
-28.04
-33.13
-39.83
-48.44
-58.48
-68.6
-76.61
-80.05
-77.04
-66.93
-50.7
-30.5
-9.08
11.13
28.38
41.75
50.94
55.93
56.96
54.49
49.33
42.52
35.09
27.81
21.05
14.86
9.07
3.55
-1.73
-6.71
-11.32
-15.6
-19.74
-24.2
-29.6
-36.66
-45.78
-56.67
-68.04
-77.68
-82.92
-81.53
-72.53
-56.49
-35.54
-12.5
9.75
29.06
44.18
54.76
60.96
63.22
62.12
58.3
52.5
45.49
38.05
30.78
24.01
17.78
11.85
6
0.14
-5.64
-11.12
-16.17
-21.03
-26.35
-33.07
-41.93
-52.92
-64.91
-75.61
-82.2
-82.19
-74.29
-58.88
-37.91
-14.18
9.47
30.79
48.39
61.6
70.21
74.28
74.14
70.44
64.12
56.31
48.06
40.11
32.79
26.07
19.76
13.63
7.61
1.7
-4.05
-9.68
-15.45
-21.84
-29.53
-39.01
-50.31
-62.55
-73.89
-81.82
-83.81
-78.26
-65.02
-45.57
-22.49
1.32
23.35
41.97
56.36
66.29
71.78
73.08
70.63
65.25
57.96
49.89
41.91
34.43
27.46
20.7
13.93
7.13
0.57
-5.39
-10.59
-15.31
-20.4
-26.94
-35.96
-47.71
-61.25
-74.41
-84.18
-87.62
-82.72
-69.18
-48.45
-23.3
3.01
27.54
48.22
63.93
74.32
79.57
80.12
76.79
70.55
62.57
53.99
45.63
38.01
31.2
25.09
19.5
14.32
9.48
4.88
0.35
-4.57
-10.51
-18.22
-28.18
-40.21
-53.1
-64.67
-72.16
-73.06
-65.95
-51.11
-30.43
-6.81
16.65
37.47
54.06
65.77
72.55
74.72
72.9
67.87
60.58
52
42.92
33.87
25.03
16.46
8.17
0.32
-6.82
-13.07
-18.35
-22.97
-27.57
-33.1
-40.39
-49.82
-60.82
-71.69
-79.94
-82.91
-78.69
-66.81
-48.43
-25.96
-2.29
19.98
39.02
53.83
64.03
69.63
70.88
68.35
62.89
55.54
47.33
39.05
31.14
23.76
16.85
10.37
4.33
-1.27
-6.43
-11.37
-16.49
-22.46
-29.94
-39.35
-50.41
-61.86
-71.59
-76.99
-75.85
-67.06
-51.14
-30.07
-6.73
15.96
35.77
51.41
62.47
69.05
71.55
70.44
66.38
60.2
52.81
45.05
37.51
30.4
23.67
17.2
10.96
5.06
-0.33
-5.2
-9.82
-14.79
-20.89
-28.82
-38.76
-50.07
-61.11
-69.51
-72.82
-69.31
-58.61
-41.89
-21.54
-0.29
19.38
35.81
48.18
56.32
60.46
61.08
58.86
54.56
48.97
42.7
36.15
29.57
23.13
17.01
11.39
6.4
2.04
-1.86
-5.57
-9.49
-14.08
-19.92
-27.47
-36.74
-46.95
-56.43
-62.91
-64.2
-58.94
-47.13
-30.21
-10.51
9.33
27.12
41.44
51.56
57.33
58.94
56.85
51.7
44.37
35.91
27.28
19.23
12.15
6.11
0.92
-3.61
-7.64
-11.24
-14.52
-17.76
-21.44
-26.26
-32.84
-41.45
-51.58
-61.8
-69.92
-73.53
-70.74
-60.83
-44.58
-23.98
-1.7
19.68
38.21
52.66
62.54
67.76
68.61
65.61
59.63
51.72
42.96
34.27
26.17
18.9
12.4
6.55
1.22
-3.73
-8.45
-13.2
-18.31
-24.21
-31.33
-39.95
-49.98
-60.66
-70.5
-77.45
-79.4
-74.71
-62.86
-44.53
-21.48
3.88
29.07
51.7
69.88
82.26
88.29
88.26
83.3
74.97
64.85
54.08
43.22
32.41
21.73
11.52
2.37
-5.07
-10.52
-14.35
-17.54
-21.49
-27.48
-36.38
-48.16
-61.86
-75.56
-86.61
-92.03
-89.11
-76.27
-53.79
-24.32
7.67
37.05
59.59
73.29
78.58
77.73
73.42
67.64
61.22
54.16
46.32
37.95
29.71
22.24
15.82
10.22
4.95
-0.37
-5.79
-11.12
-16.25
-21.35
-27.11
-34.36
-43.67
-54.71
-65.93
-74.73
-78.17
-73.94
-61.25
-41.24
-16.65
9.01
32.45
51.38
64.69
72.4
75.11
73.72
69.15
62.3
53.98
44.94
35.8
27
18.84
11.47
4.93
-0.77
-5.71
-10.04
-14.04
-18.14
-23.02
-29.33
-37.6
-47.77
-58.92
-69.16
-76
-77.02
-70.64
-56.79
-36.95
-13.82
9.53
30.4
46.93
58.26
64.35
65.76
63.31
58
50.8
42.6
34.09
25.78
17.99
10.91
4.64
-0.77
-5.34
-9.25
-12.78
-16.4
-20.67
-26.25
-33.79
-43.56
-55.13
-67.07
-76.98
-82.02
-79.77
-69.19
-51
-27.59
-2.31
21.61
41.75
56.9
66.84
71.97
72.96
70.51
65.37
58.31
50.15
41.62
33.28
25.44
18.23
11.62
5.52
-0.12
-5.36
-10.34
-15.37
-20.97
-27.89
-36.76
-47.77
-60.12
-71.89
-80.32
-82.57
-76.72
-62.53
-41.63
-17.04
7.8
30
47.74
60.34
67.93
70.99
70.13
66.06
59.63
51.82
43.56
35.59
28.26
21.63
15.55
9.9
4.59
-0.35
-5.03
-9.68
-14.88
-21.39
-29.97
-41
-53.97
-67.3
-78.44
-84.47
-82.98
-72.95
-55.23
-32.26
-7.36
16.19
35.98
50.7
60.05
64.4
64.45
61.08
55.26
47.97
40.1
32.24
24.67
17.35
10.13
3
-3.91
-10.32
-16
-20.92
-25.29
-29.55
-34.23
-39.79
-46.39
-53.72
-60.74
-65.75
-66.75
-61.99
-50.67
-33.4
-12.12
10.41
31.33
48.41
60.39
66.92
68.39
65.53
59.32
50.78
40.88
30.47
20.09
9.94
-0
-9.8
-19.39
-28.48
-36.63
-43.46
-48.78
-52.77
-55.93
-59.1
-63.16
-68.72
-75.7
-83.03
-88.61
-89.84
-84.38
-71.05
-50.29
-24.06
4.83
33.71
60.65
84.71
105.58
123.23
137.62
148.89
157.59
164.82
171.96
180.13
189.55
199.29
207.6
212.64
213.28
209.54
202.24
192.23
179.59
163.21
141.17
111.68
73.94
28.5
-23.02
-78.32
-134.55
-188.07
-234.19
-267.58
-283.62
-280.14
-258.72
-224.55
-184.84
-146.39
-113.59
-87.86
-68.39
-53.61
-42.36
-34.16
-28.85
-25.95
-24.5
-23.35
-21.63
-19.15
-16.3
-13.89
-12.55
-12.58
-13.91
-16.39
-20.03
-25.16
-32.24
-41.32
-51.52
-60.87
-66.55
-65.86
-57.18
-40.71
-18.43
6.53
30.91
52.16
68.78
80.21
86.47
87.87
84.99
78.78
70.59
61.9
53.86
46.98
40.96
35.03
28.42
20.84
12.64
4.6
-2.47
-8.23
-12.98
-17.64
-23.41
-31.42
-42.22
-55.43
-69.59
-82.22
-90.47
-91.83
-84.94
-70.11
-49.11
-24.65
0.43
23.77
43.74
59.37
70.1
75.71
76.35
72.78
66.26
58.34
50.4
43.22
36.93
31.09
25.16
18.8
12.14
5.66
-0.13
-4.96
-9.02
-12.94
-17.63
-23.99
-32.72
-43.97
-57.07
-70.45
-81.69
-88.13
-87.6
-79.19
-63.51
-42.57
-19.06
4.39
25.67
43.43
56.83
65.45
69.15
68.29
63.72
56.8
48.98
41.44
34.74
28.78
23.06
17.09
10.75
4.34
-1.55
-6.4
-10.1
-13.06
-16.16
-20.41
-26.73
-35.66
-47.12
-60.21
-73.19
-83.61
-88.78
-86.59
-76.18
-58.35
-35.38
-10.32
13.83
34.8
51.3
62.9
69.61
71.74
69.83
64.69
57.5
49.5
41.78
34.9
28.86
23.31
17.78
12.05
6.29
0.89
-3.76
-7.55
-10.82
-14.3
-19.01
-25.95
-35.73
-48.17
-61.98
-74.8
-83.65
-85.79
-79.58
-65.09
-44.15
-19.64
5.25
27.9
46.56
60.37
69.11
72.93
72.32
68.03
61.16
52.95
44.52
36.6
29.46
22.96
16.77
10.64
4.54
-1.32
-6.66
-11.26
-15.27
-19.26
-24.16
-31.05
-40.63
-52.78
-66.17
-78.38
-86.47
-87.86
-81.24
-67
-47.05
-24.1
-0.82
20.66
39.01
53.36
63.15
68.01
67.93
63.47
55.78
46.36
36.57
27.27
18.67
10.53
2.48
-5.67
-13.83
-21.75
-29.16
-36.05
-42.67
-49.57
-57.47
-67.15
-79.12
-93.37
-109.02
-124.18
-136.23
-142.38
-140.64
-130.41
-112.76
-90.11
-65.4
-41.36
-19.85
-1.79
12.74
24.12
33.03
40.43
47.59
55.96
66.86
81.08
98.45
117.85
137.49
155.59
170.79
182.26
189.27
190.5
183.87
167.07
138.88
100.16
54.33
6.75
-36.87
-71.68
-94.62
-104.31
-100.79
-85.37
-60.71
-30.83
-0.58
25.44
44.29
55.31
59.85
60.18
58.23
54.97
50.51
44.71
37.73
30.12
22.54
15.43
8.82
2.45
-3.8
-9.8
-15.14
-19.55
-22.97
-25.89
-29.29
-34.4
-42.28
-53.31
-66.79
-80.81
-92.53
-98.92
-97.65
-87.83
-70.25
-47.12
-21.37
4.15
27.18
46.25
60.52
69.63
73.55
72.67
67.86
60.46
51.94
43.62
36.23
29.84
24.02
18.19
12.01
5.56
-0.75
-6.42
-11.25
-15.48
-19.92
-25.61
-33.56
-44.26
-57.23
-70.88
-82.63
-89.54
-89.15
-80.32
-63.61
-41.12
-15.76
9.46
32.13
50.72
64.41
72.95
76.47
75.56
71.14
64.45
56.77
49.03
41.72
34.79
27.97
20.98
13.86
6.96
0.75
-4.46
-8.83
-12.98
-17.92
-24.68
-34.05
-46.12
-59.98
-73.73
-84.69
-90.04
-87.64
-76.75
-58.26
-34.54
-8.59
16.65
39
57.13
70.38
78.59
81.87
80.69
75.96
68.84
60.62
52.27
44.33
36.84
29.55
22.26
14.95
7.84
1.26
-4.63
-9.91
-14.93
-20.27
-26.68
-34.84
-45.18
-57.46
-70.47
-81.96
-89.06
-89.08
-80.53
-63.69
-40.67
-14.68
10.98
33.76
52.27
65.99
74.95
79.25
79.1
74.93
67.59
58.38
48.64
39.5
31.53
24.71
18.65
12.93
7.32
1.85
-3.25
-7.84
-12.02
-16.27
-21.43
-28.43
-37.89
-49.64
-62.47
-74.03
-81.49
-82.26
-74.91
-59.72
-38.59
-14.42
9.7
31.23
48.56
60.89
68.1
70.45
68.5
63.14
55.53
46.93
38.47
30.85
24.24
18.36
12.74
6.99
1.09
-4.69
-9.95
-14.46
-18.45
-22.65
-28.12
-35.87
-46.38
-59.08
-72.31
-83.49
-89.76
-88.81
-79.55
-62.54
-39.76
-14.11
11.35
34.03
52.23
65.12
72.55
74.88
72.78
67.23
59.37
50.45
41.53
33.33
26.09
19.65
13.72
8.05
2.58
-2.56
-7.27
-11.63
-16.03
-21.14
-27.78
-36.54
-47.51
-59.93
-72.04
-81.42
-85.46
-82.24
-71.12
-53.09
-30.36
-5.75
18
38.8
55.29
66.82
73.16
74.57
71.69
65.6
57.61
48.98
40.68
33.17
26.49
20.37
14.52
8.76
3.12
-2.28
-7.37
-12.23
-17.25
-23.02
-30.25
-39.39
-50.38
-62.28
-73.23
-80.8
-82.5
-76.68
-63.06
-42.95
-18.86
6.15
29.28
48.55
62.86
71.91
75.82
75.07
70.41
62.9
53.85
44.54
35.96
28.56
22.23
16.53
10.99
5.35
-0.4
-6.01
-11.26
-16.05
-20.63
-25.57
-31.73
-39.95
-50.58
-63.05
-75.62
-85.59
-90.04
-86.8
-75.2
-56.39
-32.95
-8
15.56
35.66
51.13
61.51
66.79
67.27
63.64
56.94
48.56
39.81
31.71
24.67
18.56
12.97
7.48
1.95
-3.47
-8.49
-12.92
-16.82
-20.62
-25.05
-30.94
-38.98
-49.32
-61.22
-72.85
-81.64
-84.87
-80.63
-68.48
-49.68
-26.74
-2.6
20.07
39.45
54.44
64.55
69.66
69.95
66.07
59.07
50.34
41.17
32.49
24.68
17.61
11
4.61
-1.55
-7.31
-12.44
-16.91
-21
-25.31
-30.69
-37.99
-47.76
-59.81
-72.87
-84.66
-92.28
-93.13
-85.7
-70.24
-48.6
-23.7
1.38
24.1
42.83
56.78
65.73
69.88
69.7
66.06
60.07
52.98
45.78
38.98
32.58
26.23
19.65
12.78
6
-0.16
-5.31
-9.45
-13.12
-17.26
-22.98
-31.12
-41.93
-54.74
-67.79
-78.57
-84.25
-82.57
-72.54
-54.87
-31.8
-6.44
18.1
39.43
56.13
67.68
74.14
75.93
73.69
68.28
60.76
52.16
43.37
34.91
26.99
19.55
12.53
5.94
-0.12
-5.48
-10.15
-14.28
-18.38
-23.17
-29.5
-38.09
-49.04
-61.53
-73.68
-82.79
-86.13
-81.76
-69.29
-50.01
-26.5
-1.87
21.11
40.5
55.25
65.03
69.92
70.32
66.93
60.68
52.74
44.22
35.95
28.37
21.53
15.21
9.2
3.41
-2.08
-7.11
-11.61
-15.75
-20.03
-25.25
-32.22
-41.48
-52.76
-64.79
-75.33
-81.7
-81.49
-73.47
-58.04
-37.15
-13.76
9.07
28.93
44.45
55.19
61.26
63.01
60.85
55.39
47.44
38.11
28.52
19.6
11.79
5.1
-0.73
-5.93
-10.59
-14.63
-18.02
-20.96
-24.01
-28.05
-34.03
-42.57
-53.53
-65.7
-76.81
-83.98
-84.54
-76.94
-61.32
-39.58
-14.74
9.93
31.83
49.38
61.99
69.72
72.89
71.94
67.49
60.43
51.9
42.99
34.57
27.02
20.32
14.18
8.34
2.69
-2.71
-7.79
-12.69
-17.81
-23.86
-31.61
-41.64
-53.79
-66.9
-78.73
-86.38
-87.19
-79.59
-63.81
-41.83
-16.81
7.96
29.86
47.4
60.11
68.06
71.61
71.19
67.41
61.12
53.33
45.01
36.8
28.99
21.54
14.39
7.52
1.14
-4.57
-9.55
-14.07
-18.73
-24.34
-31.71
-41.25
-52.69
-64.84
-75.58
-82.36
-82.76
-75.39
-60.31
-39.19
-14.67
10.21
32.89
51.61
65.42
74.09
77.74
76.9
72.37
65.23
56.7
47.83
39.34
31.45
24.08
16.99
10.1
3.5
-2.56
-7.91
-12.65
-17.15
-22.16
-28.55
-37.04
-47.72
-59.76
-71.26
-79.56
-81.97
-76.65
-63.32
-43.4
-19.61
4.92
27.34
45.72
59.1
67.25
70.46
69.38
64.92
58.26
50.55
42.78
35.5
28.84
22.64
16.69
10.9
5.36
0.25
-4.29
-8.32
-12.2
-16.58
-22.35
-30.28
-40.62
-52.72
-64.8
-74.3
-78.44
-75.22
-64.02
-45.89
-23.2
1.01
23.89
43.27
57.88
67.3
71.7
71.63
67.97
61.76
54.07
45.84
37.76
30.2
23.27
16.93
11.09
5.74
0.8
-3.77
-8.16
-12.66
-17.72
-23.9
-31.79
-41.72
-53.31
-65.31
-75.46
-81.11
-79.87
-70.58
-53.72
-31.31
-6.3
18.31
40.13
57.67
70.27
77.79
80.44
78.66
73.21
65.08
55.42
45.28
35.42
26.24
17.83
10.12
3.06
-3.31
-8.89
-13.62
-17.68
-21.57
-26.11
-32.3
-40.88
-51.92
-64.39
-76.19
-84.48
-86.56
-80.67
-66.71
-46.25
-21.94
3.2
26.67
46.71
62.35
73.11
78.76
79.43
75.68
68.67
59.96
51.09
43.16
36.54
30.93
25.7
20.33
14.6
8.74
3.09
-1.98
-6.45
-10.71
-15.53
-21.88
-30.55
-41.75
-54.71
-67.58
-77.74
-82.44
-79.73
-69.03
-51.4
-29.13
-5.05
18.29
39.01
55.98
68.62
76.6
79.8
78.46
73.32
65.65
56.94
48.51
41.06
34.62
28.72
22.82
16.61
10.24
4.18
-1.11
-5.39
-8.87
-12.17
-16.15
-21.74
-29.63
-40.13
-52.86
-66.58
-79.18
-88.01
-90.46
-84.92
-71.25
-50.98
-26.84
-1.86
21.38
41.23
56.9
68.08
74.66
76.59
74.11
67.97
59.48
50.27
41.79
34.88
29.56
25.21
20.94
16.14
10.74
5.16
0
-4.27
-7.72
-10.88
-14.66
-20.02
-27.69
-38
-50.58
-64.29
-77.13
-86.58
-90.19
-86.29
-74.62
-56.38
-33.88
-9.83
13.37
33.89
50.52
62.44
69.16
70.61
67.28
60.36
51.51
42.44
34.39
27.88
22.67
18.12
13.52
8.53
3.23
-1.98
-6.65
-10.6
-14.05
-17.66
-22.23
-28.58
-37.22
-48.11
-60.48
-72.65
-82.32
-86.94
-84.54
-74.34
-57.1
-34.93
-10.64
13.05
34.03
51
63.25
70.48
72.72
70.38
64.41
56.22
47.34
39.04
31.89
25.83
20.31
14.76
8.88
2.78
-3.12
-8.41
-12.9
-16.82
-20.73
-25.51
-32.06
-41.01
-52.4
-65.28
-77.7
-86.99
-90.47
-86.34
-74.28
-55.6
-32.72
-8.47
14.7
35.01
51.38
63.12
69.84
71.51
68.61
62.22
53.78
44.79
36.27
28.63
21.67
14.91
7.99
0.89
-6.05
-12.36
-17.73
-22.23
-26.46
-31.29
-37.7
-46.4
-57.56
-70.66
-84.35
-96.62
-105.12
-107.68
-102.97
-91.01
-73.16
-51.91
-30.01
-9.79
7.33
20.82
30.61
36.72
39
37.53
33.03
27.09
21.92
19.61
21.26
26.51
33.69
40.58
45.32
47.13
46.31
43.88
40.9
38.13
35.87
34.25
33.45
33.93
36.37
41.55
49.98
61.64
75.81
91.05
105.53
117.28
124.46
125.48
119.05
104.41
81.74
52.6
20.14
-11.37
-37.56
-55.41
-64.2
-65.66
-63.07
-59.85
-58.28
-59
-61.28
-63.85
-65.78
-66.81
-67.24
-67.59
-68.29
-69.63
-71.95
-75.75
-81.53
-89.28
-98
-105.56
-109.05
-105.8
-94.39
-75.24
-50.62
-23.79
1.9
23.93
40.94
52.49
58.86
60.56
58.39
53.34
46.57
39.2
32.07
25.56
19.57
13.85
8.21
2.73
-2.32
-6.7
-10.42
-13.86
-17.75
-22.97
-30.35
-40.4
-52.94
-66.95
-80.38
-90.51
-94.56
-90.51
-77.87
-57.84
-33.05
-6.74
18.08
39.19
55.42
66.36
72.24
73.51
70.92
65.44
58.12
50.02
41.91
34.18
26.86
19.85
13.06
6.59
0.66
-4.62
-9.34
-13.99
-19.34
-26.32
-35.64
-47.5
-61.25
-75.17
-86.77
-93.13
-91.95
-82.17
-64.47
-41.04
-14.92
10.86
33.93
52.77
66.71
75.55
79.45
78.92
74.8
68.18
60.22
51.9
43.77
36.06
28.75
21.79
15.27
9.32
4.08
-0.5
-4.68
-9.11
-14.59
-22.04
-32.06
-44.51
-58.2
-70.83
-79.47
-81.34
-74.77
-59.81
-38.22
-12.98
12.67
36
55.16
69.31
78.25
82.19
81.63
77.31
70.25
61.66
52.73
44.38
37.03
30.65
24.87
19.3
13.72
8.11
2.68
-2.38
-7.06
-11.7
-17
-23.85
-33
-44.48
-57.32
-69.4
-77.93
-80.25
-74.67
-61.1
-40.99
-16.81
8.79
33.49
55.59
73.81
87.04
94.35
95.27
90.18
80.5
68.47
56.46
46.27
38.53
32.72
27.6
21.92
15.1
7.41
-0.27
-6.98
-12.27
-16.44
-20.53
-25.94
-33.88
-44.88
-58.42
-72.82
-85.45
-93.22
-93.21
-83.43
-63.49
-35.02
-1.53
32.33
61.95
83.98
96.99
101.51
99.37
92.86
83.95
74.09
64.2
54.9
46.62
39.5
33.36
27.72
22.07
16.1
9.86
3.7
-2.07
-7.44
-12.78
-18.9
-26.8
-37.22
-50.15
-64.41
-77.67
-86.87
-89.15
-82.81
-67.92
-46.35
-21.12
4.47
27.67
46.7
60.7
69.54
73.38
72.72
68.31
61.26
52.99
44.86
37.93
32.67
28.92
26.14
23.73
21.3
18.74
16.16
13.59
10.9
7.72
3.51
-2.35
-10.47
-21.19
-34.34
-48.81
-62.47
-72.47
-75.99
-71.26
-58.25
-38.75
-15.68
7.85
29.51
47.99
62.79
73.73
80.56
82.97
80.91
74.94
66.34
56.77
47.82
40.51
35.03
30.88
27.16
23.09
18.35
13.11
7.88
3.18
-0.84
-4.48
-8.38
-13.37
-20.22
-29.45
-41.25
-55.18
-70.03
-83.7
-93.5
-96.77
-91.77
-78.29
-57.88
-33.37
-7.97
15.62
35.68
51.49
62.89
69.95
72.72
71.39
66.5
59.11
50.63
42.5
35.72
30.62
26.82
23.54
19.99
15.71
10.74
5.49
0.51
-3.8
-7.4
-10.7
-14.45
-19.5
-26.6
-36.18
-48.09
-61.4
-74.45
-84.95
-90.56
-89.46
-81.01
-65.94
-46.2
-24.34
-2.84
16.41
32.16
43.66
50.47
52.36
49.51
42.64
33.06
22.51
12.58
4.37
-1.85
-6.57
-10.75
-15.36
-20.97
-27.59
-34.72
-41.6
-47.59
-52.46
-56.49
-60.46
-65.33
-71.98
-80.73
-91.03
-101.33
-109.11
-111.52
-106.05
-91.44
-68.11
-38.19
-4.79
29
61.11
90.83
118.59
145.06
170.22
192.87
210.61
220.51
219.89
207.19
182.37
147.08
104.56
59.34
16.7
-18.37
-42.39
-54.37
-56.26
-52.14
-46.79
-44.09
-46.01
-52.6
-62.72
-74.9
-87.71
-99.62
-108.66
-112.46
-108.91
-97.1
-77.93
-54.07
-28.86
-5.35
14.61
30.42
42.26
50.48
55.24
56.5
54.4
49.47
42.66
35.07
27.59
20.75
14.6
9.03
3.87
-0.93
-5.3
-9.24
-12.82
-16.32
-20.13
-24.81
-30.97
-39.18
-49.68
-62.04
-74.95
-86.15
-93.01
-93.23
-85.64
-70.7
-50.29
-27.14
-4.01
16.91
34.23
47.23
55.61
59.31
58.64
54.37
47.69
40.02
32.52
25.87
20.01
14.43
8.6
2.28
-4.28
-10.49
-15.76
-19.89
-23.2
-26.44
-30.62
-36.63
-45.02
-55.73
-67.94
-79.95
-89.46
-94.01
-91.73
-81.94
-65.47
-44.36
-21.29
1.18
21.14
37.41
49.33
56.6
59.12
57.16
51.48
43.34
34.3
25.73
18.42
12.5
7.53
2.9
-1.76
-6.44
-10.85
-14.7
-18.04
-21.26
-25.1
-30.35
-37.65
-47.18
-58.45
-70.21
-80.51
-86.98
-87.45
-80.6
-66.44
-46.41
-22.94
1.14
23.32
41.81
55.59
64.35
68.23
67.81
64.01
57.94
50.71
43.18
35.89
29
22.52
16.41
10.73
5.58
0.98
-3.1
-6.89
-10.76
-15.2
-20.77
-28.09
-37.55
-49.05
-61.61
-73.26
-81.3
-83.11
-76.98
-62.77
-42.08
-17.67
7.39
30.47
49.87
64.73
74.82
80.2
81.19
78.34
72.53
64.87
56.42
48.01
40.09
32.74
25.91
19.51
13.59
8.19
3.34
-1.06
-5.29
-9.84
-15.38
-22.61
-32.07
-43.75
-56.7
-68.93
-77.72
-80.32
-74.92
-61.32
-41.04
-16.86
8.18
31.51
51.5
67.38
78.78
85.53
87.53
85.11
79.11
71
62.39
54.54
47.96
42.28
36.76
30.71
24
17.03
10.5
4.92
0.27
-3.98
-8.85
-15.44
-24.63
-36.62
-50.64
-64.84
-76.59
-83.08
-82.15
-73.03
-56.51
-34.75
-10.52
13.45
34.97
52.55
65.27
72.73
74.91
72.36
66.16
57.78
48.77
40.32
33.06
26.85
21.17
15.44
9.39
3.22
-2.57
-7.53
-11.55
-14.99
-18.57
-23.16
-29.52
-38.09
-48.71
-60.45
-71.5
-79.43
-81.73
-76.66
-63.87
-44.59
-21.34
2.95
25.58
44.74
59.37
69.13
74.05
74.46
71
64.62
56.54
47.92
39.71
32.36
25.9
20.01
14.33
8.65
3.02
-2.27
-6.95
-10.98
-14.67
-18.74
-24.1
-31.62
-41.62
-53.6
-66.01
-76.41
-82.06
-80.68
-71.3
-54.6
-32.8
-8.84
14.34
34.63
50.85
62.54
69.67
72.31
70.76
65.64
58.04
49.31
40.71
33
26.38
20.53
14.99
9.48
4.02
-1.13
-5.79
-9.99
-14.14
-18.95
-25.2
-33.5
-43.93
-55.82
-67.64
-77.18
-82.03
-80.24
-71.03
-55.05
-34.26
-11.27
11.32
31.51
48.05
60.32
68.1
71.4
70.55
66.32
59.87
52.47
45.17
38.5
32.43
26.62
20.75
14.8
9.04
3.85
-0.58
-4.44
-8.35
-13.21
-19.92
-29.13
-40.89
-54.41
-68.02
-79.34
-85.85
-85.48
-77.41
-62.24
-41.91
-19.06
3.66
24.13
41
53.54
61.46
64.82
63.99
59.75
53.23
45.73
38.36
31.76
25.99
20.75
15.59
10.25
4.81
-0.47
-5.25
-9.41
-13.07
-16.73
-21.07
-26.9
-34.85
-45.05
-56.79
-68.35
-77.27
-80.93
-77.38
-66.09
-48.12
-25.83
-2.13
20.31
39.6
54.69
65.17
70.98
72.32
69.65
63.79
55.92
47.38
39.32
32.44
26.8
21.98
17.32
12.39
7.11
1.82
-3.03
-7.13
-10.61
-14.11
-18.58
-24.97
-33.8
-44.81
-56.81
-67.82
-75.49
-77.71
-73.23
-62.01
-45.32
-25.27
-4.25
15.58
32.64
45.91
54.84
59.21
59.18
55.42
49.1
41.66
34.41
28.14
22.91
18.27
13.6
8.61
3.44
-1.41
-5.47
-8.66
-11.4
-14.55
-19.02
-25.53
-34.33
-45.06
-56.75
-67.75
-76.07
-79.58
-76.7
-66.81
-50.58
-29.84
-7.14
14.9
34.15
49.25
59.57
65.06
66.13
63.46
58.02
50.88
43.06
35.32
28.04
21.34
15.15
9.39
4.04
-0.86
-5.28
-9.27
-13
-16.84
-21.33
-27.19
-35.12
-45.4
-57.52
-69.88
-80
-85.13
-83.12
-73.21
-56.31
-34.7
-11.3
11.12
30.53
45.74
56.3
62.18
63.63
61.17
55.6
48.06
39.72
31.7
24.61
18.56
13.25
8.17
3
-2.28
-7.35
-11.86
-15.64
-18.97
-22.64
-27.64
-34.9
-44.74
-56.6
-68.76
-78.73
-83.76
-81.71
-71.81
-54.88
-33.15
-9.46
13.45
33.59
49.78
61.49
68.59
71.13
69.5
64.43
57.12
48.92
40.97
33.92
27.72
21.97
16.16
10.08
3.93
-1.84
-6.82
-10.95
-14.63
-18.66
-23.98
-31.37
-41.09
-52.64
-64.6
-74.8
-80.77
-80.34
-72.43
-57.4
-37.03
-13.94
9.11
29.87
46.86
59.27
66.79
69.43
67.62
62.25
54.66
46.32
38.41
31.51
25.53
20.01
14.47
8.79
3.22
-1.8
-5.96
-9.3
-12.3
-15.75
-20.51
-27.31
-36.43
-47.51
-59.43
-70.3
-77.77
-79.58
-74.27
-61.65
-42.97
-20.69
2.31
23.36
40.65
53.22
61.01
64.32
63.76
60.05
54
46.54
38.58
30.86
23.78
17.47
11.79
6.57
1.71
-2.8
-6.92
-10.71
-14.38
-18.37
-23.32
-29.91
-38.64
-49.42
-61.36
-72.49
-80.24
-82
-76.03
-62.15
-41.91
-18.12
6.04
27.85
45.65
58.75
67.16
71.16
71.09
67.46
61.03
52.84
44.03
35.59
27.99
21.22
14.98
8.91
2.88
-2.98
-8.38
-13.1
-17.17
-21.03
-25.5
-31.56
-39.96
-50.74
-62.86
-74.13
-81.72
-83.03
-76.49
-62.27
-42.1
-18.78
4.8
26.32
44.36
58.25
67.74
72.74
73.35
70.02
63.64
55.51
46.95
38.97
31.97
25.79
19.98
14.14
8.25
2.58
-2.43
-6.55
-9.98
-13.39
-17.8
-24.22
-33.29
-44.91
-57.92
-70.28
-79.31
-82.54
-78.31
-66.4
-48.04
-25.51
-1.52
21.52
41.74
57.95
69.43
75.83
77.18
74.03
67.53
59.24
50.75
43.2
36.91
31.44
25.98
19.86
12.99
5.83
-0.8
-6.25
-10.41
-13.81
-17.41
-22.31
-29.37
-39.05
-51.08
-64.41
-77.08
-86.53
-90.13
-86
-73.71
-54.49
-30.84
-5.83
17.84
38.33
54.64
66.39
73.44
75.8
73.75
68.02
59.88
50.84
42.31
35.17
29.63
25.22
21.16
16.79
11.78
6.29
0.79
-4.22
-8.54
-12.43
-16.63
-22.17
-29.91
-40.28
-52.8
-65.99
-77.53
-84.76
-85.45
-78.43
-64.06
-44.06
-21.04
2.31
23.77
41.87
55.8
65.14
69.72
69.59
65.32
58.02
49.28
40.74
33.52
28
23.7
19.69
15.13
9.7
3.68
-2.19
-7.26
-11.32
-14.76
-18.54
-23.73
-31.24
-41.35
-53.49
-66.22
-77.33
-84.37
-85.17
-78.56
-64.69
-45.03
-21.96
1.83
23.99
42.79
57.13
66.49
70.75
70.21
65.65
58.29
49.52
40.61
32.42
25.17
18.67
12.51
6.4
0.31
-5.58
-11.04
-16.04
-20.77
-25.64
-31.1
-37.57
-45.29
-54.23
-63.92
-73.31
-80.71
-84.05
-81.42
-71.72
-55.19
-33.45
-9.09
15.11
36.87
54.75
68.13
76.86
80.94
80.53
76.09
68.52
59.14
49.42
40.51
32.95
26.57
20.84
15.17
9.31
3.38
-2.29
-7.47
-12.33
-17.5
-23.97
-32.7
-44.19
-57.97
-72.46
-85.05
-92.76
-93.11
-84.93
-68.81
-46.93
-22.28
2.13
24.06
42.18
55.92
65.1
69.72
69.97
66.4
60.02
52.14
44.01
36.47
29.72
23.44
17.15
10.52
3.62
-3.22
-9.63
-15.45
-20.88
-26.51
-33.13
-41.56
-52.25
-64.99
-78.59
-90.94
-99.36
-101.33
-95.33
-81.42
-61.27
-37.64
-13.55
8.46
26.8
40.68
49.9
54.62
55.2
52.35
47.08
40.59
33.94
27.85
22.58
18.03
14
10.34
7
3.97
1.16
-1.6
-4.6
-8.19
-12.85
-19.11
-27.38
-37.54
-48.63
-58.75
-65.47
-66.46
-60.4
-47.43
-29.02
-7.56
14.54
35.25
53.26
67.75
78.31
84.77
87.33
86.71
84.05
80.79
78.28
77.43
78.57
81.41
85.32
89.65
94.08
98.79
104.32
111.33
120.1
130.19
140.35
148.79
153.7
153.97
149.52
141.42
131.34
120.86
110.73
100.48
88.6
72.97
51.61
23.06
-13.22
-56.51
-104.45
-152.68
-195.35
-226.48
-242.1
-241.88
-229.53
-211.26
-193.24
-179.22
-169.64
-162.53
-155.45
-147.17
-138.25
-130.29
-124.78
-122.31
-122.4
-124.01
-125.87
-126.63
-124.87
-118.97
-107.34
-88.85
-63.21
-31.6
3.29
37.54
66.86
87.82
98.87
100.74
95.95
87.8
78.99
70.99
64.05
57.7
51.52
45.43
39.63
34.3
29.37
24.46
19.12
12.94
5.56
-3.4
-14.23
-26.9
-40.69
-53.84
-63.75
-67.65
-63.51
-50.88
-31.11
-6.97
18.25
41.58
60.99
75.41
84.52
88.51
87.87
83.45
76.34
67.74
58.68
49.91
41.73
34.19
27.19
20.63
14.53
8.88
3.72
-1.04
-5.68
-10.74
-17.05
-25.46
-36.47
-49.67
-63.45
-75.09
-81.47
-80.06
-69.82
-51.61
-27.86
-1.75
23.65
46.05
64
76.75
84.01
85.92
83.14
76.85
68.6
59.89
51.7
44.27
37.31
30.33
23.16
16.08
9.72
4.56
0.59
-2.96
-7.26
-13.69
-23.28
-36.27
-51.98
-68.58
-83.14
-92
-91.6
-79.82
-57.05
-26.53
6.61
36.97
60.78
76.78
85.94
90.2
91.12
89.31
84.69
77.35
68.07
58.28
49.37
42.01
35.9
30.1
23.83
16.88
9.8
3.37
-1.76
-5.67
-9.3
-14.07
-21.45
-32.12
-45.45
-59.41
-70.86
-76.58
-74.19
-63.03
-44.31
-20.59
5.06
29.99
52.31
70.94
85.19
94.49
98.45
97.09
91.14
82.05
71.62
61.45
52.51
44.95
38.32
32.01
25.56
18.95
12.45
6.42
1.02
-3.88
-8.78
-14.41
-21.61
-31.16
-43.43
-58.12
-73.87
-88.28
-98.24
-100.77
-94.04
-78.06
-54.8
-27.49
0.38
26.05
47.99
65.72
79.28
88.67
93.75
94.33
90.67
83.62
74.66
65.42
57.27
50.84
45.92
41.77
37.44
32.32
26.25
19.56
12.78
6.27
0.13
-5.93
-12.35
-19.56
-27.9
-37.61
-48.86
-61.61
-75.35
-88.75
-99.66
-105.39
-103.54
-92.81
-73.6
-48.05
-19.34
9.13
34.69
55.78
71.82
82.94
89.43
91.69
90.16
85.52
78.66
70.69
62.68
55.45
49.47
44.75
40.97
37.6
34.07
29.96
25.08
19.52
13.52
7.33
1.07
-5.32
-12.07
-19.37
-27.4
-36.3
-46.23
-57.37
-69.59
-82.14
-93.38
-100.96
-102.35
-95.83
-81.17
-59.86
-34.68
-8.72
15.45
36.28
53.16
65.91
74.38
78.23
77.26
71.77
62.85
52.22
41.81
33.12
26.84
22.66
19.58
16.39
12.18
6.7
0.28
-6.3
-12.34
-17.53
-22.03
-26.48
-31.71
-38.44
-47.13
-57.83
-70.1
-82.88
-94.47
-102.69
-105.28
-100.56
-87.99
-68.51
-44.31
-18.24
6.98
29.32
47.59
61.28
70.31
74.79
75.03
71.63
65.58
58.08
50.3
43.07
36.72
31.08
25.74
20.26
14.43
8.3
2.21
-3.52
-8.64
-13.24
-17.75
-22.89
-29.56
-38.48
-49.95
-63.44
-77.53
-89.88
-97.8
-98.91
-91.91
-77.08
-56.17
-31.96
-7.25
15.77
35.86
52.58
65.75
75.13
80.26
80.84
77.01
69.69
60.38
50.77
42.2
35.25
29.77
25.05
20.33
15.1
9.31
3.22
-2.82
-8.55
-14.08
-19.72
-25.99
-33.37
-42.3
-53.1
-65.84
-80.07
-94.56
-107.26
-115.52
-116.89
-109.9
-94.71
-73.15
-48.16
-22.79
0.56
20.48
36.55
48.73
57.01
61.34
61.68
58.39
52.32
44.76
37.1
30.43
25.29
21.53
18.55
15.6
12.18
8.22
4.04
0.15
-3.13
-5.86
-8.52
-11.85
-16.59
-23.28
-32.15
-42.97
-55.01
-66.97
-76.99
-82.99
-83.07
-76.15
-62.33
-42.96
-20.23
3.46
26.07
46.23
63.14
76.37
85.52
90.33
90.79
87.35
80.96
72.85
64.24
55.98
48.47
41.65
35.23
28.9
22.46
15.88
9.23
2.58
-4.08
-10.94
-18.38
-26.93
-37.13
-49.34
-63.37
-78.39
-92.76
-104.33
-110.87
-110.63
-102.83
-87.91
-67.43
-43.64
-18.93
4.53
25.07
41.44
52.85
58.87
59.61
55.78
48.74
40.17
31.7
24.39
18.48
13.51
8.64
3.18
-3.08
-9.71
-15.95
-21.04
-24.65
-27.08
-29.18
-32.15
-37.12
-44.85
-55.4
-67.86
-80.42
-90.51
-95.43
-93.04
-82.5
-64.49
-41.09
-15.14
10.6
33.93
53.41
68.25
78.02
82.53
81.95
76.99
68.93
59.42
50.12
42.15
35.91
30.98
26.5
21.62
15.89
9.4
2.79
-3.24
-8.26
-12.45
-16.67
-22.12
-30.09
-41.34
-55.88
-72.6
-89.38
-103.41
-111.75
-112.21
-103.91
-87.55
-65.2
-39.6
-13.49
10.91
32.05
48.9
60.75
67.17
68.19
64.48
57.36
48.56
39.74
31.98
25.61
20.2
15.11
9.77
4.09
-1.56
-6.63
-10.73
-13.91
-16.7
-20.04
-24.87
-31.99
-41.78
-54.02
-67.69
-80.96
-91.31
-96.08
-93.23
-81.96
-63.09
-38.82
-12.07
14.38
38.43
58.82
74.87
86.13
92.22
92.95
88.6
80.27
69.68
58.87
49.47
42.26
36.95
32.54
27.78
21.85
14.71
6.95
-0.44
-6.71
-11.72
-16.02
-20.68
-26.93
-35.7
-47.34
-61.43
-76.64
-90.88
-101.53
-105.99
-102.44
-90.27
-70.49
-45.38
-17.89
9.12
33.44
53.69
69.16
79.48
84.58
84.69
80.45
73.05
64.03
54.93
46.9
40.37
35.05
30.22
25.13
19.4
13.16
6.9
1.17
-3.8
-8.21
-12.7
-18.05
-24.98
-34.03
-45.34
-58.57
-72.64
-85.75
-95.41
-99.11
-94.98
-82.57
-63.08
-38.96
-13.27
11.27
32.7
49.93
62.44
69.97
72.45
70.17
63.97
55.27
45.85
37.25
30.34
25.14
20.95
16.82
12.03
6.48
0.6
-4.84
-9.28
-12.62
-15.37
-18.53
-23.25
-30.5
-40.65
-53.21
-66.73
-78.9
-87.06
-88.88
-83.09
-69.81
-50.51
-27.47
-3.1
20.53
41.83
59.58
72.75
80.5
82.51
79.19
71.8
62.2
52.32
43.59
36.6
31.18
26.61
22.12
17.18
11.68
5.83
0.01
-5.49
-10.69
-15.9
-21.76
-29.07
-38.55
-50.5
-64.4
-78.73
-91.03
-98.45
-98.54
-90.12
-73.71
-51.38
-26.09
-0.78
22.35
42.06
57.8
69.3
76.25
78.36
75.73
69.12
60.04
50.34
41.68
34.96
30.04
26.02
21.72
16.31
9.65
2.33
-4.74
-10.77
-15.59
-19.75
-24.39
-30.84
-40.18
-52.74
-67.78
-83.51
-97.26
-106.09
-107.56
-100.37
-84.8
-62.55
-36.3
-8.84
17.45
40.98
60.85
76.57
87.85
94.4
96.1
93.14
86.13
76.17
64.67
53.13
42.85
34.69
29
25.55
23.69
22.43
20.72
17.55
12.22
4.51
-5.29
-16.44
-28.14
-39.77
-51.17
-62.4
-73.29
-82.96
-89.67
-91.22
-85.79
-72.77
-53.1
-29.08
-3.53
20.92
42.4
59.65
71.81
78.18
78.35
72.6
62.14
49.26
36.71
26.87
21.06
19.04
19.3
19.7
18.49
14.89
9.28
2.86
-3.12
-7.9
-11.6
-15.03
-19.38
-25.62
-34.37
-45.5
-58.2
-70.86
-81.19
-86.69
-85.14
-75.45
-57.92
-34.32
-7.35
20.14
45.64
67.41
84.27
95.63
101.29
101.59
97.47
90.39
81.99
73.7
66.34
60
54.18
48.2
41.51
34
25.96
17.89
10.25
3.16
-3.71
-10.98
-19.47
-29.94
-42.84
-58.02
-74.47
-90.27
-102.76
-109.2
-107.52
-97.1
-79
-55.68
-30.23
-5.51
16.33
34.04
46.97
54.83
57.64
55.81
50.33
42.7
34.57
27.3
21.51
17.09
13.36
9.56
5.21
0.37
-4.54
-8.98
-12.61
-15.57
-18.43
-22.1
-27.51
-35.38
-45.79
-57.98
-70.28
-80.33
-85.62
-84.17
-75.15
-59.13
-37.94
-14.14
9.57
30.82
47.95
59.92
66.35
67.42
63.91
57.02
48.28
39.19
30.86
23.84
18.08
13.08
8.27
3.22
-2.15
-7.66
-13.02
-18.1
-23.03
-28.2
-34.25
-41.84
-51.42
-62.93
-75.5
-87.33
-95.94
-98.72
-93.81
-80.71
-60.6
-36.03
-10.1
14.29
35.13
51.33
62.56
68.85
70.46
67.84
61.79
53.52
44.42
35.8
28.46
22.54
17.62
12.97
8.02
2.55
-3.19
-8.75
-13.82
-18.47
-23.37
-29.55
-38.09
-49.51
-63.34
-77.78
-90.06
-97.09
-96.4
-87.02
-69.75
-46.93
-21.54
3.59
26.5
46.01
61.57
72.79
79.25
80.75
77.58
70.78
61.99
53
45.17
38.93
33.89
29.09
23.72
17.44
10.59
3.89
-2
-6.83
-11.05
-15.56
-21.52
-29.92
-41.21
-55.05
-70.06
-83.95
-93.84
-97
-91.6
-77.38
-55.76
-29.44
-1.61
24.9
48.09
66.93
81.04
90.38
95.05
95.27
91.6
84.89
76.35
67.16
58.38
50.48
43.51
37.1
30.69
23.94
16.81
9.65
3
-2.62
-7.03
-10.53
-13.89
-18.19
-24.52
-33.61
-45.45
-59.12
-72.59
-83.16
-88.03
-85.17
-74.04
-55.76
-32.75
-7.88
16.27
37.97
56.31
70.85
81.29
87.3
88.71
85.74
79.24
70.52
61.12
52.37
45.03
39.25
34.61
30.43
26.06
21.13
15.64
9.82
4.01
-1.58
-6.95
-12.33
-18.1
-24.8
-32.96
-43
-55.01
-68.3
-81.33
-91.73
-96.91
-94.78
-84.48
-66.76
-43.69
-18.14
7.11
29.84
48.68
62.88
72.08
76.2
75.48
70.63
62.94
54.13
45.86
39.28
34.73
31.73
29.28
26.33
22.26
17.01
11.04
5.02
-0.55
-5.57
-10.5
-16.09
-23.32
-32.87
-45.02
-59.25
-74.2
-87.79
-97.51
-101.03
-96.88
-84.88
-66.24
-43.27
-18.67
5.04
26
43.06
55.59
63.31
66.2
64.65
59.46
51.93
43.52
35.49
28.64
23.06
18.35
13.86
9.04
3.7
-1.94
-7.41
-12.31
-16.42
-19.99
-23.58
-28.03
-34.21
-42.77
-53.87
-66.83
-80.04
-91.08
-97.22
-96.24
-87.15
-70.58
-48.58
-23.94
0.6
23
42.08
57.24
68.11
74.43
76.03
73.23
66.95
58.77
50.39
43.12
37.47
33.01
28.81
23.86
17.73
10.6
3.21
-3.61
-9.42
-14.35
-19.08
-24.53
-31.6
-40.92
-52.75
-66.8
-82.11
-96.89
-108.74
-115.04
-113.69
-103.83
-86.14
-62.75
-36.53
-10.34
13.6
33.96
50.1
61.83
69.03
71.74
70.19
65.02
57.31
48.42
39.74
32.21
26.2
21.39
17.08
12.53
7.36
1.73
-3.84
-8.77
-12.86
-16.42
-20.18
-25.12
-32.03
-41.38
-53.1
-66.45
-79.94
-91.4
-98.33
-98.51
-90.69
-75.03
-53.19
-27.81
-1.8
22.29
42.68
58.36
68.88
74.19
74.57
70.66
63.55
54.7
45.71
37.94
32.2
28.51
26.2
24.31
22
18.96
15.44
12.02
9.16
6.86
4.58
1.34
-3.92
-11.98
-23.1
-36.68
-51.3
-64.67
-74.14
-77.19
-72.28
-59.22
-39.34
-15.1
10.67
35.24
56.56
73.22
84.45
90.01
90.11
85.53
77.49
67.5
57.04
47.22
38.56
31.01
24.19
17.66
11.25
5
-0.81
-6
-10.65
-15.17
-20.32
-26.96
-35.84
-47.21
-60.6
-74.56
-86.8
-94.63
-95.62
-88.46
-73.34
-51.99
-27.11
-1.62
21.97
42
57.48
68.03
73.56
74.36
71.14
65.03
57.38
49.45
42.06
35.41
29.29
23.3
17.3
11.34
5.73
0.68
-3.91
-8.4
-13.49
-19.89
-28.2
-38.7
-51.1
-64.35
-76.59
-85.51
-88.83
-85.02
-73.73
-55.88
-33.37
-8.51
16.46
39.63
59.43
74.7
84.65
89.1
88.5
83.94
76.79
68.32
59.39
50.29
41.07
31.74
22.6
14.23
7.24
1.92
-2.05
-5.52
-9.76
-15.98
-25.08
-37.39
-52.44
-68.7
-83.48
-93.27
-94.71
-85.81
-66.88
-40.62
-11.19
17.33
42.17
62.31
77.93
89.45
96.81
99.58
97.57
91.4
82.65
73.2
64.52
57.06
50.36
43.56
36.09
28.04
20.02
13.01
7.57
3.64
0.44
-3.32
-9.02
-17.69
-29.61
-44.03
-59.12
-72.22
-80.4
-81.24
-73.53
-57.75
-35.94
-11.05
13.86
36.45
55.34
70.03
80.42
86.45
88.09
85.51
79.5
71.35
62.61
54.57
47.76
42.02
36.62
30.94
24.7
18.13
11.66
5.62
0.06
-5.45
-11.54
-18.96
-28.33
-39.86
-53.12
-66.78
-78.66
-86.14
-86.92
-79.76
-64.97
-44.33
-20.53
3.62
25.78
44.36
58.4
67.39
71.22
70.19
65.12
57.32
48.31
39.42
31.49
24.8
19.07
13.89
8.91
4.05
-0.47
-4.4
-7.6
-10.28
-13.06
-16.85
-22.57
-30.81
-41.44
-53.43
-64.84
-73.2
-76.11
-71.86
-60.04
-41.69
-19.07
4.98
27.73
47.09
61.9
71.75
76.84
77.62
74.72
68.93
61.18
52.46
43.69
35.56
28.34
21.91
15.94
10.09
4.22
-1.52
-6.88
-11.66
-15.94
-20.32
-25.77
-33.36
-43.74
-56.56
-70.22
-81.99
-88.78
-88.04
-78.72
-61.6
-39.01
-14.04
10.35
31.97
49.59
62.68
71.16
75.24
75.34
72.22
66.93
60.6
54.17
48.09
42.37
36.6
30.4
23.57
16.31
9.13
2.6
-2.92
-7.54
-11.84
-16.85
-23.61
-32.87
-44.55
-57.58
-69.89
-78.84
-81.97
-77.74
-66.11
-48.53
-27.52
-5.78
14.46
31.77
45.46
55.21
60.86
62.34
59.95
54.49
47.18
39.4
32.14
25.79
20.18
14.87
9.52
4.18
-0.84
-5.14
-8.55
-11.34
-14.07
-17.52
-22.38
-29.18
-37.99
-48.35
-59.14
-68.57
-74.57
-75.2
-69.33
-56.98
-39.45
-18.95
2.06
21.38
37.47
49.44
56.99
60.11
59.16
54.84
48.23
40.55
32.91
26.02
20.09
14.98
10.4
6.17
2.32
-1.01
-3.69
-5.78
-7.54
-9.47
-12.21
-16.51
-23.03
-32.02
-43.02
-54.55
-64.33
-69.72
-68.67
-60.42
-45.8
-26.99
-6.74
12.42
28.72
41.29
49.85
54.37
55.02
52.12
46.35
38.71
30.35
22.3
15.12
8.92
3.41
-1.8
-6.92
-11.88
-16.38
-20.13
-23.08
-25.63
-28.61
-33.13
-40.12
-49.83
-61.46
-73.03
-81.83
-85.19
-81.26
-69.77
-51.99
-30.4
-7.86
13.08
30.68
44.04
52.89
57.35
57.68
54.47
48.51
40.95
32.92
25.34
18.64
12.7
7.16
1.62
-3.95
-9.31
-14.02
-17.8
-20.81
-23.65
-27.28
-32.64
-40.36
-50.28
-61.34
-71.51
-78.32
-79.49
-73.61
-60.78
-42.43
-20.96
1.04
21.45
38.88
52.59
62.2
67.59
68.82
66.34
60.98
53.95
46.4
39.16
32.54
26.4
20.46
14.52
8.71
3.34
-1.34
-5.28
-8.85
-12.65
-17.45
-23.87
-32.34
-42.83
-54.7
-66.55
-76.27
-81.49
-80.21
-71.54
-56.04
-35.66
-13.09
8.92
28.22
43.49
54.07
59.87
61.12
58.39
52.6
44.94
36.72
28.96
22.25
16.68
11.91
7.48
3.01
-1.62
-6.28
-10.68
-14.63
-18.09
-21.4
-25.18
-30.31
-37.52
-47.05
-58.26
-69.41
-78.03
-81.48
-77.86
-66.67
-49.06
-27.51
-4.91
16.1
33.76
47.18
56.09
60.59
60.87
57.48
51.27
43.48
35.47
28.33
22.65
18.39
15.11
12.23
9.44
6.63
3.87
1.12
-1.87
-5.59
-10.64
-17.46
-26.18
-36.38
-47.13
-56.96
-64.1
-66.86
-63.96
-55.05
-40.74
-22.65
-2.93
16.23
33.02
46.3
55.51
60.63
61.88
59.77
54.98
48.29
40.56
32.47
24.45
16.63
9.01
1.55
-5.64
-12.36
-18.39
-23.6
-28.14
-32.45
-37.22
-43.22
-51.06
-60.83
-71.73
-82.06
-89.4
-91.32
-86.14
-73.56
-54.8
-32.23
-8.68
13.34
32
46.34
56.03
61.2
62.3
60.05
55.34
49.09
42.11
34.88
27.63
20.39
13.21
6.21
-0.35
-6.22
-11.33
-15.83
-20.15
-24.83
-30.53
-37.83
-47.05
-58.01
-69.7
-80.27
-87.28
-88.36
-82
-68.13
-48.29
-25.05
-1.43
20.09
37.8
50.89
59.15
62.76
62.16
58.03
51.29
42.97
34.1
25.39
17.31
9.95
3.31
-2.66
-7.94
-12.48
-16.28
-19.43
-22.26
-25.3
-29.35
-35.21
-43.47
-54.04
-65.82
-76.72
-83.95
-84.9
-78
-63.23
-42.3
-18
6.55
28.82
47.26
61.26
70.84
76.25
77.84
76.07
71.63
65.53
58.9
52.71
47.5
43.21
39.3
35.12
30.19
24.48
18.36
12.38
6.91
1.95
-2.99
-8.8
-16.34
-26.2
-38.14
-50.92
-62.36
-69.89
-71.32
-65.58
-53.13
-35.66
-15.58
4.83
23.9
40.62
54.4
64.73
71.15
73.35
71.55
66.56
59.68
52.33
45.54
39.82
35.04
30.79
26.66
22.44
18.27
14.41
11.08
8.19
5.41
2.06
-2.56
-9.08
-17.76
-28.4
-40.13
-51.39
-60.15
-64.26
-62.09
-52.95
-37.4
-17.11
5.61
28.3
48.79
65.42
77.14
83.45
84.5
81.02
74.22
65.59
56.51
48.02
40.63
34.39
29.05
24.28
19.8
15.42
11.11
6.85
2.7
-1.42
-5.75
-10.84
-17.33
-25.71
-35.88
-46.75
-56.37
-62.32
-62.54
-56.03
-43.24
-25.92
-6.49
12.62
29.48
42.74
51.64
55.77
55.13
50.21
42
31.92
21.43
11.75
3.52
-3.17
-8.65
-13.39
-17.76
-21.93
-25.87
-29.46
-32.57
-35.33
-38.14
-41.67
-46.61
-53.28
-61.2
-68.92
-74.29
-75
-69.41
-57.12
-39.1
-17.46
5.28
26.73
45.11
59.38
69.11
74.31
75.33
72.82
67.59
60.57
52.65
44.49
36.48
28.72
21.23
14.09
7.54
1.89
-2.6
-5.94
-8.58
-11.41
-15.54
-21.88
-30.74
-41.44
-52.27
-60.83
-64.74
-62.3
-53.05
-37.86
-18.6
2.31
22.52
40.08
53.59
62.22
65.72
64.45
59.34
51.77
43.19
34.85
27.46
21.12
15.53
10.23
4.99
-0.16
-4.94
-9.07
-12.42
-15.22
-18.04
-21.65
-26.83
-34
-42.91
-52.4
-60.49
-64.91
-63.71
-56.04
-42.41
-24.64
-5.15
13.64
29.88
42.45
50.87
55.13
55.56
52.77
47.68
41.3
34.55
28.05
21.96
16.14
10.37
4.52
-1.23
-6.6
-11.26
-15.17
-18.61
-22.17
-26.66
-32.82
-41.04
-51
-61.53
-70.71
-76.16
-75.81
-68.45
-54.35
-35.12
-13.38
8.04
26.84
41.53
51.6
57.14
58.68
56.94
52.8
47.16
40.87
34.51
28.29
22.1
15.74
9.15
2.53
-3.67
-9.02
-13.36
-16.93
-20.3
-24.24
-29.55
-36.79
-46.05
-56.69
-67.19
-75.3
-78.55
-75.05
-64.15
-46.78
-25.24
-2.4
19.04
37.21
51.2
60.81
66.27
68
66.53
62.55
56.86
50.19
43.05
35.7
28.18
20.48
12.77
5.37
-1.35
-7.09
-11.88
-16
-20.11
-24.96
-31.34
-39.83
-50.34
-61.94
-72.67
-79.96
-81.29
-75.1
-61.36
-41.71
-18.9
4.08
24.81
41.81
54.56
63.07
67.56
68.32
65.78
60.64
53.88
46.53
39.35
32.63
26.21
19.69
12.81
5.7
-1.21
-7.32
-12.34
-16.4
-20.09
-24.38
-30.25
-38.41
-48.96
-61.14
-73.15
-82.52
-86.57
-83.31
-72.11
-53.96
-31.25
-6.91
16.35
36.65
52.97
64.95
72.53
75.72
74.77
70.28
63.37
55.34
47.42
40.38
34.29
28.74
23.08
16.89
10.14
3.27
-3.14
-8.69
-13.37
-17.66
-22.41
-28.56
-36.75
-47.07
-58.73
-70.05
-78.7
-82.21
-78.74
-67.75
-50.27
-28.53
-5.37
16.69
35.89
51.34
62.75
70
73.02
71.9
67.15
59.84
51.38
43.11
35.83
29.67
24.1
18.47
12.36
5.85
-0.58
-6.31
-10.98
-14.74
-18.23
-22.48
-28.48
-36.87
-47.59
-59.63
-71.14
-79.66
-82.78
-78.83
-67.39
-49.53
-27.46
-3.92
18.53
37.94
53.22
63.86
69.83
71.38
69.05
63.69
56.38
48.28
40.31
32.96
26.26
19.96
13.81
7.71
1.84
-3.49
-8.07
-11.91
-15.37
-19.05
-23.7
-29.94
-38.06
-47.69
-57.61
-65.78
-69.81
-67.63
-58.24
-42.22
-21.6
0.72
21.85
39.64
52.94
61.51
65.66
65.85
62.6
56.59
48.63
39.75
30.85
22.59
15.23
8.65
2.65
-2.97
-8.19
-12.94
-17.06
-20.63
-23.94
-27.6
-32.45
-39.18
-48.05
-58.35
-68.33
-75.49
-77.22
-71.79
-58.97
-40.24
-18.29
3.84
23.63
39.58
51.11
58.29
61.38
60.76
56.89
50.49
42.5
33.91
25.48
17.59
10.28
3.37
-3.22
-9.42
-14.92
-19.47
-23.03
-25.97
-29.11
-33.44
-39.83
-48.58
-59.03
-69.44
-77.23
-79.79
-75.19
-63.04
-44.57
-22.3
0.82
22.22
40.09
53.56
62.38
66.71
66.91
63.63
57.74
50.33
42.37
34.54
27.12
20.01
13.04
6.12
-0.59
-6.76
-12.09
-16.49
-20.27
-24.08
-28.83
-35.33
-43.97
-54.31
-64.92
-73.55
-77.59
-74.96
-64.76
-47.74
-26.08
-2.7
19.48
38.28
52.51
61.83
66.44
66.83
63.67
57.81
50.29
42.09
33.97
26.3
19.06
12.01
5.01
-1.9
-8.43
-14.28
-19.27
-23.47
-27.33
-31.59
-37.14
-44.65
-54.14
-64.65
-74.23
-80.3
-80.46
-73.25
-58.76
-38.64
-15.56
7.5
28.02
44.35
55.75
62.22
64.19
62.39
57.69
51.09
43.53
35.8
28.37
21.38
14.75
8.35
2.24
-3.35
-8.15
-12.04
-15.31
-18.58
-22.76
-28.72
-36.97
-47.33
-58.74
-69.27
-76.45
-77.91
-72.09
-58.88
-39.67
-17.07
5.91
26.62
43.24
54.96
61.74
64.04
62.57
58.16
51.67
43.9
35.5
26.94
18.58
10.66
3.4
-3.02
-8.53
-13.17
-17.16
-20.79
-24.49
-28.78
-34.27
-41.5
-50.59
-60.85
-70.57
-77.3
-78.46
-72.29
-58.5
-38.56
-15.21
8.36
29.36
46.03
57.62
64.26
66.45
64.9
60.35
53.64
45.66
37.28
29.24
21.96
15.56
9.93
4.83
0.07
-4.47
-8.87
-13.28
-18.03
-23.7
-30.94
-40.19
-51.23
-62.79
-72.67
-78.08
-76.59
-66.92
-49.55
-26.72
-1.7
22.09
42
56.59
65.55
69.37
68.88
64.99
58.5
50.2
40.82
31.07
21.56
12.73
4.83
-2.09
-8.13
-13.49
-18.35
-22.96
-27.62
-32.82
-39.22
-47.37
-57.25
-67.88
-77.19
-82.42
-81.03
-71.63
-54.66
-32.26
-7.69
15.76
35.54
50.33
59.91
64.74
65.55
63.03
57.81
50.52
41.88
32.67
23.66
15.45
8.34
2.28
-2.96
-7.83
-12.7
-17.88
-23.64
-30.28
-38.19
-47.69
-58.62
-70.02
-79.95
-85.82
-85.11
-76.19
-58.97
-34.96
-6.91
21.97
48.76
71.27
88.32
99.57
105.25
105.97
102.29
94.78
83.96
70.64
55.99
41.56
28.9
19.04
12.08
7.07
2.48
-3.33
-11.46
-22.35
-35.86
-51.36
-67.48
-81.83
-91.21
-92.28
-83.04
-63.86
-37.7
-9.13
17.45
39.21
55.53
67.22
75.38
80.47
82.23
80.36
75.11
67.63
59.31
51.27
43.75
36.32
28.44
19.93
11.2
2.96
-4.03
-9.53
-13.92
-18.14
-23.46
-31.08
-41.63
-54.8
-68.97
-81.4
-88.89
-88.61
-79.16
-61.04
-36.53
-8.97
18.34
42.8
62.94
78.06
87.92
92.49
91.92
86.85
78.46
68.45
58.46
49.69
42.47
36.32
30.39
23.92
16.74
9.24
2.2
-3.71
-8.29
-12
-15.86
-21.1
-28.84
-39.56
-52.9
-67.27
-80.15
-88.47
-89.54
-81.95
-65.99
-43.72
-18.14
7.66
31.26
51.22
66.82
77.7
83.6
84.46
80.72
73.49
64.48
55.44
47.65
41.51
36.52
31.74
26.33
19.96
12.95
6.03
-0.11
-5.19
-9.47
-13.67
-18.78
-25.68
-34.98
-46.68
-59.96
-73.08
-83.49
-88.45
-85.75
-74.53
-55.67
-31.59
-5.54
19.34
40.63
56.97
67.9
73.53
74.4
71.27
65.18
57.36
49.07
41.23
34.29
28.15
22.46
16.81
10.98
5.07
-0.66
-5.89
-10.5
-14.6
-18.62
-23.32
-29.5
-37.85
-48.32
-59.88
-70.4
-77.16
-77.58
-70.2
-55.22
-34.43
-10.78
12.7
33.51
50.15
62
69.02
71.51
69.85
64.68
56.9
47.69
38.25
29.53
22
15.56
9.83
4.33
-1.12
-6.45
-11.39
-15.79
-19.82
-24.07
-29.43
-36.75
-46.43
-57.91
-69.53
-78.72
-82.65
-79.2
-67.65
-49.08
-25.94
-1.32
21.98
41.94
57.42
67.95
73.48
74.23
70.77
64.01
55.12
45.33
35.56
26.35
17.84
9.94
2.57
-4.19
-10.11
-14.92
-18.55
-21.3
-23.95
-27.61
-33.41
-42
-53.06
-65.08
-75.56
-81.69
-81.13
-72.81
-57.2
-36.1
-12.12
12.06
34.14
52.5
66.13
74.6
77.88
76.46
71.21
63.35
54.14
44.64
35.51
26.94
18.9
11.22
3.93
-2.79
-8.68
-13.6
-17.74
-21.62
-26.1
-32.07
-40.22
-50.66
-62.61
-74.34
-83.35
-87.04
-83.36
-71.57
-52.42
-28.03
-1.25
25.03
48.38
67.13
80.31
87.62
89.23
85.84
78.53
68.68
57.67
46.63
36.31
26.99
18.67
11.2
4.45
-1.59
-6.97
-11.78
-16.34
-21.13
-26.8
-34.02
-43.24
-54.48
-66.97
-79.12
-88.55
-92.67
-89.37
-77.66
-58.12
-32.79
-4.61
23.26
48.02
67.67
81.01
87.71
88.08
83.06
74.06
62.7
50.61
39.03
28.78
20.11
12.9
6.81
1.46
-3.47
-8.21
-12.9
-17.69
-22.81
-28.65
-35.76
-44.61
-55.37
-67.37
-78.96
-87.61
-90.53
-85.53
-71.82
-50.36
-23.59
5.25
33.04
57.22
76.13
88.82
94.9
94.58
88.57
78.26
65.41
51.88
39.13
27.92
18.38
10.12
2.73
-4.09
-10.38
-16.08
-21.17
-25.82
-30.44
-35.71
-42.43
-51.14
-61.83
-73.48
-84.08
-90.89
-91.27
-83.54
-67.5
-44.65
-17.62
10.52
37
59.65
76.96
87.99
92.29
90.02
82.11
70.26
56.62
43.27
31.65
22.22
14.57
7.8
1.12
-5.74
-12.49
-18.56
-23.56
-27.64
-31.62
-36.77
-44.33
-54.8
-67.64
-80.96
-91.92
-97.4
-94.85
-82.97
-62.08
-34.12
-2.31
29.4
57.01
77.34
88.62
90.94
86.06
76.73
65.75
55.14
45.78
37.61
30.13
22.93
15.96
9.4
3.49
-1.7
-6.29
-10.51
-14.66
-19.1
-24.32
-30.84
-39.19
-49.5
-61.15
-72.49
-81.02
-83.94
-79.06
-65.71
-45.02
-19.75
6.58
30.75
50.45
64.62
73.13
76.52
75.53
71.15
64.44
56.52
48.36
40.53
33.17
26.06
18.97
11.85
4.99
-1.2
-6.4
-10.6
-14.23
-18.01
-22.81
-29.47
-38.54
-49.97
-62.8
-75.08
-84.03
-86.82
-81.44
-67.52
-46.56
-21.48
4.25
27.73
47.09
61.63
71.35
76.52
77.46
74.59
68.64
60.63
51.81
43.21
35.4
28.39
21.79
15.19
8.43
1.73
-4.43
-9.63
-13.75
-17.19
-20.82
-25.75
-33.01
-43.16
-55.86
-69.66
-82.04
-89.96
-90.77
-83.04
-67.2
-45.4
-20.75
3.65
25.51
43.64
57.67
67.52
73.08
74.2
71.03
64.32
55.47
46.14
37.72
30.86
25.38
20.54
15.53
9.93
3.92
-1.89
-6.86
-10.79
-14.04
-17.58
-22.55
-29.96
-40.13
-52.53
-65.63
-77.15
-84.5
-85.42
-78.7
-64.54
-44.53
-21.25
2.5
24.3
42.45
56
64.5
67.94
66.66
61.42
53.45
44.21
35.03
26.85
19.96
14.22
9.16
4.45
-0.1
-4.41
-8.3
-11.76
-14.94
-18.34
-22.7
-28.84
-37.38
-48.32
-60.75
-72.74
-81.63
-84.73
-80.16
-67.5
-48.03
-24.32
0.45
23.37
42.38
56.4
65.21
69.14
68.86
65.19
59.09
51.59
43.57
35.76
28.51
21.92
15.83
10.03
4.4
-1.04
-6.15
-10.82
-15.05
-19.19
-23.95
-30.25
-38.94
-50.25
-63.35
-76.15
-85.68
-88.93
-83.82
-70.04
-49.18
-24.16
1.67
25.48
45.53
61.02
71.81
77.93
79.5
76.81
70.57
61.99
52.5
43.41
35.42
28.54
22.25
15.92
9.28
2.56
-3.63
-8.72
-12.57
-15.76
-19.44
-25
-33.48
-44.98
-58.43
-71.55
-81.42
-85.21
-81.14
-68.99
-50.17
-27.3
-3.28
19.4
39.13
55.08
66.85
74.17
76.84
74.98
69.28
61.09
52.08
43.7
36.72
31.02
25.85
20.32
13.92
6.79
-0.41
-6.81
-11.92
-15.78
-19.08
-22.86
-28.22
-35.98
-46.37
-58.8
-71.8
-83.08
-89.94
-90.02
-81.98
-66.1
-44.19
-19.14
5.99
28.74
47.58
61.92
71.64
76.83
77.68
74.6
68.43
60.41
51.98
44.32
38.07
33.1
28.73
24.13
18.72
12.46
5.81
-0.5
-5.86
-10.1
-13.65
-17.41
-22.45
-29.76
-39.79
-52.17
-65.57
-77.77
-86.03
-87.88
-81.82
-67.89
-47.72
-23.98
0.41
23.04
42.34
57.49
68.11
73.93
74.83
71.02
63.44
53.63
43.43
34.34
27.06
21.35
16.34
11.14
5.28
-1.02
-7.09
-12.22
-16.15
-19.24
-22.33
-26.45
-32.43
-40.75
-51.24
-63.08
-74.75
-84.14
-88.89
-87.05
-77.66
-61.14
-39.35
-15.01
9.02
30.35
47.48
59.68
66.82
69.15
67.21
61.84
54.21
45.63
37.25
29.82
23.54
18.14
13.12
8.1
2.99
-2.07
-6.77
-11
-14.88
-18.9
-23.79
-30.4
-39.35
-50.68
-63.58
-76.12
-85.65
-89.39
-85.29
-72.82
-53.19
-29.04
-3.56
20.29
40.47
55.93
66.39
71.99
73.1
70.36
64.68
57.27
49.36
41.87
35.15
29.01
22.95
16.49
9.6
2.58
-3.98
-9.63
-14.3
-18.46
-23.05
-29.22
-37.95
-49.56
-63.33
-77.37
-88.89
-94.91
-93.18
-82.93
-65.12
-42.16
-17.05
7.32
28.85
46.27
58.95
66.68
69.51
67.86
62.63
55.18
46.97
39.21
32.48
26.65
21.19
15.54
9.57
3.51
-2.08
-6.75
-10.42
-13.5
-16.85
-21.47
-28.31
-37.79
-49.57
-62.22
-73.39
-80.3
-80.48
-72.7
-57.34
-36.36
-12.61
10.98
32.09
49.3
61.93
69.83
73.05
71.92
67.12
59.72
51.05
42.27
34.16
26.89
20.26
13.94
7.78
1.92
-3.39
-7.99
-12.08
-16.17
-21.03
-27.41
-35.82
-46.19
-57.7
-68.7
-76.88
-79.82
-75.65
-63.75
-45.05
-21.8
3.1
26.86
47.41
63.57
74.89
81.42
83.38
81.2
75.52
67.18
57.21
46.58
36.16
26.51
17.97
10.63
4.45
-0.73
-5.17
-9.18
-13.21
-17.81
-23.67
-31.42
-41.37
-53.14
-65.3
-75.49
-80.89
-79.06
-68.84
-50.88
-27.51
-2.09
22.01
42.28
57.42
67.24
72.2
72.99
70.32
64.86
57.42
48.84
40.01
31.6
24.01
17.36
11.51
6.27
1.44
-3.17
-7.79
-12.69
-18.3
-25.14
-33.74
-44.21
-55.94
-67.35
-75.98
-79.13
-74.76
-62.34
-43.11
-19.85
4.02
25.43
42.32
53.86
60.13
61.76
59.53
54.22
46.64
37.61
27.96
18.43
9.62
1.88
-4.63
-10.01
-14.48
-18.38
-22.06
-25.88
-30.24
-35.61
-42.5
-51.2
-61.43
-72.01
-80.88
-85.48
-83.54
-73.9
-56.97
-34.74
-10.13
13.78
34.47
50.41
60.97
66.31
66.97
63.77
57.63
49.54
40.51
31.42
22.98
15.54
9.22
3.84
-0.89
-5.22
-9.32
-13.27
-17.17
-21.34
-26.43
-33.21
-42.18
-53.04
-64.21
-73.08
-76.63
-72.55
-60.06
-40.4
-16.41
8.38
30.75
48.49
60.59
67.02
68.41
65.65
59.8
51.98
43.28
34.56
26.41
19.06
12.49
6.55
1.04
-4.12
-8.95
-13.5
-17.89
-22.43
-27.71
-34.43
-43.15
-53.85
-65.44
-75.8
-82.09
-81.6
-72.78
-55.89
-33.02
-7.47
17.29
38.56
54.85
65.82
71.8
73.41
71.3
66.11
58.66
49.82
40.57
31.63
23.46
16.16
9.63
3.72
-1.72
-6.81
-11.74
-16.82
-22.62
-29.82
-38.97
-50.13
-62.47
-74.09
-82.32
-84.44
-78.55
-64.35
-43.39
-18.62
6.5
28.97
46.79
59.19
66.21
68.39
66.44
61.19
53.72
45.13
36.48
28.5
21.47
15.26
9.63
4.41
-0.41
-4.72
-8.59
-12.33
-16.56
-22.07
-29.55
-39.31
-50.91
-62.99
-73.34
-79.29
-78.46
-69.49
-52.68
-29.92
-4.23
21.18
43.58
61.25
73.41
80.04
81.53
78.6
72.22
63.58
53.92
44.31
35.45
27.54
20.42
13.74
7.21
0.82
-5.23
-10.61
-15.11
-18.89
-22.58
-27.25
-34.05
-43.73
-56.02
-69.3
-80.76
-87.09
-85.55
-74.94
-56.07
-31.48
-4.63
21.22
43.69
61.51
74.3
82.04
84.85
83.02
77.23
68.66
58.89
49.48
41.48
35.2
30.17
25.57
20.71
15.4
9.9
4.83
0.58
-2.87
-6.19
-10.47
-16.87
-26.21
-38.45
-52.53
-66.32
-76.99
-81.79
-78.71
-67.27
-48.57
-25.04
0.29
24.61
45.75
62.42
73.93
80.1
81.03
77.32
70.08
60.91
51.52
43.34
37.01
32.33
28.52
24.63
20.11
14.96
9.67
4.83
0.81
-2.47
-5.63
-9.5
-15.09
-23.1
-33.69
-46.13
-58.62
-68.59
-73.21
-70.31
-59.1
-40.54
-17.11
7.94
31.47
51.21
65.89
75.19
79.27
78.58
73.66
65.32
54.71
43.27
32.42
23.17
15.84
10.04
5.03
0.09
-5.06
-10.12
-14.54
-17.83
-20
-21.61
-23.64
-27.2
-33.13
-41.82
-52.89
-65.13
-76.5
-84.44
-86.42
-80.68
-66.92
-46.44
-21.88
3.62
27.23
47.02
62.04
72.06
77.19
77.66
73.98
67.04
58.21
49.04
40.87
34.38
29.36
25.04
20.46
15.02
8.69
2
-4.33
-9.86
-14.64
-19.3
-24.81
-32.14
-41.85
-53.77
-66.79
-78.91
-87.64
-90.61
-86.23
-74.19
-55.65
-32.84
-8.53
14.63
34.53
49.68
59.26
62.98
61.18
54.81
45.42
34.83
24.65
15.9
8.72
2.63
-3.19
-9.33
-15.88
-22.48
-28.46
-33.34
-37.07
-40.15
-43.46
-48.05
-54.79
-64.03
-75.32
-87.21
-97.36
-102.92
-101.4
-91.43
-73.29
-48.98
-21.61
5.48
29.55
48.92
62.96
71.7
75.48
74.86
70.59
63.81
55.83
47.92
40.89
34.93
29.66
24.46
18.87
12.84
6.74
1.05
-3.92
-8.29
-12.61
-17.79
-24.82
-34.38
-46.49
-60.07
-72.97
-82.27
-85.1
-79.53
-65.34
-44.13
-18.77
7.43
31.65
51.98
67.5
77.93
83.35
84.11
80.83
74.56
66.64
58.43
50.94
44.54
38.9
33.32
27.13
20.02
12.24
4.42
-2.76
-8.95
-14.37
-19.83
-26.5
-35.47
-47.3
-61.52
-76.44
-89.33
-97.11
-97.2
-88.41
-71.42
-48.52
-22.86
2.5
25.36
44.5
59.43
69.88
75.68
76.75
73.48
66.97
58.81
50.66
43.64
38.05
33.37
28.71
23.3
16.96
10.07
3.39
-2.34
-6.83
-10.28
-13.44
-17.26
-22.73
-30.6
-41.14
-54
-67.94
-80.83
-89.93
-92.57
-86.94
-72.8
-51.64
-26.27
-0.01
24.27
44.65
60.27
71
77.01
78.58
76.07
70.18
62.07
53.25
45.19
38.86
34.37
30.99
27.56
23.07
17.21
10.46
3.88
-1.61
-5.61
-8.52
-11.38
-15.41
-21.68
-30.76
-42.59
-56.3
-70.17
-81.83
-88.64
-88.44
-80.28
-64.72
-43.74
-20.06
3.62
25.23
43.45
57.56
67.07
71.68
71.37
66.68
58.75
49.24
39.78
31.59
25.17
20.23
16.1
12.03
7.57
2.72
-2.19
-6.71
-10.57
-13.85
-17
-20.71
-25.74
-32.73
-42
-53.31
-65.68
-77.3
-85.76
-88.55
-83.84
-71.15
-51.63
-27.8
-2.75
20.69
40.61
56.07
66.85
73.04
74.75
72.28
66.28
57.9
48.68
40.03
32.89
27.38
22.91
18.6
13.76
8.25
2.49
-2.83
-7.16
-10.51
-13.5
-17.24
-22.97
-31.65
-43.56
-58
-73.15
-86.28
-94.39
-94.97
-86.89
-70.79
-48.89
-24.17
0.48
23.07
42.46
58.13
69.66
76.53
78.39
75.39
68.53
59.49
50.15
42
35.62
30.69
26.36
21.76
16.44
10.54
4.61
-0.78
-5.33
-9.28
-13.27
-18.16
-24.7
-33.45
-44.55
-57.64
-71.61
-84.53
-93.82
-96.83
-91.7
-78.06
-57.35
-32.36
-6.35
17.9
38.72
55.49
68.23
76.98
81.61
81.96
78.18
71.09
62.07
52.84
44.83
38.82
34.7
31.67
28.67
24.8
19.76
13.79
7.58
1.83
-3.11
-7.4
-11.71
-16.91
-23.85
-33.12
-44.89
-58.77
-73.6
-87.39
-97.54
-101.32
-96.72
-83.22
-62.1
-36.16
-8.87
16.7
38.48
55.61
68.04
76.15
80.26
80.71
77.94
72.7
66.04
59
52.49
46.99
42.6
39.06
35.97
32.86
29.29
25
19.89
14.12
7.98
1.83
-4.16
-10.06
-16.18
-23.04
-31.2
-41.19
-53.17
-66.72
-80.54
-92.38
-99.47
-99.26
-90.37
-73.18
-49.79
-23.4
2.7
26.01
45.12
59.56
69.36
74.72
75.91
73.42
68.1
61.09
53.65
46.77
41
36.42
32.66
29.25
25.75
21.85
17.46
12.61
7.46
2.16
-3.14
-8.39
-13.66
-19.13
-25.22
-32.42
-41.28
-52.18
-64.84
-78.13
-89.93
-97.51
-98.28
-90.75
-75.06
-53.14
-27.94
-2.6
20.47
39.91
55.2
66.21
72.8
74.89
72.57
66.51
57.98
48.56
39.75
32.56
27.32
23.7
21.02
18.52
15.65
12.18
8.17
3.9
-0.39
-4.64
-9.02
-13.91
-19.81
-27.13
-36.14
-46.85
-58.79
-70.88
-81.32
-87.89
-88.36
-81.34
-66.77
-46.13
-22.06
2.49
24.94
43.69
57.99
67.61
72.48
72.65
68.49
60.93
51.54
42.11
34.17
28.39
24.5
21.5
18.27
14.1
8.92
3.32
-1.9
-6.12
-9.2
-11.61
-14.22
-18.12
-24.25
-33.21
-44.96
-58.7
-72.77
-84.81
-92.22
-92.76
-85.33
-70.3
-49.53
-25.78
-1.93
19.75
37.87
51.86
61.6
67.12
68.54
66.17
60.73
53.37
45.45
38.15
32.16
27.51
23.6
19.67
15.07
9.63
3.69
-2.12
-7.2
-11.38
-15.01
-18.92
-24.13
-31.58
-41.78
-54.51
-68.7
-82.3
-92.62
-96.93
-93.26
-81.11
-61.74
-37.81
-12.52
11.3
31.83
48.31
60.65
68.92
73.06
73.03
69.1
62.15
53.62
45.1
37.82
32.23
27.96
24.12
19.8
14.53
8.43
2.2
-3.41
-7.85
-11.23
-14.25
-18.03
-23.69
-32.09
-43.45
-57.22
-71.96
-85.42
-94.93
-97.89
-92.63
-78.92
-58.23
-33.28
-7.29
16.92
37.54
53.73
65.35
72.46
75.18
73.73
68.69
61.12
52.38
43.89
36.64
31.02
26.78
23.28
19.76
15.64
10.77
5.38
-0.05
-5.07
-9.5
-13.6
-18.01
-23.54
-30.96
-40.72
-52.73
-66.16
-79.43
-90.23
-96.01
-94.64
-85.05
-67.79
-44.82
-19.06
6.56
29.7
48.97
63.75
73.81
79.1
79.67
75.88
68.6
59.26
49.57
41.03
34.52
30.05
26.91
24.06
20.66
16.37
11.43
6.35
1.61
-2.6
-6.5
-10.58
-15.43
-21.61
-29.62
-39.77
-52.02
-65.72
-79.25
-90.18
-95.7
-93.5
-82.64
-64
-40.12
-14.3
10.34
31.68
48.73
61.39
69.83
74.13
74.28
70.47
63.46
54.59
45.56
37.87
32.31
28.72
26.23
23.67
20.17
15.49
10.02
4.46
-0.61
-5.04
-9.16
-13.57
-18.91
-25.75
-34.48
-45.24
-57.72
-70.87
-82.8
-90.95
-92.86
-86.83
-72.76
-52.14
-27.64
-2.32
21.17
40.99
56.14
66.23
71.29
71.62
67.91
61.26
53.1
44.91
37.86
32.53
28.74
25.8
22.79
18.97
14.16
8.66
3.16
-1.7
-5.67
-9.06
-12.63
-17.38
-24.25
-33.74
-45.74
-59.26
-72.42
-82.68
-87.36
-84.47
-73.39
-55.17
-32.25
-7.7
15.71
36.05
52.42
64.5
72.28
75.72
74.93
70.39
63.07
54.45
46.01
38.83
33.3
28.97
24.97
20.4
14.87
8.57
2.2
-3.47
-8.11
-12
-16.01
-21.22
-28.58
-38.59
-51.12
-65.36
-79.78
-92.14
-99.89
-100.72
-93.28
-77.78
-55.98
-30.74
-5.15
18.36
38.38
54.39
66.29
74.03
77.5
76.69
72.07
64.72
56.25
48.26
41.88
37.45
34.5
32.05
29.09
25
19.71
13.59
7.23
1.06
-4.83
-10.72
-17.17
-24.8
-34.16
-45.54
-58.75
-72.93
-86.29
-96.35
-100.41
-96.43
-83.81
-63.74
-38.94
-12.71
12.04
33.44
50.78
63.95
73.02
77.89
78.45
75.01
68.5
60.45
52.47
45.77
40.76
37.09
33.96
30.6
26.58
21.9
16.89
11.94
7.37
3.19
-0.79
-5.02
-10.02
-16.31
-24.35
-34.45
-46.68
-60.53
-74.71
-87.01
-94.67
-95.1
-86.77
-70.04
-47.06
-21.25
3.87
25.71
43.1
56.05
65.03
70.41
72.2
70.34
65.09
57.39
48.72
40.64
34.28
29.94
27.16
24.95
22.41
18.98
14.66
9.86
5.1
0.76
-3.12
-6.79
-10.75
-15.51
-21.61
-29.54
-39.66
-52
-65.85
-79.52
-90.45
-95.75
-93.15
-81.82
-62.82
-38.82
-13.23
10.79
31.09
46.71
57.58
64.01
66.36
64.91
60.07
52.61
43.75
34.95
27.55
22.33
19.25
17.56
16.12
13.94
10.5
6.02
1.1
-3.55
-7.56
-11.13
-14.87
-19.61
-26.06
-34.68
-45.48
-57.98
-71.02
-82.72
-90.75
-92.74
-87.1
-73.59
-53.58
-29.69
-4.95
18
37.53
52.97
64.23
71.36
74.3
73.06
68.02
60.19
51.06
42.22
34.81
29.2
24.94
21.15
17.03
12.19
6.85
1.52
-3.27
-7.33
-10.93
-14.69
-19.38
-25.7
-34.18
-45.01
-57.87
-71.63
-84.36
-93.46
-96.31
-91.09
-77.49
-56.96
-32.25
-6.61
17.29
37.77
54.23
66.65
75.1
79.4
79.39
75.2
67.66
58.23
48.69
40.55
34.55
30.53
27.59
24.55
20.53
15.29
9.2
3.07
-2.39
-6.88
-10.69
-14.63
-19.64
-26.51
-35.7
-47.22
-60.56
-74.58
-87.41
-96.62
-99.59
-94.39
-80.51
-59.25
-33.44
-6.51
18.45
39.53
55.96
67.79
75.24
78.43
77.48
72.75
65.24
56.42
47.87
40.77
35.51
31.72
28.49
24.92
20.5
15.27
9.7
4.4
-0.21
-4.14
-7.8
-11.87
-17.05
-23.88
-32.63
-43.33
-55.68
-68.9
-81.63
-91.76
-96.87
-94.78
-84.4
-66.25
-42.49
-16.31
9.06
31.17
48.78
61.74
70.35
74.99
75.85
73.1
67.2
59.13
50.25
42.01
35.44
30.9
27.99
25.81
23.44
20.21
16.03
11.26
6.49
2.11
-1.83
-5.75
-10.32
-16.2
-23.95
-33.81
-45.82
-59.62
-74.19
-87.72
-97.65
-101.31
-96.74
-83.49
-62.99
-38.11
-12.21
11.83
32.17
48.1
59.56
66.65
69.46
68.18
63.29
55.79
47.01
38.36
30.98
25.43
21.7
19.21
17.16
14.8
11.69
7.83
3.5
-0.91
-5.23
-9.67
-14.71
-20.96
-28.91
-38.81
-50.47
-63.28
-75.95
-86.55
-92.75
-92.35
-84.07
-68.11
-46.26
-21.34
3.61
26.2
45.05
59.61
69.69
75.14
75.86
72.08
64.72
55.35
45.84
37.76
31.84
27.89
24.96
21.96
18.13
13.34
8.01
2.77
-1.91
-6.01
-9.94
-14.42
-20.21
-27.92
-37.84
-49.79
-62.87
-75.48
-85.3
-89.82
-87.04
-76.17
-58.05
-34.94
-9.83
14.43
35.77
53.02
65.78
73.93
77.49
76.64
71.88
64.26
55.21
46.24
38.46
32.34
27.65
23.66
19.57
14.89
9.62
4.16
-0.86
-5.04
-8.44
-11.64
-15.63
-21.5
-30.13
-41.72
-55.64
-70.24
-83.04
-91.21
-92.3
-85.07
-69.86
-48.62
-24.21
0.42
23.02
42.3
57.69
68.96
75.85
78.17
76.04
70.2
62.04
53.27
45.36
39.13
34.52
30.84
27.2
22.94
17.95
12.59
7.42
2.89
-0.99
-4.61
-8.73
-14.15
-21.6
-31.45
-43.61
-57.33
-71
-82.3
-88.55
-87.52
-78.14
-61.03
-38.42
-13.44
10.77
31.93
48.89
61.44
69.81
74.22
74.78
71.63
65.32
56.89
47.8
39.47
32.9
28.39
25.47
23.25
20.79
17.5
13.23
8.34
3.34
-1.31
-5.44
-9.27
-13.34
-18.35
-24.95
-33.64
-44.59
-57.43
-71.15
-83.91
-93.24
-96.53
-91.8
-78.44
-57.62
-32.08
-5.32
19.37
39.79
55.04
65.28
71.14
73.25
72.01
67.77
61.15
53.09
44.9
37.78
32.53
29.22
27.24
25.67
23.61
20.61
16.74
12.45
8.22
4.25
0.4
-3.85
-9.09
-15.8
-24.29
-34.63
-46.66
-59.85
-73.11
-84.57
-91.9
-92.77
-85.72
-70.8
-49.69
-25.25
-0.61
21.6
39.83
53.36
62.1
66.11
65.58
61
53.33
44.02
34.69
26.69
20.72
16.71
14.01
11.69
8.97
5.47
1.22
-3.4
-7.95
-12.13
-16.05
-20.12
-25.08
-31.68
-40.52
-51.66
-64.54
-77.7
-88.98
-95.84
-96.01
-88.28
-72.87
-51.55
-26.97
-1.99
21.15
41.03
56.86
68.24
74.8
76.38
73.24
66.35
57.38
48.21
40.39
34.61
30.58
27.4
23.99
19.69
14.45
8.77
3.33
-1.39
-5.38
-9.15
-13.59
-19.66
-28.16
-39.36
-52.86
-67.43
-80.98
-91
-94.96
-91.19
-79.35
-60.6
-37.36
-12.5
11.35
32.35
49.46
62.25
70.5
74.07
73.11
68.14
60.28
51.15
42.33
34.97
29.38
25.1
21.18
16.84
11.76
6.28
1.09
-3.19
-6.43
-9.12
-12.25
-16.95
-24.14
-34.24
-46.94
-61.14
-74.9
-85.71
-91.02
-88.94
-78.89
-61.79
-39.9
-16.04
7.2
27.99
45.33
58.72
67.9
72.56
72.65
68.59
61.46
52.89
44.51
37.54
32.32
28.46
25.03
21.18
16.53
11.21
5.85
1.03
-2.93
-6.27
-9.68
-14.07
-20.34
-28.98
-40.08
-52.96
-66.25
-77.81
-85.19
-86.06
-79.03
-64.18
-43.16
-18.75
5.95
28.39
47.02
61.23
70.97
76.32
77.38
74.37
67.92
59.25
49.97
41.62
35.16
30.68
27.49
24.51
20.87
16.26
11.05
5.95
1.59
-1.91
-5.06
-8.77
-14.07
-21.67
-31.78
-43.95
-57.03
-69.3
-78.6
-82.82
-80.36
-70.73
-54.76
-34.42
-12.23
9.44
28.77
44.71
56.67
64.27
67.24
65.63
60.01
51.65
42.27
33.55
26.64
21.78
18.39
15.47
12.11
7.92
3.13
-1.62
-5.73
-8.92
-11.51
-14.31
-18.34
-24.5
-33.31
-44.65
-57.6
-70.43
-80.81
-86.22
-84.69
-75.38
-59.01
-37.67
-14.19
8.66
28.84
45.25
57.45
65.3
68.69
67.63
62.57
54.64
45.52
36.95
30.17
25.51
22.34
19.58
16.25
11.98
7.1
2.33
-1.68
-4.8
-7.49
-10.75
-15.69
-23.23
-33.69
-46.63
-60.69
-73.71
-83.06
-86.3
-81.88
-69.61
-50.84
-27.97
-3.78
19.33
39.7
56.35
68.75
76.49
79.32
77.36
71.38
62.82
53.49
45.04
38.38
33.48
29.5
25.33
20.19
14.01
7.4
1.3
-3.58
-7.17
-10.14
-13.71
-19.13
-27.37
-38.7
-52.47
-67.12
-80.2
-89
-91.04
-84.96
-70.89
-50.5
-26.51
-1.77
21.33
41.34
57.54
69.61
77.32
80.41
78.89
73.3
64.87
55.21
46
38.31
32.45
27.93
23.82
19.26
13.81
7.67
1.43
-4.2
-8.84
-12.65
-16.32
-20.9
-27.41
-36.63
-48.61
-62.6
-76.86
-88.85
-95.82
-95.44
-86.64
-70.03
-47.71
-22.66
2.23
24.8
43.89
59.05
70.11
76.85
79.15
77.16
71.63
63.85
55.35
47.43
40.71
35.22
30.41
25.66
20.47
14.71
8.62
2.6
-2.92
-7.79
-12.16
-16.53
-21.58
-27.97
-36.25
-46.59
-58.71
-71.62
-83.6
-92.37
-95.58
-91.52
-79.72
-61.26
-38.5
-14.35
8.53
28.37
44.24
55.87
63.1
65.83
64.07
58.37
49.91
40.41
31.63
24.75
20.05
16.95
14.38
11.38
7.49
2.89
-1.85
-6.13
-9.67
-12.66
-15.68
-19.57
-25.13
-32.99
-43.25
-55.41
-68.11
-79.27
-86.39
-87.22
-80.45
-66.15
-45.87
-22.16
2.18
24.74
43.9
58.79
69.1
74.75
75.89
72.93
66.77
58.72
50.3
42.76
36.75
32.17
28.26
24.16
19.22
13.44
7.29
1.5
-3.42
-7.45
-11.19
-15.61
-21.72
-30.3
-41.52
-54.85
-68.88
-81.47
-90.04
-92.21
-86.52
-72.95
-53
-29.22
-4.47
18.79
38.89
54.85
66.17
72.56
74.05
71.11
64.82
56.76
48.57
41.51
36.07
31.99
28.47
24.72
20.26
15.1
9.67
4.49
-0.17
-4.42
-8.86
-14.34
-21.73
-31.63
-44.13
-58.56
-73.4
-86.36
-94.75
-96.19
-89.39
-74.59
-53.63
-29.36
-4.73
17.86
37.04
52.21
63.2
69.94
72.37
70.7
65.61
58.29
50.22
42.71
36.54
31.76
27.79
23.79
19.13
13.61
7.55
1.57
-3.76
-8.25
-12.25
-16.55
-22.15
-29.88
-40.05
-52.26
-65.23
-76.99
-85.12
-87.44
-82.52
-70.25
-51.88
-29.66
-6.19
16.26
36.08
52.37
64.59
72.37
75.49
74.07
68.81
61.04
52.43
44.5
38.23
33.71
30.36
27.21
23.42
18.58
12.78
6.59
0.63
-4.61
-9.14
-13.37
-18.12
-24.34
-32.79
-43.79
-56.87
-70.67
-82.94
-91.01
-92.43
-85.74
-71.05
-49.97
-25.21
0.27
24.01
44.35
60.37
71.53
77.48
78.04
73.57
65.11
54.41
43.47
33.94
26.72
21.7
18.11
14.83
11.06
6.46
1.29
-3.9
-8.55
-12.45
-15.92
-19.65
-24.52
-31.28
-40.32
-51.44
-63.84
-76.03
-85.98
-91.46
-90.5
-82.08
-66.45
-45.26
-21.09
3.31
25.62
44.31
58.54
67.94
72.32
71.81
67.04
59.19
49.96
41.07
33.79
28.53
24.88
21.88
18.52
14.26
9.15
3.73
-1.4
-5.88
-9.92
-14.16
-19.51
-26.78
-36.45
-48.34
-61.42
-73.85
-83.22
-87.05
-83.57
-72.28
-54.18
-31.51
-7.04
16.69
37.74
54.96
67.62
75.26
77.65
74.97
68.08
58.5
48.12
38.59
30.82
24.85
19.97
15.33
10.29
4.84
-0.63
-5.56
-9.64
-13.1
-16.6
-21.13
-27.65
-36.85
-48.85
-62.98
-77.64
-90.43
-98.55
-99.51
-91.89
-75.83
-53.07
-26.32
1.4
27.52
50.25
68.4
81.27
88.41
89.76
85.84
77.88
67.68
57.13
47.71
40.03
33.89
28.52
23.1
17.15
10.68
4.09
-2.14
-7.76
-12.94
-18.19
-24.24
-31.85
-41.58
-53.62
-67.51
-81.97
-94.83
-103.46
-105.27
-98.62
-83.33
-60.77
-33.46
-4.25
24.34
50.43
72.61
89.71
100.69
104.79
102.04
93.52
81.34
68.09
56.14
46.96
40.73
36.61
33.17
29.1
23.66
16.86
9.27
1.71
-5.2
-11.32
-17.03
-23.17
-30.77
-40.76
-53.49
-68.55
-84.39
-98.47
-107.71
-109.2
-101.06
-83.01
-56.56
-24.83
8.21
38.52
62.9
79.52
88.08
89.58
85.71
78.36
69.15
59.38
50.05
42
35.8
31.64
29.02
26.94
24.2
19.96
14.15
7.44
0.85
-4.82
-9.32
-13.2
-17.51
-23.42
-31.8
-42.9
-56.22
-70.35
-83.19
-92.19
-95
-90.15
-77.51
-58.42
-35.29
-10.86
12.46
32.94
49.54
61.64
68.83
70.97
68.35
61.95
53.37
44.49
36.95
31.63
28.44
26.5
24.61
21.79
17.68
12.62
7.33
2.49
-1.69
-5.59
-10.1
-16.18
-24.54
-35.45
-48.52
-62.69
-76.24
-86.91
-92.25
-90.3
-80.19
-62.57
-39.52
-13.97
11.18
33.74
52.4
66.6
76.06
80.58
80.11
75.07
66.67
56.65
46.93
38.86
32.85
28.26
23.95
18.88
12.61
5.51
-1.58
-7.78
-12.69
-16.62
-20.4
-25.21
-32.11
-41.78
-54.2
-68.48
-82.71
-94.24
-100.2
-98.33
-87.8
-69.49
-45.79
-19.77
5.71
28.64
47.94
63.13
73.94
80.04
81.26
77.87
70.89
62.01
53.08
45.58
40.08
36.21
32.93
29.18
24.39
18.73
12.86
7.5
2.97
-1.07
-5.46
-11.18
-18.99
-29.23
-41.78
-56
-70.77
-84.28
-94.24
-98.17
-94.16
-81.55
-61.36
-36.12
-9.11
16.53
38.61
56.05
68.66
76.66
80.27
79.7
75.35
68.1
59.32
50.63
43.34
38
34.3
31.23
27.67
22.93
16.98
10.38
3.93
-1.76
-6.56
-10.86
-15.4
-21.04
-28.55
-38.42
-50.73
-64.82
-79.11
-91.21
-98.27
-97.83
-88.61
-71.1
-47.47
-20.95
5.17
28.43
47.43
61.75
71.43
76.63
77.49
74.33
67.95
59.6
50.83
42.97
36.76
32.16
28.48
24.81
20.42
15.08
9.06
2.89
-2.89
-8.03
-12.64
-17.18
-22.27
-28.54
-36.53
-46.56
-58.48
-71.53
-84.04
-93.65
-97.82
-94.57
-83.28
-64.93
-41.87
-17.07
6.81
27.87
45.14
58.16
66.65
70.36
69.23
63.76
55.18
45.35
36.19
29.09
24.49
21.81
19.79
17.2
13.24
7.97
2.06
-3.54
-8.15
-11.67
-14.64
-18.05
-22.96
-30.19
-40.08
-52.23
-65.45
-77.77
-86.69
-89.77
-85.26
-72.75
-53.36
-29.51
-4.15
20.03
41.06
57.86
69.99
77.31
79.88
77.99
72.32
64.09
54.84
46.05
38.73
33.08
28.57
24.18
19.05
12.8
5.74
-1.37
-7.73
-12.9
-17.14
-21.27
-26.49
-33.94
-44.36
-57.6
-72.56
-87.03
-98.14
-103.04
-99.75
-87.87
-68.67
-44.75
-19.13
5.57
27.55
45.76
59.61
68.63
72.51
71.37
66.06
58.14
49.53
41.88
36.06
31.94
28.69
25.18
20.61
14.86
8.44
2.24
-3.02
-7.1
-10.48
-14.16
-19.41
-27.25
-38.22
-52.07
-67.68
-83.05
-95.57
-102.52
-101.77
-92.51
-75.52
-53.06
-28.17
-3.7
18.24
36.57
50.86
60.92
66.48
67.37
63.83
56.78
47.86
38.92
31.47
26.16
22.71
20.05
17
12.72
7.08
0.63
-5.79
-11.42
-16.04
-20.05
-24.4
-30.26
-38.65
-50.07
-64.2
-79.74
-94.36
-105.17
-109.34
-104.96
-91.7
-70.92
-45.31
-17.94
8.48
32.08
51.8
66.99
77.12
81.75
80.88
75.24
66.35
56.25
46.82
39.24
33.74
29.67
26.05
21.98
17.11
11.61
6.05
1.03
-3.11
-6.58
-9.98
-14.26
-20.4
-29.13
-40.81
-55.09
-70.85
-86.1
-98.2
-104.42
-102.63
-92.03
-73.44
-49.21
-22.51
3.54
26.53
45.04
58.53
66.95
70.5
69.6
64.98
57.82
49.65
41.98
35.84
31.46
28.27
25.22
21.42
16.52
10.93
5.46
0.85
-2.71
-5.77
-9.42
-14.88
-23.04
-34.22
-47.99
-63.13
-77.72
-89.24
-95.11
-93.29
-82.91
-64.68
-40.77
-14.09
12.4
36.46
56.68
72.32
82.99
88.42
88.65
84.24
76.47
67.14
58.03
50.39
44.47
39.71
35.11
29.9
23.9
17.58
11.67
6.68
2.56
-1.4
-6.28
-13.18
-22.86
-35.56
-50.77
-67.17
-82.6
-94.32
-99.58
-96.35
-84.09
-64.03
-38.84
-11.86
13.89
36.33
54.46
68.03
77.08
81.72
82.14
78.95
73.25
66.53
60.13
54.89
50.74
46.93
42.48
36.71
29.59
21.69
13.93
7.03
1.22
-3.86
-9.08
-15.51
-24.16
-35.67
-50.04
-66.29
-82.41
-95.53
-102.65
-101.47
-91.16
-72.77
-48.72
-22.02
4.69
29.68
52
71.07
86.12
96.12
100.16
98.06
90.76
80.28
69.06
59.13
51.47
45.85
41.19
36.24
30.19
22.95
15.03
7.2
-0.02
-6.55
-12.82
-19.51
-27.47
-37.34
-49.6
-64.17
-80.27
-96.28
-109.65
-117.33
-116.4
-105.08
-83.48
-53.93
-20.53
12.16
40.36
62.08
77.17
86.65
91.66
92.85
90.32
84.23
75.39
65.41
56.27
49.44
45.25
42.74
40.31
36.58
31.08
24.37
17.55
11.72
7.2
3.44
-0.71
-6.62
-15.25
-26.98
-41.43
-57.49
-73.38
-86.75
-95.05
-96.06
-88.56
-72.81
-50.58
-24.73
1.64
25.9
46.28
61.81
72.06
76.93
76.61
71.76
63.63
53.97
44.61
36.93
31.51
28
25.4
22.58
18.79
13.85
8.2
2.52
-2.63
-7.17
-11.43
-16.16
-22.25
-30.44
-41.19
-54.32
-68.83
-82.71
-93.21
-97.47
-93.42
-80.55
-60.16
-34.98
-8.2
17.43
40.12
58.96
73.49
83.31
87.97
87.37
82.09
73.58
63.78
54.5
46.85
40.92
36.01
31.14
25.61
19.31
12.68
6.4
0.93
-3.73
-8.08
-12.97
-19.28
-27.71
-38.5
-51.32
-65.07
-77.91
-87.46
-91.36
-87.94
-76.74
-58.77
-36.15
-11.54
12.53
34.13
52.01
65.42
73.96
77.5
76.32
71.21
63.5
54.79
46.58
39.82
34.72
30.75
27.02
22.76
17.67
12.03
6.49
1.64
-2.37
-5.99
-10.21
-16.22
-25.06
-37.19
-52.22
-68.67
-84.13
-95.56
-100.16
-96.12
-83.25
-63.13
-38.51
-12.53
12.23
34.09
52.19
66.14
75.56
80.12
79.73
74.92
67
57.81
49.15
42.13
36.92
32.75
28.42
23.02
16.31
8.8
1.4
-5.08
-10.4
-15
-19.84
-26.06
-34.59
-45.9
-59.88
-75.66
-91.55
-105.13
-113.64
-114.67
-106.84
-90.45
-67.42
-40.76
-13.7
11.21
32.42
49.31
61.73
69.67
73.1
72.21
67.68
60.73
52.95
45.82
40.22
36.22
33.17
30.07
26.08
20.93
14.94
8.85
3.37
-1.14
-4.95
-8.81
-13.71
-20.53
-29.77
-41.47
-54.97
-68.98
-81.56
-90.35
-93.06
-88.16
-75.43
-56.18
-32.92
-8.57
14.34
34.11
49.93
61.48
68.64
71.32
69.67
64.28
56.4
47.58
39.32
32.55
27.38
23.22
19.18
14.58
9.23
3.51
-1.94
-6.6
-10.35
-13.61
-17.13
-21.78
-28.27
-37
-47.94
-60.47
-73.31
-84.47
-91.52
-92.24
-85.26
-70.65
-49.97
-25.76
-0.81
22.54
42.78
59.03
70.76
77.58
79.3
76.22
69.33
60.29
50.98
42.9
36.73
32.15
28.22
23.84
18.39
11.86
4.9
-1.63
-7.08
-11.4
-15.2
-19.6
-25.86
-34.93
-47.1
-61.7
-77.02
-90.51
-99.32
-101.02
-94.28
-79.34
-57.91
-32.7
-6.54
18.14
39.72
57.27
70.2
78.17
81.04
79.14
73.42
65.42
56.82
48.97
42.54
37.37
32.82
28.13
22.91
17.21
11.4
5.96
1.1
-3.31
-7.74
-12.83
-19.29
-27.67
-38.35
-51.25
-65.6
-79.7
-91.07
-96.95
-95.08
-84.52
-66.07
-42.07
-15.67
10.14
33.17
52.26
67.03
77.4
83.29
84.64
81.62
74.96
66.03
56.55
48.17
41.87
37.66
34.72
31.79
27.8
22.34
15.72
8.71
2.05
-3.91
-9.4
-14.98
-21.34
-29.03
-38.43
-49.7
-62.68
-76.65
-90.04
-100.51
-105.25
-101.96
-89.64
-69.14
-43.03
-14.75
12.34
35.89
54.71
68.61
77.84
82.71
83.51
80.63
74.76
66.94
58.37
50.14
42.93
36.96
32.1
27.97
24.13
20.21
15.92
11.16
5.98
0.56
-4.92
-10.41
-16.11
-22.51
-30.23
-39.85
-51.66
-65.35
-79.79
-92.99
-102.45
-105.66
-100.88
-87.76
-67.55
-42.77
-16.46
8.63
30.52
48.15
61.12
69.34
72.93
72.18
67.73
60.62
52.17
43.69
36.13
29.92
24.91
20.57
16.32
11.75
6.81
1.7
-3.23
-7.8
-12.01
-16.18
-20.75
-26.2
-33
-41.55
-52.08
-64.45
-77.83
-90.46
-99.87
-103.43
-99.16
-86.53
-66.68
-42.05
-15.62
9.92
32.67
51.54
65.92
75.43
79.82
79.2
74.23
66.23
56.91
47.9
40.37
34.65
30.37
26.68
22.73
18.03
12.59
6.82
1.26
-3.72
-8.16
-12.52
-17.47
-23.77
-32
-42.49
-55.08
-69.02
-82.75
-94.04
-100.3
-99.36
-90.13
-73.14
-50.42
-24.86
0.6
23.79
43.46
59.17
70.82
78.32
81.56
80.59
75.91
68.49
59.72
50.98
43.35
37.26
32.48
28.32
23.95
18.79
12.75
6.18
-0.35
-6.35
-11.7
-16.73
-22.09
-28.49
-36.54
-46.6
-58.62
-71.99
-85.42
-96.86
-103.86
-104.04
-95.96
-79.6
-56.54
-29.56
-1.82
23.89
45.67
62.62
74.61
81.89
84.87
84.01
79.92
73.42
65.51
57.25
49.6
43.11
37.9
33.64
29.71
25.46
20.48
14.71
8.4
1.98
-4.16
-9.92
-15.51
-21.42
-28.34
-36.91
-47.62
-60.53
-75.02
-89.61
-102
-109.49
-109.71
-101.39
-84.82
-61.83
-35.28
-8.19
16.93
38.4
55.37
67.54
74.8
77.3
75.45
70.07
62.4
53.84
45.67
38.71
33.23
28.9
25.13
21.29
16.94
12.01
6.7
1.45
-3.36
-7.56
-11.3
-15.09
-19.6
-25.57
-33.61
-44.05
-56.77
-70.97
-85.04
-96.59
-102.91
-101.67
-91.82
-73.92
-50.18
-23.69
2.49
26.02
45.56
60.6
71.03
76.83
78.11
75.16
68.73
60.01
50.39
41.21
33.37
27.23
22.53
18.73
15.14
11.27
6.96
2.22
-2.72
-7.72
-12.71
-17.84
-23.35
-29.66
-37.26
-46.64
-58.09
-71.32
-85.12
-97.27
-104.95
-105.49
-97.26
-80.36
-56.59
-28.94
-0.6
25.77
48.47
66.62
79.73
87.48
89.65
86.4
78.56
67.68
55.73
44.6
35.58
28.98
24.19
20.14
15.74
10.42
4.29
-2.03
-7.83
-12.74
-17.05
-21.53
-27.25
-35.1
-45.58
-58.55
-73.18
-87.92
-100.6
-108.77
-110.16
-103.44
-88.64
-67.22
-41.72
-14.95
10.57
33.11
51.59
65.44
74.33
78.18
77.26
72.38
64.85
56.25
48.02
41.09
35.68
31.36
27.33
22.88
17.64
11.79
5.87
0.48
-4.14
-8.24
-12.6
-18.3
-26.31
-37.27
-51.02
-66.51
-81.7
-93.85
-100.06
-98.16
-87.39
-68.74
-44.61
-18.09
8.01
31.7
51.82
67.81
79.19
85.56
86.71
83.07
75.84
66.76
57.65
49.75
43.42
38.14
33
27.19
20.38
12.88
5.4
-1.37
-7.06
-11.87
-16.42
-21.55
-28.07
-36.62
-47.52
-60.58
-74.92
-88.72
-99.4
-104.13
-100.73
-88.43
-68.27
-42.78
-15.16
11.64
35.57
55.48
70.82
81.25
86.48
86.49
81.78
73.57
63.57
53.54
44.72
37.55
31.64
26.12
20.23
13.6
6.54
-0.29
-6.15
-10.71
-14.29
-17.75
-22.28
-28.95
-38.44
-50.76
-65.14
-80.02
-93.18
-102.11
-104.47
-98.84
-85.03
-64.36
-39.18
-12.26
13.89
37.41
57.11
72.26
82.34
87.07
86.48
81.25
72.77
62.81
53.18
45.08
38.87
34.02
29.52
24.44
18.35
11.5
4.56
-1.74
-7.05
-11.59
-16.07
-21.42
-28.53
-37.98
-49.9
-63.7
-77.93
-90.33
-98.16
-99.01
-91.55
-75.99
-54.17
-28.82
-2.84
21.47
42.49
59.3
71.27
77.97
79.34
75.87
68.81
59.89
50.95
43.3
37.43
33
29.11
24.92
19.96
14.36
8.67
3.53
-0.74
-4.41
-8.27
-13.37
-20.72
-30.94
-43.86
-58.45
-72.77
-84.2
-90.12
-88.46
-78.5
-60.99
-38.08
-12.63
12.5
35.14
53.92
68.2
77.76
82.53
82.66
78.62
71.36
62.29
52.93
44.59
37.87
32.66
28.22
23.7
18.51
12.65
6.57
0.93
-3.88
-8
-12.1
-17.2
-24.34
-34.19
-46.79
-61.28
-75.85
-87.85
-94.4
-93.13
-83.06
-64.97
-41.23
-15.04
10.61
33.61
52.96
68.4
79.87
87.13
89.83
87.9
81.94
73.31
63.82
55.2
48.47
43.71
40.14
36.57
32.06
26.22
19.43
12.49
6.18
0.81
-3.95
-8.86
-14.86
-22.65
-32.67
-44.97
-59.23
-74.59
-89.38
-101.15
-107.05
-104.66
-92.85
-72.43
-45.97
-17.03
10.89
35.26
54.82
69.33
79.07
84.38
85.59
83.08
77.56
70.03
61.7
53.69
46.79
41.28
36.99
33.41
29.9
25.95
21.3
16.03
10.44
4.89
-0.42
-5.57
-10.9
-16.85
-23.87
-32.33
-42.51
-54.49
-67.95
-81.81
-94.13
-102.23
-103.37
-95.69
-78.98
-54.91
-26.67
2.02
28.01
49.29
65.21
75.99
82.26
84.54
83.25
78.81
71.87
63.47
54.79
46.97
40.71
36.15
32.85
30.04
26.94
23
18.11
12.51
6.65
0.98
-4.28
-9.27
-14.37
-20.14
-27.15
-35.9
-46.65
-59.3
-73.11
-86.56
-97.29
-102.63
-100.27
-89.17
-69.99
-45.07
-17.7
8.87
32.2
51.05
65.08
74.45
79.34
79.94
76.58
69.99
61.4
52.32
44.19
37.95
33.76
31.08
28.9
26.18
22.2
16.8
10.32
3.38
-3.39
-9.67
-15.5
-21.31
-27.7
-35.35
-44.75
-56.13
-69.11
-82.53
-94.4
-102.17
-103.4
-96.46
-81.31
-59.51
-33.83
-7.39
17.18
38.22
55.05
67.55
75.8
79.89
80.02
76.65
70.67
63.27
55.7
48.91
43.34
38.85
34.88
30.77
26
20.41
14.23
7.9
1.86
-3.66
-8.76
-13.85
-19.53
-26.43
-35.16
-46.12
-59.36
-74.25
-89.24
-101.91
-109.32
-108.92
-99.35
-81.08
-56.34
-28.5
-1.03
23.39
43.32
58.47
69.12
75.72
78.53
77.79
73.87
67.51
59.77
51.79
44.52
38.47
33.7
29.91
26.68
23.6
20.33
16.65
12.33
7.32
1.62
-4.62
-11.21
-17.98
-24.91
-32.31
-40.71
-50.81
-62.99
-76.9
-91.06
-102.84
-109.07
-106.98
-95.25
-74.62
-47.79
-18.42
9.82
34.38
53.99
68.43
77.96
82.9
83.55
80.38
74.23
66.27
57.76
49.76
42.78
36.95
32.03
27.72
23.7
19.71
15.54
10.99
5.99
0.53
-5.25
-11.23
-17.32
-23.53
-30.04
-37.12
-45.19
-54.73
-66.09
-79.09
-92.63
-104.5
-111.75
-111.52
-102.09
-83.67
-58.47
-30.03
-2.03
22.67
42.62
57.59
67.94
74.13
76.42
75
70.31
63.18
54.83
46.51
39.14
33.12
28.35
24.39
20.71
16.88
12.68
8.03
3.06
-2.08
-7.21
-12.27
-17.34
-22.74
-28.94
-36.53
-46.05
-57.8
-71.45
-85.9
-99.08
-108.26
-110.74
-104.67
-89.78
-67.6
-40.99
-13.32
12.56
34.76
52.46
65.46
73.85
77.66
77.07
72.56
65.19
56.45
47.92
40.9
35.89
32.65
30.25
27.63
23.95
18.98
13.02
6.66
0.55
-5.04
-10.17
-15.28
-20.98
-27.88
-36.62
-47.63
-61.01
-76.09
-91.22
-103.74
-110.58
-109.1
-98.14
-78.49
-52.78
-24.53
2.89
27.11
47.03
62.46
73.53
80.26
82.53
80.46
74.64
66.36
57.24
48.8
42
36.93
33.03
29.38
25.2
20.09
14.15
7.84
1.64
-4.11
-9.42
-14.57
-20.02
-26.29
-33.86
-43.19
-54.55
-67.83
-82.16
-95.61
-105.43
-108.65
-103.08
-88.23
-65.55
-38.09
-9.47
17.22
40.02
58.18
71.65
80.57
85.04
85.16
81.35
74.51
65.99
57.24
49.46
43.32
38.76
35.21
31.81
27.84
22.87
17.02
10.72
4.56
-1.14
-6.43
-11.79
-17.84
-25.14
-34.04
-44.66
-57.01
-70.78
-85.1
-98.24
-107.61
-110.35
-104.25
-88.73
-65.22
-36.83
-7.31
20.01
43.03
60.9
73.65
81.63
85.16
84.63
80.56
73.86
65.74
57.45
49.99
43.9
39.18
35.49
32.21
28.78
24.74
19.93
14.43
8.57
2.66
-3.08
-8.67
-14.41
-20.76
-28.25
-37.33
-48.37
-61.42
-75.99
-90.72
-103.27
-110.74
-110.39
-100.65
-81.82
-56.14
-27.13
1.49
26.79
47.15
62.14
72.02
77.23
78.19
75.3
69.22
60.96
51.82
43.14
35.92
30.63
26.99
24.24
21.41
17.69
12.79
6.91
0.65
-5.38
-10.89
-16
-21.27
-27.37
-34.9
-44.26
-55.58
-68.59
-82.39
-95.28
-104.83
-108.36
-103.7
-90.1
-68.56
-41.7
-12.9
14.61
38.49
57.52
71.24
79.68
83.02
81.64
76.32
68.27
59.09
50.32
43.06
37.62
33.59
30.01
25.93
20.78
14.52
7.69
0.94
-5.2
-10.67
-15.84
-21.44
-28.32
-37.2
-48.57
-62.36
-77.7
-92.72
-104.74
-110.76
-108.39
-96.7
-76.63
-50.77
-22.45
5.18
29.9
50.53
66.63
78
84.43
85.8
82.37
75.13
65.66
55.85
47.32
40.93
36.58
33.37
30.09
25.79
20.2
13.76
7.33
1.66
-3.05
-7.29
-12.05
-18.43
-27.25
-38.87
-53.09
-69.05
-85.13
-99
-107.89
-109.25
-101.54
-84.95
-61.44
-34.16
-6.52
18.8
40.23
57.25
69.76
77.75
81.13
79.96
74.85
67.05
58.27
50.14
43.72
39.14
35.64
32.06
27.4
21.33
14.23
6.95
0.33
-5.18
-9.83
-14.34
-19.67
-26.71
-36.04
-47.9
-61.97
-77.22
-91.72
-102.76
-107.47
-103.64
-90.59
-69.47
-43.06
-14.71
12.54
36.67
56.65
72.12
82.83
88.51
89.05
84.79
76.81
66.78
56.54
47.58
40.6
35.49
31.46
27.51
22.85
17.1
10.39
3.21
-3.85
-10.44
-16.57
-22.69
-29.61
-38.23
-49.26
-62.86
-78.24
-93.54
-106.04
-112.68
-110.9
-99.35
-78.4
-50.14
-17.95
14.33
43.24
66.27
82.19
90.88
93.03
89.82
82.59
72.87
62.28
52.35
44.27
38.43
34.32
30.72
26.29
20.19
12.53
4.25
-3.41
-9.59
-14.2
-18.02
-22.32
-28.4
-37.24
-49.21
-63.85
-79.78
-94.64
-105.41
-109.07
-103.49
-88.2
-64.73
-36.11
-6.02
22.3
46.62
65.85
79.68
88.04
91.07
89.12
83.02
74.2
64.4
55.29
47.87
42.26
37.78
33.36
28.15
21.83
14.76
7.72
1.43
-3.86
-8.57
-13.7
-20.53
-30.2
-43.23
-59.23
-76.64
-92.8
-104.39
-108.3
-102.48
-86.77
-62.95
-34.23
-4.2
24.17
49.01
69.47
85.19
95.82
100.98
100.55
95.1
86.11
75.67
65.81
57.84
51.97
47.44
43.08
38
31.95
25.28
18.69
12.65
7.15
1.66
-4.59
-12.38
-22.25
-34.45
-48.88
-64.79
-80.66
-94.05
-102.06
-102.07
-92.71
-74.35
-49.23
-20.66
7.93
33.92
55.82
73.11
85.78
93.89
97.43
96.52
91.68
83.99
74.91
66.01
58.43
52.56
47.94
43.59
38.46
31.96
24.22
15.92
8.02
1.16
-4.63
-9.95
-15.79
-23.09
-32.54
-44.38
-58.44
-73.94
-89.42
-102.58
-110.56
-110.65
-101.21
-82.43
-56.39
-26.53
3.43
30.49
52.9
70.02
81.96
88.96
91.34
89.47
84
75.98
66.72
57.56
49.51
43.06
38.14
34.24
30.65
26.78
22.29
17.21
11.73
6.17
0.69
-4.73
-10.32
-16.49
-23.75
-32.65
-43.7
-57.1
-72.32
-87.85
-101.17
-109.2
-109.18
-99.61
-80.9
-55.3
-26.26
2.66
28.62
49.97
66.06
76.8
82.29
82.75
78.69
71.1
61.52
51.71
43.2
36.88
32.81
30.33
28.42
26.19
23.07
18.97
14.14
8.93
3.61
-1.8
-7.51
-13.85
-21.29
-30.28
-41.2
-54.13
-68.47
-82.76
-94.64
-101.26
-100.2
-90.22
-71.93
-47.57
-20.35
6.53
30.76
51.06
66.98
78.33
84.86
86.35
82.9
75.39
65.39
54.9
45.65
38.59
33.64
29.89
26.21
21.71
16.15
9.92
3.72
-1.86
-6.68
-11.09
-15.78
-21.5
-28.83
-38.05
-49.2
-62
-75.61
-88.48
-98.27
-102.31
-98.32
-85.36
-64.29
-37.69
-9.04
18.4
42.33
61.76
76.58
87.05
93.25
95.04
92.33
85.52
75.66
64.38
53.39
43.95
36.54
30.75
25.66
20.32
14.22
7.42
0.41
-6.2
-12.1
-17.35
-22.41
-27.85
-34.26
-42.1
-51.76
-63.47
-77.08
-91.72
-105.59
-115.96
-119.92
-115.14
-100.9
-78.37
-50.34
-20.39
8.15
32.92
52.71
67.18
76.51
81.03
81.15
77.51
71.04
62.95
54.51
46.87
40.7
36.18
32.94
30.33
27.59
24.22
20.05
15.23
10.11
4.98
-0.07
-5.24
-10.91
-17.43
-25.18
-34.4
-45.33
-57.96
-71.85
-85.73
-97.38
-104.04
-103.12
-93.2
-74.64
-49.59
-21.38
6.57
31.6
52.21
67.96
78.94
85.27
87.05
84.48
78.19
69.34
59.49
50.18
42.46
36.63
32.25
28.41
24.17
18.94
12.66
5.71
-1.29
-7.86
-13.78
-19.25
-24.72
-30.76
-37.98
-46.88
-57.74
-70.45
-84.18
-97.21
-107.07
-111.06
-107.04
-94.25
-73.67
-47.77
-19.82
7.07
30.55
49.26
62.69
70.83
73.92
72.47
67.28
59.51
50.53
41.73
34.18
28.38
24.17
20.84
17.54
13.57
8.71
3.23
-2.29
-7.33
-11.72
-15.77
-20.24
-26.03
-33.94
-44.44
-57.45
-72.13
-86.84
-99.22
-106.51
-106.36
-97.57
-80.57
-57.41
-31.09
-4.71
19.39
39.88
56.24
68.25
75.69
78.35
76.3
70.27
61.62
52.13
43.39
36.4
31.3
27.49
24.06
20.16
15.35
9.7
3.65
-2.19
-7.4
-11.93
-16.19
-20.93
-27.05
-35.33
-46.21
-59.55
-74.35
-88.69
-99.87
-105.01
-101.85
-89.59
-69.27
-43.54
-15.82
10.74
33.98
52.84
67.12
76.91
82.27
83.22
80.04
73.47
64.8
55.61
47.36
40.98
36.64
33.77
31.34
28.29
23.93
18.18
11.52
4.7
-1.65
-7.36
-12.82
-18.76
-25.95
-35
-46.14
-59.23
-73.58
-87.79
-99.77
-106.9
-106.71
-97.7
-80.07
-55.79
-28.09
-0.48
24.25
44.5
59.76
70.15
75.95
77.4
74.88
69.1
61.2
52.63
44.68
38.18
33.22
29.36
25.86
22.08
17.66
12.6
7.22
1.88
-3.19
-7.96
-12.69
-17.77
-23.67
-30.83
-39.66
-50.5
-63.44
-77.96
-92.64
-105.09
-112.37
-111.87
-102.21
-83.93
-59.33
-31.78
-4.59
19.83
40.18
56.08
67.41
74.07
75.94
73.27
66.89
58.24
49.01
40.64
33.95
28.95
25.09
21.58
17.74
13.3
8.37
3.31
-1.54
-5.96
-10.08
-14.3
-19.18
-25.25
-32.91
-42.44
-53.92
-67.04
-80.85
-93.6
-102.77
-105.72
-100.47
-86.53
-65.22
-39.28
-12.07
13.49
35.49
53.09
66.1
74.48
78.14
77.09
71.88
63.71
54.32
45.53
38.55
33.65
30.15
26.87
22.75
17.33
10.87
4.14
-2.07
-7.36
-11.93
-16.43
-21.74
-28.74
-38.03
-49.9
-64.11
-79.62
-94.55
-106.17
-111.63
-108.64
-96.42
-76
-49.99
-21.76
5.54
29.63
49.29
64.07
73.86
78.57
78.28
73.5
65.28
55.34
45.5
37.23
31.08
26.7
23.04
18.99
13.87
7.73
1.2
-4.92
-10.09
-14.4
-18.52
-23.48
-30.35
-39.96
-52.63
-67.91
-84.43
-99.88
-111.3
-115.8
-111.4
-97.73
-76.24
-49.73
-21.53
5.49
29.38
49.15
64.31
74.56
79.58
79.33
74.34
65.94
56.03
46.56
38.92
33.52
29.82
26.68
23
18.16
12.24
5.89
-0.15
-5.4
-9.96
-14.43
-19.78
-26.99
-36.88
-49.79
-65.41
-82.45
-98.6
-110.76
-115.75
-111.26
-96.72
-73.6
-44.97
-14.52
14.49
39.94
60.84
76.95
88.18
94.37
95.41
91.6
84.02
74.38
64.64
56.37
50.22
45.84
42.09
37.72
31.84
24.35
15.79
7.03
-1.21
-8.69
-15.71
-22.97
-31.2
-41.03
-52.86
-66.76
-82.26
-98.06
-111.91
-120.84
-121.95
-113.32
-94.89
-68.58
-37.79
-6.24
22.97
47.89
67.69
82.09
91
94.37
92.47
86.16
76.92
66.64
57.07
49.36
43.83
40.05
37.13
34.11
30.31
25.45
19.67
13.39
7.1
1.06
-4.77
-10.79
-17.69
-26.26
-37.24
-51
-67.22
-84.51
-100.42
-111.68
-115.04
-108.36
-91.3
-65.69
-34.88
-2.74
27.37
53.26
73.83
88.69
97.64
100.68
98.1
90.84
80.55
69.3
59.01
50.86
45.05
40.82
37.01
32.54
26.91
20.32
13.46
7.13
1.74
-2.88
-7.47
-13.1
-20.82
-31.38
-45
-61.18
-78.45
-94.37
-105.79
-109.57
-103.52
-87.28
-62.6
-32.81
-1.83
27.02
51.67
71.3
85.76
95.04
99.02
97.71
91.66
82.18
71.22
60.75
52.18
45.89
41.28
37.17
32.42
26.43
19.34
11.84
4.7
-1.6
-7.17
-12.69
-19.2
-27.75
-39.14
-53.62
-70.58
-88.29
-104.07
-114.63
-116.9
-108.97
-90.69
-63.89
-31.81
1.76
33.41
60.75
82.43
97.92
107.15
110.32
107.9
100.83
90.58
79
67.93
58.79
52.09
47.45
43.81
39.98
35.12
28.97
21.91
14.52
7.31
0.38
-6.52
-13.96
-22.6
-33.1
-46.03
-61.53
-78.97
-96.53
-111.27
-119.61
-118.44
-106.28
-83.93
-54.36
-21.64
10.29
38.67
62.13
80.31
93.22
100.71
102.67
99.25
91.4
80.81
69.61
59.7
52.13
46.92
43.13
39.47
34.79
28.65
21.28
13.45
5.95
-0.79
-6.82
-12.7
-19.12
-26.79
-36.23
-47.84
-61.82
-77.85
-94.73
-110.08
-120.58
-122.8
-114.37
-95.01
-66.78
-33.54
0.3
31.03
56.39
75.58
88.69
96.11
98.19
95.35
88.31
78.39
67.36
57.02
48.72
42.91
39.07
35.97
32.26
27.03
20.15
12.22
4.22
-3.01
-9.22
-14.8
-20.69
-27.93
-37.38
-49.42
-63.86
-79.76
-95.33
-108.13
-115.27
-114.27
-103.69
-83.85
-56.79
-25.78
5.62
34.41
58.6
77.24
89.97
96.74
97.68
93.29
84.58
73.19
61.12
50.21
41.62
35.5
31.05
26.97
22.08
15.83
8.44
0.69
-6.53
-12.78
-18.25
-23.73
-30.34
-39.14
-50.82
-65.52
-82.43
-99.78
-114.69
-123.81
-124.12
-113.95
-93.72
-65.9
-34.27
-2.71
25.81
49.62
68.15
81.28
88.93
90.97
87.61
79.81
69.39
58.61
49.42
42.77
38.34
34.85
30.7
24.89
17.4
9.12
1.31
-5.14
-10.14
-14.54
-19.65
-26.85
-37.09
-50.66
-67.06
-84.8
-101.47
-113.9
-118.9
-114.09
-98.91
-74.84
-45.07
-13.49
16.47
42.48
63.42
78.86
88.7
92.87
91.61
85.8
76.95
67.04
57.87
50.55
45.22
41.13
37.14
32.18
25.79
18.16
10.01
2.2
-4.72
-10.81
-16.8
-23.85
-33.18
-45.64
-61.34
-79.31
-97.46
-112.77
-121.9
-122.11
-112.06
-92.4
-65.56
-35.08
-4.5
23.46
47.22
66.08
79.69
87.74
89.97
86.62
78.74
68.22
57.39
48.18
41.53
37.16
33.84
30.1
24.96
18.33
10.94
3.86
-2.11
-6.84
-11
-15.68
-22.13
-31.32
-43.72
-59.1
-76.32
-93.26
-106.9
-114
-111.96
-99.78
-78.53
-51.08
-21.2
7.6
32.86
53.39
68.85
79.24
84.53
84.79
80.52
72.88
63.63
54.62
47.23
41.96
38.35
35.36
31.92
27.39
21.81
15.69
9.74
4.43
-0.24
-4.82
-10.16
-17.28
-26.98
-39.66
-54.94
-71.47
-86.83
-97.96
-101.9
-96.65
-81.87
-59
-30.83
-0.68
28.42
54.2
75.17
90.35
99.13
101.27
97.1
87.78
75.28
61.95
49.97
40.68
34.27
29.93
26.23
21.91
16.28
9.45
2.12
-4.93
-11.21
-16.87
-22.55
-29.25
-37.96
-49.42
-63.9
-80.92
-98.96
-115.39
-126.83
-129.87
-122.21
-103.62
-76.15
-43.6
-10.38
19.9
45.13
64.77
79.16
88.75
93.6
93.55
88.72
80
69.13
58.27
49.3
43.19
39.69
37.62
35.44
31.88
26.46
19.51
11.88
4.48
-2.22
-8.35
-14.54
-21.61
-30.31
-41.15
-54.42
-70.11
-87.61
-105.4
-120.8
-130.37
-130.78
-120.02
-98.34
-68.31
-34.08
-0.04
30.38
55.31
74.25
87.53
95.65
99.02
98.13
93.67
86.8
78.79
70.87
63.81
57.91
53
48.65
44.39
39.76
34.42
28.19
21.05
13.2
4.92
-3.49
-11.87
-20.27
-28.98
-38.39
-49.03
-61.43
-76.08
-92.99
-111.24
-128.65
-141.82
-146.95
-141.06
-123.17
-94.9
-60.02
-23.31
10.93
39.84
62.32
78.56
89.36
95.51
97.64
96.33
92.24
86.26
79.36
72.39
65.91
60.18
55.15
50.66
46.42
42.06
37.24
31.57
24.86
17.06
8.32
-1.03
-10.68
-20.36
-30.02
-39.76
-50.01
-61.42
-74.64
-89.87
-106.24
-121.53
-132.32
-134.97
-126.84
-107.42
-78.75
-44.75
-10.01
21.61
47.84
67.99
82.39
91.62
96.09
96.02
91.82
84.35
75.02
65.47
57.17
50.93
46.74
43.94
41.47
38.32
33.83
27.82
20.53
12.45
4.08
-4.28
-12.57
-20.98
-29.79
-39.34
-50.08
-62.5
-77.07
-93.67
-111.13
-126.86
-137.17
-138.29
-127.76
-105.51
-74.03
-37.66
-1.08
31.92
59.26
80.36
95.55
105.37
110.23
110.56
106.94
100.38
92.16
83.59
75.75
69.24
64.1
59.96
56.19
52.1
47.21
41.29
34.4
26.73
18.47
9.71
0.32
-9.93
-21.32
-34.07
-48.47
-64.73
-82.9
-102.49
-121.93
-138.49
-148.58
-148.82
-137.17
-114
-82.13
-46.03
-10.46
20.93
46.28
65.42
79.1
88.17
93.13
94.18
91.55
85.86
78.19
69.89
62.14
55.66
50.59
46.55
42.88
38.87
33.98
27.99
20.95
13.22
5.21
-2.76
-10.6
-18.55
-27.05
-36.68
-48.01
-61.51
-77.3
-94.69
-111.95
-126.11
-133.58
-131.18
-117.3
-92.71
-60.47
-24.95
9.46
39.53
63.66
81.57
93.7
100.69
103.11
101.52
96.66
89.45
80.94
72.16
63.89
56.64
50.49
45.19
40.25
35.07
29.22
22.55
15.21
7.54
-0.15
-7.68
-15.16
-22.85
-31.09
-40.27
-50.79
-63.13
-77.61
-93.99
-111.02
-126.2
-136.11
-137.31
-127.55
-106.68
-76.95
-42.34
-7.3
24.47
50.78
71
85.43
94.71
99.34
99.71
96.33
90.04
82.04
73.59
65.75
59.07
53.53
48.73
44.09
39.09
33.41
27.01
20.01
12.69
5.26
-2.2
-9.77
-17.72
-26.34
-35.95
-46.86
-59.38
-73.63
-89.2
-104.8
-118.03
-125.76
-124.94
-113.82
-92.7
-64.04
-31.78
-0.04
28.01
50.71
67.69
79.33
86.07
88.17
85.92
79.87
71.09
61.08
51.39
43.2
36.98
32.49
28.9
25.24
20.73
15.07
8.46
1.46
-5.38
-11.74
-17.75
-23.95
-31.03
-39.69
-50.46
-63.62
-79.05
-95.9
-112.37
-125.68
-132.6
-130.34
-117.63
-95.33
-66.28
-34.39
-3.41
23.96
46.41
63.64
75.76
82.85
84.99
82.49
76.25
67.76
58.77
50.74
44.4
39.58
35.41
30.84
25.22
18.44
11.08
3.9
-2.46
-7.87
-12.76
-17.94
-24.44
-33.16
-44.79
-59.55
-76.9
-95.26
-111.95
-123.62
-127.15
-120.65
-104.19
-79.79
-50.72
-20.44
8.31
33.86
55.32
72.16
83.81
89.77
89.98
85.2
77.06
67.62
58.73
51.39
45.58
40.47
35.05
28.61
21.12
13.18
5.59
-1.05
-6.78
-12.17
-18.22
-25.91
-36.04
-48.91
-64.29
-81.21
-97.79
-111.36
-118.86
-117.7
-106.6
-86.21
-59.02
-28.58
1.54
28.66
51.37
69.22
82.16
90.13
92.96
90.78
84.34
75.09
64.95
55.59
47.95
41.96
36.75
31.28
24.86
17.53
9.96
3.01
-2.83
-7.8
-12.77
-19.04
-27.76
-39.63
-54.56
-71.57
-88.72
-103.29
-112.25
-112.91
-103.84
-85.37
-59.67
-30.11
-0.23
27.14
50.32
68.58
81.71
89.57
92.04
89.33
82.3
72.51
61.88
52.1
44
37.45
31.54
25.24
17.95
9.86
1.77
-5.37
-10.99
-15.39
-19.57
-24.99
-32.95
-44.25
-58.8
-75.57
-92.62
-107.29
-116.62
-118.03
-110.04
-92.83
-68.27
-39.41
-9.6
18.31
42.45
61.81
75.97
84.71
87.97
86.08
79.97
71.22
61.7
53.05
46.11
40.77
36.15
31.14
25.05
17.85
10.25
3.13
-2.89
-7.9
-12.7
-18.52
-26.66
-37.95
-52.54
-69.49
-86.79
-101.51
-110.37
-110.68
-101.13
-82.32
-56.59
-27.27
2.35
29.74
53.38
72.46
86.38
94.66
97.02
93.84
86.37
76.6
66.55
57.68
50.42
44.23
38.08
31.1
23.09
14.45
6
-1.6
-8.17
-14.1
-20.26
-27.68
-37.35
-49.85
-65.04
-81.81
-97.86
-110.13
-115.39
-111.35
-97.37
-74.8
-46.54
-16.08
13.46
40.02
62.51
80.51
93.64
101.5
103.79
100.7
93.26
83.18
72.44
62.59
54.33
47.34
40.71
33.51
25.35
16.58
8.04
0.58
-5.46
-10.48
-15.49
-21.75
-30.38
-42.09
-56.92
-74.14
-91.98
-107.7
-118
-119.79
-111.29
-92.63
-65.97
-34.8
-2.82
27.01
52.84
73.81
89.58
99.87
104.57
103.86
98.5
89.85
79.62
69.37
60.21
52.55
46.16
40.44
34.66
28.32
21.32
13.86
6.39
-0.73
-7.38
-13.76
-20.3
-27.49
-35.87
-45.9
-57.98
-72.2
-88.01
-103.84
-117.12
-124.72
-123.81
-112.89
-92.34
-64.46
-32.71
-0.75
28.52
53.31
72.87
87.09
96.03
99.92
99.09
94.25
86.48
77.14
67.53
58.6
50.88
44.38
38.9
34.07
29.63
25.32
20.93
16.22
10.95
4.98
-1.71
-8.95
-16.53
-24.22
-32
-40.14
-49.29
-60.33
-73.87
-89.79
-106.53
-121.19
-130.07
-129.78
-118.54
-96.91
-67.69
-34.93
-2.67
26.22
50.33
69.32
83.32
92.35
96.25
95.06
89.37
80.48
70.13
59.99
51.2
44.14
38.47
33.49
28.53
23.19
17.42
11.42
5.45
-0.36
-6.11
-12.07
-18.53
-25.81
-34.18
-43.98
-55.62
-69.25
-84.44
-99.67
-112.32
-119.18
-117.47
-105.81
-84.91
-57.31
-26.53
4.01
31.78
55.31
73.88
87.08
94.56
96.21
92.46
84.49
74.1
63.3
53.64
45.85
39.64
34.08
28.15
21.2
13.28
5.06
-2.62
-9.15
-14.49
-19.24
-24.4
-30.98
-39.8
-51.26
-65.26
-81.08
-97.17
-111.2
-120.26
-121.6
-113.48
-95.86
-70.56
-40.69
-9.79
19.2
44.41
65.02
80.76
91.57
97.28
97.91
93.92
86.34
76.73
66.7
57.55
49.88
43.57
37.99
32.31
25.89
18.51
10.4
2.08
-5.88
-13.15
-19.76
-26.13
-32.89
-40.75
-50.38
-62.27
-76.52
-92.47
-108.4
-121.59
-128.75
-127.02
-114.93
-93.08
-63.99
-31.36
1.07
30.4
54.96
74.1
87.71
95.86
98.69
96.61
90.51
81.74
71.88
62.3
53.82
46.57
40.22
34.23
28.19
22
15.72
9.51
3.41
-2.63
-8.78
-15.21
-22.09
-29.71
-38.43
-48.82
-61.33
-76.08
-92.3
-108.16
-120.85
-127.19
-124.58
-111.87
-89.91
-61.23
-29.42
1.95
30.16
53.53
71.4
83.67
90.53
92.28
89.53
83.21
74.6
65.08
55.84
47.67
40.76
34.85
29.44
24.03
18.39
12.51
6.63
0.99
-4.28
-9.26
-14.25
-19.68
-26.06
-33.82
-43.42
-55.2
-69.3
-85.28
-101.74
-116.19
-125.39
-126.17
-116.52
-96.51
-68.36
-35.84
-2.99
26.94
52.09
71.88
86.3
95.48
99.36
98.04
92.13
82.94
72.26
61.88
53.05
46.11
40.65
35.73
30.53
24.58
17.91
10.94
4.15
-2.14
-7.96
-13.59
-19.51
-26.22
-34.22
-44
-55.89
-69.9
-85.26
-100.19
-111.95
-117.47
-114.26
-101.33
-79.68
-51.95
-21.65
7.95
34.41
56.43
73.39
84.98
90.93
91.14
86.05
76.83
65.33
53.6
43.28
35.17
29
23.88
18.66
12.59
5.53
-2.02
-9.26
-15.52
-20.53
-24.73
-28.97
-34.39
-41.98
-52.37
-65.51
-80.5
-95.55
-108.07
-115.14
-114.24
-104.01
-84.7
-58.25
-27.72
3.53
32.55
57.27
76.48
89.61
96.56
97.64
93.66
85.94
76.24
66.26
57.27
49.75
43.37
37.29
30.66
23.04
14.64
6.18
-1.54
-8.04
-13.51
-18.68
-24.7
-32.69
-43.5
-57.42
-73.83
-91.14
-106.68
-117.22
-119.67
-112.09
-94.41
-68.51
-37.69
-5.61
24.65
51.13
72.87
89.49
100.71
106.26
106.11
100.82
91.68
80.52
69.18
59
50.4
43.03
36.04
28.74
20.91
12.9
5.34
-1.23
-6.8
-11.96
-17.72
-25.25
-35.47
-48.87
-65.18
-83.18
-100.64
-114.49
-121.47
-119.06
-106.3
-84.2
-55.52
-23.89
7.23
35.29
58.86
77.38
90.65
98.51
100.89
98.08
90.9
80.78
69.45
58.58
49.27
41.9
36.04
30.84
25.45
19.33
12.54
5.5
-1.17
-7.13
-12.51
-17.92
-24.35
-32.86
-44.29
-58.9
-76.01
-93.71
-109.03
-118.49
-118.99
-108.95
-88.89
-61.32
-29.88
1.75
30.78
55.67
75.72
90.59
99.89
103.27
100.77
93.21
82.26
70.11
58.9
50.05
44.04
40.28
37.56
34.54
30.24
24.37
17.24
9.58
2.09
-4.87
-11.4
-17.94
-25.19
-33.93
-44.97
-58.89
-75.61
-93.94
-111.33
-124.16
-128.71
-122.35
-104.64
-77.56
-44.87
-10.89
20.76
47.81
69.32
85.09
95.13
99.35
97.88
91.3
81
68.92
57.08
47.04
39.39
33.78
29.18
24.52
19.05
12.7
5.95
-0.51
-6.16
-11
-15.51
-20.59
-27.09
-35.73
-46.86
-60.46
-76.01
-92.26
-107.09
-117.66
-120.99
-114.92
-98.89
-74.37
-44.36
-12.53
17.82
44.36
65.77
81.37
90.79
93.87
90.85
82.73
71.28
58.75
47.25
38.18
31.84
27.59
24.18
20.42
15.61
9.71
3.24
-3.13
-8.93
-14.13
-19.2
-24.9
-32.18
-41.83
-54.31
-69.28
-85.41
-100.17
-110.3
-112.66
-105.25
-87.96
-62.69
-32.74
-1.75
27.25
52.24
72.13
86.38
94.62
96.73
93.07
84.76
73.66
61.95
51.45
43.05
36.56
30.96
25.02
18.01
10.01
1.79
-5.65
-11.7
-16.49
-20.88
-26.1
-33.34
-43.41
-56.56
-72.29
-89.21
-104.94
-116.41
-120.47
-114.89
-99.1
-74.62
-44.53
-12.58
17.88
44.5
66
81.87
91.91
96.08
94.66
88.41
78.74
67.46
56.35
46.7
38.96
32.78
27.31
21.7
15.52
8.91
2.43
-3.35
-8.25
-12.68
-17.53
-23.87
-32.72
-44.62
-59.5
-76.32
-93.03
-106.69
-114.04
-112.42
-100.66
-79.64
-52.01
-21.44
8.57
35.41
57.61
74.51
85.83
91.38
91.21
85.93
76.92
66.16
55.66
46.86
40.12
34.77
29.64
23.65
16.52
8.75
1.36
-4.71
-9.2
-12.67
-16.29
-21.38
-29
-39.72
-53.48
-69.49
-86.1
-100.82
-110.54
-112.35
-104.34
-86.44
-60.57
-30.11
1.11
29.92
54.26
73.26
86.71
94.58
96.9
93.88
86.31
75.65
63.92
53.09
44.54
38.6
34.51
30.94
26.51
20.54
13.13
5.14
-2.43
-8.92
-14.35
-19.49
-25.45
-33.43
-44.21
-57.86
-73.47
-89.13
-102.08
-109.23
-108.03
-97.24
-77.42
-50.79
-20.62
9.75
37.61
61.17
79.41
91.74
97.86
97.81
92.24
82.58
70.86
59.21
49.3
41.83
36.49
32.25
27.92
22.69
16.4
9.47
2.61
-3.62
-9.05
-14.06
-19.33
-25.71
-33.96
-44.6
-57.74
-72.76
-88.13
-101.36
-109.41
-109.44
-99.82
-80.78
-54.43
-24.24
6.14
33.7
56.6
74.02
85.7
91.62
