1626691435.00
64.000000
-0.00
-0.00
-0.00
-0.00
-0.00
-0.00
-0.00
-0.00
-0.00
-0.00
0.00
0.01
0.01
-0.00
-0.03
-0.05
-0.05
0.00
0.13
0.36
0.66
1.01
1.37
1.72
2.06
2.40
2.79
3.24
3.80
4.42
5.06
5.66
6.20
6.68
7.15
7.68
8.31
9.14
10.09
11.04
11.88
12.56
13.14
13.76
14.65
15.96
17.91
20.32
22.90
25.38
27.58
29.57
31.68
34.32
37.81
42.54
48.15
54.10
59.83
64.97
69.58
74.14
79.34
85.71
93.76
103.00
112.62
121.73
129.77
136.75
143.30
150.75
157.77
166.64
177.95
191.79
206.97
220.57
228.25
225.36
208.53
176.87
132.76
80.05
23.07
-34.94
-92.44
-149.16
-205.23
-260.37
-313.74
-363.87
-409.83
-450.91
-486.50
-515.74
-537.23
-549.22
-549.96
-538.37
-514.21
-478.67
-433.88
-382.45
-327.02
-269.84
-212.63
-156.66
-102.95
-52.37
-5.90
35.58
71.43
101.35
125.50
144.38
158.69
169.15
176.37
180.75
182.57
182.07
179.51
175.23
169.65
163.18
156.15
148.81
141.30
133.69
126.02
118.33
110.69
103.16
95.80
88.68
81.83
75.25
68.95
62.95
57.25
51.86
46.78
42.03
37.59
33.45
29.61
26.07
22.81
19.83
17.11
14.67
12.48
10.54
8.83
7.35
6.07
4.97
4.05
3.27
2.62
2.09
1.65
1.30
1.01
0.79
0.61
0.47
0.37
0.28
0.23
0.18
0.15
0.13
0.13
0.13
0.14
0.16
0.18
0.21
0.25
0.29
0.33
0.37
0.41
0.46
0.51
0.56
0.61
0.66
0.72
0.78
0.84
0.91
0.99
1.08
1.18
1.29
1.41
1.55
1.70
1.87
2.07
2.28
2.51
2.77
3.06
3.38
3.73
4.10
4.52
4.97
5.46
5.98
6.54
7.15
7.79
8.49
9.22
10.00
10.83
11.70
12.61
13.56
14.59
15.68
16.85
18.07
19.35
20.62
21.82
22.88
23.71
24.23
24.33
23.94
22.95
21.29
18.89
15.76
11.92
7.53
2.81
-1.99
-6.62
-10.86
-14.57
-17.68
-20.17
-22.06
-23.32
-23.96
-23.96
-23.36
-22.28
-20.95
-19.62
-18.56
-17.90
-17.58
-17.44
-17.19
-16.62
-15.70
-14.63
-13.76
-13.44
-13.88
-14.94
-16.23
-17.24
-17.58
-17.19
-16.44
-15.96
-16.39
-18.04
-20.74
-23.85
-26.62
-28.45
-29.20
-29.27
-29.35
-30.22
-32.55
-36.77
-42.99
-50.65
-58.24
-63.46
-63.60
-56.74
-42.68
-23.34
-2.26
16.69
30.72
38.85
41.88
41.40
38.96
35.48
31.29
26.75
22.35
18.72
16.41
15.58
15.91
16.60
16.61
15.11
11.77
6.97
1.84
-2.14
-3.63
-2.03
2.22
7.89
13.48
17.87
20.64
22.07
22.80
23.40
24.12
24.77
24.99
24.46
23.12
21.24
19.29
17.76
16.92
16.73
16.85
16.85
16.49
15.81
15.20
15.07
15.51
16.22
16.52
15.79
13.80
10.90
7.89
5.60
4.48
4.34
4.51
4.13
2.64
-0.01
-3.29
-6.48
-8.93
-10.41
-11.04
-11.27
-11.54
-12.19
-13.46
-15.52
-18.52
-22.43
-26.84
-30.89
-33.40
-33.27
-29.95
-23.72
-15.64
-7.12
0.57
6.69
11.00
13.68
15.11
15.67
15.69
15.36
14.78
13.98
12.94
11.74
10.62
9.93
9.95
10.70
11.84
12.79
13.07
12.58
11.68
10.96
10.92
11.59
12.52
12.99
12.37
10.48
7.65
4.57
1.90
0.00
-1.24
-2.21
-3.37
-4.93
-6.78
-8.63
-10.20
-11.41
-12.48
-13.66
-15.06
-16.55
-17.82
-18.71
-19.40
-20.40
-22.27
-25.14
-28.42
-30.97
-31.56
-29.42
-24.73
-18.44
-11.81
-5.87
-0.98
3.04
6.61
9.95
12.87
14.93
15.74
15.22
13.74
11.92
10.32
9.32
8.93
8.96
9.16
9.39
9.60
9.82
10.14
10.60
11.20
11.85
12.36
12.45
11.87
10.59
8.81
7.01
5.62
4.89
4.70
4.67
4.39
3.62
2.41
0.99
-0.41
-1.65
-2.74
-3.70
-4.46
-4.85
-4.74
-4.21
-3.59
-3.45
-4.43
-6.91
-10.77
-15.31
-19.44
-22.02
-22.26
-20.02
-15.76
-10.37
-4.74
0.49
5.00
8.78
11.86
14.29
15.99
16.80
16.61
15.43
13.41
10.89
8.32
6.15
4.65
3.90
3.70
3.75
3.79
3.72
3.68
3.88
4.45
5.31
6.12
6.46
6.03
4.86
3.27
1.73
0.62
-0.05
-0.58
-1.41
-2.84
-4.81
-6.98
-8.91
-10.31
-11.16
-11.74
-12.42
-13.49
-15.00
-16.83
-18.77
-20.76
-22.80
-24.94
-27.06
-28.76
-29.43
-28.47
-25.60
-20.93
-15.06
-8.80
-2.99
1.78
5.25
7.49
8.72
9.20
9.10
8.55
7.67
6.61
5.58
4.78
4.26
3.95
3.67
3.38
3.22
3.49
4.44
6.03
7.91
9.46
10.13
9.58
7.92
5.60
3.27
1.57
0.88
1.11
1.77
2.14
1.60
-0.03
-2.38
-4.73
-6.34
-6.87
-6.48
-5.82
-5.67
-6.68
-9.18
-13.12
-18.03
-23.07
-27.14
-29.18
-28.46
-24.90
-19.14
-12.33
-5.65
0.05
4.50
7.88
10.51
12.57
13.89
14.19
13.30
11.42
9.18
7.40
6.74
7.41
9.10
11.12
12.82
13.94
14.64
15.38
16.46
17.80
18.81
18.68
16.82
13.29
8.90
4.97
2.76
2.83
4.79
7.39
9.21
9.28
7.55
4.76
2.04
0.20
-0.59
-0.82
-1.20
-2.31
-4.36
-7.22
-10.63
-14.33
-17.96
-21.06
-23.03
-23.27
-21.52
-17.94
-13.13
-7.86
-2.84
1.54
5.16
8.08
10.41
12.16
13.30
13.74
13.46
12.54
11.18
9.69
8.43
7.64
7.40
7.59
7.94
8.15
8.10
7.82
7.49
7.25
7.12
6.98
6.67
6.15
5.54
5.09
4.90
4.81
4.29
2.63
-0.73
-5.84
-12.03
-18.15
-22.84
-25.16
-24.96
-22.86
-20.07
-17.91
-17.29
-18.57
-21.40
-24.96
-28.16
-29.98
-29.71
-27.12
-22.54
-16.60
-10.11
-3.74
2.06
7.04
11.04
13.93
15.58
16.05
15.56
14.47
13.17
11.83
10.42
8.82
7.03
5.21
3.71
2.80
2.51
2.61
2.73
2.67
2.55
2.70
3.44
4.78
6.36
7.65
8.27
8.29
8.14
8.35
9.16
10.30
11.18
11.16
9.98
7.85
5.36
3.16
1.68
1.02
0.94
1.12
1.17
0.71
-0.57
-2.89
-6.18
-10.05
-13.76
-16.40
-17.24
-15.95
-12.72
-8.12
-2.91
2.26
6.93
10.92
14.21
16.85
18.83
19.99
20.11
19.01
16.75
13.73
10.64
8.14
6.65
6.10
6.04
6.00
5.74
5.40
5.34
5.82
6.72
7.54
7.69
6.74
4.76
2.23
-0.16
-1.87
-2.73
-3.02
-3.29
-4.05
-5.52
-7.53
-9.60
-11.20
-12.04
-12.22
-12.16
-12.35
-13.17
-14.69
-16.74
-18.99
-21.16
-23.01
-24.28
-24.71
-23.99
-21.82
-18.17
-13.29
-7.81
-2.49
1.98
5.23
7.29
8.48
9.14
9.48
9.47
9.05
8.21
7.22
6.48
6.32
6.85
7.83
8.87
9.58
9.86
9.90
9.99
10.28
10.67
10.81
10.34
9.14
7.48
5.94
5.04
4.97
5.37
5.55
4.77
2.77
-0.12
-3.13
-5.42
-6.50
-6.48
-5.92
-5.49
-5.81
-7.20
-9.77
-13.42
-17.76
-22.10
-25.49
-27.03
-26.14
-22.91
-18.02
-12.43
-7.01
-2.20
1.90
5.45
8.56
11.18
13.16
14.37
14.78
14.48
13.74
12.93
12.37
12.27
12.61
13.07
13.30
13.04
12.30
11.38
10.60
10.05
9.48
8.49
6.78
4.43
1.91
-0.17
-1.39
-1.73
-1.48
-1.07
-0.85
-0.97
-1.48
-2.37
-3.66
-5.32
-7.21
-9.00
-10.30
-10.83
-10.61
-9.94
-9.42
-9.70
-11.26
-14.28
-18.45
-23.02
-26.96
-29.26
-29.23
-26.73
-22.17
-16.27
-9.88
-3.70
1.81
6.35
9.83
12.26
13.85
14.85
15.49
15.86
15.84
15.28
14.16
12.73
11.48
10.87
11.13
12.13
13.46
14.63
15.38
15.65
15.58
15.27
14.77
13.98
12.84
11.39
9.82
8.36
7.19
6.30
5.56
4.74
3.70
2.46
1.15
-0.07
-1.16
-2.20
-3.42
-4.94
-6.75
-8.67
-10.36
-11.62
-12.46
-13.19
-14.35
-16.44
-19.63
-23.57
-27.37
-29.87
-30.14
-27.86
-23.48
-17.96
-12.36
-7.46
-3.44
-0.09
2.92
5.74
8.33
10.44
11.85
12.50
12.42
11.80
10.91
10.08
9.60
9.67
10.19
10.85
11.26
11.20
10.74
10.21
9.96
10.09
10.34
10.26
9.42
7.79
5.73
3.87
2.71
2.31
2.28
1.99
0.89
-1.10
-3.60
-5.89
-7.29
-7.47
-6.54
-5.09
-3.86
-3.54
-4.55
-6.95
-10.44
-14.44
-18.18
-20.83
-21.79
-20.76
-17.85
-13.58
-8.61
-3.60
0.96
4.78
7.76
9.86
11.07
11.41
10.98
9.97
8.74
7.62
6.87
6.53
6.39
6.14
5.56
4.62
3.58
2.79
2.55
2.94
3.80
4.80
5.65
6.15
6.32
6.28
6.14
5.95
5.62
4.97
3.82
2.06
-0.26
-2.93
-5.58
-7.86
-9.54
-10.62
-11.25
-11.71
-12.17
-12.83
-13.84
-15.43
-17.85
-21.09
-24.73
-27.90
-29.51
-28.74
-25.46
-20.31
-14.45
-8.95
-4.46
-1.00
1.78
4.20
6.34
7.99
8.90
8.96
8.38
7.60
7.08
7.12
7.73
8.63
9.45
9.88
9.86
9.62
9.47
9.69
10.28
11.04
11.66
11.96
11.89
11.56
11.15
10.73
10.33
9.90
9.33
8.53
7.40
5.91
4.13
2.24
0.47
-0.97
-2.04
-2.89
-3.74
-4.84
-6.38
-8.42
-11.00
-14.02
-17.24
-20.23
-22.44
-23.34
-22.63
-20.38
-17.00
-13.08
-9.14
-5.47
-2.10
1.07
4.09
6.85
9.13
10.69
11.43
11.48
11.12
10.72
10.61
10.98
11.82
12.98
14.18
15.15
15.77
16.15
16.54
17.19
18.15
19.16
19.77
19.61
18.63
17.18
15.78
14.73
13.86
12.61
10.36
6.97
2.95
-0.74
-3.12
-3.76
-2.89
-1.31
0.13
0.87
0.74
-0.19
-1.91
-4.50
-7.98
-12.04
-15.92
-18.61
-19.35
-18.10
-15.59
-13.08
-11.62
-11.52
-12.11
-12.15
-10.50
-6.81
-1.80
3.16
6.68
8.09
7.62
6.25
5.08
4.84
5.68
7.24
8.97
10.36
11.06
10.94
9.95
8.17
5.82
3.32
1.16
-0.24
-0.70
-0.37
0.37
1.09
1.40
1.10
0.14
-1.32
-3.00
-4.55
-5.64
-6.08
-5.92
-5.43
-5.02
-5.10
-5.99
-7.76
-10.30
-13.29
-16.22
-18.47
-19.29
-18.08
-14.65
-9.34
-3.06
3.07
8.14
11.80
14.28
16.11
17.72
19.03
19.46
18.26
14.85
9.26
2.18
-5.25
-11.78
-16.41
-18.65
-18.60
-16.84
-14.20
-11.51
-9.36
-8.01
-7.41
-7.25
-7.15
-6.75
-5.90
-4.58
-2.95
-1.30
0.05
0.84
0.95
0.40
-0.62
-1.93
-3.48
-5.35
-7.78
-11.00
-15.03
-19.57
-24.00
-27.50
-29.39
-29.32
-27.39
-23.96
-19.52
-14.48
-9.14
-3.76
1.36
5.78
9.12
11.08
11.67
11.17
10.07
8.95
8.29
8.35
9.22
10.75
12.65
14.55
16.11
17.11
17.47
17.23
16.48
15.37
14.05
12.66
11.31
10.03
8.80
7.53
6.10
4.53
2.93
1.56
0.63
0.22
0.07
-0.39
-1.80
-4.70
-9.19
-14.75
-20.36
-24.74
-26.74
-25.79
-22.08
-16.52
-10.33
-4.57
0.16
3.86
6.84
9.42
11.68
13.43
14.45
14.73
14.56
14.44
14.79
15.75
17.14
18.61
19.87
20.86
21.69
22.58
23.65
24.87
25.98
26.62
26.40
25.09
22.77
19.82
16.86
14.49
13.07
12.60
12.67
12.72
12.22
10.94
8.92
6.35
3.45
0.37
-2.77
-5.74
-8.26
-10.05
-11.07
-11.72
-12.70
-14.73
-18.04
-22.14
-25.88
-27.87
-27.15
-23.58
-17.86
-11.14
-4.52
1.30
6.08
9.85
12.71
14.65
15.59
15.42
14.21
12.14
9.55
6.73
3.87
0.93
-2.34
-6.13
-10.41
-14.75
-18.41
-20.61
-20.82
-19.00
-15.58
-11.33
-7.01
-3.20
-0.13
2.22
4.14
5.94
7.82
9.64
11.06
11.59
10.99
9.36
7.11
4.71
2.35
-0.08
-2.82
-5.94
-9.08
-11.65
-13.06
-13.17
-12.34
-11.25
-10.49
-10.33
-10.73
-11.59
-12.97
-15.12
-18.24
-22.02
-25.55
-27.46
-26.53
-22.28
-15.26
-6.90
1.13
7.52
11.77
14.20
15.59
16.75
18.11
19.66
20.99
21.60
21.10
19.36
16.59
13.19
9.68
6.50
3.93
2.07
0.75
-0.32
-1.51
-3.05
-4.87
-6.56
-7.46
-6.93
-4.69
-0.95
3.52
7.69
10.68
12.09
12.16
11.61
11.24
11.58
12.69
14.25
15.75
16.81
17.26
17.06
16.13
14.21
11.04
6.52
1.00
-4.65
-9.38
-12.33
-13.40
-13.25
-13.06
-13.84
-15.94
-18.79
-21.13
-21.63
-19.48
-14.78
-8.40
-1.60
4.45
9.05
12.00
13.47
13.76
13.20
12.10
10.74
9.43
8.38
7.71
7.41
7.40
7.55
7.74
7.84
7.83
7.70
7.54
7.54
7.80
8.33
8.93
9.28
9.09
8.27
6.92
5.35
3.86
2.66
1.80
1.18
0.64
-0.08
-1.22
-3.00
-5.49
-8.48
-11.55
-14.20
-16.10
-17.22
-17.88
-18.46
-19.26
-20.36
-21.66
-23.06
-24.53
-26.03
-27.37
-28.17
-27.95
-26.31
-23.16
-18.83
-13.86
-8.87
-4.28
-0.28
3.12
5.98
8.27
9.81
10.40
9.87
8.33
6.18
4.05
2.59
2.16
2.79
4.12
5.63
6.92
7.79
8.19
8.17
7.69
6.75
5.42
3.99
2.89
2.53
3.08
4.35
5.85
6.96
7.22
6.49
4.91
2.82
0.54
-1.63
-3.49
-4.87
-5.66
-5.80
-5.34
-4.48
-3.52
-2.86
-2.93
-4.04
-6.28
-9.34
-12.50
-14.78
-15.31
-13.76
-10.43
-6.18
-1.98
1.58
4.42
6.84
9.13
11.21
12.70
13.12
12.25
10.35
8.04
5.91
4.28
3.08
2.01
0.88
-0.23
-0.95
-0.89
0.15
1.92
3.85
5.27
5.74
5.21
4.05
2.77
1.78
1.20
0.86
0.45
-0.25
-1.27
-2.36
-3.23
-3.63
-3.64
-3.60
-3.99
-5.21
-7.33
-10.06
-12.79
-14.93
-16.10
-16.34
-16.10
-16.11
-17.08
-19.41
-22.91
-26.87
-30.24
-32.01
-31.50
-28.50
-23.27
-16.32
-8.36
-0.15
7.55
14.00
18.63
21.23
21.98
21.45
20.33
19.26
18.58
18.42
18.71
19.26
19.90
20.32
20.16
19.15
17.16
14.39
11.22
8.13
5.44
3.13
1.01
-1.09
-3.13
-4.84
-5.92
-6.27
-6.12
-5.91
-6.06
-6.68
-7.53
-8.19
-8.37
-8.15
-7.98
-8.35
-9.51
-11.10
-12.36
-12.54
-11.47
-9.83
-8.94
-10.00
-13.28
-17.78
-21.57
-22.74
-20.44
-15.29
-8.95
-3.22
0.98
3.93
6.65
10.04
14.17
18.27
21.15
22.03
20.94
18.70
16.43
14.97
14.54
14.80
15.17
15.26
15.05
14.89
15.20
16.11
17.33
18.18
18.03
16.62
14.29
11.85
10.11
9.45
9.54
9.59
8.83
6.94
4.28
1.56
-0.62
-2.18
-3.53
-5.19
-7.36
-9.69
-11.44
-11.94
-11.09
-9.48
-8.19
-8.25
-10.12
-13.42
-17.07
-19.78
-20.59
-19.32
-16.50
-13.09
-9.87
-7.13
-4.65
-2.01
1.02
4.20
6.88
8.36
8.32
6.93
4.83
2.76
1.25
0.48
0.30
0.50
0.96
1.74
2.95
4.66
6.72
8.76
10.35
11.07
10.76
9.54
7.75
5.90
4.42
3.49
2.94
2.27
0.90
-1.60
-5.20
-9.36
-13.21
-15.79
-16.57
-15.58
-13.52
-11.48
-10.64
-11.78
-15.03
-19.78
-24.88
-28.95
-30.88
-30.11
-26.83
-21.81
-16.07
-10.58
-5.89
-2.09
1.10
4.02
6.82
9.24
10.74
10.80
9.27
6.52
3.39
0.83
-0.52
-0.52
0.45
1.82
3.11
4.16
5.03
5.88
6.70
7.37
7.63
7.26
6.10
4.16
1.55
-1.49
-4.63
-7.48
-9.70
-11.09
-11.67
-11.70
-11.56
-11.68
-12.40
-13.91
-16.25
-19.24
-22.50
-25.44
-27.37
-27.68
-26.05
-22.54
-17.60
-11.97
-6.43
-1.63
2.02
4.43
5.81
6.51
6.94
7.42
8.07
8.84
9.64
10.41
11.24
12.29
13.62
15.08
16.40
17.30
17.72
17.88
18.17
18.85
19.83
20.69
20.89
20.01
18.06
15.37
12.46
9.72
7.25
4.84
2.18
-0.87
-4.11
-7.11
-9.46
-11.05
-12.17
-13.33
-14.81
-16.44
-17.45
-16.91
-14.25
-9.63
-3.96
1.54
5.89
8.75
10.33
11.10
11.42
11.38
10.88
9.91
8.71
7.80
7.74
8.97
11.57
15.20
19.23
22.87
25.46
26.76
26.94
26.59
26.37
26.69
27.47
28.19
28.14
26.85
24.29
20.98
17.64
15.01
13.48
13.04
13.31
13.58
12.99
10.69
6.16
-0.54
-8.64
-16.85
-23.84
-28.87
-32.10
-34.43
-36.97
-40.27
-43.98
-46.88
-47.60
-45.31
-40.16
-33.24
-25.91
-19.28
-13.73
-9.01
-4.60
-0.16
4.25
8.23
11.27
13.08
13.60
13.10
11.98
10.63
9.40
8.51
8.09
8.23
8.95
10.21
11.87
13.64
15.14
15.98
15.91
15.00
13.55
12.08
11.02
10.63
10.84
11.35
11.81
11.93
11.66
11.15
10.59
10.07
9.44
8.40
6.68
4.26
1.41
-1.35
-3.59
-5.24
-6.63
-8.38
-10.98
-14.54
-18.73
-22.96
-26.61
-29.26
-30.63
-30.52
-28.78
-25.25
-20.03
-13.55
-6.58
-0.06
5.19
8.79
10.89
12.05
12.98
14.14
15.54
16.73
17.15
16.42
14.68
12.56
10.86
10.18
10.58
11.65
12.79
13.59
14.04
14.47
15.21
16.28
17.35
17.89
17.55
16.34
14.66
13.09
12.03
11.51
11.31
11.05
10.44
9.39
7.96
6.26
4.40
2.50
0.66
-1.02
-2.49
-3.76
-4.86
-5.82
-6.62
-7.34
-8.22
-9.70
-12.23
-15.97
-20.51
-24.84
-27.66
-27.97
-25.53
-20.94
-15.40
-10.13
-5.83
-2.57
0.08
2.54
5.00
7.28
8.96
9.68
9.37
8.33
7.07
6.12
5.86
6.34
7.34
8.52
9.54
10.27
10.76
11.18
11.66
12.16
12.59
12.81
12.78
12.54
12.18
11.68
10.94
9.81
8.24
6.36
4.50
3.00
2.07
1.63
1.38
0.91
-0.07
-1.60
-3.54
-5.59
-7.52
-9.23
-10.71
-11.99
-13.12
-14.19
-15.44
-17.27
-20.05
-23.83
-28.11
-31.88
-33.93
-33.36
-29.98
-24.48
-18.13
-12.22
-7.67
-4.67
-2.86
-1.67
-0.68
0.14
0.60
0.47
-0.19
-0.97
-1.35
-0.97
0.12
1.46
2.56
3.13
3.37
3.76
4.71
6.23
7.84
8.82
8.65
7.34
5.46
3.81
3.00
3.15
3.87
4.48
4.44
3.64
2.36
1.16
0.47
0.37
0.52
0.43
-0.30
-1.69
-3.45
-5.13
-6.44
-7.41
-8.22
-9.06
-9.96
-10.85
-11.73
-12.89
-14.77
-17.68
-21.37
-24.93
-27.06
-26.70
-23.53
-18.18
-11.85
-5.82
-0.86
2.87
5.62
7.73
9.34
10.31
10.40
9.48
7.66
5.34
3.02
1.21
0.23
0.11
0.64
1.51
2.47
3.45
4.54
5.87
7.41
8.90
9.98
10.34
9.96
9.10
8.14
7.42
7.05
6.89
6.69
6.29
5.74
5.36
5.44
6.12
7.15
7.99
7.95
6.55
3.75
0.02
-3.85
-6.98
-8.81
-9.22
-8.63
-7.88
-7.90
-9.46
-12.72
-17.18
-21.68
-24.86
-25.66
-23.75
-19.66
-14.41
-9.11
-4.40
-0.39
3.15
6.41
9.31
11.46
12.43
12.08
10.64
8.64
6.66
5.05
3.93
3.21
2.72
2.38
2.21
2.29
2.74
3.54
4.53
5.40
5.76
5.31
4.02
2.12
0.07
-1.63
-2.70
-3.22
-3.49
-3.89
-4.67
-5.81
-7.09
-8.25
-9.11
-9.62
-9.79
-9.61
-9.15
-8.57
-8.26
-8.82
-10.82
-14.42
-19.24
-24.28
-28.33
-30.28
-29.62
-26.43
-21.42
-15.62
-10.04
-5.40
-1.91
0.67
2.75
4.72
6.57
7.93
8.31
7.34
5.13
2.25
-0.51
-2.45
-3.21
-2.82
-1.61
0.06
1.82
3.36
4.41
4.80
4.57
3.95
3.27
2.83
2.64
2.38
1.53
-0.42
-3.63
-7.73
-11.81
-14.69
-15.30
-13.10
-8.40
-2.36
3.26
6.68
6.80
3.58
-1.89
-7.85
-12.64
-15.27
-15.72
-14.59
-12.68
-10.47
-8.04
-5.25
-2.09
1.08
3.66
5.04
4.91
3.44
1.16
-1.28
-3.33
-4.64
-5.04
-4.53
-3.27
-1.51
0.40
2.16
3.66
5.00
6.41
8.03
9.82
11.37
12.11
11.58
9.62
6.50
2.76
-0.93
-4.06
-6.30
-7.58
-8.13
-8.40
-9.00
-10.56
-13.36
-17.14
-21.09
-24.10
-25.16
-23.81
-20.24
-15.16
-9.42
-3.70
1.63
6.41
10.57
14.01
16.61
18.37
19.42
20.04
20.57
21.19
21.96
22.79
23.56
24.23
24.87
25.58
26.47
27.46
28.37
28.86
28.71
27.84
26.39
24.71
23.16
21.95
21.05
20.25
19.20
17.66
15.56
13.02
10.25
7.41
4.57
1.66
-1.36
-4.54
-7.90
-11.51
-15.54
-20.13
-25.16
-30.07
-33.87
-35.48
-34.12
-29.79
-23.22
-15.67
-8.36
-2.12
2.83
6.68
9.72
12.08
13.68
14.35
14.04
12.97
11.56
10.36
9.73
9.78
10.37
11.22
12.14
13.05
14.00
15.00
15.96
16.66
16.82
16.33
15.26
13.83
12.30
10.87
9.66
8.66
7.78
6.88
5.77
4.32
2.48
0.32
-2.03
-4.42
-6.73
-8.91
-10.92
-12.83
-14.81
-17.19
-20.33
-24.39
-29.05
-33.38
-36.07
-35.96
-32.57
-26.40
-18.76
-11.14
-4.63
0.47
4.50
8.06
11.49
14.73
17.34
18.90
19.31
18.81
17.91
17.08
16.58
16.43
16.48
16.64
16.93
17.48
18.38
19.61
21.00
22.28
23.19
23.62
23.63
23.34
22.84
22.12
21.06
19.46
17.25
14.50
11.47
8.48
5.82
3.65
1.90
0.43
-0.94
-2.38
-3.98
-5.82
-7.96
-10.40
-12.98
-15.44
-17.50
-19.10
-20.49
-22.13
-24.36
-27.10
-29.71
-31.18
-30.54
-27.32
-21.79
-14.77
-7.37
-0.57
5.06
9.34
12.38
14.54
16.13
17.45
18.55
19.36
19.66
19.25
18.14
16.59
15.08
14.09
13.91
14.49
15.50
16.54
17.28
17.60
17.54
17.13
16.36
15.14
13.43
11.39
9.29
7.46
6.06
4.92
3.66
1.97
-0.22
-2.60
-4.77
-6.40
-7.50
-8.35
-9.29
-10.53
-11.95
-13.29
-14.25
-14.67
-14.59
-14.33
-14.27
-14.80
-16.10
-18.06
-20.18
-21.70
-21.81
-20.00
-16.17
-10.81
-4.74
1.18
6.30
10.38
13.47
15.75
17.31
18.09
17.91
16.74
14.81
12.66
10.86
9.84
9.63
9.94
10.35
10.63
10.82
11.15
11.80
12.64
13.29
13.30
12.39
10.65
8.42
6.16
4.16
2.46
0.92
-0.66
-2.34
-4.02
-5.50
-6.54
-7.08
-7.31
-7.58
-8.27
-9.55
-11.36
-13.29
-14.86
-15.68
-15.64
-15.01
-14.43
-14.71
-16.56
-20.22
-25.22
-30.40
-34.20
-35.24
-32.87
-27.41
-20.02
-12.23
-5.34
-0.03
3.66
6.16
7.90
9.14
9.90
10.06
9.62
8.77
7.84
7.20
6.97
7.13
7.46
7.76
7.99
8.23
8.59
8.98
9.19
8.89
7.94
6.47
4.86
3.52
2.65
2.11
1.58
0.73
-0.56
-2.14
-3.69
-4.94
-5.70
-6.02
-6.03
-5.90
-5.80
-5.89
-6.25
-6.93
-7.84
-8.84
-9.73
-10.38
-10.82
-11.30
-12.17
-13.77
-16.16
-19.08
-21.89
-23.82
-24.19
-22.64
-19.26
-14.43
-8.69
-2.55
3.51
9.05
13.63
16.85
18.51
18.66
17.67
16.03
14.12
12.13
10.03
7.74
5.37
3.26
1.89
1.69
2.75
4.76
7.13
9.15
10.37
10.65
10.21
9.45
8.73
8.22
7.89
7.60
7.26
6.89
6.63
6.60
6.84
7.25
7.63
7.76
7.42
6.46
4.87
2.73
0.32
-1.99
-3.80
-4.82
-5.08
-4.94
-5.06
-6.18
-8.80
-12.95
-18.09
-23.24
-27.30
-29.41
-29.17
-26.72
-22.56
-17.40
-11.94
-6.82
-2.44
1.03
3.65
5.64
7.20
8.37
8.96
8.73
7.64
5.97
4.29
3.22
3.07
3.71
4.64
5.35
5.66
5.72
5.95
6.68
7.88
9.20
10.12
10.27
9.61
8.40
7.02
5.78
4.75
3.82
2.77
1.49
-0.01
-1.52
-2.86
-3.91
-4.76
-5.59
-6.65
-8.00
-9.55
-11.12
-12.65
-14.37
-16.66
-19.84
-23.81
-27.84
-30.74
-31.31
-28.88
-23.64
-16.54
-8.90
-1.91
3.78
8.07
11.20
13.45
14.92
15.54
15.19
13.91
12.00
9.98
8.36
7.46
7.29
7.57
7.95
8.18
8.18
8.01
7.81
7.63
7.46
7.25
6.93
6.44
5.65
4.41
2.61
0.26
-2.45
-5.17
-7.57
-9.43
-10.81
-11.94
-13.10
-14.42
-15.78
-16.86
-17.31
-16.87
-15.54
-13.54
-11.32
-9.47
-8.60
-9.23
-11.52
-15.22
-19.52
-23.31
-25.45
-25.17
-22.33
-17.41
-11.36
-5.21
0.28
4.65
7.83
9.95
11.21
11.83
11.96
11.73
11.28
10.71
10.16
9.75
9.65
9.97
10.80
12.10
13.67
15.20
16.45
17.27
17.79
18.24
18.78
19.35
19.58
18.99
17.30
14.66
11.56
8.71
6.61
5.34
4.61
3.96
3.02
1.69
0.08
-1.64
-3.35
-5.04
-6.75
-8.49
-10.20
-11.79
-13.25
-14.75
-16.58
-19.09
-22.38
-26.19
-29.79
-32.18
-32.46
-30.21
-25.65
-19.53
-12.87
-6.49
-0.89
3.82
7.71
10.92
13.53
15.51
16.81
17.38
17.25
16.53
15.50
14.58
14.19
14.61
15.83
17.53
19.23
20.52
21.24
21.45
21.34
20.99
20.37
19.41
18.07
16.41
14.64
12.92
11.37
10.01
8.82
7.82
6.94
6.10
5.07
3.66
1.83
-0.24
-2.16
-3.55
-4.19
-4.21
-3.96
-3.94
-4.56
-6.16
-8.99
-13.07
-18.15
-23.60
-28.41
-31.47
-31.97
-29.69
-25.15
-19.28
-13.15
-7.55
-2.87
0.80
3.64
5.73
7.14
7.80
7.63
6.66
5.04
3.16
1.45
0.29
-0.14
0.04
0.56
1.18
1.84
2.68
3.86
5.36
6.86
7.85
7.91
6.93
5.23
3.34
1.77
0.81
0.39
0.25
0.09
-0.29
-0.95
-1.87
-2.95
-4.07
-5.08
-5.82
-6.20
-6.28
-6.31
-6.69
-7.87
-10.20
-13.70
-17.98
-22.25
-25.45
-26.59
-25.13
-21.17
-15.48
-9.20
-3.40
1.30
4.84
7.55
9.81
11.78
13.37
14.33
14.51
14.01
13.12
12.26
11.75
11.85
12.59
13.88
15.53
17.27
18.77
19.84
20.38
20.50
20.39
20.21
19.97
19.55
18.76
17.49
15.80
13.91
12.07
10.44
9.04
7.74
6.34
4.74
2.87
0.75
-1.59
-4.14
-6.83
-9.56
-12.14
-14.38
-16.26
-17.99
-20.09
-23.10
-27.28
-32.23
-36.89
-39.79
-39.68
-36.13
-29.74
-21.88
-14.16
-7.77
-3.17
-0.15
1.87
3.41
4.75
5.88
6.67
7.00
6.84
6.34
5.74
5.37
5.50
6.23
7.42
8.77
9.96
10.77
11.21
11.44
11.65
11.95
12.29
12.46
12.28
11.59
10.38
8.77
6.94
5.12
3.50
2.20
1.20
0.42
-0.24
-0.91
-1.63
-2.47
-3.46
-4.64
-6.06
-7.71
-9.50
-11.28
-12.92
-14.35
-15.68
-17.18
-19.21
-21.97
-25.31
-28.61
-30.96
-31.45
-29.59
-25.55
-20.03
-13.99
-8.16
-2.90
1.84
6.23
10.33
13.91
16.57
17.97
18.05
17.05
15.41
13.57
11.83
10.34
9.14
8.29
7.88
8.00
8.67
9.72
10.81
11.56
11.69
11.15
10.08
8.83
7.67
6.82
6.31
6.07
5.96
5.82
5.58
5.22
4.81
4.45
4.22
4.11
3.99
3.69
3.11
2.29
1.35
0.42
-0.49
-1.57
-3.01
-4.86
-6.91
-8.85
-10.52
-12.15
-14.21
-17.08
-20.64
-24.11
-26.28
-26.07
-23.08
-17.75
-11.22
-4.67
1.05
5.72
9.62
13.12
16.39
19.21
21.09
21.60
20.62
18.53
16.12
14.21
13.36
13.57
14.36
14.99
14.84
13.74
11.92
9.94
8.36
7.47
7.25
7.37
7.35
6.74
5.28
3.04
0.33
-2.34
-4.47
-5.77
-6.25
-6.26
-6.27
-6.63
-7.35
-8.14
-8.50
-8.04
-6.67
-4.65
-2.44
-0.52
0.72
0.95
-0.03
-2.31
-5.68
-9.58
-13.13
-15.37
-15.62
-13.77
-10.25
-5.81
-1.24
2.82
6.03
8.15
9.07
8.71
7.12
4.62
1.67
-1.18
-3.51
-5.15
-6.14
-6.60
-6.56
-5.95
-4.67
-2.74
-0.40
1.90
3.71
4.75
5.07
4.98
4.92
5.20
5.83
6.57
6.99
6.81
6.00
4.80
3.64
2.83
2.39
2.04
1.35
0.02
-1.93
-4.11
-6.04
-7.32
-7.91
-8.09
-8.30
-9.00
-10.50
-12.97
-16.39
-20.55
-25.00
-29.05
-31.92
-32.95
-31.78
-28.56
-23.80
-18.26
-12.71
-7.74
-3.67
-0.55
1.79
3.61
5.11
6.35
7.22
7.54
7.19
6.30
5.22
4.47
4.47
5.34
6.84
8.48
9.78
10.52
10.83
11.01
11.38
11.96
12.55
12.77
12.41
11.52
10.43
9.51
8.97
8.76
8.65
8.34
7.62
6.45
4.91
3.09
1.11
-0.89
-2.70
-4.16
-5.20
-5.96
-6.77
-8.11
-10.43
-13.90
-18.31
-23.07
-27.38
-30.44
-31.68
-30.89
-28.22
-24.04
-18.86
-13.28
-7.91
-3.30
0.19
2.44
3.68
4.29
4.66
4.97
5.21
5.27
5.07
4.77
4.65
5.06
6.15
7.84
9.79
11.57
12.90
13.71
14.22
14.71
15.35
16.07
16.51
16.24
15.01
12.92
10.40
8.04
6.30
5.38
5.14
5.28
5.53
5.64
5.53
5.12
4.42
3.46
2.37
1.38
0.68
0.38
0.32
0.02
-1.13
-3.63
-7.52
-12.20
-16.55
-19.34
-19.76
-17.69
-13.75
-8.91
-4.06
0.30
4.10
7.50
10.60
13.29
15.23
16.14
15.92
14.80
13.23
11.73
10.69
10.21
10.17
10.29
10.34
10.18
9.76
9.07
8.03
6.46
4.26
1.49
-1.53
-4.32
-6.43
-7.61
-7.89
-7.53
-6.88
-6.24
-5.84
-5.82
-6.22
-7.01
-7.99
-8.79
-8.97
-8.19
-6.44
-4.14
-2.08
-1.15
-1.93
-4.44
-8.07
-11.76
-14.42
-15.25
-13.98
-10.77
-6.15
-0.80
4.60
9.41
13.16
15.52
16.44
16.09
14.81
12.92
10.70
8.30
5.80
3.35
1.13
-0.67
-1.92
-2.62
-2.88
-2.89
-2.79
-2.68
-2.54
-2.35
-2.12
-1.97
-2.10
-2.68
-3.73
-5.02
-6.10
-6.55
-6.16
-5.17
-4.14
-3.68
-4.16
-5.48
-7.11
-8.41
-8.98
-8.90
-8.64
-8.91
-10.27
-13.00
-16.90
-21.48
-26.07
-29.97
-32.56
-33.42
-32.40
-29.63
-25.52
-20.58
-15.37
-10.32
-5.73
-1.72
1.68
4.52
6.87
8.73
10.08
10.89
11.22
11.26
11.33
11.73
12.60
13.88
15.33
16.71
17.89
18.92
19.90
20.84
21.56
21.79
21.30
20.07
18.28
16.35
14.62
13.34
12.52
11.98
11.38
10.34
8.67
6.41
3.90
1.59
-0.15
-1.30
-2.16
-3.23
-4.98
-7.64
-11.18
-15.39
-19.92
-24.29
-27.92
-30.16
-30.45
-28.56
-24.71
-19.55
-13.99
-8.85
-4.69
-1.73
0.15
1.22
1.83
2.28
2.75
3.26
3.72
3.98
4.01
3.95
4.09
4.79
6.26
8.46
11.06
13.56
15.51
16.75
17.42
17.82
18.16
18.43
18.31
17.52
16.00
14.08
12.36
11.46
11.62
12.65
13.91
14.75
14.68
13.64
11.88
9.80
7.73
5.81
4.07
2.48
1.06
-0.15
-1.27
-2.62
-4.66
-7.77
-11.89
-16.43
-20.35
-22.57
-22.42
-19.86
-15.48
-10.22
-4.94
-0.21
3.75
6.99
9.62
11.73
13.27
14.15
14.26
13.65
12.52
11.25
10.17
9.46
9.01
8.56
7.84
6.82
5.77
5.09
5.07
5.66
6.51
7.14
7.18
6.53
5.33
3.89
2.46
1.29
0.52
0.21
0.30
0.58
0.73
0.46
-0.34
-1.55
-2.86
-3.93
-4.58
-4.82
-4.88
-5.12
-5.93
-7.70
-10.66
-14.77
-19.50
-23.93
-26.95
-27.69
-25.85
-21.80
-16.38
-10.54
-4.99
-0.14
3.90
7.09
9.42
10.90
11.62
11.82
11.84
12.00
12.50
13.38
14.57
15.95
17.39
18.79
20.06
21.09
21.82
22.26
22.44
22.40
22.11
21.51
20.51
19.13
17.42
15.50
13.46
11.29
8.93
6.38
3.70
1.06
-1.42
-3.71
-5.91
-8.20
-10.61
-13.09
-15.40
-17.30
-18.66
-19.56
-20.33
-21.42
-23.25
-25.97
-29.33
-32.67
-35.03
-35.48
-33.50
-29.14
-23.05
-16.24
-9.68
-4.08
0.30
3.54
5.94
7.76
9.12
10.04
10.43
10.28
9.72
8.99
8.42
8.27
8.66
9.48
10.53
11.53
12.27
12.71
12.91
12.99
13.05
13.09
13.09
12.96
12.66
12.18
11.50
10.68
9.71
8.63
7.49
6.40
5.46
4.69
4.04
3.36
2.51
1.46
0.21
-1.14
-2.55
-3.99
-5.46
-6.97
-8.59
-10.46
-12.77
-15.70
-19.16
-22.75
-25.76
-27.44
-27.25
-25.11
-21.39
-16.78
-11.96
-7.43
-3.46
-0.09
2.71
4.97
6.66
7.72
8.05
7.67
6.74
5.55
4.49
3.89
3.90
4.43
5.30
6.23
7.08
7.77
8.31
8.71
8.89
8.79
8.33
7.53
6.43
5.15
3.78
2.41
1.15
0.09
-0.68
-1.17
-1.48
-1.84
-2.50
-3.60
-5.11
-6.80
-8.39
-9.63
-10.46
-10.93
-11.14
-11.20
-11.22
-11.39
-11.95
-13.09
-14.74
-16.48
-17.57
-17.26
-15.10
-11.18
-6.12
-0.76
4.09
7.97
10.75
12.62
13.86
14.71
15.27
15.50
15.23
14.30
12.72
10.72
8.71
7.17
6.46
6.56
7.18
7.78
7.89
7.32
6.12
4.62
3.09
1.68
0.31
-1.18
-2.81
-4.36
-5.35
-5.34
-4.14
-2.09
0.01
1.26
1.06
-0.56
-2.91
-5.02
-6.07
-5.78
-4.46
-2.76
-1.45
-1.00
-1.64
-3.33
-5.90
-9.03
-12.27
-15.07
-16.84
-17.22
-16.14
-13.89
-10.94
-7.81
-4.91
-2.52
-0.75
0.40
0.97
1.03
0.67
-0.06
-1.04
-2.13
-3.04
-3.47
-3.16
-2.04
-0.29
1.71
3.57
5.06
6.21
7.22
8.26
9.37
10.36
10.97
11.02
10.55
9.78
9.03
8.48
8.13
7.82
7.37
6.63
5.65
4.52
3.39
2.34
1.36
0.37
-0.82
-2.52
-5.05
-8.59
-12.92
-17.44
-21.18
-23.22
-23.01
-20.62
-16.68
-12.07
-7.58
-3.75
-0.76
1.34
2.57
2.94
2.55
1.57
0.33
-0.88
-1.86
-2.56
-3.02
-3.26
-3.24
-2.90
-2.23
-1.31
-0.31
0.58
1.26
1.68
1.83
1.71
1.32
0.72
0.05
-0.53
-0.90
-1.07
-1.21
-1.53
-2.09
-2.82
-3.49
-3.95
-4.23
-4.55
-5.14
-6.08
-7.26
-8.49
-9.74
-11.25
-13.43
-16.54
-20.42
-24.34
-27.27
-28.22
-26.76
-23.13
-18.10
-12.72
-7.81
-3.86
-0.90
1.29
2.99
4.38
5.47
6.18
6.48
6.43
6.25
6.16
6.32
6.78
7.40
7.99
8.37
8.46
8.32
8.14
8.13
8.43
9.03
9.69
10.04
9.73
8.61
6.85
4.86
3.11
1.88
1.16
0.70
0.18
-0.54
-1.47
-2.53
-3.63
-4.82
-6.11
-7.40
-8.52
-9.36
-10.09
-11.16
-13.09
-16.06
-19.62
-22.72
-24.16
-23.08
-19.40
-13.78
-7.31
-1.00
4.44
8.68
11.66
13.48
14.31
14.47
14.29
14.06
13.87
13.64
13.24
12.64
11.99
11.53
11.44
11.69
12.13
12.55
12.84
13.04
13.27
13.54
13.70
13.46
12.56
10.95
8.85
6.72
5.04
4.04
3.60
3.27
2.52
0.99
-1.26
-3.77
-5.86
-6.99
-7.04
-6.41
-5.88
-6.27
-8.06
-11.18
-15.08
-18.89
-21.72
-23.00
-22.51
-20.39
-16.97
-12.69
-7.90
-2.98
1.68
5.67
8.57
10.06
10.11
9.01
7.26
5.51
4.19
3.53
3.46
3.81
4.45
5.29
6.38
7.66
9.07
10.47
11.72
12.79
13.66
14.38
14.92
15.18
15.13
14.74
14.06
13.17
12.12
10.88
9.37
7.54
5.39
3.01
0.55
-1.79
-3.81
-5.47
-6.87
-8.37
-10.46
-13.59
-17.90
-23.01
-28.06
-31.95
-33.76
-33.05
-29.98
-25.25
-19.74
-14.20
-9.17
-4.85
-1.29
1.52
3.59
4.95
5.71
6.02
6.07
6.04
6.05
6.21
6.54
7.11
7.92
8.96
10.13
11.26
12.18
12.72
12.83
12.52
11.84
10.85
9.59
8.11
6.48
4.85
3.39
2.24
1.41
0.71
-0.16
-1.51
-3.48
-6.00
-8.72
-11.22
-13.17
-14.43
-15.16
-15.69
-16.51
-18.02
-20.46
-23.68
-27.22
-30.28
-32.03
-31.80
-29.34
-24.90
-19.12
-12.83
-6.80
-1.55
2.69
5.99
8.56
10.62
12.29
13.55
14.32
14.53
14.26
13.79
13.46
13.61
14.33
15.50
16.79
17.81
18.33
18.26
17.68
16.70
15.41
13.82
11.95
9.85
7.60
5.35
3.26
1.41
-0.10
-1.19
-1.75
-1.76
-1.33
-0.72
-0.33
-0.49
-1.30
-2.66
-4.25
-5.72
-6.77
-7.25
-7.11
-6.53
-5.88
-5.74
-6.67
-8.99
-12.41
-16.00
-18.45
-18.56
-15.77
-10.42
-3.59
3.41
9.50
14.20
17.58
19.96
21.65
22.73
23.09
22.57
21.17
19.04
16.50
13.93
11.67
9.94
8.85
8.41
8.46
8.77
9.04
9.07
8.77
8.23
7.66
7.20
6.89
6.62
6.19
5.39
4.18
2.64
1.02
-0.40
-1.40
-1.89
-2.01
-1.99
-2.09
-2.45
-3.05
-3.73
-4.31
-4.68
-4.85
-4.91
-5.02
-5.31
-5.97
-7.24
-9.24
-11.96
-15.02
-17.70
-19.09
-18.43
-15.39
-10.26
-3.93
2.46
7.95
11.97
14.53
15.99
16.74
16.98
16.66
15.64
13.90
11.61
9.19
7.05
5.48
4.57
4.22
4.30
4.64
5.09
5.50
5.72
5.62
5.13
4.30
3.18
1.86
0.45
-0.89
-1.99
-2.71
-2.97
-2.88
-2.63
-2.39
-2.27
-2.22
-2.24
-2.36
-2.72
-3.45
-4.58
-5.99
-7.44
-8.69
-9.63
-10.31
-11.00
-12.06
-13.80
-16.39
-19.69
-23.19
-26.11
-27.69
-27.36
-25.03
-21.02
-15.94
-10.52
-5.35
-0.88
2.61
5.04
6.52
7.28
7.63
7.80
7.84
7.61
6.98
5.94
4.71
3.73
3.33
3.62
4.41
5.31
6.01
6.36
6.43
6.43
6.52
6.76
7.08
7.31
7.33
7.08
6.60
6.02
5.41
4.82
4.24
3.62
2.94
2.18
1.37
0.54
-0.29
-1.16
-2.13
-3.28
-4.64
-6.15
-7.61
-8.83
-9.69
-10.40
-11.43
-13.37
-16.61
-21.00
-25.76
-29.65
-31.47
-30.53
-26.93
-21.47
-15.22
-9.09
-3.58
1.28
5.64
9.57
12.94
15.47
16.93
17.26
16.76
15.87
15.10
14.76
14.98
15.64
16.59
17.65
18.69
19.63
20.38
20.88
21.05
20.85
20.29
19.38
18.17
16.69
15.08
13.48
11.98
10.63
9.37
8.15
6.96
5.79
4.69
3.61
2.43
0.99
-0.72
-2.59
-4.36
-5.74
-6.59
-7.02
-7.35
-8.03
-9.46
-11.85
-15.11
-18.80
-22.23
-24.61
-25.36
-24.19
-21.24
-16.95
-11.91
-6.73
-1.88
2.30
5.62
8.01
9.47
10.05
9.87
9.09
7.91
6.58
5.31
4.31
3.69
3.50
3.69
4.13
4.72
5.35
5.94
6.44
6.83
7.03
7.01
6.67
5.96
4.91
3.65
2.38
1.24
0.26
-0.71
-1.94
-3.63
-5.79
-8.20
-10.39
-11.92
-12.47
-12.03
-10.96
-9.91
-9.66
-10.85
-13.75
-18.09
-23.10
-27.69
-30.79
-31.65
-30.07
-26.33
-21.14
-15.32
-9.69
-4.82
-0.99
1.79
3.72
5.01
5.81
6.07
5.64
4.44
2.54
0.30
-1.80
-3.31
-4.03
-4.04
-3.60
-2.97
-2.24
-1.36
-0.26
0.98
2.13
2.82
2.77
1.92
0.48
-1.19
-2.76
-4.05
-5.09
-5.94
-6.59
-6.90
-6.77
-6.31
-5.95
-6.43
-8.39
-11.95
-16.57
-21.07
-24.12
-24.71
-22.57
-18.13
-12.27
-5.87
0.41
6.22
11.31
15.48
18.48
20.16
20.63
20.27
19.61
19.11
19.03
19.33
19.85
20.45
21.08
21.77
22.51
23.18
23.54
23.35
22.49
21.00
19.08
17.05
15.14
13.45
11.92
10.32
8.43
6.10
3.34
0.40
-2.43
-4.86
-6.79
-8.31
-9.64
-11.07
-12.92
-15.38
-18.59
-22.41
-26.43
-29.95
-32.11
-32.18
-29.76
-24.97
-18.34
-10.69
-2.96
4.05
9.76
13.91
16.59
18.18
19.12
19.75
20.17
20.28
19.86
18.89
17.56
16.28
15.42
15.11
15.26
15.57
15.75
15.65
15.25
14.61
13.71
12.55
11.13
9.48
7.80
6.20
4.72
3.19
1.35
-0.99
-3.82
-6.91
-9.91
-12.55
-14.70
-16.43
-17.84
-19.07
-20.33
-21.93
-24.23
-27.47
-31.49
-35.62
-38.74
-39.70
-37.76
-32.94
-25.90
-17.75
-9.57
-2.17
4.02
8.91
12.58
15.17
16.85
17.76
18.07
17.92
17.48
16.92
16.39
16.03
15.86
15.85
15.97
16.18
16.50
16.97
17.63
18.43
19.24
19.84
19.97
19.39
17.93
15.64
12.78
9.82
7.23
5.35
4.17
3.35
2.38
0.83
-1.41
-4.12
-6.92
-9.50
-11.72
-13.60
-15.13
-16.20
-16.79
-17.05
-17.55
-19.11
-22.44
-27.54
-33.48
-38.49
-40.51
-38.02
-30.63
-19.35
-6.31
5.98
15.44
21.04
23.05
22.73
21.66
21.08
21.45
22.38
23.11
23.11
22.31
21.22
20.52
20.59
21.32
22.17
22.55
22.21
21.34
20.45
20.03
20.22
20.69
20.85
20.15
18.41
15.90
13.23
11.02
9.70
9.26
9.39
9.60
9.44
8.70
7.41
5.71
3.82
1.86
-0.12
-2.11
-4.10
-6.11
-8.27
-10.85
-14.27
-18.89
-24.72
-31.26
-37.49
-42.20
-44.38
-43.63
-40.21
-34.95
-28.86
-22.79
-17.19
-12.14
-7.52
-3.26
0.51
3.52
5.50
6.37
6.35
5.89
5.54
5.70
6.54
7.93
9.55
11.11
12.48
13.70
14.90
16.15
17.34
18.17
18.34
17.66
16.20
14.31
12.45
10.99
10.15
9.83
9.71
9.38
8.41
6.57
3.89
0.66
-2.61
-5.38
-7.25
-8.20
-8.52
-8.89
-10.07
-12.68
-16.89
-22.21
-27.58
-31.63
-33.18
-31.66
-27.30
-20.98
-13.87
-7.04
-1.11
3.71
7.53
10.51
12.78
14.35
15.16
15.20
14.55
13.42
12.13
11.09
10.64
10.96
11.98
13.39
14.83
15.97
16.73
17.18
17.47
17.66
17.60
17.01
15.62
13.39
10.59
7.72
5.29
3.58
2.56
1.92
1.26
0.26
-1.19
-3.01
-5.04
-7.11
-9.07
-10.81
-12.29
-13.62
-15.10
-17.26
-20.59
-25.30
-31.01
-36.74
-41.21
-43.30
-42.46
-38.83
-33.12
-26.27
-19.06
-12.11
-5.83
-0.54
3.53
6.30
7.92
8.74
9.12
9.32
9.40
9.30
9.02
8.71
8.69
9.25
10.45
12.11
13.76
14.97
15.54
15.54
15.20
14.73
14.10
13.08
11.41
9.05
6.32
3.77
1.92
1.01
0.81
0.80
0.40
-0.70
-2.49
-4.61
-6.66
-8.34
-9.57
-10.49
-11.38
-12.59
-14.50
-17.40
-21.36
-26.12
-30.99
-34.99
-37.17
-36.96
-34.33
-29.80
-24.16
-18.13
-12.17
-6.47
-1.11
3.80
8.05
11.41
13.77
15.21
15.95
16.31
16.54
16.87
17.43
18.37
19.74
21.51
23.47
25.33
26.81
27.76
28.24
28.42
28.42
28.18
27.47
26.07
23.93
21.32
18.68
16.41
14.61
13.03
11.26
8.98
6.11
2.92
-0.16
-2.76
-4.69
-6.02
-7.03
-8.08
-9.57
-11.87
-15.19
-19.49
-24.32
-28.85
-32.07
-33.08
-31.45
-27.27
-21.23
-14.27
-7.31
-1.03
4.21
8.36
11.53
13.82
15.33
16.05
15.94
15.02
13.43
11.51
9.73
8.58
8.34
9.01
10.25
11.56
12.53
12.99
13.00
12.74
12.28
11.55
10.38
8.63
6.40
3.98
1.69
-0.31
-2.11
-4.05
-6.47
-9.46
-12.79
-15.87
-18.06
-18.96
-18.57
-17.43
-16.41
-16.44
-18.07
-21.25
-25.31
-29.15
-31.63
-31.92
-29.77
-25.39
-19.35
-12.34
-5.01
2.07
8.41
13.61
17.45
19.87
21.00
21.14
20.69
20.00
19.37
19.00
18.95
19.20
19.63
20.08
20.41
20.50
20.38
20.10
19.79
19.53
19.38
19.25
18.94
18.17
16.70
14.51
11.79
8.93
6.35
4.25
2.57
1.04
-0.65
-2.62
-4.74
-6.74
-8.37
-9.55
-10.41
-11.27
-12.55
-14.66
-17.89
-22.24
-27.29
-32.16
-35.68
-36.79
-34.92
-30.20
-23.44
-15.79
-8.37
-1.89
3.39
7.58
10.88
13.46
15.31
16.34
16.47
15.76
14.46
12.94
11.59
10.65
10.17
10.05
10.11
10.19
10.23
10.25
10.30
10.38
10.37
10.11
9.39
8.10
6.30
4.23
2.29
0.81
-0.07
-0.51
-0.92
-1.72
-3.14
-5.11
-7.25
-9.16
-10.63
-11.69
-12.59
-13.61
-14.89
-16.52
-18.55
-21.13
-24.43
-28.37
-32.45
-35.75
-37.22
-36.11
-32.30
-26.38
-19.36
-12.27
-5.85
-0.39
4.12
7.81
10.80
13.12
14.76
15.69
15.90
15.47
14.51
13.25
12.02
11.21
11.11
11.83
13.22
14.90
16.33
17.05
16.85
15.80
14.25
12.60
11.10
9.77
8.42
6.88
5.14
3.43
2.10
1.42
1.34
1.54
1.52
0.88
-0.49
-2.36
-4.29
-5.91
-7.04
-7.70
-8.05
-8.25
-8.47
-8.96
-10.13
-12.34
-15.71
-19.81
-23.60
-25.78
-25.30
-21.82
-15.94
-8.94
-2.23
3.22
7.12
9.73
11.60
13.07
14.19
14.77
14.58
13.57
12.00
10.34
9.08
8.51
8.62
9.13
9.69
10.08
10.34
10.76
11.62
12.95
14.45
15.56
15.74
14.73
12.76
10.40
8.29
6.79
5.85
5.04
3.82
1.86
-0.82
-3.91
-6.90
-9.35
-10.99
-11.81
-11.95
-11.65
-11.26
-11.25
-12.09
-14.17
-17.54
-21.81
-26.09
-29.22
-30.26
-28.75
-24.94
-19.67
-13.96
-8.62
-4.02
-0.15
3.15
5.91
7.92
8.87
8.62
7.39
5.78
4.50
4.06
4.55
5.66
6.88
7.82
8.40
8.82
9.46
10.53
12.03
13.69
15.13
16.04
16.29
15.95
15.28
14.53
13.86
13.24
12.53
11.50
10.01
8.07
5.87
3.60
1.40
-0.75
-2.94
-5.27
-7.82
-10.69
-14.04
-18.06
-22.81
-27.97
-32.74
-36.01
-36.78
-34.61
-29.84
-23.50
-16.88
-11.06
-6.57
-3.40
-1.24
0.27
1.30
1.84
1.85
1.37
0.61
-0.11
-0.42
-0.10
0.95
2.58
4.52
6.48
8.21
9.59
10.62
11.39
11.98
12.38
12.51
12.20
11.31
9.89
8.13
6.39
4.95
3.85
2.81
1.42
-0.63
-3.37
-6.42
-9.22
-11.35
-12.67
-13.42
-14.01
-14.82
-16.09
-17.95
-20.47
-23.59
-27.10
-30.46
-32.83
-33.35
-31.44
-27.12
-21.06
-14.29
-7.84
-2.37
1.97
5.40
8.21
10.56
12.35
13.35
13.32
12.24
10.31
7.98
5.75
4.08
3.23
3.20
3.86
4.96
6.36
7.99
9.86
11.89
13.85
15.40
16.21
16.12
15.27
14.04
12.92
12.23
11.97
11.83
11.28
9.90
7.53
4.42
1.09
-1.81
-3.76
-4.60
-4.57
-4.22
-4.26
-5.33
-7.80
-11.60
-16.30
-21.12
-25.09
-27.30
-27.12
-24.41
-19.59
-13.53
-7.30
-1.81
2.44
5.47
7.63
9.34
10.85
12.05
12.67
12.43
11.29
9.62
8.01
7.06
7.10
8.07
9.58
11.17
12.49
13.46
14.18
14.78
15.28
15.53
15.33
14.55
13.29
11.84
10.49
9.39
8.43
7.30
5.69
3.52
0.94
-1.65
-3.82
-5.22
-5.75
-5.59
-5.18
-5.15
-6.19
-8.75
-12.84
-17.90
-22.87
-26.56
-28.03
-26.88
-23.33
-18.05
-11.91
-5.79
-0.36
3.90
6.75
8.19
8.43
7.89
7.03
6.29
5.95
6.12
6.75
7.71
8.84
10.08
11.40
12.83
14.41
16.10
17.74
19.07
19.81
19.75
18.78
16.91
14.27
11.12
7.81
4.70
2.06
-0.01
-1.64
-3.10
-4.72
-6.69
-9.02
-11.56
-14.05
-16.25
-17.95
-19.09
-19.79
-20.38
-21.36
-23.17
-25.92
-29.19
-32.09
-33.59
-32.90
-29.81
-24.73
-18.42
-11.75
-5.35
0.36
5.16
8.93
11.62
13.30
14.09
14.20
13.80
12.97
11.82
10.52
9.31
8.49
8.22
8.43
8.90
9.33
9.52
9.46
9.23
8.91
8.44
7.68
6.47
4.75
2.68
0.59
-1.17
-2.31
-2.76
-2.69
-2.46
-2.46
-3.01
-4.17
-5.78
-7.50
-8.95
-9.88
-10.24
-10.21
-10.11
-10.37
-11.38
-13.39
-16.33
-19.77
-22.94
-24.95
-25.05
-22.95
-18.93
-13.76
-8.38
-3.57
0.29
3.22
5.46
7.25
8.64
9.51
9.72
9.22
8.18
6.95
5.96
5.52
5.77
6.60
7.83
9.22
10.56
11.81
12.95
14.03
15.02
15.82
16.26
16.13
15.38
14.12
12.65
11.37
10.59
10.41
10.63
10.84
10.58
9.53
7.66
5.25
2.75
0.64
-0.77
-1.39
-1.39
-1.15
-1.19
-2.04
-4.06
-7.40
-11.73
-16.31
-20.16
-22.34
-22.27
-19.91
-15.78
-10.72
-5.61
-1.11
2.47
5.12
7.00
8.29
9.01
9.10
8.42
6.96
4.92
2.66
0.72
-0.47
-0.69
-0.01
1.37
3.11
4.95
6.70
8.20
9.35
10.01
10.05
9.42
8.17
6.49
4.71
3.13
1.92
1.01
0.16
-1.00
-2.67
-4.84
-7.17
-9.18
-10.44
-10.83
-10.54
-10.12
-10.21
-11.35
-13.80
-17.38
-21.53
-25.45
-28.25
-29.18
-27.81
-24.10
-18.42
-11.47
-4.15
2.63
8.14
12.01
14.23
15.17
15.36
15.32
15.44
15.90
16.67
17.69
18.86
20.14
21.46
22.70
23.68
24.15
23.96
23.19
22.06
20.87
19.79
18.70
17.24
15.04
11.95
8.24
4.41
0.99
-1.77
-3.96
-5.90
-7.90
-10.05
-12.21
-14.17
-15.78
-17.05
-18.06
-18.88
-19.58
-20.26
-21.15
-22.55
-24.67
-27.42
-30.26
-32.30
-32.64
-30.70
-26.49
-20.62
-14.05
-7.81
-2.57
1.41
4.27
6.30
7.74
8.67
9.04
8.80
8.06
7.11
6.28
5.79
5.62
5.54
5.28
4.72
3.95
3.24
2.86
2.97
3.50
4.21
4.80
5.01
4.69
3.80
2.50
1.06
-0.28
-1.33
-2.10
-2.78
-3.53
-4.45
-5.41
-6.20
-6.67
-6.86
-6.98
-7.28
-7.91
-8.91
-10.28
-12.11
-14.46
-17.20
-19.82
-21.50
-21.40
-19.11
-14.91
-9.66
-4.43
-0.09
3.04
5.12
6.53
7.56
8.29
8.74
8.81
8.51
7.88
6.99
5.95
4.95
4.24
4.06
4.56
5.70
7.26
8.96
10.52
11.82
12.81
13.45
13.68
13.48
12.83
11.91
10.97
10.26
9.85
9.53
8.91
7.55
5.29
2.35
-0.67
-3.05
-4.22
-4.04
-2.87
-1.48
-0.81
-1.63
-4.29
-8.56
-13.64
-18.44
-21.88
-23.24
-22.29
-19.34
-15.00
-10.01
-5.10
-0.80
2.52
4.79
6.17
6.94
7.45
7.79
7.86
7.36
6.09
4.13
1.92
0.09
-0.80
-0.53
0.66
2.28
3.75
4.67
4.93
4.63
4.05
3.51
3.18
3.09
3.14
3.12
2.81
2.11
1.06
-0.24
-1.60
-2.85
-3.81
-4.32
-4.36
-4.06
-3.80
-4.17
-5.62
-8.30
-11.80
-15.29
-17.81
-18.65
-17.61
-14.91
-11.05
-6.51
-1.75
2.90
7.02
10.20
12.10
12.61
11.99
10.76
9.58
8.96
9.08
9.86
10.96
12.05
12.94
13.68
14.43
15.35
16.42
17.41
17.97
17.89
17.15
15.98
14.70
13.48
12.32
11.02
9.36
7.32
5.01
2.75
0.74
-0.99
-2.69
-4.65
-7.12
-10.09
-13.39
-16.84
-20.33
-23.89
-27.46
-30.76
-33.20
-34.07
-32.81
-29.35
-24.17
-18.18
-12.29
-7.17
-3.05
0.19
2.81
5.01
6.82
8.13
8.81
8.89
8.55
8.13
8.00
8.39
9.29
10.48
11.61
12.38
12.66
12.49
12.03
11.42
10.71
9.83
8.70
7.28
5.71
4.19
2.92
1.98
1.22
0.36
-0.86
-2.53
-4.48
-6.41
-8.00
-9.07
-9.70
-10.12
-10.70
-11.81
-13.73
-16.56
-20.01
-23.50
-26.20
-27.32
-26.40
-23.49
-19.10
-14.05
-9.11
-4.74
-1.10
1.94
4.60
7.05
9.31
11.31
12.87
13.80
14.06
13.77
13.28
13.03
13.38
14.48
16.14
17.96
19.49
20.50
21.05
21.34
21.60
21.83
21.80
21.20
19.91
18.03
15.94
14.09
12.73
11.84
11.14
10.21
8.66
6.33
3.30
-0.11
-3.39
-6.05
-7.71
-8.32
-8.20
-7.96
-8.34
-9.88
-12.80
-16.78
-21.11
-24.83
-27.07
-27.29
-25.38
-21.65
-16.69
-11.21
-5.86
-1.15
2.66
5.52
7.59
9.04
10.02
10.55
10.56
10.02
9.04
7.93
7.10
6.93
7.60
9.00
10.83
12.63
13.99
14.66
14.57
13.82
12.65
11.27
9.82
8.28
6.60
4.78
2.92
1.26
0.01
-0.79
-1.30
-1.83
-2.68
-3.96
-5.51
-7.00
-8.05
-8.46
-8.26
-7.72
-7.27
-7.38
-8.35
-10.28
-12.87
-15.53
-17.40
-17.69
-15.85
-11.83
-6.12
0.44
6.91
12.48
16.68
19.37
20.67
20.81
20.11
18.87
17.35
15.79
14.35
13.16
12.27
11.68
11.34
11.14
10.95
10.64
10.14
9.46
8.64
7.74
6.77
5.70
4.50
3.13
1.66
0.17
-1.23
-2.47
-3.56
-4.56
-5.52
-6.50
-7.51
-8.57
-9.66
-10.74
-11.74
-12.62
-13.36
-13.96
-14.48
-14.99
-15.58
-16.40
-17.62
-19.41
-21.68
-24.05
-25.83
-26.26
-24.79
-21.35
-16.41
-10.75
-5.17
-0.23
3.79
6.86
9.03
10.34
10.85
10.67
9.96
8.90
7.63
6.28
4.95
3.77
2.93
2.58
2.80
3.50
4.46
5.39
6.00
6.12
5.72
4.89
3.83
2.72
1.74
0.99
0.50
0.21
0.02
-0.18
-0.47
-0.81
-1.11
-1.32
-1.46
-1.72
-2.38
-3.61
-5.41
-7.49
-9.39
-10.67
-11.12
-10.81
-10.11
-9.52
-9.50
-10.26
-11.68
-13.35
-14.68
-15.11
-14.31
-12.17
-8.85
-4.64
0.04
4.75
9.03
12.42
14.66
15.69
15.76
15.29
14.67
14.06
13.36
12.32
10.78
8.97
7.36
6.56
6.87
8.13
9.69
10.80
10.94
10.16
8.97
8.01
7.65
7.77
7.82
7.14
5.37
2.61
-0.60
-3.54
-5.62
-6.60
-6.61
-6.14
-5.73
-5.83
-6.61
-7.89
-9.28
-10.25
-10.45
-9.76
-8.42
-6.96
-6.04
-6.26
-7.91
-10.86
-14.49
-17.91
-20.21
-20.72
-19.20
-15.84
-11.25
-6.18
-1.37
2.61
5.49
7.23
8.06
8.21
7.84
7.02
5.80
4.32
2.91
2.01
1.99
2.90
4.41
6.03
7.35
8.26
9.04
10.02
11.39
12.93
14.13
14.46
13.65
11.89
9.76
7.87
6.62
5.98
5.61
5.06
4.06
2.62
0.99
-0.57
-1.96
-3.25
-4.62
-6.17
-7.75
-9.12
-10.10
-10.79
-11.70
-13.40
-16.24
-19.89
-23.40
-25.53
-25.35
-22.73
-18.33
-13.29
-8.62
-4.82
-1.86
0.52
2.48
3.93
4.65
4.57
3.87
2.98
2.25
1.83
1.56
1.22
0.68
-0.02
-0.68
-1.13
-1.33
-1.39
-1.43
-1.51
-1.55
-1.40
-1.00
-0.43
0.08
0.24
-0.11
-1.00
-2.24
-3.54
-4.61
-5.29
-5.60
-5.65
-5.66
-5.83
-6.25
-6.96
-7.89
-9.01
-10.22
-11.46
-12.66
-13.77
-14.88
-16.12
-17.69
-19.70
-22.02
-24.24
-25.67
-25.62
-23.64
-19.75
-14.46
-8.61
-3.11
1.36
4.55
6.56
7.73
8.43
8.81
8.81
8.20
6.80
4.66
2.16
-0.09
-1.48
-1.68
-0.80
0.66
2.10
3.10
3.67
4.13
4.93
6.22
7.77
9.07
9.66
9.46
8.81
8.26
8.25
8.83
9.66
10.23
10.15
9.35
8.02
6.47
4.90
3.37
1.88
0.45
-0.78
-1.71
-2.40
-3.22
-4.76
-7.58
-11.84
-17.07
-22.28
-26.28
-28.16
-27.66
-25.17
-21.50
-17.46
-13.65
-10.28
-7.28
-4.55
-2.04
0.12
1.76
2.72
2.98
2.65
1.97
1.28
0.88
1.02
1.76
3.06
4.76
6.65
8.56
10.39
12.10
13.63
14.84
15.52
15.47
14.61
13.10
11.32
9.72
8.50
7.54
6.46
4.85
2.54
-0.26
-3.06
-5.35
-6.84
-7.55
-7.78
-8.04
-8.93
-10.98
-14.52
-19.44
-25.12
-30.38
-33.94
-34.73
-32.35
-27.15
-20.04
-12.13
-4.38
2.60
8.49
13.16
16.53
18.57
19.35
19.14
18.37
17.57
17.18
17.40
18.08
18.87
19.36
19.39
19.06
18.71
18.62
18.90
19.33
19.58
19.31
18.38
16.81
14.80
12.59
10.38
8.30
6.33
4.39
2.33
0.04
-2.49
-5.18
-7.85
-10.42
-12.82
-15.01
-16.97
-18.70
-20.38
-22.39
-25.22
-29.14
-33.88
-38.53
-41.76
-42.35
-39.75
-34.22
-26.76
-18.63
-10.93
-4.29
1.14
5.47
8.93
11.66
13.67
14.88
15.21
14.68
13.48
12.00
10.70
9.96
9.96
10.59
11.56
12.61
13.57
14.46
15.34
16.22
16.96
17.32
17.06
16.12
14.63
12.94
11.43
10.39
9.85
9.56
9.13
8.14
6.41
4.03
1.33
-1.30
-3.56
-5.36
-6.79
-8.03
-9.37
-11.14
-13.72
-17.40
-22.07
-27.02
-30.94
-32.46
-30.70
-25.84
-19.03
-11.89
-5.73
-1.07
2.39
5.36
8.37
11.53
14.50
16.84
18.28
18.81
18.64
18.07
17.39
16.89
16.84
17.45
18.78
20.68
22.87
24.97
26.71
27.95
28.75
29.25
29.55
29.63
29.35
28.57
27.29
25.69
24.09
22.77
21.79
20.91
19.71
17.82
15.14
11.87
8.46
5.32
2.72
0.66
-0.98
-2.41
-3.83
-5.56
-8.01
-11.61
-16.56
-22.60
-28.87
-34.07
-36.91
-36.55
-32.91
-26.69
-19.03
-11.11
-3.81
2.46
7.69
12.03
15.56
18.22
19.86
20.33
19.70
18.34
16.80
15.63
15.19
15.50
16.29
17.17
17.83
18.21
18.45
18.72
19.09
19.39
19.33
18.64
17.25
15.41
13.50
11.88
10.62
9.39
7.66
4.96
1.19
-3.30
-7.89
-11.96
-15.12
-17.32
-18.80
-19.90
-21.01
-22.48
-24.68
-27.90
-32.21
-37.27
-42.29
-46.17
-47.83
-46.60
-42.46
-36.04
-28.34
-20.43
-13.09
-6.77
-1.63
2.23
4.66
5.62
5.34
4.58
4.41
5.85
9.23
13.93
18.57
21.65
22.31
20.73
17.92
15.08
12.93
11.34
9.61
7.01
3.29
-1.21
-5.81
-9.97
-13.70
-17.47
-22.00
-27.81
-34.90
-42.72
-50.41
-57.11
-62.33
-66.12
-68.95
-71.53
-74.50
-78.17
-82.45
-86.76
-90.18
-91.47
-89.36
-82.85
-71.48
-55.54
-36.09
-14.73
6.81
27.04
44.99
60.21
72.71
82.61
90.02
94.95
97.31
97.08
94.49
90.10
84.79
79.54
75.14
71.89
69.56
67.54
65.16
62.04
58.20
53.99
49.86
46.04
42.45
38.78
34.70
30.08
25.11
20.12
15.44
11.15
7.11
3.11
-0.92
-4.80
-8.20
-10.93
-13.21
-15.71
-19.20
-24.06
-29.85
-35.32
-38.86
-39.20
-35.94
-29.72
-21.78
-13.44
-5.56
1.54
7.91
13.66
18.68
22.71
25.50
27.00
27.37
26.94
26.07
25.02
24.05
23.36
23.12
23.46
24.26
25.24
26.04
26.37
26.12
25.36
24.12
22.34
19.82
16.43
12.27
7.77
3.54
0.03
-2.61
-4.68
-6.71
-9.16
-12.20
-15.61
-18.96
-21.73
-23.58
-24.48
-24.81
-25.27
-26.75
-29.95
-35.03
-41.40
-47.74
-52.30
-53.49
-50.37
-43.04
-32.58
-20.69
-9.17
0.70
8.35
13.90
17.87
20.77
22.85
24.01
24.03
22.76
20.32
17.19
14.10
11.85
11.06
12.01
14.52
18.03
21.77
25.06
27.46
28.88
29.45
29.37
28.77
27.68
26.14
24.25
22.27
20.43
18.87
17.54
16.25
14.81
13.16
11.34
9.41
7.35
5.06
2.41
-0.60
-3.83
-6.99
-9.81
-12.20
-14.29
-16.38
-18.95
-22.42
-27.13
-33.10
-39.90
-46.56
-51.75
-54.11
-52.75
-47.54
-39.28
-29.32
-19.19
-10.03
-2.43
3.58
8.35
12.25
15.52
18.15
19.97
20.81
20.66
19.77
18.62
17.75
17.58
18.23
19.52
21.07
22.54
23.73
24.64
25.34
25.78
25.84
25.33
24.21
22.66
21.00
19.55
18.36
17.23
15.74
13.59
10.76
7.60
4.69
2.51
1.18
0.41
-0.41
-1.89
-4.29
-7.44
-10.84
-13.91
-16.25
-17.78
-18.68
-19.28
-19.92
-20.98
-22.84
-25.82
-29.97
-34.82
-39.34
-42.23
-42.39
-39.40
-33.71
-26.40
-18.71
-11.51
-5.21
0.18
4.80
8.69
11.73
13.74
14.62
14.43
13.41
11.92
10.43
9.37
9.06
9.59
10.75
12.11
13.22
13.85
14.11
14.30
14.72
15.43
16.18
16.55
16.17
14.95
13.04
10.80
8.59
6.65
5.06
3.80
2.77
1.77
0.56
-1.10
-3.30
-5.96
-8.77
-11.31
-13.25
-14.47
-15.15
-15.72
-16.74
-18.76
-22.01
-26.35
-31.14
-35.36
-37.88
-37.79
-34.71
-28.87
-21.02
-12.21
-3.57
3.99
9.84
13.79
16.00
16.89
16.95
16.56
15.86
14.81
13.32
11.42
9.36
7.54
6.29
5.74
5.80
6.25
6.86
7.48
8.07
8.55
8.86
8.88
8.60
8.12
7.58
7.13
6.82
6.56
6.22
5.73
5.12
4.52
3.96
3.30
2.27
0.59
-1.86
-4.92
-8.25
-11.47
-14.34
-16.76
-18.74
-20.37
-21.81
-23.37
-25.48
-28.55
-32.65
-37.22
-41.18
-43.24
-42.48
-38.73
-32.70
-25.57
-18.49
-12.17
-6.79
-2.17
1.85
5.30
8.06
10.00
11.13
11.57
11.51
11.10
10.51
9.92
9.58
9.77
10.58
11.88
13.29
14.31
14.63
14.21
13.34
12.48
11.97
11.83
11.75
11.36
10.37
8.84
7.11
5.62
4.68
4.31
4.25
4.10
3.46
2.13
0.07
-2.62
-5.69
-8.90
-11.92
-14.50
-16.43
-17.69
-18.47
-19.19
-20.40
-22.57
-25.82
-29.78
-33.57
-36.11
-36.39
-33.88
-28.73
-21.66
-13.74
-6.07
0.54
5.68
9.37
11.94
13.82
15.37
16.74
17.80
18.28
17.95
16.81
15.19
13.60
12.53
12.26
12.73
13.66
14.81
16.00
17.23
18.52
19.76
20.69
20.92
20.20
18.46
15.97
13.17
10.50
8.27
6.48
4.96
3.43
1.64
-0.52
-3.00
-5.58
-8.02
-10.05
-11.52
-12.41
-12.85
-13.14
-13.67
-14.89
-17.17
-20.64
-25.06
-29.81
-33.97
-36.63
-37.05
-35.00
-30.72
-24.85
-18.19
-11.50
-5.32
0.03
4.34
7.54
9.66
10.79
11.15
11.05
10.81
10.70
10.87
11.36
12.15
13.10
14.03
14.65
14.78
14.40
13.72
13.13
13.00
13.46
14.29
14.98
14.95
13.82
11.60
8.70
5.77
3.47
2.23
2.10
2.75
3.64
4.22
4.13
3.33
2.05
0.55
-0.97
-2.55
-4.33
-6.36
-8.56
-10.65
-12.37
-13.63
-14.54
-15.36
-16.29
-17.40
-18.64
-20.05
-21.79
-24.13
-27.20
-30.65
-33.68
-35.19
-34.30
-30.70
-24.84
-17.68
-10.35
-3.72
1.71
5.77
8.49
10.00
10.41
9.97
9.01
7.86
6.76
5.84
5.10
4.54
4.19
4.16
4.46
5.03
5.74
6.44
7.11
7.80
8.54
9.22
9.54
9.18
7.98
6.17
4.26
2.83
2.20
2.24
2.47
2.27
1.20
-0.82
-3.58
-6.65
-9.62
-12.18
-14.19
-15.73
-17.08
-18.75
-21.22
-24.76
-29.12
-33.55
-36.94
-38.23
-36.81
-32.75
-26.63
-19.35
-11.75
-4.51
1.95
7.32
11.42
14.19
15.74
16.33
16.31
15.95
15.39
14.64
13.74
12.80
12.07
11.86
12.36
13.56
15.20
16.85
18.10
18.66
18.46
17.66
16.57
15.44
14.41
13.46
12.46
11.29
9.93
8.41
6.84
5.24
3.54
1.60
-0.75
-3.57
-6.75
-9.99
-12.88
-15.04
-16.29
-16.87
-17.38
-18.59
-21.14
-25.06
-29.68
-33.72
-35.83
-35.11
-31.41
-25.34
-17.92
-10.18
-2.83
3.75
9.41
14.12
17.85
20.64
22.59
23.87
24.58
24.72
24.22
23.02
21.26
19.33
17.75
16.95
17.10
18.00
19.22
20.29
20.86
20.83
20.26
19.30
18.02
16.48
14.72
12.88
11.14
9.60
8.24
6.84
5.13
2.92
0.19
-2.82
-5.80
-8.41
-10.44
-11.81
-12.65
-13.28
-14.16
-15.76
-18.45
-22.25
-26.77
-31.29
-34.92
-36.89
-36.69
-34.15
-29.44
-23.01
-15.59
-8.05
-1.23
4.29
8.30
10.99
12.79
14.06
14.97
15.46
15.41
14.80
13.84
12.88
12.21
11.93
11.96
12.11
12.29
12.52
12.91
13.48
14.13
14.55
14.41
13.54
12.05
10.31
8.71
7.45
6.42
5.25
3.57
1.22
-1.62
-4.48
-6.84
-8.29
-8.76
-8.49
-8.09
-8.28
-9.71
-12.67
-16.91
-21.59
-25.54
-27.62
-27.09
-23.88
-18.46
-11.67
-4.38
2.66
8.90
13.95
17.56
19.58
20.08
19.31
17.69
15.69
13.74
12.14
11.04
10.48
10.42
10.74
11.29
11.89
12.40
12.74
12.91
12.90
12.70
12.19
11.20
9.62
7.45
4.91
2.41
0.32
-1.14
-2.04
-2.68
-3.44
-4.61
-6.23
-8.19
-10.24
-12.16
-13.79
-15.02
-15.94
-16.79
-17.98
-19.97
-22.93
-26.57
-30.13
-32.53
-32.88
-30.84
-26.74
-21.35
-15.58
-10.07
-5.07
-0.53
3.69
7.57
10.96
13.60
15.33
16.09
16.05
15.48
14.67
13.92
13.45
13.36
13.70
14.35
15.14
15.86
16.36
16.63
16.74
16.80
16.89
16.92
16.76
16.22
15.27
14.06
12.83
11.87
11.25
10.86
10.34
9.30
7.42
4.63
1.14
-2.61
-6.12
-8.98
-11.02
-12.32
-13.13
-13.87
-14.99
-16.90
-19.89
-23.90
-28.43
-32.57
-35.21
-35.41
-32.77
-27.55
-20.65
-13.18
-6.13
-0.13
4.69
8.50
11.58
14.13
16.18
17.62
18.34
18.31
17.70
16.79
16.02
15.72
16.07
17.07
18.46
19.92
21.23
22.27
23.11
23.87
24.59
25.15
25.36
25.02
24.11
22.81
21.40
20.10
19.04
18.16
17.29
16.24
14.90
13.28
11.45
9.55
7.73
6.06
4.51
2.91
0.99
-1.53
-4.88
-9.16
-14.30
-20.13
-26.35
-32.59
-38.41
-43.30
-46.73
-48.26
-47.64
-44.94
-40.53
-35.08
-29.40
-24.23
-20.12
-17.30
-15.72
-15.16
-15.25
-15.62
-15.91
-15.76
-14.93
-13.29
-10.86
-7.76
-4.22
-0.46
3.33
7.07
10.73
14.30
17.73
20.92
23.69
25.85
27.27
27.91
27.87
27.40
26.75
26.07
25.37
24.48
23.14
21.09
18.20
14.59
10.59
6.68
3.38
0.96
-0.64
-1.93
-3.64
-6.48
-10.68
-15.86
-21.01
-24.87
-26.41
-25.21
-21.64
-16.55
-10.95
-5.65
-1.10
2.52
5.19
6.93
7.79
7.87
7.34
6.39
5.14
3.65
1.95
0.21
-1.27
-2.07
-1.88
-0.66
1.29
3.44
5.22
6.23
6.41
5.97
5.25
4.54
3.97
3.45
2.84
2.05
1.18
0.43
0.05
0.05
0.24
0.21
-0.43
-1.82
-3.77
-5.89
-7.80
-9.34
-10.72
-12.30
-14.38
-17.01
-19.90
-22.61
-24.78
-26.17
-26.73
-26.37
-24.88
-21.96
-17.39
-11.31
-4.25
2.92
9.32
14.35
17.86
20.10
21.49
22.31
22.61
22.20
20.87
18.54
15.40
11.91
8.64
6.10
4.59
4.13
4.51
5.34
6.23
6.84
7.05
6.89
6.58
6.26
6.05
5.87
5.60
5.12
4.42
3.60
2.79
2.18
1.86
1.84
2.02
2.21
2.10
1.45
0.16
-1.62
-3.48
-4.90
-5.51
-5.20
-4.34
-3.57
-3.67
-5.23
-8.43
-12.85
-17.57
-21.42
-23.32
-22.70
-19.68
-14.99
-9.66
-4.65
-0.54
2.55
4.84
6.65
8.18
9.40
10.11
10.06
9.08
7.25
4.88
2.48
0.64
-0.28
-0.21
0.61
1.77
2.97
4.11
5.34
6.81
8.46
9.97
10.87
10.78
9.69
8.02
6.43
5.56
5.72
6.76
8.12
9.15
9.29
8.30
6.30
3.77
1.35
-0.37
-1.02
-0.60
0.50
1.63
2.14
1.61
0.04
-2.15
-4.29
-5.76
-6.22
-5.65
-4.34
-2.66
-0.95
0.54
1.60
2.11
1.99
1.25
0.01
-1.62
-3.62
-6.17
-9.56
-13.99
-19.36
-25.12
-30.45
-34.45
-36.58
-36.77
-35.52
-33.62
-31.80
-30.58
-30.05
-29.98
-29.98
-29.65
-28.72
-27.09
-24.86
-22.25
-19.57
-17.16
-15.28
-14.09
-13.57
-13.52
-13.61
-13.48
-12.88
-11.79
-10.44
-9.31
-8.98
-9.86
-11.98
-14.87
-17.70
-19.53
-19.68
-18.01
-14.91
-11.14
-7.54
-4.73
-2.95
-2.04
-1.56
-0.96
0.18
2.07
4.66
7.67
10.72
13.44
15.63
17.26
18.53
19.71
21.08
22.73
24.56
26.28
27.53
28.08
27.91
27.25
26.41
25.70
25.25
25.08
25.10
25.21
25.31
25.22
24.79
23.84
22.27
20.11
17.52
14.67
11.66
8.41
4.78
0.67
-3.73
-7.91
-11.07
-12.47
-11.67
-8.77
-4.40
0.49
4.93
8.21
10.03
10.47
9.90
8.73
7.34
5.87
4.35
2.73
1.01
-0.68
-2.09
-2.93
-3.02
-2.38
-1.24
0.05
1.17
1.95
2.34
2.46
2.46
2.51
2.78
3.34
4.15
5.03
5.66
5.74
5.05
3.63
1.68
-0.44
-2.38
-3.87
-4.80
-5.25
-5.48
-5.97
-7.22
-9.52
-12.82
-16.53
-19.73
-21.51
-21.34
-19.28
-15.90
-11.99
-8.24
-5.06
-2.51
-0.48
1.15
2.41
3.27
3.63
3.46
2.77
1.67
0.39
-0.71
-1.26
-0.95
0.34
2.43
4.85
7.02
8.39
8.71
8.06
6.85
5.65
4.86
4.58
4.59
4.45
3.74
2.23
-0.04
-2.83
-5.74
-8.32
-10.20
-11.07
-10.86
-9.80
-8.47
-7.69
-8.14
-10.05
-12.97
-15.90
-17.57
-17.12
-14.31
-9.73
-4.38
0.61
4.52
7.04
8.38
8.95
9.16
9.24
9.16
8.70
7.61
5.72
3.09
0.07
-2.88
-5.35
-7.08
-8.12
-8.61
-8.73
-8.52
-7.88
-6.69
-4.91
-2.67
-0.26
1.99
3.82
5.18
6.16
6.88
7.44
7.77
7.70
7.10
5.96
4.44
2.73
0.89
-1.28
-4.16
-8.03
-12.77
-17.61
-21.33
-22.64
-20.78
-15.87
-8.91
-1.36
5.42
10.73
14.53
17.24
19.29
20.82
21.68
21.62
20.66
19.09
17.51
16.41
16.00
16.14
16.41
16.44
16.12
15.59
15.16
15.03
15.17
15.35
15.20
14.46
13.09
11.27
9.33
7.50
5.90
4.37
2.73
0.89
-1.06
-2.90
-4.39
-5.37
-5.84
-6.02
-6.32
-7.27
-9.47
-13.34
-18.83
-25.22
-31.25
-35.48
-36.87
-35.23
-31.26
-26.26
-21.46
-17.62
-14.83
-12.73
-10.93
-9.22
-7.73
-6.67
-6.14
-6.03
-5.99
-5.60
-4.60
-2.96
-0.86
1.45
3.77
6.03
8.27
10.48
12.56
14.29
15.40
15.79
15.49
14.75
13.89
13.21
12.84
12.73
12.65
12.34
11.58
10.25
8.37
6.07
3.53
0.96
-1.41
-3.35
-4.73
-5.63
-6.41
-7.66
-9.88
-13.19
-17.15
-20.91
-23.46
-24.16
-22.92
-20.16
-16.57
-12.74
-9.07
-5.75
-2.87
-0.51
1.25
2.39
2.99
3.18
3.10
2.90
2.78
2.97
3.73
5.20
7.30
9.65
11.76
13.17
13.71
13.56
13.12
12.81
12.81
12.97
12.92
12.24
10.77
8.63
6.21
4.04
2.46
1.59
1.23
1.02
0.58
-0.30
-1.65
-3.23
-4.70
-5.68
-5.97
-5.58
-4.81
-4.15
-4.17
-5.29
-7.63
-10.95
-14.60
-17.75
-19.58
-19.56
-17.59
-13.96
-9.35
-4.49
-0.09
3.39
5.79
7.20
7.87
8.08
7.95
7.47
6.48
4.87
2.73
0.42
-1.57
-2.77
-2.96
-2.27
-1.07
0.26
1.41
2.29
2.90
3.27
3.41
3.25
2.72
1.82
0.72
-0.37
-1.16
-1.46
-1.29
-0.87
-0.54
-0.65
-1.38
-2.59
-3.90
-4.75
-4.69
-3.58
-1.74
0.12
1.12
0.57
-1.71
-5.15
-8.65
-10.91
-10.98
-8.57
-4.15
1.29
6.70
11.31
14.76
17.05
18.27
18.55
17.97
16.63
14.83
12.94
11.31
10.14
9.37
8.79
8.17
7.43
6.60
5.86
5.35
5.15
5.19
5.35
5.46
5.35
4.85
3.85
2.38
0.67
-0.97
-2.18
-2.80
-2.95
-2.98
-3.29
-4.15
-5.54
-7.23
-8.92
-10.33
-11.31
-11.81
-11.87
-11.67
-11.60
-12.18
-13.86
-16.73
-20.26
-23.42
-25.05
-24.31
-21.09
-16.03
-10.21
-4.69
-0.21
3.00
5.08
6.36
7.17
7.71
8.05
8.14
7.91
7.36
6.62
5.96
5.67
5.91
6.57
7.36
7.94
8.08
7.81
7.33
6.86
6.47
6.05
5.38
4.26
2.67
0.76
-1.13
-2.65
-3.57
-3.86
-3.75
-3.58
-3.71
-4.35
-5.49
-6.93
-8.41
-9.69
-10.60
-11.08
-11.18
-11.08
-11.19
-11.99
-13.86
-16.81
-20.29
-23.24
-24.51
-23.31
-19.59
-14.09
-7.99
-2.44
1.88
4.84
6.76
8.09
9.13
9.92
10.25
9.91
8.77
6.95
4.81
2.76
1.20
0.27
-0.12
-0.28
-0.47
-0.83
-1.22
-1.34
-0.97
-0.05
1.23
2.56
3.66
4.46
5.03
5.48
5.83
5.92
5.56
4.65
3.36
2.13
1.51
1.88
3.26
5.22
6.96
7.60
6.47
3.33
-1.43
-6.95
-12.11
-15.90
-17.69
-17.40
-15.45
-12.55
-9.52
-6.94
-5.11
-4.04
-3.51
-3.25
-3.09
-2.99
-3.01
-3.27
-3.78
-4.42
-4.89
-4.85
-4.02
-2.33
0.04
2.78
5.56
8.18
10.62
12.98
15.32
17.57
19.50
20.88
21.59
21.69
21.45
21.08
20.71
20.26
19.58
18.53
17.09
15.36
13.47
11.46
9.17
6.30
2.53
-2.23
-7.70
-13.15
-17.58
-20.04
-19.93
-17.28
-12.71
-7.24
-1.94
2.40
5.39
7.08
7.74
7.70
7.22
6.43
5.41
4.21
3.00
1.99
1.43
1.49
2.18
3.40
4.94
6.58
8.15
9.52
10.56
11.17
11.32
11.02
10.37
9.56
8.69
7.82
6.88
5.74
4.27
2.41
0.19
-2.29
-4.86
-7.31
-9.40
-11.08
-12.46
-13.94
-15.98
-18.86
-22.37
-25.78
-28.07
-28.40
-26.45
-22.59
-17.64
-12.49
-7.74
-3.60
0.03
3.27
6.14
8.54
10.39
11.63
12.30
12.47
12.26
11.85
11.47
11.33
11.60
12.29
13.24
14.21
15.00
15.49
15.61
15.33
14.62
13.41
11.75
9.82
8.01
6.71
6.13
6.17
6.37
6.18
5.15
3.24
0.78
-1.65
-3.48
-4.38
-4.33
-3.61
-2.75
-2.38
-3.07
-5.13
-8.38
-12.07
-15.04
-16.14
-14.65
-10.63
-4.87
1.38
6.97
11.21
13.98
15.60
16.58
17.28
17.79
17.94
17.40
15.97
13.69
10.94
8.30
6.35
5.38
5.32
5.80
6.30
6.46
6.13
5.41
4.56
3.82
3.36
3.20
3.19
3.11
2.68
1.72
0.20
-1.76
-3.88
-5.90
-7.54
-8.60
-8.96
-8.63
-7.78
-6.81
-6.34
-7.01
-9.23
-12.86
-17.23
-21.19
-23.55
-23.50
-20.89
-16.21
-10.45
-4.69
0.23
3.89
6.28
7.62
8.15
7.98
7.17
5.82
4.14
2.48
1.22
0.58
0.57
0.99
1.64
2.38
3.22
4.23
5.41
6.61
7.54
7.94
7.69
6.96
6.15
5.69
5.86
6.54
7.32
7.69
7.35
6.35
5.13
4.21
3.95
4.33
5.00
5.43
5.11
3.71
1.10
-2.57
-6.86
-11.08
-14.31
-15.76
-14.99
-12.10
-7.73
-2.83
1.63
4.93
6.70
6.94
5.97
4.29
2.46
0.93
-0.05
-0.47
-0.57
-0.51
-0.43
-0.30
-0.04
0.36
0.83
1.19
1.34
1.31
1.22
1.21
1.26
1.29
1.11
0.62
-0.09
-0.83
-1.38
-1.65
-1.78
-2.00
-2.55
-3.50
-4.76
-6.18
-7.57
-8.86
-9.98
-10.94
-11.87
-13.05
-14.87
-17.62
-21.20
-24.97
-27.84
-28.74
-27.06
-22.96
-17.32
-11.32
-5.95
-1.71
1.41
3.66
5.30
6.46
7.14
7.32
7.05
6.40
5.53
4.61
3.89
3.65
4.09
5.28
7.09
9.14
11.02
12.40
13.16
13.41
13.39
13.31
13.23
13.05
12.50
11.39
9.59
7.18
4.37
1.44
-1.33
-3.76
-5.74
-7.28
-8.47
-9.42
-10.24
-10.96
-11.52
-11.77
-11.63
-11.21
-10.93
-11.31
-12.74
-15.12
-17.72
-19.39
-19.04
-16.15
-11.02
-4.67
1.63
6.89
10.68
13.14
14.70
15.77
16.55
16.98
16.91
16.16
14.74
12.78
10.60
8.58
7.09
6.37
6.45
7.19
8.34
9.64
10.83
11.70
12.11
12.00
11.41
10.56
9.68
9.02
8.67
8.55
8.41
7.98
7.08
5.72
4.13
2.55
1.19
0.16
-0.57
-1.04
-1.31
-1.49
-1.77
-2.49
-4.06
-6.82
-10.79
-15.55
-20.27
-23.85
-25.37
-24.35
-21.01
-16.21
-11.13
-6.83
-3.94
-2.46
-2.00
-2.24
-3.26
-5.51
-9.30
-14.14
-18.50
-20.32
-17.99
-11.36
-1.99
7.47
14.62
18.35
19.15
18.41
17.31
16.13
14.29
11.09
6.42
1.04
-3.91
-7.64
-10.25
-12.61
-15.80
-20.37
-25.96
-31.27
-34.67
-34.82
-31.25
-24.62
-16.52
-9.00
-3.90
-2.24
-3.90
-7.75
-12.08
-15.29
-16.39
-15.21
-12.29
-8.51
-4.74
-1.54
0.85
2.39
3.14
3.12
2.29
0.60
-1.88
-4.85
-7.84
-10.24
-11.55
-11.60
-10.61
-9.04
-7.41
-5.97
-4.61
-2.94
-0.56
2.69
6.59
10.58
14.04
16.51
17.90
18.41
18.44
18.31
18.14
17.89
17.39
16.46
14.98
12.79
9.75
5.75
0.91
-4.35
-9.32
-13.16
-15.19
-15.14
-13.26
-10.19
-6.76
-3.61
-1.08
0.84
2.36
3.71
4.95
6.02
6.79
7.18
7.26
7.24
7.38
7.88
8.79
10.04
11.46
12.92
14.29
15.52
16.52
17.17
17.35
16.94
15.92
14.36
12.45
10.44
8.54
6.87
5.39
4.01
2.60
1.08
-0.56
-2.41
-4.54
-7.07
-9.96
-12.92
-15.38
-16.56
-15.86
-13.09
-8.56
-3.08
2.38
6.95
10.11
11.80
12.30
12.14
11.83
11.68
11.73
11.75
11.43
10.54
9.11
7.47
6.05
5.24
5.15
5.56
6.05
6.16
5.62
4.45
2.88
1.30
-0.01
-0.93
-1.67
-2.50
-3.73
-5.45
-7.53
-9.69
-11.66
-13.31
-14.64
-15.71
-16.61
-17.45
-18.39
-19.71
-21.64
-24.16
-26.88
-29.06
-29.82
-28.56
-25.14
-19.96
-13.70
-7.09
-0.66
5.26
10.49
14.89
18.35
20.76
22.09
22.41
21.85
20.63
19.04
17.42
16.13
15.42
15.35
15.78
16.42
17.04
17.51
17.89
18.26
18.65
18.84
18.52
17.36
15.24
12.41
9.38
6.73
4.81
3.60
2.75
1.77
0.29
-1.81
-4.34
-6.95
-9.27
-11.00
-12.01
-12.41
-12.56
-13.00
-14.22
-16.42
-19.26
-21.93
-23.44
-22.97
-20.28
-15.69
-9.99
-4.05
1.43
6.00
9.54
12.10
13.87
15.11
16.03
16.72
17.08
16.92
16.09
14.64
12.94
11.53
10.85
11.09
12.05
13.31
14.41
15.04
15.14
14.79
14.14
13.26
12.15
10.81
9.29
7.70
6.23
4.96
3.90
2.93
1.87
0.60
-0.87
-2.38
-3.70
-4.60
-4.96
-4.83
-4.52
-4.52
-5.43
-7.72
-11.51
-16.43
-21.58
-25.79
-27.98
-27.51
-24.39
-19.25
-13.11
-7.00
-1.65
2.65
5.97
8.57
10.67
12.32
13.45
13.91
13.71
13.07
12.34
11.86
11.79
12.04
12.33
12.39
12.10
11.64
11.28
11.33
11.83
12.53
12.93
12.57
11.22
9.09
6.72
4.72
3.48
2.93
2.61
1.94
0.56
-1.46
-3.65
-5.48
-6.67
-7.32
-7.80
-8.49
-9.58
-11.06
-12.89
-15.13
-17.93
-21.29
-24.84
-27.79
-29.15
-28.13
-24.57
-19.03
-12.57
-6.36
-1.27
2.41
4.83
6.39
7.42
8.02
8.00
7.14
5.39
3.11
1.04
-0.04
0.41
2.35
5.21
8.14
10.41
11.71
12.18
12.19
12.04
11.81
11.35
10.49
9.22
7.74
6.33
5.19
4.31
3.53
2.64
1.50
0.10
-1.46
-3.09
-4.75
-6.46
-8.20
-9.90
-11.37
-12.40
-12.89
-12.94
-12.97
-13.49
-14.96
-17.40
-20.32
-22.76
-23.69
-22.43
-18.95
-13.81
-7.96
-2.34
2.39
5.93
8.27
9.53
9.90
9.61
8.89
7.94
6.87
5.73
4.49
3.22
2.07
1.27
1.03
1.41
2.29
3.41
4.48
5.33
5.97
6.56
7.32
8.34
9.52
10.61
11.31
11.44
11.05
10.36
9.66
9.14
8.79
8.42
7.73
6.47
4.62
2.29
-0.24
-2.71
-4.92
-6.74
-8.08
-8.87
-9.14
-9.14
-9.44
-10.73
-13.54
-17.82
-22.80
-27.15
-29.54
-29.14
-26.00
-20.93
-15.08
-9.52
-4.87
-1.32
1.26
3.08
4.29
4.96
5.08
4.65
3.70
2.33
0.79
-0.62
-1.59
-1.92
-1.58
-0.72
0.45
1.69
2.91
4.06
5.16
6.18
6.99
7.40
7.20
6.35
5.01
3.56
2.51
2.20
2.63
3.42
3.97
3.79
2.74
1.10
-0.60
-1.81
-2.26
-1.96
-1.25
-0.62
-0.60
-1.63
-3.86
-7.08
-10.67
-13.77
-15.53
-15.50
-13.64
-10.32
-6.02
-1.23
3.63
8.11
11.62
13.65
13.96
12.81
10.95
9.24
8.30
8.17
8.43
8.54
8.23
7.66
7.28
7.48
8.30
9.35
10.10
10.17
9.56
8.61
7.74
7.17
6.82
6.40
5.56
4.20
2.43
0.52
-1.32
-3.03
-4.69
-6.38
-8.11
-9.71
-10.96
-11.66
-11.79
-11.50
-11.13
-11.08
-11.76
-13.45
-16.19
-19.71
-23.38
-26.36
-27.82
-27.20
-24.43
-19.92
-14.47
-8.91
-3.95
-0.01
2.81
4.63
5.64
6.06
5.99
5.50
4.65
3.58
2.51
1.68
1.28
1.33
1.72
2.23
2.67
2.97
3.22
3.60
4.25
5.20
6.32
7.36
8.07
8.28
8.00
7.32
6.42
5.36
4.13
2.64
0.91
-0.95
-2.68
-4.07
-5.11
-6.01
-7.08
-8.44
-9.97
-11.33
-12.25
-12.83
-13.57
-15.06
-17.53
-20.52
-23.01
-23.77
-22.08
-18.04
-12.57
-6.90
-2.02
1.71
4.51
6.90
9.20
11.42
13.21
14.18
14.11
13.08
11.49
9.81
8.46
7.67
7.41
7.55
7.90
8.36
8.95
9.72
10.66
11.63
12.37
12.61
12.24
11.42
10.53
9.94
9.80
9.88
9.76
8.99
7.48
5.54
3.77
2.80
2.91
3.83
4.85
5.03
3.49
-0.25
-6.03
-13.14
-20.40
-26.54
-30.48
-31.62
-29.99
-26.09
-20.79
-15.01
-9.52
-4.80
-1.05
1.74
3.65
4.77
5.09
4.62
3.42
1.72
-0.11
-1.64
-2.52
-2.66
-2.18
-1.40
-0.60
0.05
0.61
1.26
2.17
3.35
4.58
5.41
5.39
4.22
1.96
-0.95
-3.88
-6.15
-7.32
-7.30
-6.38
-5.13
-4.21
-4.19
-5.44
-8.03
-11.74
-16.03
-20.06
-22.93
-23.87
-22.51
-19.06
-14.27
-9.14
-4.57
-0.99
1.61
3.60
5.30
6.68
7.35
6.77
4.63
1.20
-2.65
-5.79
-7.32
-6.99
-5.25
-2.98
-1.00
0.38
1.42
2.65
4.41
6.49
8.12
8.30
6.36
2.36
-2.83
-7.75
-10.95
-11.44
-9.16
-4.98
-0.45
2.75
3.37
0.98
-3.85
-9.88
-15.68
-20.09
-22.47
-22.79
-21.39
-18.78
-15.50
-12.05
-8.79
-5.93
-3.43
-1.09
1.27
3.65
5.82
7.46
8.36
8.63
8.62
8.71
9.03
9.34
9.34
8.88
8.25
7.97
8.46
9.73
11.22
12.14
11.87
10.34
8.07
5.87
4.41
3.87
3.92
3.88
3.01
0.88
-2.52
-6.68
-10.72
-13.62
-14.55
-13.11
-9.38
-3.87
2.63
9.31
15.41
20.34
23.69
25.30
25.29
24.07
22.19
20.14
18.26
16.63
15.19
13.91
12.80
11.96
11.47
11.28
11.19
10.98
10.51
9.78
8.94
8.19
7.56
6.99
6.28
5.21
3.75
2.07
0.44
-0.86
-1.66
-2.00
-2.12
-2.41
-3.30
-5.17
-8.10
-11.73
-15.28
-17.70
-18.07
-15.92
-11.46
-5.44
1.16
7.45
12.87
17.20
20.44
22.69
24.11
24.90
25.27
25.38
25.23
24.75
23.85
22.55
21.09
19.78
18.88
18.47
18.37
18.30
17.93
17.08
15.72
13.96
11.93
9.76
7.53
5.36
3.35
1.69
0.44
-0.48
-1.38
-2.68
-4.64
-7.12
-9.53
-11.06
-11.04
-9.29
-6.32
-3.13
-0.89
-0.53
-2.54
-6.80
-12.64
-18.93
-24.36
-27.66
-27.99
-25.20
-19.87
-13.07
-5.98
0.44
5.75
9.90
13.14
15.69
17.62
18.88
19.31
18.82
17.50
15.65
13.67
11.95
10.73
10.04
9.76
9.78
10.02
10.43
10.95
11.39
11.40
10.70
9.17
7.05
4.90
3.34
2.80
3.24
4.14
4.76
4.47
3.13
1.17
-0.66
-1.67
-1.68
-1.07
-0.66
-1.24
-3.17
-6.25
-9.83
-13.15
-15.62
-17.08
-17.73
-18.05
-18.60
-19.89
-22.13
-25.13
-28.29
-30.67
-31.39
-29.83
-25.92
-20.09
-13.12
-5.89
0.83
6.51
10.89
13.96
15.90
17.04
17.73
18.13
18.24
17.90
16.99
15.57
14.01
12.77
12.17
12.25
12.74
13.27
13.58
13.61
13.46
13.16
12.64
11.68
10.14
8.14
6.05
4.29
3.09
2.35
1.68
0.63
-0.96
-2.88
-4.66
-5.83
-6.26
-6.22
-6.25
-6.91
-8.41
-10.55
-12.75
-14.40
-15.10
-14.88
-14.14
-13.42
-13.26
-13.94
-15.52
-17.91
-20.90
-24.15
-27.19
-29.37
-30.00
-28.57
-24.93
-19.47
-13.01
-6.58
-1.06
3.10
5.92
7.76
9.06
10.08
10.77
10.90
10.28
9.01
7.51
6.37
6.06
6.66
7.80
8.87
9.34
9.07
8.38
7.80
7.78
8.42
9.40
10.19
10.32
9.63
8.33
6.84
5.55
4.72
4.33
4.20
4.13
4.01
3.84
3.66
3.45
3.06
2.26
0.90
-0.88
-2.65
-3.88
-4.28
-4.08
-4.03
-5.04
-7.60
-11.42
-15.37
-17.96
-18.06
-15.38
-10.61
-4.98
0.28
4.45
7.37
9.31
10.54
11.23
11.33
10.76
9.62
8.17
6.76
5.64
4.87
4.32
3.84
3.39
3.08
3.10
3.52
4.26
5.06
5.64
5.80
5.60
5.19
4.76
4.36
3.92
3.26
2.26
0.94
-0.55
-2.00
-3.24
-4.21
-5.02
-5.83
-6.83
-8.05
-9.39
-10.67
-11.74
-12.56
-13.16
-13.62
-14.02
-14.47
-15.18
-16.42
-18.43
-21.17
-24.17
-26.58
-27.44
-26.10
-22.49
-17.18
-11.08
-5.12
0.10
4.35
7.68
10.23
12.07
13.15
13.41
12.81
11.46
9.58
7.46
5.39
3.61
2.25
1.35
0.90
0.76
0.79
0.83
0.82
0.70
0.50
0.23
-0.12
-0.58
-1.11
-1.61
-1.92
-1.87
-1.39
-0.54
0.48
1.42
2.04
2.16
1.70
0.70
-0.68
-2.17
-3.39
-4.02
-3.94
-3.23
-2.37
-1.99
-2.77
-5.09
-8.86
-13.43
-17.79
-20.85
-21.85
-20.58
-17.39
-12.99
-8.20
-3.74
-0.15
2.24
3.32
3.19
2.18
0.80
-0.43
-1.19
-1.53
-1.76
-2.25
-3.14
-4.18
-4.93
-4.90
-3.99
-2.53
-1.08
-0.09
0.32
0.41
0.65
1.30
2.28
3.16
3.44
2.88
1.65
0.20
-0.99
-1.68
-2.02
-2.37
-3.08
-4.19
-5.38
-6.05
-5.73
-4.41
-2.70
-1.74
-2.68
-6.11
-11.59
-17.75
-22.71
-24.93
-23.81
-19.85
-14.39
-8.87
-4.29
-0.88
1.73
4.04
6.27
8.22
9.48
9.74
9.17
8.31
7.82
8.13
9.16
10.37
11.13
11.10
10.43
9.72
9.61
10.46
12.09
13.88
15.15
15.46
14.86
13.76
12.61
11.68
10.80
9.63
7.87
5.56
3.08
0.95
-0.49
-1.30
-1.89
-2.73
-4.02
-5.64
-7.36
-9.12
-11.16
-13.88
-17.39
-21.22
-24.30
-25.45
-23.94
-19.88
-14.23
-8.28
-3.11
0.82
3.72
6.05
8.20
10.16
11.62
12.18
11.71
10.41
8.79
7.41
6.61
6.43
6.66
6.99
7.22
7.34
7.46
7.72
8.12
8.54
8.79
8.71
8.23
7.41
6.37
5.27
4.16
3.02
1.79
0.45
-0.94
-2.28
-3.46
-4.47
-5.41
-6.39
-7.44
-8.47
-9.39
-10.25
-11.33
-13.08
-15.81
-19.39
-23.15
-26.10
-27.31
-26.34
-23.36
-19.01
-14.06
-9.13
-4.54
-0.38
3.27
6.32
8.60
10.00
10.50
10.27
9.59
8.84
8.42
8.60
9.56
11.11
12.90
14.46
15.50
15.93
15.92
15.70
15.39
14.92
14.12
12.93
11.51
10.18
9.25
8.80
8.52
7.95
6.60
4.34
1.40
-1.73
-4.49
-6.55
-7.80
-8.34
-8.38
-8.21
-8.24
-8.98
-10.95
-14.40
-19.07
-24.06
-28.08
-29.89
-28.76
-24.77
-18.80
-12.06
-5.72
-0.50
3.43
6.24
8.26
9.64
10.41
10.45
9.74
8.38
6.67
4.97
3.60
2.72
2.36
2.41
2.77
3.35
4.14
5.07
6.04
6.87
7.38
7.44
7.04
6.29
5.30
4.17
2.91
1.50
-0.08
-1.75
-3.39
-4.80
-5.81
-6.28
-6.11
-5.37
-4.30
-3.34
-3.09
-4.05
-6.38
-9.69
-13.09
-15.38
-15.51
-12.95
-7.88
-1.12
6.18
12.86
18.09
21.55
23.31
23.75
23.26
22.13
20.53
18.51
16.23
13.94
11.97
10.60
9.89
9.67
9.52
9.10
8.25
7.13
6.10
5.48
5.37
5.46
5.25
4.36
2.71
0.66
-1.18
-2.32
-2.67
-2.59
-2.67
-3.44
-5.04
-7.23
-9.59
-11.71
-13.43
-14.79
-15.95
-17.15
-18.59
-20.48
-22.91
-25.80
-28.74
-31.00
-31.73
-30.27
-26.38
-20.42
-13.16
-5.62
1.34
7.10
11.39
14.24
15.85
16.51
16.45
15.86
14.88
13.65
12.39
11.39
10.92
11.10
11.77
12.51
12.84
12.40
11.15
9.31
7.33
5.60
4.32
3.49
2.93
2.50
2.11
1.84
1.78
2.03
2.52
3.01
3.19
2.79
1.72
0.19
-1.49
-2.97
-4.07
-4.85
-5.52
-6.33
-7.50
-9.25
-11.74
-15.11
-19.25
-23.67
-27.51
-29.71
-29.49
-26.61
-21.51
-15.09
-8.37
-2.12
3.29
7.78
11.42
14.31
16.47
17.94
18.73
18.91
18.54
17.71
16.57
15.36
14.36
13.81
13.78
14.14
14.60
14.81
14.62
14.07
13.40
12.82
12.43
12.04
11.31
9.98
8.02
5.73
3.63
2.19
1.65
1.89
2.49
2.95
2.87
2.13
0.80
-0.81
-2.40
-3.64
-4.34
-4.51
-4.39
-4.43
-5.21
-7.20
-10.56
-14.96
-19.67
-23.69
-26.16
-26.61
-25.04
-21.86
-17.65
-13.02
-8.41
-4.10
-0.23
3.14
5.96
8.11
9.48
9.95
9.54
8.44
7.06
5.91
5.41
5.74
6.79
8.23
9.69
10.96
12.06
13.12
14.26
15.44
16.38
16.69
16.06
14.39
11.92
9.11
6.55
4.74
3.86
3.79
4.10
4.24
3.76
2.47
0.55
-1.55
-3.29
-4.31
-4.55
-4.34
-4.30
-5.09
-7.17
-10.64
-15.07
-19.65
-23.36
-25.27
-24.83
-21.96
-17.11
-11.10
-4.88
0.68
4.96
7.74
9.20
9.72
9.75
9.57
9.22
8.55
7.42
5.92
4.45
3.53
3.56
4.56
6.10
7.56
8.42
8.56
8.24
7.91
7.91
8.21
8.51
8.44
7.80
6.69
5.42
4.32
3.55
3.05
2.68
2.28
1.81
1.31
0.80
0.22
-0.63
-1.95
-3.86
-6.24
-8.75
-10.89
-12.32
-13.05
-13.51
-14.51
-16.77
-20.57
-25.43
-30.22
-33.53
-34.28
-32.08
-27.38
-21.21
-14.71
-8.76
-3.73
0.39
3.82
6.72
9.12
10.92
12.00
12.36
12.12
11.53
10.87
10.37
10.18
10.35
10.87
11.71
12.82
14.12
15.46
16.57
17.22
17.21
16.54
15.37
13.98
12.61
11.33
10.04
8.57
6.84
4.92
3.09
1.66
0.76
0.25
-0.20
-0.99
-2.32
-4.14
-6.18
-8.06
-9.54
-10.50
-11.00
-11.31
-11.74
-12.71
-14.48
-17.08
-20.18
-23.11
-25.02
-25.24
-23.42
-19.71
-14.69
-9.11
-3.77
0.77
4.22
6.60
8.15
9.18
9.90
10.34
10.41
9.95
9.00
7.75
6.55
5.71
5.35
5.41
5.70
6.11
6.63
7.29
8.03
8.68
8.96
8.65
7.67
6.20
4.59
3.26
2.50
2.45
2.98
3.80
4.51
4.70
4.08
2.59
0.43
-1.95
-4.05
-5.41
-5.83
-5.45
-4.80
-4.61
-5.62
-8.30
-12.58
-17.76
-22.72
-26.19
-27.18
-25.34
-21.00
-15.03
-8.49
-2.31
2.96
7.12
10.17
12.20
13.26
13.43
12.91
11.97
11.00
10.36
10.21
10.51
11.05
11.56
11.86
11.99
12.14
12.53
13.30
14.34
15.40
16.06
15.97
14.99
13.33
11.42
9.74
8.60
7.99
7.67
7.29
6.62
5.57
4.15
2.39
0.26
-2.21
-4.94
-7.69
-10.30
-12.79
-15.40
-18.52
-22.38
-26.78
-31.11
-34.46
-35.99
-35.20
-32.01
-26.75
-20.05
-12.75
-5.82
-0.11
3.80
5.82
6.41
6.28
6.15
6.36
6.81
7.22
7.36
7.31
7.42
8.04
9.26
10.79
12.10
12.75
12.65
12.03
11.33
10.88
10.64
10.34
9.61
8.28
6.46
4.50
2.73
1.26
-0.01
-1.37
-3.11
-5.31
-7.87
-10.51
-12.83
-14.55
-15.61
-16.35
-17.41
-19.48
-22.88
-27.26
-31.62
-34.55
-34.94
-32.33
-27.14
-20.41
-13.35
-6.90
-1.47
2.92
6.48
9.36
11.60
13.09
13.78
13.68
12.92
11.76
10.45
9.19
8.16
7.48
7.24
7.49
8.17
9.10
9.97
10.42
10.20
9.28
7.87
6.38
5.22
4.68
4.73
5.06
5.16
4.56
3.05
0.75
-1.90
-4.44
-6.51
-8.02
-9.02
-9.67
-10.15
-10.76
-11.98
-14.32
-18.10
-23.07
-28.29
-32.41
-34.18
-33.03
-29.29
-23.92
-18.02
-12.39
-7.28
-2.66
1.54
5.22
8.13
10.02
10.86
10.76
9.95
8.62
6.96
5.21
3.71
2.85
2.94
3.98
5.68
7.50
8.87
9.40
8.96
7.71
6.03
4.40
3.27
2.94
3.50
4.81
6.49
8.10
9.30
9.97
10.26
10.39
10.50
10.48
10.04
8.83
6.70
3.85
0.74
-2.08
-4.18
-5.41
-5.90
-5.92
-5.88
-6.15
-7.12
-9.12
-12.31
-16.53
-21.19
-25.39
-28.08
-28.44
-26.18
-21.62
-15.63
-9.30
-3.61
0.94
4.28
6.73
8.63
10.18
11.31
11.88
11.75
11.05
10.17
9.56
9.65
10.56
12.13
13.97
15.63
16.84
17.62
18.21
18.92
19.85
20.77
21.17
20.51
18.55
15.49
11.95
8.64
6.00
4.03
2.37
0.63
-1.36
-3.49
-5.59
-7.68
-10.14
-13.52
-18.10
-23.53
-28.70
-32.11
-32.50
-29.39
-23.35
-15.70
-7.92
-1.15
4.16
8.12
11.12
13.45
15.19
16.22
16.48
16.03
15.13
14.10
13.22
12.65
12.44
12.62
13.27
14.42
15.97
17.61
18.85
19.20
18.40
16.63
14.43
12.42
11.02
10.21
9.53
8.47
6.68
4.26
1.58
-0.96
-3.20
-5.28
-7.43
-9.72
-12.05
-14.24
-16.39
-18.95
-22.44
-26.95
-31.72
-35.20
-35.64
-32.00
-24.60
-15.06
-5.62
1.87
6.60
9.03
10.25
11.35
12.82
14.45
15.61
15.78
14.85
13.22
11.59
10.59
10.57
11.38
12.59
13.67
14.31
14.58
14.87
15.54
16.69
17.95
18.67
18.23
16.55
14.16
12.08
11.23
11.90
13.52
14.87
14.71
12.36
8.13
3.06
-1.51
-4.61
-5.97
-6.04
-5.67
-5.74
-6.91
-9.48
-13.37
-18.18
-23.22
-27.58
-30.29
-30.56
-28.10
-23.20
-16.73
-9.85
-3.69
1.03
4.16
6.08
7.43
8.72
10.07
11.24
11.81
11.50
10.49
9.32
8.71
9.16
10.72
13.02
15.53
17.87
19.88
21.59
22.92
23.56
23.09
21.17
17.89
13.85
9.93
6.94
5.24
4.62
4.43
3.96
2.78
0.90
-1.30
-3.34
-4.79
-5.42
-5.24
-4.54
-3.82
-3.73
-4.92
-7.70
-11.77
-16.12
-19.35
-20.11
-17.81
-12.89
-6.70
-0.90
3.27
5.52
6.46
7.14
8.28
9.89
11.29
11.56
10.19
7.48
4.37
2.06
1.37
2.42
4.63
7.09
8.98
9.86
9.83
9.25
8.56
8.01
7.56
6.98
5.98
4.47
2.58
0.63
-1.13
-2.66
-4.16
-5.88
-7.88
-9.85
-11.36
-12.11
-12.31
-12.64
-13.91
-16.56
-20.22
-23.82
-26.03
-25.82
-22.96
-18.05
-12.15
-6.37
-1.39
2.52
5.47
7.61
9.00
9.53
9.07
7.61
5.47
3.21
1.45
0.63
0.81
1.62
2.49
2.93
2.75
2.13
1.45
0.96
0.70
0.48
0.04
-0.74
-1.73
-2.71
-3.53
-4.19
-4.82
-5.54
-6.33
-7.11
-7.85
-8.72
-10.07
-12.19
-14.97
-17.83
-19.81
-20.00
-17.97
-13.98
-8.84
-3.53
1.21
5.09
8.21
10.77
12.83
14.30
14.94
14.63
13.45
11.76
10.04
8.81
8.36
8.75
9.70
10.79
11.59
11.76
11.25
10.25
9.11
8.17
7.68
7.61
7.74
7.75
7.30
6.26
4.63
2.59
0.31
-2.04
-4.35
-6.56
-8.64
-10.68
-12.84
-15.35
-18.32
-21.62
-24.72
-26.85
-27.23
-25.43
-21.57
-16.29
-10.46
-4.93
-0.23
3.42
6.06
7.79
8.76
9.04
8.70
7.81
6.51
5.00
3.61
2.71
2.60
3.38
4.91
6.79
8.53
9.76
10.28
10.17
9.61
8.86
8.06
7.29
6.52
5.67
4.65
3.32
1.59
-0.60
-3.17
-5.88
-8.38
-10.25
-11.23
-11.31
-10.75
-10.14
-10.15
-11.34
-13.93
-17.65
-21.69
-24.97
-26.46
-25.54
-22.23
-17.20
-11.44
-5.96
-1.39
2.09
4.63
6.44
7.57
7.87
7.17
5.50
3.21
0.86
-0.94
-1.87
-1.97
-1.59
-1.18
-1.04
-1.21
-1.50
-1.63
-1.45
-0.99
-0.42
0.06
0.29
0.27
-0.00
-0.48
-1.17
-2.10
-3.24
-4.48
-5.56
-6.17
-6.02
-5.08
-3.62
-2.24
-1.70
-2.60
-5.10
-8.71
-12.44
-15.08
-15.66
-13.76
-9.58
-3.82
2.53
8.50
13.31
16.46
17.89
17.86
16.96
15.84
14.95
14.38
13.87
13.00
11.58
9.79
8.17
7.29
7.44
8.38
9.48
10.03
9.65
8.44
6.91
5.61
4.80
4.29
3.61
2.37
0.52
-1.60
-3.47
-4.75
-5.47
-6.03
-6.93
-8.45
-10.40
-12.26
-13.43
-13.67
-13.26
-12.99
-13.74
-16.01
-19.53
-23.30
-25.97
-26.41
-24.17
-19.68
-13.92
-8.05
-2.90
1.15
4.12
6.25
7.72
8.65
9.08
9.07
8.70
8.10
7.38
6.67
6.08
5.79
5.90
6.39
7.13
7.83
8.26
8.28
7.92
7.31
6.58
5.76
4.81
3.68
2.40
1.19
0.31
0.02
0.31
0.92
1.35
1.06
-0.27
-2.59
-5.51
-8.43
-10.81
-12.33
-12.97
-12.98
-12.76
-12.78
-13.44
-14.98
-17.25
-19.68
-21.36
-21.39
-19.23
-15.00
-9.42
-3.51
1.79
5.95
8.90
10.84
12.03
12.68
12.86
12.66
12.11
11.26
10.16
8.83
7.40
6.05
5.07
4.63
4.78
5.34
6.03
6.61
6.93
6.98
6.78
6.25
5.29
3.80
1.87
-0.20
-2.00
-3.26
-3.96
-4.41
-5.08
-6.33
-8.19
-10.37
-12.32
-13.56
-13.85
-13.29
-12.34
-11.60
-11.73
-13.20
-16.15
-20.30
-24.93
-29.06
-31.66
-31.98
-29.83
-25.56
-20.03
-14.25
-9.02
-4.77
-1.49
1.04
3.04
4.55
5.40
5.44
4.69
3.41
2.10
1.25
1.10
1.64
2.58
3.55
4.32
4.88
5.37
6.06
7.08
8.45
9.99
11.40
12.38
12.68
12.24
11.15
9.65
8.05
6.63
5.54
4.77
4.19
3.76
3.44
3.23
2.99
2.34
0.85
-1.77
-5.27
-8.87
-11.39
-11.85
-9.89
-5.95
-1.07
3.58
7.15
9.33
10.25
10.26
9.62
8.49
6.96
5.21
3.46
1.96
0.86
0.16
-0.29
-0.62
-0.98
-1.37
-1.74
-2.01
-2.11
-2.07
-2.03
-2.13
-2.47
-3.01
-3.61
-4.08
-4.30
-4.30
-4.33
-4.66
-5.46
-6.69
-8.09
-9.32
-10.12
-10.44
-10.43
-10.37
-10.56
-11.30
-12.80
-15.07
-17.89
-20.72
-22.87
-23.58
-22.37
-19.14
-14.21
-8.27
-2.12
3.47
7.98
11.17
13.08
13.98
14.25
14.19
13.98
13.57
12.82
11.66
10.16
8.67
7.56
7.16
7.51
8.31
9.11
9.53
9.41
8.88
8.19
7.54
6.90
6.02
4.66
2.81
0.78
-0.94
-1.99
-2.35
-2.38
-2.62
-3.49
-4.99
-6.81
-8.39
-9.25
-9.22
-8.52
-7.77
-7.77
-9.23
-12.43
-16.95
-21.75
-25.46
-26.89
-25.51
-21.56
-15.89
-9.57
-3.48
1.88
6.35
9.91
12.57
14.36
15.30
15.47
14.96
13.86
12.28
10.40
8.57
7.22
6.72
7.20
8.48
10.13
11.70
12.92
13.77
14.37
14.80
15.00
14.77
13.93
12.52
10.80
9.16
7.86
6.91
6.00
4.71
2.71
0.01
-3.03
-5.77
-7.64
-8.40
-8.35
-8.22
-8.96
-11.31
-15.41
-20.68
-25.96
-29.94
-31.62
-30.62
-27.26
-22.28
-16.56
-10.76
-5.27
-0.31
3.92
7.14
9.04
9.54
8.84
7.54
6.27
5.52
5.39
5.66
6.00
6.31
6.78
7.79
9.63
12.26
15.23
17.95
19.97
21.24
22.07
22.88
23.89
24.92
25.45
24.95
23.12
20.16
16.63
13.19
10.32
8.15
6.49
5.00
3.33
1.20
-1.64
-5.30
-9.81
-14.80
-19.62
-23.33
-25.07
-24.37
-21.30
-16.46
-10.69
-4.86
0.39
4.66
7.83
9.93
11.13
11.63
11.66
11.34
10.71
9.81
8.70
7.59
6.76
6.47
6.82
7.68
8.76
9.75
10.42
10.72
10.67
10.32
9.65
8.66
7.39
5.98
4.64
3.53
2.63
1.80
0.78
-0.60
-2.37
-4.35
-6.30
-7.99
-9.28
-10.17
-10.76
-11.37
-12.41
-14.35
-17.48
-21.63
-26.12
-29.83
-31.63
-30.77
-27.18
-21.49
-14.71
-7.78
-1.39
4.16
8.78
12.45
15.14
16.77
17.33
16.91
15.71
14.01
12.09
10.27
8.84
7.98
7.77
8.16
8.95
10.00
11.21
12.57
14.07
15.62
16.92
17.60
17.37
16.17
14.34
12.40
10.91
10.13
9.93
9.87
9.36
7.98
5.63
2.59
-0.64
-3.47
-5.50
-6.58
-6.87
-6.81
-7.04
-8.23
-10.82
-14.88
-19.89
-24.85
-28.52
-29.87
-28.47
-24.63
-19.28
-13.53
-8.29
-3.95
-0.44
2.55
5.21
7.42
8.79
8.91
7.60
5.08
2.06
-0.64
-2.29
-2.60
-1.74
-0.20
1.46
2.94
4.24
5.55
7.06
8.70
10.20
11.19
11.43
11.00
10.24
9.58
9.31
9.42
9.58
9.41
8.62
7.19
5.40
3.62
2.19
1.29
0.87
0.78
0.72
0.29
-0.91
-3.24
-6.78
-11.12
-15.39
-18.41
-19.15
-17.15
-12.65
-6.58
-0.15
5.64
10.21
13.52
15.78
17.31
18.26
18.61
18.31
17.35
15.89
14.21
12.64
11.43
10.69
10.35
10.26
10.21
10.04
9.76
9.45
9.24
9.24
9.36
9.42
9.18
8.45
7.21
5.62
3.93
2.41
1.19
0.26
-0.47
-1.19
-2.06
-3.25
-4.81
-6.73
-8.87
-11.01
-12.83
-14.10
-14.75
-15.03
-15.46
-16.67
-19.09
-22.67
-26.72
-30.13
-31.75
-30.83
-27.29
-21.69
-14.99
-8.21
-2.11
2.87
6.62
9.26
11.02
12.16
12.84
13.14
13.03
12.50
11.59
10.51
9.56
8.99
8.98
9.51
10.44
11.55
12.64
13.50
13.99
14.06
13.74
13.15
12.42
11.60
10.63
9.37
7.70
5.70
3.58
1.69
0.27
-0.66
-1.28
-1.94
-2.90
-4.27
-5.93
-7.64
-9.14
-10.24
-10.87
-10.98
-10.58
-9.78
-8.90
-8.42
-8.87
-10.52
-13.13
-15.91
-17.73
-17.60
-15.08
-10.48
-4.74
0.99
5.84
9.46
12.03
14.01
15.82
17.56
19.07
19.95
19.84
18.56
16.27
13.40
10.55
8.27
6.91
6.52
6.89
7.68
8.57
9.35
9.95
10.45
10.90
11.28
11.49
11.35
10.66
9.38
7.61
5.60
3.73
2.27
1.38
1.01
0.94
0.93
0.78
0.40
-0.19
-0.91
-1.64
-2.30
-2.85
-3.33
-3.84
-4.60
-5.89
-7.97
-10.95
-14.68
-18.69
-22.30
-24.70
-25.23
-23.53
-19.67
-14.12
-7.65
-1.16
4.59
9.11
12.32
14.42
15.74
16.59
17.11
17.25
16.92
16.19
15.33
14.82
15.15
16.64
19.22
22.48
25.82
28.70
30.79
32.10
32.82
33.12
32.99
32.23
30.56
27.83
24.19
20.06
15.84
11.70
7.42
2.53
-3.32
-10.05
-16.93
-22.89
-26.96
-28.75
-28.76
-28.20
-28.51
-30.81
-35.44
-41.91
-49.07
-55.52
-60.10
-62.17
-61.59
-58.65
-53.85
-47.79
-40.98
-33.87
-26.78
-19.95
-13.59
-7.99
-3.59
-0.85
-0.21
-1.78
-5.25
-9.99
-15.20
-20.19
-24.47
-27.77
-29.85
-30.45
-29.32
-26.37
-21.79
-16.10
-10.05
-4.49
-0.26
2.00
2.02
0.00
-3.39
-7.16
-10.30
-12.17
-12.61
-11.91
-10.63
-9.36
-8.55
-8.53
-9.32
-10.64
-11.92
-12.39
-11.41
-8.79
-4.81
-0.18
4.31
8.12
11.03
13.04
14.19
14.43
13.60
11.63
8.63
4.94
1.04
-2.57
-5.45
-7.26
-7.87
-7.28
-5.67
-3.31
-0.52
2.40
5.22
7.64
9.36
10.05
9.47
7.61
4.71
1.28
-2.12
-5.08
-7.50
-9.62
-11.96
-15.08
-19.31
-24.59
-30.44
-36.00
-40.31
-42.55
-42.29
-39.58
-35.02
-29.51
-24.12
-19.77
-16.92
-15.61
-15.49
-16.15
-17.34
-19.17
-21.87
-25.63
-30.27
-35.27
-39.94
-43.56
-45.77
-46.43
-45.76
-44.14
-42.19
-40.69
-40.43
-41.97
-45.36
-50.02
-54.91
-58.82
-60.82
-60.44
-57.72
-53.00
-46.77
-39.53
-31.75
-23.74
-15.61
-7.09
2.40
13.50
26.68
41.83
58.20
74.46
89.01
100.38
107.58
110.31
109.05
105.01
99.81
95.11
92.09
91.14
91.75
92.87
93.40
92.67
90.75
88.25
85.96
84.30
83.02
81.24
77.83
71.95
63.45
52.95
41.69
31.08
22.28
15.90
11.98
10.12
9.58
9.57
9.25
8.00
5.52
1.95
-2.04
-5.48
-7.40
-7.17
-4.82
-1.03
3.12
6.55
8.54
8.98
8.28
7.12
6.03
5.23
4.53
3.55
1.99
-0.24
-2.89
-5.58
-7.89
-9.54
-10.34
-10.26
-9.36
-7.84
-6.02
-4.27
-2.85
-1.73
-0.63
0.84
2.91
5.46
7.94
9.60
9.82
8.38
5.60
2.20
-0.90
-3.06
-4.07
-4.28
-4.48
-5.52
-7.93
-11.63
-15.86
-19.44
-21.22
-20.53
-17.44
-12.67
-7.25
-2.08
2.38
6.12
9.45
12.65
15.83
18.86
21.49
23.42
24.47
24.53
23.62
21.93
19.81
17.74
16.20
15.44
15.36
15.51
15.36
14.53
13.00
11.00
8.85
6.69
4.43
1.85
-1.12
-4.34
-7.39
-9.82
-11.38
-12.11
-12.35
-12.51
-12.87
-13.53
-14.37
-15.18
-15.72
-15.85
-15.54
-14.88
-14.05
-13.27
-12.72
-12.63
-13.15
-14.34
-16.08
-17.96
-19.36
-19.54
-17.96
-14.50
-9.54
-3.83
1.75
6.47
9.95
12.15
13.28
13.66
13.58
13.24
12.66
11.79
10.58
9.08
7.50
6.20
5.48
5.42
5.84
6.35
6.58
6.37
5.88
5.45
5.38
5.70
6.20
6.49
6.25
5.44
4.31
3.20
2.37
1.86
1.48
0.99
0.27
-0.57
-1.28
-1.64
-1.53
-1.08
-0.52
-0.08
0.06
-0.09
-0.52
-1.13
-1.83
-2.50
-2.96
-3.06
-2.76
-2.27
-1.97
-2.32
-3.51
-5.25
-6.81
-7.31
-6.14
-3.29
0.65
4.78
8.28
10.73
12.18
12.87
13.00
12.61
11.62
10.02
7.97
5.76
3.66
1.80
0.15
-1.34
-2.70
-3.84
-4.59
-4.87
-4.72
-4.27
-3.73
-3.28
-3.03
-3.00
-3.18
-3.47
-3.72
-3.79
-3.57
-3.06
-2.41
-1.84
-1.58
-1.73
-2.22
-2.75
-2.99
-2.67
-1.80
-0.66
0.26
0.50
-0.15
-1.57
-3.33
-4.94
-6.02
-6.41
-6.17
-5.48
-4.61
-3.90
-3.79
-4.64
-6.61
-9.34
-12.10
-13.89
-14.00
-12.27
-9.20
-5.69
-2.67
-0.72
0.01
-0.29
-1.35
-2.86
-4.59
-6.38
-8.05
-9.51
-10.74
-11.81
-12.79
-13.74
-14.65
-15.45
-16.10
-16.56
-16.77
-16.64
-16.08
-15.11
-13.95
-12.99
-12.63
-13.09
-14.30
-15.83
-17.16
-17.93
-18.15
-18.18
-18.50
-19.43
-20.92
-22.55
-23.76
-24.08
-23.27
-21.47
-19.08
-16.67
-14.86
-14.13
-14.58
-15.85
-17.02
-16.93
-14.57
-9.47
-1.96
6.93
15.85
23.58
29.39
33.11
35.08
35.84
35.93
35.72
35.39
34.98
34.47
33.83
33.03
32.07
30.97
29.70
28.24
26.62
24.90
23.21
21.65
20.22
18.77
17.09
15.03
12.60
10.01
7.54
5.40
3.61
1.99
0.27
-1.72
-3.94
-6.15
-8.03
-9.34
-10.11
-10.62
-11.34
-12.70
-14.81
-17.34
-19.60
-20.77
-20.35
-18.36
-15.35
-12.13
-9.43
-7.65
-6.80
-6.73
-7.30
-8.44
-10.04
-11.88
-13.63
-14.91
-15.55
-15.52
-14.99
-14.18
-13.20
-12.11
-10.94
-9.75
-8.66
-7.74
-7.03
-6.48
-6.04
-5.70
-5.49
-5.49
-5.75
-6.24
-6.96
-7.84
-8.85
-9.92
-11.02
-12.07
-12.97
-13.59
-13.81
-13.63
-13.22
-12.89
-12.97
-13.58
-14.50
-15.21
-15.06
-13.62
-10.81
-7.03
-2.94
0.75
3.50
5.09
5.64
5.53
5.25
5.17
5.48
6.01
6.48
6.59
6.32
5.93
5.81
6.23
7.13
8.14
8.74
8.62
7.81
6.64
5.53
4.78
4.42
4.25
3.99
3.43
2.46
1.05
-0.73
-2.83
-5.17
-7.57
-9.73
-11.27
-11.95
-11.91
-11.71
-12.18
-14.02
-17.38
-21.65
-25.64
-28.06
-28.11
-25.77
-21.76
-17.15
-12.81
-9.19
-6.21
-3.57
-0.99
1.51
3.65
5.00
5.26
4.42
2.88
1.31
0.36
0.35
1.10
2.06
2.61
2.47
1.87
1.36
1.55
2.63
4.30
5.93
6.80
6.52
5.14
3.04
0.71
-1.49
-3.43
-5.15
-6.71
-8.10
-9.35
-10.53
-11.96
-14.10
-17.31
-21.67
-26.69
-31.42
-34.75
-35.88
-34.63
-31.49
-27.37
-23.18
-19.43
-16.16
-13.08
-9.91
-6.69
-3.72
-1.49
-0.31
-0.14
-0.62
-1.18
-1.38
-0.91
0.22
1.88
3.86
5.96
7.99
9.84
11.47
12.94
14.37
15.83
17.21
18.19
18.39
17.48
15.47
12.70
9.77
7.28
5.57
4.61
4.07
3.46
2.27
0.11
-3.23
-7.74
-13.09
-18.64
-23.42
-26.39
-26.77
-24.26
-19.24
-12.65
-5.64
0.71
5.72
9.20
11.37
12.62
13.29
13.60
13.61
13.28
12.61
11.73
10.86
10.27
10.14
10.49
11.24
12.17
13.14
14.05
14.84
15.44
15.74
15.55
14.74
13.24
11.17
8.79
6.43
4.32
2.52
0.92
-0.71
-2.57
-4.74
-7.18
-9.66
-11.96
-13.91
-15.48
-16.90
-18.60
-21.09
-24.61
-28.94
-33.27
-36.37
-37.06
-34.66
-29.32
-21.95
-13.82
-6.15
0.35
5.54
9.65
12.97
15.67
17.71
18.88
19.04
18.24
16.81
15.26
14.11
13.77
14.29
15.47
16.92
18.29
19.42
20.37
21.33
22.41
23.60
24.64
25.24
25.11
24.16
22.54
20.58
18.68
17.09
15.85
14.76
13.52
11.83
9.60
7.00
4.31
1.85
-0.25
-1.93
-3.28
-4.27
-4.87
-5.08
-5.18
-5.81
-7.68
-11.19
-16.02
-21.06
-24.69
-25.54
-23.01
-17.48
-10.15
-2.36
4.89
11.21
16.63
21.31
25.13
27.79
28.92
28.45
26.71
24.35
22.01
20.11
18.70
17.60
16.63
15.81
15.38
15.66
16.76
18.45
20.20
21.39
21.63
20.87
19.42
17.73
16.10
14.54
12.85
10.78
8.31
5.77
3.74
2.74
2.90
3.92
5.09
5.73
5.45
4.31
2.75
1.28
0.20
-0.60
-1.63
-3.60
-7.14
-12.50
-19.42
-27.05
-34.15
-39.43
-41.85
-40.99
-37.08
-30.87
-23.36
-15.47
-7.92
-1.12
4.65
9.18
12.33
14.05
14.54
14.17
13.42
12.76
12.39
12.28
12.24
12.06
11.70
11.38
11.46
12.25
13.83
15.98
18.29
20.28
21.63
22.31
22.51
22.54
22.64
22.81
22.82
22.29
20.90
18.52
15.33
11.75
8.22
5.11
2.53
0.43
-1.31
-2.87
-4.44
-6.34
-8.97
-12.73
-17.71
-23.41
-28.79
-32.46
-33.30
-30.87
-25.53
-18.30
-10.36
-2.68
4.14
9.85
14.33
17.49
19.34
20.04
19.92
19.37
18.70
17.99
17.14
16.05
14.73
13.44
12.57
12.48
13.24
14.65
16.27
17.65
18.52
18.80
18.64
18.17
17.45
16.43
14.97
13.00
10.55
7.83
5.05
2.37
-0.20
-2.77
-5.50
-8.40
-11.40
-14.27
-16.78
-18.77
-20.25
-21.46
-22.85
-24.94
-28.05
-32.09
-36.43
-39.96
-41.53
-40.33
-36.21
-29.77
-22.06
-14.23
-7.06
-0.93
4.23
8.58
12.23
15.08
16.88
17.40
16.66
14.92
12.75
10.77
9.46
9.05
9.44
10.33
11.41
12.48
13.46
14.33
15.00
15.35
15.16
14.32
12.83
10.90
8.84
6.97
5.47
4.35
3.48
2.65
1.66
0.41
-1.17
-3.05
-5.19
-7.50
-9.80
-11.80
-13.15
-13.68
-13.52
-13.29
-13.93
-16.32
-20.78
-26.77
-32.91
-37.47
-39.04
-37.02
-31.84
-24.62
-16.68
-9.11
-2.48
3.03
7.44
10.82
13.18
14.55
14.96
14.49
13.26
11.48
9.46
7.59
6.24
5.66
5.81
6.44
7.20
7.84
8.30
8.68
9.10
9.52
9.71
9.33
8.20
6.42
4.34
2.38
0.79
-0.46
-1.63
-2.93
-4.35
-5.60
-6.28
-6.15
-5.36
-4.46
-4.19
-5.21
-7.78
-11.69
-16.29
-20.69
-24.00
-25.49
-24.71
-21.57
-16.28
-9.36
-1.54
6.35
13.51
19.27
23.22
25.25
25.53
24.48
22.60
20.38
18.17
16.15
14.37
12.84
11.60
10.75
10.38
10.58
11.29
12.35
13.47
14.33
14.65
14.28
13.20
11.57
9.61
7.54
5.47
3.32
0.91
-1.91
-5.14
-8.54
-11.71
-14.35
-16.30
-17.70
-18.82
-19.98
-21.45
-23.44
-26.08
-29.36
-33.03
-36.47
-38.78
-38.99
-36.43
-31.10
-23.68
-15.37
-7.45
-0.95
3.69
6.55
8.05
8.68
8.82
8.66
8.27
7.71
7.11
6.67
6.60
6.97
7.71
8.61
9.47
10.19
10.75
11.23
11.64
11.92
11.94
11.56
10.75
9.55
8.12
6.59
5.02
3.45
1.87
0.27
-1.33
-2.84
-4.19
-5.34
-6.30
-7.15
-8.05
-9.22
-10.98
-13.66
-17.49
-22.36
-27.80
-32.94
-36.76
-38.35
-37.22
-33.36
-27.27
-19.79
-11.93
-4.60
1.50
6.05
9.18
11.34
13.09
14.74
16.21
17.08
16.89
15.53
13.48
11.65
10.93
11.79
13.95
16.65
19.00
20.47
21.07
21.19
21.20
21.21
20.99
20.17
18.60
16.50
14.31
12.39
10.72
8.88
6.28
2.56
-2.15
-7.14
-11.47
-14.32
-15.44
-15.23
-14.73
-15.11
-17.28
-21.49
-27.12
-33.02
-37.81
-40.44
-40.45
-37.97
-33.49
-27.64
-21.02
-14.13
-7.54
-1.79
2.66
5.56
7.00
7.31
6.95
6.27
5.49
4.73
4.08
3.67
3.68
4.24
5.44
7.23
9.48
11.97
14.38
16.41
17.79
18.35
18.09
17.16
15.80
14.26
12.69
11.13
9.45
7.51
5.14
2.37
-0.62
-3.43
-5.59
-6.76
-6.92
-6.49
-6.31
-7.28
-9.98
-14.32
-19.41
-23.87
-26.27
-25.73
-22.10
-16.02
-8.53
-0.67
6.80
13.53
19.36
24.21
27.94
30.34
31.28
30.77
29.08
26.66
24.01
21.58
19.66
18.33
17.50
16.99
16.60
16.22
15.83
15.42
14.93
14.22
13.04
11.17
8.58
5.49
2.37
-0.24
-1.97
-2.82
-3.11
-3.41
-4.24
-5.83
-8.07
-10.59
-13.00
-15.04
-16.60
-17.72
-18.48
-19.00
-19.56
-20.60
-22.64
-25.96
-30.30
-34.71
-37.78
-38.16
-35.18
-29.08
-21.01
-12.44
-4.64
1.72
6.61
10.37
13.38
15.76
17.42
18.17
17.95
16.93
15.50
14.14
13.21
12.89
13.10
13.61
14.16
14.60
14.93
15.22
15.53
15.79
15.83
15.44
14.48
12.98
11.19
9.46
8.08
7.20
6.72
6.35
5.71
4.53
2.70
0.36
-2.21
-4.73
-6.96
-8.88
-10.54
-12.05
-13.47
-14.89
-16.43
-18.34
-20.83
-23.94
-27.27
-29.98
-31.05
-29.66
-25.60
-19.39
-12.13
-5.07
0.82
5.19
8.22
10.36
12.04
13.35
14.16
14.19
13.33
11.71
9.77
8.08
7.12
7.11
7.96
9.34
10.83
12.14
13.20
14.14
15.13
16.26
17.39
18.19
18.29
17.51
15.97
14.07
12.35
11.16
10.56
10.26
9.84
8.89
7.27
5.07
2.56
0.06
-2.15
-3.86
-4.96
-5.49
-5.70
-6.15
-7.58
-10.65
-15.56
-21.83
-28.26
-33.42
-36.10
-35.77
-32.69
-27.67
-21.69
-15.55
-9.72
-4.40
0.34
4.43
7.75
10.17
11.62
12.06
11.56
10.29
8.53
6.66
5.14
4.32
4.40
5.31
6.78
8.42
9.82
10.73
11.04
10.75
9.93
8.57
6.70
4.40
1.96
-0.25
-1.87
-2.80
-3.28
-3.80
-4.90
-6.81
-9.27
-11.64
-13.18
-13.45
-12.59
-11.27
-10.41
-10.76
-12.69
-15.93
-19.79
-23.40
-25.90
-26.71
-25.49
-22.19
-17.03
-10.48
-3.25
3.82
9.92
14.47
17.28
18.57
18.79
18.45
17.98
17.59
17.34
17.23
17.26
17.45
17.87
18.52
19.32
20.14
20.77
21.04
20.88
20.35
19.57
18.68
17.70
16.51
14.92
12.84
10.38
7.85
5.60
3.76
2.21
0.62
-1.34
-3.80
-6.58
-9.34
-11.76
-13.73
-15.45
-17.33
-19.83
-23.30
-27.69
-32.52
-36.95
-39.94
-40.62
-38.59
-34.09
-27.89
-21.03
-14.41
-8.61
-3.77
0.20
3.47
6.11
8.05
9.17
9.41
8.84
7.69
6.29
5.04
4.23
4.07
4.49
5.31
6.26
7.09
7.69
8.03
8.17
8.17
8.06
7.81
7.31
6.46
5.22
3.66
1.94
0.35
-0.86
-1.61
-2.04
-2.45
-3.20
-4.49
-6.27
-8.27
-10.12
-11.57
-12.55
-13.22
-13.96
-15.18
-17.23
-20.13
-23.53
-26.67
-28.65
-28.68
-26.43
-22.13
-16.47
-10.32
-4.45
0.61
4.55
7.28
8.83
9.39
9.27
8.84
8.39
8.05
7.73
7.31
6.78
6.32
6.23
6.76
7.96
9.65
11.49
13.13
14.39
15.23
15.74
16.00
15.99
15.59
14.64
13.11
11.18
9.19
7.53
6.46
5.90
5.47
4.64
2.99
0.47
-2.60
-5.60
-7.93
-9.21
-9.47
-9.06
-8.52
-8.47
-9.40
-11.64
-15.24
-19.87
-24.90
-29.37
-32.29
-32.91
-30.92
-26.59
-20.66
-14.18
-8.09
-3.08
0.64
3.23
5.04
6.36
7.31
7.76
7.52
6.57
5.14
3.72
2.83
2.82
3.69
5.14
6.72
8.11
9.24
10.21
11.23
12.36
13.46
14.19
14.23
13.42
11.90
9.99
8.09
6.40
4.96
3.59
2.12
0.47
-1.27
-2.91
-4.28
-5.29
-5.97
-6.42
-6.91
-7.73
-9.24
-11.64
-14.85
-18.34
-21.23
-22.51
-21.46
-17.89
-12.31
-5.67
0.98
6.83
11.49
14.92
17.23
18.52
18.80
18.06
16.44
14.24
11.96
10.12
9.03
8.74
9.04
9.57
9.98
10.15
10.06
9.86
9.60
9.25
8.70
7.80
6.55
5.05
3.53
2.19
1.16
0.41
-0.25
-1.07
-2.26
-3.85
-5.75
-7.72
-9.56
-11.19
-12.66
-14.10
-15.60
-17.17
-18.80
-20.62
-22.85
-25.74
-29.29
-32.99
-35.91
-36.96
-35.41
-31.16
-24.83
-17.47
-10.13
-3.53
2.06
6.61
10.18
12.76
14.27
14.67
14.04
12.61
10.73
8.80
7.21
6.32
6.29
7.06
8.31
9.57
10.46
10.81
10.76
10.59
10.55
10.65
10.64
10.18
9.13
7.62
6.05
4.84
4.17
3.91
3.65
2.96
1.62
-0.30
-2.44
-4.41
-5.89
-6.80
-7.32
-7.71
-8.27
-9.21
-10.69
-12.83
-15.66
-19.05
-22.63
-25.76
-27.63
-27.58
-25.31
-20.99
-15.25
-8.95
-2.91
2.28
6.35
9.27
11.20
12.34
12.77
12.58
11.79
10.54
9.12
7.97
7.54
8.02
9.32
10.99
12.49
13.48
13.94
14.16
14.48
14.97
15.36
15.20
14.10
12.08
9.59
7.29
5.72
4.95
4.59
3.98
2.58
0.21
-2.83
-5.98
-8.62
-10.33
-11.01
-10.91
-10.53
-10.55
-11.64
-14.28
-18.48
-23.71
-28.96
-32.98
-34.73
-33.68
-29.97
-24.25
-17.49
-10.62
-4.34
0.94
5.08
8.14
10.28
11.73
12.62
13.04
12.98
12.46
11.55
10.46
9.52
8.95
8.89
9.28
9.98
10.88
11.94
13.13
14.33
15.29
15.64
15.11
13.69
11.75
9.87
8.61
8.13
8.16
8.09
7.35
5.76
3.59
1.40
-0.35
-1.52
-2.36
-3.33
-4.79
-6.93
-9.75
-13.16
-17.11
-21.41
-25.66
-29.14
-30.97
-30.42
-27.26
-21.93
-15.39
-8.79
-3.11
1.13
3.86
5.40
6.15
6.48
6.58
6.50
6.24
5.87
5.56
5.57
6.10
7.18
8.57
9.88
10.77
11.15
11.21
11.30
11.66
12.20
12.56
12.29
11.11
9.14
6.80
4.62
2.94
1.74
0.70
-0.56
-2.32
-4.52
-6.94
-9.28
-11.39
-13.27
-15.00
-16.69
-18.40
-20.27
-22.47
-25.19
-28.40
-31.72
-34.38
-35.41
-34.07
-30.14
-24.11
-16.92
-9.68
-3.21
2.08
6.19
9.27
11.44
12.77
13.27
13.01
12.15
10.98
9.84
9.03
8.79
9.17
10.04
11.17
12.29
13.19
13.78
14.11
14.27
14.31
14.21
13.80
12.98
11.74
10.27
8.88
7.83
7.20
6.78
6.21
5.14
3.40
1.08
-1.53
-4.08
-6.32
-8.14
-9.64
-11.06
-12.78
-15.16
-18.43
-22.46
-26.67
-30.14
-31.87
-31.14
-27.79
-22.27
-15.50
-8.54
-2.24
2.89
6.77
9.58
11.62
13.18
14.43
15.46
16.24
16.76
17.01
17.10
17.24
17.61
18.26
19.18
20.13
20.87
21.21
21.11
20.67
20.04
19.32
18.48
17.42
16.08
14.52
12.97
11.62
10.54
9.54
8.26
6.33
3.62
0.30
-3.13
-6.14
-8.25
-9.33
-9.57
-9.51
-9.89
-11.44
-14.62
-19.36
-24.95
-30.24
-33.97
-35.22
-33.67
-29.70
-24.11
-17.79
-11.50
-5.74
-0.72
3.46
6.79
9.22
10.77
11.47
11.44
10.90
10.16
9.55
9.38
9.78
10.77
12.18
13.85
15.61
17.35
18.90
20.05
20.59
20.31
19.21
17.51
15.56
13.72
12.18
10.90
9.64
8.10
6.13
3.74
1.18
-1.27
-3.32
-4.85
-5.95
-6.89
-8.12
-10.09
-13.18
-17.48
-22.60
-27.76
-31.89
-33.97
-33.38
-30.08
-24.63
-17.92
-10.94
-4.47
0.98
5.21
8.24
10.19
11.22
11.54
11.31
10.71
9.85
8.92
8.08
7.55
7.48
7.95
8.87
10.07
11.33
12.46
13.33
13.83
13.84
13.27
12.06
10.31
8.23
6.14
4.27
2.67
1.19
-0.39
-2.27
-4.42
-6.64
-8.68
-10.33
-11.59
-12.53
-13.28
-13.98
-14.78
-15.98
-17.94
-20.89
-24.64
-28.49
-31.34
-32.05
-29.99
-25.26
-18.71
-11.52
-4.70
1.16
5.96
9.85
12.95
15.22
16.49
16.67
15.88
14.42
12.75
11.24
10.18
9.68
9.74
10.33
11.35
12.65
14.03
15.26
16.14
16.54
16.50
16.09
15.46
14.71
13.86
12.89
11.82
10.69
9.55
8.47
7.46
6.48
5.40
4.09
2.43
0.38
-2.00
-4.51
-6.93
-9.08
-10.97
-12.85
-15.14
-18.20
-22.05
-26.17
-29.66
-31.48
-30.96
-27.98
-23.04
-16.96
-10.54
-4.34
1.36
6.48
10.91
14.48
17.01
18.40
18.75
18.29
17.34
16.19
15.10
14.22
13.64
13.47
13.70
14.32
15.19
16.09
16.80
17.16
17.11
16.73
16.13
15.42
14.57
13.50
12.11
10.46
8.72
7.20
6.13
5.49
5.01
4.23
2.73
0.36
-2.68
-5.89
-8.69
-10.65
-11.67
-12.02
-12.23
-12.90
-14.51
-17.31
-21.14
-25.52
-29.70
-32.82
-34.11
-33.06
-29.54
-23.91
-16.86
-9.37
-2.36
3.48
7.81
10.72
12.56
13.71
14.42
14.68
14.39
13.52
12.30
11.22
10.81
11.41
12.97
15.01
16.92
18.17
18.64
18.58
18.42
18.49
18.80
19.09
18.91
17.95
16.17
13.93
11.76
10.16
9.36
9.17
9.12
8.65
7.39
5.36
2.85
0.28
-2.03
-4.03
-5.86
-7.72
-9.73
-11.93
-14.42
-17.34
-20.90
-25.10
-29.54
-33.41
-35.73
-35.68
-32.99
-28.05
-21.74
-15.07
-8.92
-3.80
0.09
2.77
4.40
5.16
5.29
5.01
4.54
4.06
3.71
3.63
3.91
4.65
5.81
7.25
8.67
9.78
10.43
10.69
10.81
11.06
11.60
12.29
12.82
12.84
12.13
10.73
8.90
7.02
5.38
4.19
3.43
2.97
2.55
1.90
0.79
-0.89
-3.05
-5.44
-7.71
-9.52
-10.72
-11.43
-12.04
-13.12
-15.20
-18.45
-22.61
-26.92
-30.35
-31.97
-31.24
-28.23
-23.48
-17.77
-11.86
-6.26
-1.22
3.13
6.73
9.43
11.14
11.86
11.78
11.20
10.49
9.88
9.48
9.21
8.98
8.80
8.76
9.04
9.71
10.71
11.81
12.71
13.19
13.18
12.77
12.09
11.27
10.40
9.54
8.74
8.09
7.61
7.28
7.10
7.00
6.99
7.03
7.05
6.90
6.34
5.16
3.31
0.99
-1.41
-3.44
-4.80
-5.56
-6.21
-7.49
-10.12
-14.37
-19.82
-25.44
-29.90
-32.11
-31.62
-28.69
-24.10
-18.77
-13.39
-8.36
-3.85
0.03
3.17
5.51
7.05
7.93
8.27
8.16
7.60
6.63
5.46
4.45
4.00
4.33
5.43
7.02
8.72
10.25
11.49
12.44
13.13
13.55
13.67
13.44
12.88
12.14
11.36
10.70
10.20
9.83
9.45
8.87
7.90
6.45
4.54
2.36
0.24
-1.52
-2.71
-3.31
-3.55
-3.85
-4.77
-6.74
-9.93
-14.06
-18.40
-21.95
-23.76
-23.27
-20.48
-15.98
-10.66
-5.44
-0.96
2.52
5.05
6.81
7.96
8.56
8.58
8.00
6.89
5.45
3.96
2.72
1.96
1.75
1.99
2.43
2.87
3.21
3.49
3.91
4.64
5.69
6.87
7.85
8.30
8.09
7.30
6.23
5.19
4.39
3.81
3.29
2.59
1.56
0.14
-1.54
-3.32
-5.11
-6.86
-8.60
-10.37
-12.14
-13.86
-15.52
-17.26
-19.36
-22.07
-25.44
-29.07
-32.17
-33.81
-33.28
-30.40
-25.56
-19.60
-13.42
-7.74
-2.94
0.95
4.05
6.51
8.44
9.82
10.57
10.66
10.15
9.26
8.39
7.96
8.30
9.43
11.10
12.84
14.19
14.91
15.09
15.00
14.95
15.04
15.09
14.79
13.83
12.19
10.06
7.86
5.93
4.40
3.21
2.11
0.88
-0.61
-2.41
-4.44
-6.57
-8.62
-10.41
-11.74
-12.46
-12.52
-12.03
-11.42
-11.26
-12.18
-14.50
-17.98
-21.74
-24.55
-25.31
-23.43
-19.15
-13.38
-7.28
-1.81
2.57
5.95
8.69
11.13
13.32
15.02
15.85
15.57
14.23
12.21
10.09
8.44
7.59
7.58
8.19
9.10
10.05
10.92
11.66
12.30
12.79
13.04
12.94
12.37
11.32
9.84
8.17
6.56
5.28
4.39
3.74
3.01
1.91
0.32
-1.60
-3.51
-5.04
-6.05
-6.59
-6.89
-7.17
-7.58
-8.24
-9.30
-11.00
-13.57
-17.00
-20.87
-24.31
-26.34
-26.16
-23.54
-18.89
-13.11
-7.16
-1.75
2.81
6.54
9.54
11.87
13.39
13.92
13.38
11.96
10.08
8.31
7.09
6.59
6.69
7.08
7.49
7.79
8.05
8.40
8.97
9.67
10.31
10.58
10.27
9.33
7.90
6.18
4.45
2.86
1.49
0.35
-0.56
-1.24
-1.68
-1.96
-2.24
-2.73
-3.59
-4.87
-6.48
-8.26
-10.04
-11.73
-13.36
-15.10
-17.23
-20.02
-23.57
-27.61
-31.52
-34.40
-35.40
-33.98
-30.23
-24.74
-18.39
-12.08
-6.48
-1.89
1.61
4.12
5.78
6.75
7.20
7.27
7.07
6.68
6.19
5.72
5.44
5.52
6.01
6.82
7.74
8.53
9.00
9.15
9.11
9.03
9.01
9.01
8.89
8.48
7.69
6.60
5.37
4.23
3.36
2.85
2.66
2.65
2.67
2.53
2.15
1.49
0.59
-0.51
-1.79
-3.23
-4.74
-6.28
-7.81
-9.44
-11.44
-14.09
-17.50
-21.40
-25.08
-27.57
-28.03
-26.10
-22.01
-16.48
-10.36
-4.38
1.08
5.91
10.14
13.78
16.73
18.84
19.96
20.03
19.16
17.57
15.64
13.81
12.52
12.01
12.33
13.22
14.32
15.26
15.87
16.22
16.47
16.74
16.98
16.97
16.42
15.22
13.48
11.55
9.80
8.42
7.35
6.26
4.77
2.68
0.03
-2.88
-5.67
-7.96
-9.56
-10.44
-10.70
-10.55
-10.28
-10.26
-10.94
-12.73
-15.74
-19.66
-23.74
-26.92
-28.27
-27.30
-24.15
-19.51
-14.33
-9.41
-5.17
-1.65
1.33
3.90
6.01
7.42
7.98
7.72
6.96
6.17
5.80
5.99
6.63
7.43
8.13
8.69
9.27
10.10
11.34
12.88
14.40
15.46
15.72
15.07
13.69
12.01
10.53
9.56
9.13
8.91
8.44
7.29
5.34
2.78
0.00
-2.60
-4.81
-6.65
-8.24
-9.73
-11.28
-13.02
-15.14
-17.80
-20.96
-24.20
-26.77
-27.76
-26.56
-23.06
-17.84
-11.90
-6.24
-1.60
1.82
4.22
5.93
7.20
8.04
8.33
7.91
6.81
5.31
3.89
3.06
3.16
4.19
5.81
7.51
8.79
9.41
9.46
9.21
8.97
8.86
8.77
8.42
7.56
6.13
4.34
2.52
1.00
-0.09
-0.84
-1.50
-2.34
-3.52
-5.02
-6.68
-8.30
-9.72
-10.85
-11.72
-12.46
-13.29
-14.49
-16.37
-19.08
-22.50
-26.13
-29.14
-30.62
-29.88
-26.74
-21.57
-15.18
-8.49
-2.29
2.96
7.10
10.16
12.27
13.55
14.13
14.10
13.61
12.81
11.87
10.94
10.16
9.62
9.39
9.47
9.80
10.31
10.85
11.35
11.71
11.91
11.89
11.60
10.94
9.84
8.32
6.62
5.11
4.16
3.98
4.48
5.30
5.93
5.97
5.19
3.71
1.77
-0.29
-2.21
-3.84
-5.08
-5.92
-6.42
-6.81
-7.54
-9.11
-11.90
-15.88
-20.45
-24.55
-27.02
-26.96
-24.12
-18.97
-12.44
-5.65
0.48
5.48
9.28
12.12
14.25
15.80
16.69
16.71
15.72
13.85
11.53
9.42
8.12
7.98
8.91
10.47
12.08
13.23
13.72
13.66
13.31
12.92
12.56
12.12
11.36
10.17
8.60
6.97
5.66
5.00
5.08
5.66
6.30
6.51
6.05
4.97
3.58
2.28
1.33
0.72
0.24
-0.39
-1.39
-2.85
-4.81
-7.35
-10.60
-14.50
-18.66
-22.33
-24.51
-24.38
-21.66
-16.76
-10.62
-4.31
1.27
5.69
8.95
11.25
12.85
13.82
14.16
13.88
13.04
11.91
10.83
10.11
9.94
10.28
10.94
11.62
12.10
12.26
12.20
12.07
12.01
12.02
11.98
11.68
10.96
9.86
8.60
7.48
6.73
6.33
6.05
5.53
4.44
2.69
0.43
-2.03
-4.35
-6.39
-8.15
-9.74
-11.25
-12.66
-13.88
-14.93
-16.05
-17.58
-19.83
-22.71
-25.61
-27.61
-27.76
-25.56
-21.22
-15.52
-9.48
-3.93
0.73
4.51
7.61
10.18
12.15
13.24
13.16
11.75
9.17
5.86
2.56
-0.04
-1.40
-1.39
-0.22
1.64
3.69
5.61
7.31
8.83
10.24
11.50
12.50
13.13
13.37
13.34
13.20
13.04
12.88
12.62
12.13
11.36
10.33
9.11
7.78
6.27
4.49
2.25
-0.48
-3.62
-6.87
-9.81
-12.03
-13.33
-13.81
-13.94
-14.43
-15.92
-18.62
-22.19
-25.78
-28.34
-29.07
-27.71
-24.57
-20.34
-15.76
-11.36
-7.36
-3.81
-0.70
1.91
3.89
5.13
5.58
5.26
4.38
3.22
2.17
1.60
1.78
2.77
4.37
6.26
8.04
9.49
10.61
11.54
12.46
13.37
14.12
14.39
13.91
12.64
10.81
8.87
7.28
6.25
5.71
5.34
4.73
3.67
2.19
0.56
-0.94
-2.11
-2.91
-3.46
-3.97
-4.73
-6.04
-8.21
-11.36
-15.29
-19.35
-22.57
-23.98
-22.91
-19.37
-13.95
-7.58
-1.28
4.24
8.60
11.72
13.65
14.47
14.23
13.02
10.98
8.36
5.51
2.81
0.56
-1.05
-1.91
-2.09
-1.70
-0.95
-0.05
0.80
1.45
1.86
2.07
2.20
2.32
2.40
2.34
2.01
1.40
0.61
-0.20
-0.86
-1.28
-1.54
-1.79
-2.22
-2.91
-3.87
-5.01
-6.19
-7.32
-8.33
-9.24
-10.12
-11.16
-12.64
-14.83
-17.86
-21.49
-25.09
-27.71
-28.50
-27.02
-23.43
-18.44
-12.92
-7.64
-2.98
0.96
4.21
6.77
8.56
9.45
9.44
8.66
7.33
5.73
4.13
2.84
2.14
2.23
3.12
4.56
6.14
7.46
8.34
8.90
9.43
10.26
11.44
12.80
13.91
14.38
14.06
13.07
11.79
10.63
9.84
9.43
9.15
8.70
7.80
6.34
4.38
2.14
-0.11
-2.09
-3.55
-4.37
-4.64
-4.68
-5.09
-6.51
-9.37
-13.60
-18.56
-23.18
-26.33
-27.25
-25.78
-22.35
-17.76
-12.81
-8.13
-4.06
-0.75
1.79
3.55
4.60
5.03
4.93
4.46
3.76
3.00
2.40
2.16
2.42
3.21
4.35
5.62
6.76
7.63
8.27
8.81
9.41
10.13
10.87
11.47
11.82
11.94
11.97
12.13
12.46
12.80
12.79
12.04
10.39
8.01
5.38
3.07
1.49
0.81
0.80
0.98
0.75
-0.46
-2.96
-6.72
-11.21
-15.56
-18.76
-20.00
-18.89
-15.59
-10.71
-5.11
0.41
5.23
8.98
11.49
12.79
13.02
12.40
11.24
9.82
8.42
7.25
6.43
6.02
5.98
6.23
6.65
7.10
7.46
7.66
7.65
7.43
7.01
6.42
5.69
4.83
3.84
2.77
1.70
0.73
0.01
-0.38
-0.53
-0.63
-0.98
-1.81
-3.18
-4.91
-6.66
-8.09
-8.98
-9.38
-9.57
-9.97
-10.97
-12.75
-15.21
-17.88
-20.13
-21.27
-20.82
-18.66
-15.02
-10.41
-5.45
-0.75
3.23
6.28
8.38
9.69
10.46
10.85
10.90
10.48
9.48
7.91
6.00
4.15
2.78
2.16
2.30
2.98
3.94
4.92
5.78
6.43
6.87
7.10
7.15
7.04
6.75
6.26
5.59
4.83
4.21
3.95
4.15
4.67
5.15
5.11
4.28
2.68
0.69
-1.19
-2.53
-3.22
-3.38
-3.35
-3.56
-4.46
-6.34
-9.29
-13.07
-17.02
-20.27
-21.91
-21.41
-18.81
-14.68
-9.96
-5.58
-2.17
0.11
1.47
2.35
3.17
4.13
5.14
5.93
6.19
5.83
5.03
4.26
3.99
4.47
5.58
6.86
7.73
7.82
7.08
5.81
4.39
3.06
1.84
0.53
-1.04
-2.79
-4.42
-5.52
-5.87
-5.56
-5.04
-4.86
-5.35
-6.43
-7.61
-8.27
-7.91
-6.46
-4.29
-2.13
-0.74
-0.69
-2.15
-4.79
-7.90
-10.55
-11.84
-11.19
-8.52
-4.24
0.81
5.72
9.76
12.57
14.20
14.90
14.92
14.36
13.22
11.55
9.57
7.67
6.34
5.85
6.20
7.03
7.89
8.39
8.40
8.05
7.56
7.09
6.62
6.07
5.33
4.43
3.54
2.84
2.39
2.06
1.60
0.73
-0.64
-2.40
-4.25
-5.96
-7.38
-8.54
-9.48
-10.26
-10.90
-11.45
-12.14
-13.24
-14.93
-17.07
-19.09
-20.22
-19.77
-17.54
-13.87
-9.51
-5.25
-1.65
1.06
2.94
4.15
4.79
4.94
4.66
4.04
3.26
2.46
1.75
1.20
0.83
0.73
0.93
1.44
2.10
2.72
3.02
2.84
2.19
1.27
0.40
-0.14
-0.20
0.16
0.73
1.26
1.50
1.39
0.90
0.10
-0.93
-2.14
-3.44
-4.75
-5.95
-7.00
-7.99
-9.18
-10.94
-13.49
-16.77
-20.27
-23.16
-24.60
-24.09
-21.63
-17.78
-13.31
-9.03
-5.44
-2.71
-0.76
0.68
1.87
3.07
4.35
5.67
6.82
7.56
7.78
7.57
7.27
7.29
7.91
9.09
10.49
11.60
11.98
11.51
10.34
8.89
7.60
6.74
6.39
6.43
6.63
6.73
6.51
5.79
4.53
2.79
0.81
-1.08
-2.53
-3.29
-3.40
-3.16
-3.12
-3.97
-6.19
-9.92
-14.72
-19.73
-23.80
-25.95
-25.69
-23.15
-19.11
-14.56
-10.44
-7.24
-4.95
-3.17
-1.44
0.38
2.15
3.42
3.87
3.43
2.50
1.74
1.73
2.69
4.42
6.38
8.03
9.10
9.71
10.20
10.89
11.91
13.07
14.01
14.40
14.07
13.10
11.72
10.14
8.50
6.82
5.11
3.48
2.14
1.26
0.94
0.96
0.76
-0.31
-2.75
-6.58
-11.21
-15.55
-18.36
-18.80
-16.65
-12.43
-7.07
-1.59
3.27
7.16
10.04
11.99
13.10
13.42
13.02
12.06
10.80
9.56
8.64
8.21
8.25
8.59
9.00
9.26
9.33
9.27
9.25
9.33
9.41
9.27
8.61
7.30
5.42
3.26
1.15
-0.65
-2.11
-3.38
-4.67
-6.16
-7.88
-9.72
-11.52
-13.12
-14.42
-15.40
-16.11
-16.71
-17.45
-18.56
-20.17
-22.08
-23.77
-24.48
-23.58
-20.82
-16.46
-11.15
-5.69
-0.71
3.48
6.75
9.13
10.63
11.28
11.18
10.54
9.65
8.74
7.96
7.31
6.79
6.43
6.32
6.56
7.24
8.26
9.47
10.61
11.45
11.82
11.67
11.04
10.04
8.79
7.47
6.22
5.19
4.43
3.95
3.61
3.23
2.63
1.71
0.40
-1.30
-3.38
-5.74
-8.20
-10.44
-12.16
-13.27
-14.04
-15.05
-16.84
-19.54
-22.61
-24.95
-25.42
-23.37
-19.00
-13.23
-7.25
-2.00
2.15
5.40
8.14
10.64
12.92
14.77
16.00
16.61
16.77
16.75
16.78
16.96
17.28
17.66
18.01
18.28
18.45
18.54
18.56
18.55
18.46
18.16
17.49
16.34
14.67
12.67
10.63
8.80
7.33
6.12
4.96
3.61
2.00
0.22
-1.56
-3.17
-4.49
-5.49
-6.15
-6.56
-6.91
-7.55
-8.89
-11.27
-14.70
-18.74
-22.60
-25.33
-26.20
-24.87
-21.57
-16.99
-11.94
-7.16
-3.11
0.16
2.78
4.91
6.58
7.65
7.94
7.42
6.39
5.33
4.78
5.04
6.01
7.25
8.28
8.76
8.73
8.53
8.59
9.12
10.05
10.99
11.53
11.42
10.59
9.19
7.30
4.95
2.05
-1.39
-5.12
-8.59
-11.10
-12.07
-11.32
-9.22
-6.61
-4.52
-3.88
-5.25
-8.60
-13.41
-18.76
-23.59
-26.92
-28.16
-27.16
-24.21
-19.96
-15.20
-10.58
-6.58
-3.34
-0.88
0.87
1.87
2.01
1.24
-0.35
-2.41
-4.45
-6.01
-6.84
-7.00
-6.74
-6.30
-5.84
-5.31
-4.59
-3.54
-2.13
-0.53
0.97
2.00
2.22
1.47
-0.10
-2.10
-3.98
-5.31
-5.91
-5.99
-6.00
-6.56
-8.19
-11.18
-15.51
-20.81
-26.41
-31.40
-34.84
-36.04
-34.71
-31.10
-25.86
-19.93
-14.10
-8.86
-4.27
-0.07
4.10
8.44
12.83
16.91
20.18
22.32
23.37
23.61
23.43
23.08
22.58
21.76
20.51
18.87
17.09
15.43
14.04
12.76
11.23
9.12
6.28
2.91
-0.52
-3.44
-5.38
-6.16
-5.96
-5.25
-4.62
-4.67
-5.71
-7.70
-10.19
-12.47
-13.82
-13.75
-12.12
-9.10
-5.02
-0.34
4.39
8.55
11.57
13.05
12.92
11.41
8.86
5.51
1.54
-2.88
-7.19
-10.42
-11.44
-9.46
-4.61
2.01
8.68
13.82
16.66
17.41
17.01
16.47
16.37
16.68
16.97
16.70
15.63
13.87
11.73
9.45
6.91
3.67
-0.87
-6.99
-14.27
-21.52
-27.20
-30.08
-29.76
-26.80
-22.29
-17.33
-12.44
-7.67
-2.90
1.71
5.63
8.26
9.35
9.37
9.22
9.70
11.00
12.68
14.04
14.80
15.36
16.58
19.03
22.53
26.06
28.31
28.56
27.14
25.21
23.98
23.89
24.41
24.40
23.04
20.33
17.18
14.73
13.67
13.96
14.95
16.03
16.87
17.42
17.51
16.59
13.86
8.78
1.73
-5.94
-12.27
-15.58
-15.29
-12.11
-7.77
-4.31
-3.37
-5.79
-11.48
-19.57
-28.64
-36.88
-42.48
-43.98
-40.69
-32.87
-21.62
-8.60
4.50
16.32
25.94
33.00
37.53
40.01
41.12
41.53
41.53
40.86
38.92
35.27
30.23
25.24
22.34
23.28
28.40
36.10
43.24
46.34
43.06
33.31
19.49
5.60
-4.25
-7.27
-2.88
7.43
20.90
34.19
43.87
46.58
39.29
20.30
-9.56
-45.85
-81.09
-106.89
-117.19
-110.85
-92.04
-68.20
-46.42
-30.56
-20.52
-13.69
-7.63
-1.82
2.30
2.86
-0.58
-6.34
-11.48
-13.42
-11.58
-7.56
-4.13
-3.52
-6.17
-10.55
-14.10
-14.78
-12.22
-8.02
-5.00
-5.74
-11.41
-20.88
-31.61
-40.94
-47.37
-50.94
-52.94
-54.96
-58.20
-62.94
-68.44
-73.78
-78.60
-83.32
-88.72
-95.31
-102.94
-111.09
-119.32
-126.96
-134.24
-142.39
-153.15
-167.58
-185.38
-204.81
-223.51
-238.97
-246.46
-241.99
-223.98
-194.58
-159.07
-124.42
-97.66
-84.13
-85.67
-95.05
-102.07
-98.56
-82.13
-55.55
-23.97
7.56
35.40
58.19
84.37
122.75
176.82
241.99
309.30
370.99
423.27
466.01
501.75
544.05
604.98
688.71
789.25
896.37
1002.62
1105.02
1202.50
1231.02
1143.47
934.59
650.65
356.09
97.71
-104.19
-248.48
-345.01
-408.01
-441.38
-446.49
-426.88
-391.81
-353.07
-320.08
-298.01
-288.48
-290.31
-293.05
-286.56
-266.29
-236.27
-204.73
-179.04
-162.71
-156.20
-157.91
-160.47
-156.91
-144.02
-124.45
-103.34
-84.97
-71.36
-62.68
-58.09
-54.02
-47.37
-36.88
-24.59
-13.33
-5.19
-0.96
-0.66
-4.26
-11.44
-23.14
-35.94
-50.20
-67.15
-88.00
-113.08
-141.19
-169.36
-193.25
-208.38
-211.62
-203.19
-185.69
-163.15
-139.49
-117.24
-97.16
-78.86
-61.66
-45.36
-30.98
-19.43
-11.02
-5.25
-1.06
2.62
6.39
10.23
13.62
15.58
15.58
13.72
10.73
7.54
4.90
3.13
2.12
1.55
1.07
0.66
0.51
0.72
0.98
0.54
-1.54
-5.86
-12.26
-19.68
-26.41
-30.71
-31.49
-28.69
-23.24
-16.69
-10.56
-5.89
-2.98
-1.52
-0.86
-0.48
-0.18
-0.18
-0.76
-2.01
-3.53
-4.52
-4.19
-2.12
1.46
5.78
9.98
13.55
16.44
18.95
21.32
23.42
24.80
25.11
24.32
22.98
21.85
21.38
21.41
21.16
19.73
16.73
12.65
8.59
5.67
4.36
4.23
4.19
3.26
1.00
-2.34
-6.16
-10.02
-13.86
-17.83
-21.86
-25.30
-27.03
-25.94
-21.64
-14.77
-6.87
0.31
5.53
8.47
9.74
10.30
10.89
11.71
12.38
12.45
11.66
10.29
8.91
8.15
8.31
9.22
10.37
11.21
11.44
11.13
10.60
10.21
10.12
10.17
10.09
9.59
8.67
7.56
6.57
5.92
5.51
5.08
4.29
2.95
1.16
-0.80
-2.59
-3.94
-4.74
-5.05
-5.12
-5.41
-6.49
-8.85
-12.57
-17.11
-21.30
-23.71
-23.21
-19.45
-12.97
-4.98
3.17
10.47
16.45
21.13
24.66
27.10
28.33
28.14
26.46
23.47
19.66
15.71
12.24
9.69
8.17
7.52
7.43
7.63
7.97
8.43
9.04
9.79
10.51
10.99
10.95
10.39
9.45
8.54
7.99
7.88
7.89
7.46
6.08
3.60
0.34
-3.01
-5.74
-7.43
-8.02
-7.89
-7.59
-7.78
-9.05
-11.71
-15.72
-20.45
-24.87
-27.74
-28.19
-25.99
-21.71
-16.41
-11.16
-6.59
-2.79
0.53
3.61
6.39
8.42
9.20
8.47
6.44
3.78
1.34
-0.21
-0.60
-0.01
1.12
2.37
3.55
4.73
6.13
7.92
10.08
12.37
14.49
16.23
17.52
18.45
19.02
19.08
18.37
16.64
13.91
10.57
7.25
4.56
2.80
1.79
1.01
-0.21
-2.43
-5.86
-10.37
-15.50
-20.56
-24.75
-27.29
-27.60
-25.42
-20.99
-15.05
-8.65
-2.89
1.44
4.04
5.20
5.50
5.60
5.90
6.50
7.20
7.72
7.86
7.60
7.14
6.78
6.88
7.69
9.33
11.64
14.24
16.62
18.32
19.05
18.83
17.92
16.75
15.76
15.18
14.96
14.76
14.06
12.45
9.82
6.52
3.25
0.78
-0.38
-0.24
0.72
1.63
1.61
0.06
-3.16
-7.63
-12.53
-16.84
-19.54
-19.89
-17.48
-12.40
-5.30
2.69
10.10
15.53
18.10
17.78
15.43
12.44
10.08
8.97
8.91
9.13
8.85
7.84
6.43
5.35
5.18
6.01
7.39
8.63
9.17
8.80
7.74
6.43
5.22
4.24
3.32
2.19
0.61
-1.50
-4.05
-6.87
-9.75
-12.49
-14.90
-16.80
-18.10
-18.78
-19.03
-19.25
-19.87
-21.22
-23.37
-26.00
-28.46
-30.02
-30.03
-28.23
-24.74
-20.05
-14.81
-9.69
-5.16
-1.42
1.53
3.84
5.70
7.22
8.35
8.93
8.80
7.93
6.57
5.18
4.25
4.13
4.83
6.16
7.86
9.82
12.13
14.94
18.24
21.76
25.01
27.43
28.67
28.61
27.38
25.30
22.69
19.91
17.32
15.27
13.97
13.35
13.04
12.38
10.58
7.07
1.70
-5.06
-12.19
-18.34
-22.30
-23.34
-21.53
-17.60
-12.63
-7.61
-3.07
0.86
4.34
7.41
9.94
11.65
12.33
12.08
11.29
10.40
9.66
8.98
7.99
6.34
3.98
1.26
-1.20
-2.81
-3.30
-2.85
-1.96
-1.24
-1.04
-1.34
-1.73
-1.68
-0.84
0.76
2.66
4.29
5.20
5.33
5.01
4.67
4.52
4.47
4.17
3.26
1.61
-0.75
-3.72
-7.42
-12.08
-17.82
-24.31
-30.62
-35.47
-37.70
-36.76
-33.03
-27.57
-21.83
-16.92
-13.43
-11.20
-9.68
-8.24
-6.57
-4.80
-3.36
-2.65
-2.71
-3.10
-3.10
-2.08
0.10
3.00
5.85
7.94
9.05
9.51
9.90
10.71
11.98
13.31
14.08
13.90
12.79
11.18
9.63
8.51
7.73
6.87
5.43
3.17
0.25
-2.72
-5.12
-6.49
-6.81
-6.50
-6.22
-6.75
-8.62
-12.07
-16.84
-22.22
-27.23
-30.81
-32.19
-31.11
-27.83
-23.05
-17.60
-12.22
-7.39
-3.29
0.05
2.70
4.77
6.30
7.35
7.92
8.08
7.89
7.50
7.10
6.86
6.88
7.19
7.79
8.66
9.80
11.24
12.90
14.61
16.08
16.99
17.21
16.84
16.20
15.69
15.52
15.67
15.87
15.81
15.42
14.74
13.99
13.28
12.57
11.70
10.51
8.96
7.04
4.63
1.54
-2.45
-7.21
-12.18
-16.33
-18.60
-18.30
-15.47
-10.93
-5.84
-1.34
1.97
4.05
5.29
6.18
6.95
7.51
7.58
6.92
5.59
4.00
2.76
2.42
3.18
4.76
6.58
7.99
8.60
8.37
7.64
6.80
6.18
5.88
5.79
5.72
5.53
5.16
4.62
3.95
3.18
2.27
1.25
0.16
-0.91
-1.90
-2.75
-3.46
-4.03
-4.47
-4.77
-4.92
-4.91
-4.76
-4.58
-4.60
-5.24
-6.89
-9.72
-13.39
-17.08
-19.66
-20.23
-18.48
-14.88
-10.37
-5.97
-2.31
0.47
2.57
4.21
5.45
6.21
6.38
5.97
5.16
4.17
3.20
2.43
2.05
2.23
3.09
4.59
6.48
8.33
9.76
10.55
10.83
10.95
11.32
12.16
13.32
14.34
14.72
14.14
12.72
10.97
9.53
8.83
8.90
9.30
9.36
8.57
6.76
4.20
1.43
-1.05
-2.98
-4.43
-5.62
-6.82
-8.19
-9.83
-11.82
-14.33
-17.47
-21.09
-24.72
-27.55
-28.71
-27.65
-24.40
-19.60
-14.24
-9.22
-5.05
-1.79
0.78
2.89
4.53
5.48
5.50
4.58
3.01
1.32
0.07
-0.41
-0.12
0.70
1.75
2.83
3.88
5.01
6.28
7.64
8.90
9.87
10.45
10.66
10.65
10.64
10.78
11.12
11.66
12.29
12.94
13.51
13.86
13.85
13.36
12.36
10.95
9.37
7.94
6.94
6.50
6.47
6.42
5.71
3.72
0.14
-4.78
-10.20
-14.95
-17.95
-18.63
-17.11
-14.05
-10.35
-6.72
-3.54
-0.91
1.24
2.90
3.98
4.36
3.98
2.98
1.62
0.27
-0.73
-1.11
-0.77
0.22
1.62
3.11
4.44
5.47
6.17
6.58
6.74
6.65
6.26
5.51
4.47
3.25
2.06
1.09
0.45
0.15
0.07
0.05
-0.10
-0.48
-1.18
-2.16
-3.35
-4.64
-5.93
-7.16
-8.29
-9.32
-10.22
-10.95
-11.62
-12.45
-13.79
-15.88
-18.61
-21.42
-23.45
-23.89
-22.37
-19.07
-14.70
-10.05
-5.73
-2.04
1.06
3.59
5.55
6.78
7.19
6.77
5.71
4.31
2.82
1.50
0.52
0.04
0.16
0.90
2.10
3.52
4.82
5.79
6.37
6.70
7.04
7.59
8.40
9.24
9.75
9.60
8.63
7.03
5.22
3.63
2.52
1.79
1.01
-0.28
-2.37
-5.16
-8.17
-10.77
-12.47
-13.12
-12.93
-12.38
-12.00
-12.32
-13.73
-16.46
-20.45
-25.22
-29.90
-33.39
-34.71
-33.40
-29.67
-24.29
-18.30
-12.61
-7.76
-3.90
-0.94
1.25
2.72
3.44
3.39
2.62
1.34
-0.13
-1.38
-2.10
-2.14
-1.53
-0.46
0.95
2.64
4.69
7.13
9.77
12.26
14.16
15.19
15.33
14.87
14.19
13.53
12.92
12.20
11.21
9.96
8.61
7.37
6.32
5.29
4.03
2.33
0.26
-1.93
-3.96
-5.85
-8.05
-11.19
-15.81
-21.82
-28.35
-34.01
-37.40
-37.78
-35.32
-31.06
-26.39
-22.61
-20.54
-20.62
-23.09
-28.01
-34.89
-42.46
-48.58
-50.82
-47.19
-37.13
-21.64
-2.75
17.42
37.34
56.17
73.35
88.18
99.69
106.51
106.86
98.97
81.66
54.98
20.74
-17.48
-55.02
-86.93
-110.03
-123.89
-130.57
-133.28
-135.01
-137.69
-142.24
-148.96
-156.74
-164.62
-172.08
-178.64
-183.03
-183.13
-176.71
-162.45
-140.26
-108.57
-67.01
-17.35
36.35
88.97
135.29
170.61
191.56
197.11
193.03
186.11
181.20
179.65
181.26
185.93
194.14
206.36
222.60
247.32
282.48
325.98
371.80
413.98
449.07
475.96
494.84
473.84
398.15
278.43
145.81
28.23
-61.90
-125.23
-168.25
-198.07
-220.16
-232.35
-232.14
-218.08
-193.76
-163.46
-129.81
-93.98
-57.11
-21.62
12.36
35.68
41.51
26.63
-5.25
-44.54
-80.37
-105.59
-118.88
-121.14
-115.58
-104.94
-91.77
-77.59
-63.27
-50.11
-39.87
-33.97
-31.38
-29.98
-27.13
-21.48
-13.40
-4.26
4.01
9.60
11.46
9.84
6.23
2.77
0.95
1.05
2.65
4.96
7.03
8.25
8.43
7.92
7.60
8.36
10.18
12.91
16.26
19.79
23.05
25.63
27.25
27.92
28.00
27.12
25.33
22.70
19.12
14.12
6.74
-4.53
-22.23
-43.40
-67.99
-96.13
-127.30
-159.68
-189.94
-213.91
-227.85
-229.81
-220.22
-202.42
-180.19
-156.61
-133.33
-110.85
-89.23
-68.86
-50.50
-34.75
-22.18
-12.31
-4.11
3.14
9.41
13.92
15.78
14.63
11.19
6.66
2.66
0.56
0.92
3.44
7.29
11.59
15.75
19.62
23.12
26.32
29.28
31.95
34.22
35.94
36.99
37.33
37.04
36.18
34.91
33.41
31.84
30.35
29.01
27.76
26.43
24.73
22.42
19.41
15.89
12.33
9.23
6.72
4.41
1.36
-3.48
-10.67
-19.78
-29.37
-37.48
-42.32
-42.99
-39.65
-33.29
-25.25
-16.66
-8.34
-0.75
5.79
11.00
14.70
16.86
17.66
17.43
16.51
15.18
13.58
11.84
10.09
8.52
7.36
6.72
6.59
6.85
7.34
7.97
8.76
9.84
11.28
12.95
14.52
15.43
15.29
13.92
11.63
8.98
6.74
5.35
4.74
4.38
3.55
1.66
-1.71
-6.75
-13.47
-21.52
-30.36
-39.38
-47.95
-55.66
-62.58
-69.33
-76.94
-86.31
-97.30
-109.08
-120.72
-131.80
-142.50
-153.04
-162.96
-170.34
-171.94
-163.17
-140.93
-105.42
-60.10
-10.03
39.98
86.34
126.48
158.41
182.36
198.51
206.74
207.47
202.80
196.20
190.76
187.78
186.71
189.07
195.29
203.63
210.56
212.85
208.90
198.75
183.89
167.26
156.63
158.20
173.29
198.22
227.53
256.71
282.90
304.74
295.80
243.53
157.16
61.30
-23.82
-90.92
-141.19
-178.10
-204.46
-221.65
-227.03
-219.98
-204.14
-185.94
-170.89
-160.90
-154.75
-149.74
-142.54
-127.48
-101.46
-65.53
-24.71
14.11
44.07
59.53
54.17
30.13
-3.28
-34.86
-56.36
-65.28
-64.19
-58.10
-51.53
-46.73
-42.85
-37.45
-29.28
-19.44
-10.74
-5.61
-4.60
-6.32
-8.61
-9.08
-6.81
-2.70
1.14
2.42
-0.13
-6.37
-14.53
-22.43
-28.12
-31.10
-32.21
-33.05
-35.15
-39.17
-44.68
-50.32
-54.66
-56.56
-56.00
-53.93
-51.77
-50.88
-52.22
-56.16
-62.23
-69.15
-74.63
-75.89
-70.56
-57.75
-38.78
-16.97
3.49
19.14
28.38
31.88
31.71
30.18
28.82
28.18
28.13
28.50
29.47
31.07
33.15
35.30
36.95
37.53
36.62
34.13
30.34
25.88
21.59
18.36
16.71
16.46
16.72
16.22
13.87
9.38
3.40
-2.70
-7.40
-9.75
-9.75
-8.39
-7.21
-7.69
-10.72
-16.31
-23.69
-31.59
-38.66
-43.83
-46.42
-46.12
-42.93
-37.18
-29.65
-21.54
-14.29
-9.04
-6.19
-5.25
-5.05
-4.43
-2.83
-0.52
1.58
2.63
2.44
1.61
1.21
2.15
4.69
8.37
12.34
15.85
18.56
20.61
22.33
24.01
25.67
27.06
27.84
27.71
26.63
24.73
22.37
19.92
17.69
15.83
14.18
12.49
10.56
8.45
6.38
4.59
2.94
0.86
-2.48
-7.57
-14.07
-20.63
-25.40
-26.82
-24.39
-18.90
-12.02
-5.53
-0.55
2.73
4.78
6.27
7.58
8.67
9.23
9.01
8.02
6.49
4.78
3.15
1.80
0.85
0.48
0.89
2.26
4.62
7.76
11.27
14.63
17.39
19.27
20.24
20.44
20.10
19.44
18.58
17.59
16.43
15.09
13.54
11.83
9.98
7.99
5.92
3.82
1.82
-0.04
-1.87
-3.99
-6.83
-10.63
-15.17
-19.70
-23.14
-24.51
-23.37
-19.95
-15.02
-9.50
-4.14
0.66
4.75
8.11
10.71
12.50
13.50
13.88
13.87
13.69
13.46
13.25
13.07
13.01
13.20
13.72
14.56
15.60
16.63
17.48
18.03
18.16
17.72
16.56
14.63
12.04
9.20
6.67
4.91
4.03
3.61
2.90
1.12
-2.04
-6.27
-10.74
-14.45
-16.68
-17.30
-16.81
-16.13
-16.28
-18.09
-21.91
-27.56
-34.31
-41.02
-46.42
-49.38
-49.18
-45.67
-39.33
-31.10
-22.16
-13.69
-6.55
-1.15
2.59
5.08
6.75
7.79
8.13
7.56
6.11
4.20
2.55
1.89
2.58
4.33
6.48
8.34
9.56
10.19
10.51
10.74
10.82
10.53
9.64
8.22
6.58
5.11
3.98
3.15
2.36
1.45
0.46
-0.37
-0.77
-0.64
-0.18
0.20
-0.01
-1.20
-3.53
-6.85
-10.64
-14.13
-16.39
-16.69
-14.66
-10.49
-4.88
1.22
6.86
11.43
14.63
16.47
17.12
16.82
15.85
14.52
13.15
11.96
11.03
10.38
10.02
10.02
10.50
11.46
12.63
13.54
13.66
12.68
10.69
8.14
5.62
3.67
2.51
2.16
2.48
3.24
4.23
5.13
5.58
5.27
4.06
2.13
-0.16
-2.33
-4.02
-5.10
-5.63
-5.87
-6.19
-7.02
-8.67
-11.17
-14.04
-16.48
-17.55
-16.61
-13.70
-9.44
-4.86
-0.85
2.13
4.09
5.35
6.23
6.85
7.22
7.33
7.25
7.06
6.70
5.95
4.54
2.37
-0.29
-2.88
-4.73
-5.38
-4.70
-2.95
-0.61
1.84
3.97
5.53
6.37
6.47
5.91
4.87
3.64
2.44
1.40
0.47
-0.55
-1.86
-3.58
-5.59
-7.56
-9.10
-9.85
-9.78
-9.23
-8.87
-9.57
-11.93
-16.03
-21.27
-26.47
-30.27
-31.64
-30.23
-26.46
-21.29
-15.77
-10.76
-6.66
-3.55
-1.29
0.21
0.96
0.89
0.00
-1.55
-3.46
-5.26
-6.51
-6.85
-6.19
-4.66
-2.60
-0.41
1.63
3.39
4.99
6.60
8.36
10.19
11.88
13.05
13.39
12.77
11.31
9.28
7.04
4.91
3.11
1.78
0.98
0.72
0.99
1.58
2.10
1.98
0.69
-2.09
-6.13
-10.66
-14.50
-16.47
-15.88
-12.78
-7.96
-2.56
2.31
5.97
8.28
9.46
9.92
9.96
9.71
9.18
8.39
7.34
6.13
4.83
3.52
2.30
1.37
0.95
1.23
2.20
3.59
4.96
5.86
5.99
5.40
4.41
3.49
3.08
3.41
4.45
5.97
7.52
8.60
8.74
7.76
5.81
3.33
0.95
-0.73
-1.41
-1.12
-0.23
0.56
0.46
-1.17
-4.54
-9.17
-13.97
-17.54
-18.73
-17.12
-13.22
-8.15
-3.17
0.80
3.40
4.71
5.02
4.57
3.54
2.11
0.46
-1.18
-2.66
-3.88
-4.75
-5.18
-4.97
-3.97
-2.24
-0.07
2.09
3.92
5.41
6.86
8.60
10.65
12.63
13.83
13.70
12.27
10.19
8.40
7.61
7.83
8.45
8.52
7.43
5.15
2.19
-0.67
-2.91
-4.34
-5.12
-5.60
-6.21
-7.34
-9.33
-12.31
-16.12
-20.22
-23.80
-26.08
-26.60
-25.32
-22.65
-19.13
-15.33
-11.67
-8.46
-5.86
-3.97
-2.74
-2.03
-1.67
-1.59
-1.82
-2.41
-3.30
-4.20
-4.69
-4.46
-3.46
-1.95
-0.31
1.23
2.71
4.41
6.61
9.30
12.12
14.46
15.82
15.99
15.21
13.98
12.82
12.03
11.65
11.47
11.23
10.71
9.96
9.16
8.62
8.51
8.72
8.76
7.95
5.85
2.53
-1.31
-4.58
-6.40
-6.49
-5.33
-3.82
-2.79
-2.49
-2.58
-2.46
-1.68
-0.35
1.03
1.86
1.87
1.23
0.48
0.19
0.65
1.74
3.11
4.27
4.87
4.89
4.54
4.22
4.28
4.87
5.81
6.72
7.12
6.73
5.61
4.14
2.91
2.31
2.36
2.68
2.72
2.08
0.75
-0.93
-2.53
-3.74
-4.53
-5.01
-5.29
-5.47
-5.65
-6.06
-7.04
-8.85
-11.39
-14.04
-15.85
-15.94
-13.94
-10.14
-5.36
-0.54
3.62
6.82
9.09
10.48
11.00
10.50
8.89
6.25
2.90
-0.66
-3.95
-6.60
-8.42
-9.35
-9.40
-8.67
-7.32
-5.59
-3.73
-1.96
-0.37
1.05
2.28
3.25
3.85
4.03
3.97
4.06
4.67
5.88
7.35
8.40
8.35
6.96
4.55
1.86
-0.40
-1.84
-2.50
-2.73
-2.95
-3.52
-4.79
-7.07
-10.54
-15.06
-19.99
-24.33
-26.96
-27.18
-24.99
-21.09
-16.59
-12.46
-9.24
-6.88
-5.02
-3.28
-1.56
-0.09
0.74
0.61
-0.45
-2.03
-3.50
-4.26
-4.03
-2.92
-1.40
0.06
1.13
1.76
2.16
2.62
3.33
4.35
5.52
6.60
7.31
7.50
7.14
6.40
5.56
4.82
4.31
4.01
3.89
3.94
4.19
4.55
4.72
4.22
2.54
-0.45
-4.31
-8.04
-10.43
-10.56
-8.16
-3.72
1.84
7.48
12.50
16.52
19.52
21.56
22.67
22.80
21.85
19.86
16.99
13.59
10.13
7.06
4.71
3.16
2.27
1.75
1.29
0.67
-0.13
-1.03
-1.88
-2.57
-3.07
-3.42
-3.67
-3.90
-4.14
-4.41
-4.74
-5.20
-5.83
-6.68
-7.69
-8.76
-9.74
-10.63
-11.65
-13.20
-15.68
-19.18
-23.22
-26.88
-29.03
-28.87
-26.23
-21.64
-16.03
-10.30
-5.03
-0.39
3.68
7.22
10.14
12.26
13.44
13.71
13.25
12.34
11.21
9.99
8.68
7.21
5.45
3.26
0.55
-2.64
-6.05
-9.23
-11.61
-12.72
-12.36
-10.75
-8.47
-6.26
-4.76
-4.35
-5.00
-6.40
-8.14
-9.79
-11.11
-12.04
-12.74
-13.55
-14.89
-17.05
-20.03
-23.45
-26.63
-28.85
-29.63
-28.91
-27.00
-24.35
-21.30
-17.99
-14.50
-11.04
-8.03
-6.01
-5.30
-5.88
-7.28
-8.83
-9.98
-10.45
-10.31
-9.60
-8.42
-7.15
-6.46
-7.34
-10.82
-17.56
-27.28
-38.51
-48.76
-55.68
-58.29
-57.57
-56.04
-56.37
-60.02
-66.55
-74.14
-80.32
-83.96
-85.78
-87.61
-90.71
-94.53
-97.01
-95.86
-90.02
-78.89
-63.60
-46.29
-28.63
-10.64
9.15
31.93
57.03
81.78
105.54
127.27
144.99
156.13
158.74
152.41
138.36
119.41
100.03
90.07
96.79
120.83
156.41
195.03
229.82
257.03
276.04
288.38
302.73
325.79
358.55
397.34
437.02
473.98
505.94
531.27
509.94
423.05
283.64
128.71
-7.96
-112.16
-184.84
-233.47
-266.03
-288.74
-299.17
-294.89
-277.40
-250.51
-219.31
-186.41
-152.40
-117.81
-84.79
-52.82
-24.12
-9.91
-15.71
-39.66
-72.73
-103.91
-125.54
-135.88
-135.05
-125.84
-112.20
-96.70
-81.08
-66.10
-52.79
-42.61
-36.78
-33.91
-31.68
-28.34
-22.39
-14.26
-5.25
2.76
7.96
9.28
7.03
2.85
-1.47
-4.04
-4.35
-2.62
0.22
2.99
4.70
4.89
3.92
2.61
2.43
3.79
6.79
10.96
15.38
19.06
21.15
21.41
20.15
18.42
16.45
14.60
12.85
10.64
6.90
0.14
-11.63
-31.29
-56.06
-85.15
-116.78
-147.62
-173.14
-188.84
-191.82
-182.09
-162.58
-137.91
-113.49
-92.78
-76.89
-65.19
-56.43
-49.65
-44.35
-40.15
-36.35
-32.58
-28.37
-23.75
-19.44
-16.58
-16.09
-18.02
-21.35
-24.24
-25.13
-22.93
-17.47
-9.53
-0.52
8.19
15.72
21.84
26.82
30.84
33.96
35.97
36.55
35.55
33.23
30.22
27.36
25.40
24.69
25.18
26.51
28.22
29.93
31.44
32.75
33.93
34.93
35.55
35.42
34.26
32.07
29.17
26.13
23.42
21.14
18.99
16.48
13.32
9.71
6.23
3.49
1.53
-0.30
-3.14
-7.84
-14.35
-21.39
-27.01
-29.39
-27.77
-22.75
-15.94
-9.06
-3.19
1.62
6.09
10.97
16.41
21.69
25.63
27.20
26.18
23.34
20.03
17.56
16.60
16.92
17.78
18.46
18.67
18.72
19.16
20.33
22.00
23.45
23.77
22.41
19.47
15.71
12.11
9.45
7.85
6.78
5.42
3.18
0.11
-3.14
-5.67
-6.86
-6.69
-5.70
-4.64
-4.18
-4.68
-6.32
-9.17
-13.17
-17.94
-22.61
-25.84
-26.26
-22.91
-15.79
-5.91
5.02
15.17
23.27
28.83
32.03
33.40
33.40
32.26
29.90
26.19
21.24
15.61
10.21
5.93
3.29
2.31
2.48
3.10
3.54
3.53
3.38
3.51
4.09
4.78
4.85
3.44
-0.05
-5.65
-12.72
-19.52
-24.38
-26.57
-26.63
-26.12
-26.80
-30.08
-36.39
-45.10
-53.52
-59.10
-60.76
-59.37
-57.00
-55.98
-58.27
-65.29
-77.72
-93.38
-109.17
-122.12
-129.57
-129.10
-118.75
-97.94
-67.98
-31.72
9.91
55.97
104.40
152.21
195.88
232.63
260.90
280.51
278.07
247.49
195.40
137.56
87.37
48.84
19.74
-3.79
-24.22
-41.99
-53.64
-55.78
-47.18
-28.17
-1.58
28.92
58.78
82.61
94.92
93.79
80.38
53.95
22.31
-5.31
-22.62
-28.65
-26.91
-22.51
-17.88
-12.92
-6.69
1.66
10.72
18.14
21.99
21.86
18.43
13.81
10.16
8.09
7.65
7.50
6.23
3.17
-1.25
-6.61
-11.86
-16.18
-19.32
-21.15
-22.21
-23.02
-23.74
-24.07
-24.52
-25.57
-28.02
-33.11
-41.96
-55.66
-74.69
-99.11
-122.06
-138.91
-146.21
-142.76
-130.03
-111.45
-91.23
-72.80
-57.77
-45.81
-36.36
-28.56
-21.99
-16.79
-13.29
-11.52
-10.97
-10.68
-9.44
-6.95
-3.23
1.18
5.33
8.14
8.74
6.89
3.27
-0.62
-3.29
-3.44
-0.58
4.77
11.39
18.06
24.08
29.47
34.59
39.42
43.49
45.90
45.92
43.41
39.07
34.10
29.55
25.91
22.82
19.64
15.90
11.76
7.93
5.34
4.54
5.45
7.37
9.33
10.53
10.69
10.03
9.05
8.20
7.62
7.12
6.35
4.95
2.85
0.22
-2.60
-5.27
-7.62
-9.68
-11.59
-13.36
-14.77
-15.50
-15.40
-14.83
-14.64
-15.93
-19.39
-24.87
-31.18
-36.52
-39.24
-38.45
-34.42
-28.33
-21.69
-15.76
-11.15
-7.80
-5.26
-3.07
-1.06
0.59
1.43
1.05
-0.71
-3.51
-6.64
-9.27
-10.76
-10.86
-9.82
-8.13
-6.29
-4.55
-2.87
-1.05
1.17
3.76
6.41
8.50
9.34
8.47
5.90
2.23
-1.62
-4.68
-6.35
-6.54
-5.64
-4.27
-3.03
-2.43
-2.84
-4.52
-7.45
-11.21
-14.88
-17.18
-16.92
-13.51
-7.26
0.64
8.69
15.64
20.97
24.87
27.85
30.19
31.74
31.93
30.37
27.11
22.86
18.67
15.42
13.45
12.47
11.91
11.28
10.49
9.76
9.36
9.38
9.62
9.75
9.54
8.94
8.05
6.97
5.69
4.16
2.35
0.35
-1.67
-3.59
-5.37
-7.06
-8.70
-10.36
-12.12
-14.16
-16.79
-20.16
-24.06
-27.72
-30.06
-30.02
-27.06
-21.43
-14.04
-6.09
1.33
7.56
12.39
15.91
18.35
19.88
20.64
20.72
20.21
19.20
17.88
16.57
15.58
15.17
15.36
15.92
16.46
16.69
16.57
16.33
16.28
16.55
16.95
17.03
16.29
14.43
11.49
7.76
3.62
-0.65
-4.93
-9.12
-13.05
-16.45
-19.09
-21.04
-22.76
-24.97
-28.20
-32.33
-36.40
-38.86
-38.26
-33.99
-26.61
-17.69
-9.08
-2.13
2.78
6.09
8.56
10.71
12.46
13.37
13.01
11.41
9.03
6.61
4.71
3.45
2.54
1.49
0.06
-1.54
-2.71
-2.75
-1.35
1.10
3.59
4.91
4.24
1.65
-1.94
-5.18
-6.91
-6.79
-5.32
-3.64
-2.89
-3.79
-6.46
-10.55
-15.50
-20.60
-25.02
-27.69
-27.55
-23.93
-17.12
-8.45
0.01
6.28
9.29
9.27
7.49
5.44
4.10
3.56
3.15
2.15
0.18
-2.41
-4.94
-6.75
-7.59
-7.62
-7.15
-6.40
-5.31
-3.72
-1.49
1.12
3.60
5.33
5.91
5.42
4.37
3.54
3.55
4.61
6.29
7.64
7.50
5.03
0.13
-6.32
-12.55
-16.61
-16.98
-13.24
-6.25
2.27
10.42
16.92
21.45
24.47
26.72
28.67
30.23
30.97
30.47
28.69
26.08
23.38
21.23
19.87
19.09
18.49
17.70
16.74
15.90
15.57
15.90
16.58
16.92
16.14
13.76
9.86
5.09
0.37
-3.57
-6.46
-8.54
-10.29
-12.17
-14.45
-17.28
-20.82
-25.17
-30.21
-35.26
-39.07
-40.21
-37.62
-31.21
-21.96
-11.60
-1.92
5.85
11.32
14.83
17.01
18.52
19.72
20.72
21.45
21.86
21.99
22.01
22.13
22.49
23.07
23.61
23.76
23.34
22.32
21.00
19.72
18.66
17.72
16.57
14.77
12.12
8.65
4.67
0.59
-3.22
-6.55
-9.28
-11.41
-13.01
-14.15
-15.09
-16.24
-18.01
-20.60
-23.71
-26.52
-27.90
-26.84
-22.84
-16.18
-7.85
0.91
8.97
15.68
20.96
25.07
28.37
31.08
33.14
34.32
34.29
32.95
30.54
27.65
25.05
23.34
22.69
22.80
23.03
22.83
22.00
20.80
19.75
19.30
19.51
19.95
19.89
18.57
15.57
11.07
5.74
0.54
-3.63
-6.33
-7.58
-7.81
-7.56
-7.29
-7.36
-8.14
-10.07
-13.47
-18.37
-24.11
-29.37
-32.59
-32.56
-29.00
-22.70
-15.06
-7.51
-0.87
4.73
9.61
14.04
17.97
21.02
22.76
23.08
22.28
20.99
19.89
19.42
19.73
20.66
21.91
23.20
24.30
25.12
25.57
25.61
25.23
24.40
23.21
21.76
20.18
18.51
16.68
14.56
12.05
9.14
6.05
3.11
0.66
-1.04
-1.96
-2.31
-2.53
-3.30
-5.39
-9.28
-14.93
-21.49
-27.54
-31.47
-32.14
-29.38
-23.92
-17.06
-10.03
-3.61
1.93
6.59
10.27
12.66
13.42
12.47
10.13
7.10
4.21
2.04
0.80
0.36
0.42
0.75
1.25
2.05
3.28
4.94
6.77
8.41
9.44
9.68
9.25
8.54
7.99
7.87
8.10
8.24
7.74
6.21
3.62
0.34
-3.06
-5.97
-8.02
-9.12
-9.45
-9.39
-9.43
-10.16
-12.08
-15.45
-20.07
-25.18
-29.62
-32.13
-31.87
-28.66
-23.09
-16.19
-9.12
-2.74
2.44
6.33
9.05
10.81
11.78
12.06
11.71
10.82
9.57
8.31
7.45
7.40
8.35
10.20
12.63
15.28
17.97
20.72
23.63
26.62
29.29
31.04
31.29
29.95
27.45
24.64
22.27
20.67
19.48
17.92
15.21
10.98
5.42
-0.81
-6.97
-12.54
-17.37
-21.72
-26.08
-31.08
-37.21
-44.67
-53.14
-61.75
-69.21
-74.18
-75.68
-73.41
-67.82
-59.83
-50.57
-40.99
-31.75
-23.14
-15.27
-8.14
-1.79
3.70
8.18
11.58
13.95
15.60
17.00
18.67
20.95
23.84
27.08
30.35
33.37
36.08
38.48
40.52
42.05
42.84
42.84
42.25
41.48
40.82
40.24
39.23
37.04
33.09
27.33
20.32
12.99
6.23
0.53
-4.08
-7.89
-11.38
-15.00
-19.21
-24.43
-30.95
-38.63
-46.71
-53.87
-58.60
-59.82
-57.34
-51.95
-45.06
-38.04
-31.77
-26.47
-21.89
-17.74
-13.94
-10.66
-8.05
-6.09
-4.53
-3.03
-1.35
0.54
2.51
4.45
6.36
8.31
10.41
12.61
14.79
16.69
18.07
18.69
18.40
17.15
15.11
12.68
10.41
8.77
7.95
7.67
7.35
6.42
4.61
2.08
-0.72
-3.29
-5.32
-6.79
-7.82
-8.62
-9.47
-10.73
-12.72
-15.60
-19.15
-22.72
-25.39
-26.30
-25.06
-21.83
-17.28
-12.23
-7.35
-3.01
0.69
3.83
6.42
8.48
9.97
10.87
11.15
10.79
9.87
8.54
7.12
5.98
5.43
5.58
6.27
7.20
8.04
8.63
8.95
9.06
8.97
8.61
7.89
6.80
5.50
4.22
3.17
2.38
1.67
0.74
-0.70
-2.78
-5.40
-8.28
-11.03
-13.27
-14.71
-15.24
-14.95
-14.23
-13.73
-14.23
-16.41
-20.50
-26.04
-31.91
-36.66
-38.98
-38.25
-34.72
-29.25
-22.98
-16.77
-11.02
-5.73
-0.83
3.66
7.45
10.19
11.60
11.74
10.94
9.73
8.65
8.08
8.16
8.88
10.06
11.54
13.12
14.63
15.81
16.45
16.33
15.47
14.13
12.81
12.06
12.15
12.82
13.36
12.85
10.66
6.90
2.46
-1.39
-3.60
-4.00
-3.36
-3.10
-4.59
-8.44
-14.31
-21.21
-27.95
-33.45
-37.03
-38.51
-38.19
-36.94
-36.09
-37.46
-42.68
-52.21
-64.22
-74.37
-76.84
-66.83
-43.08
-8.84
28.64
60.77
80.85
86.29
78.51
61.21
38.08
11.58
