1626184148
64
0
0
0
0
0
0
0
0
0
0
0
0.01
0.01
0
-0.03
-0.05
-0.05
0
0.13
0.36
0.66
1.01
1.37
1.72
2.06
2.4
2.79
3.24
3.8
4.42
5.06
5.66
6.2
6.68
7.15
7.68
8.31
9.14
10.09
11.04
11.88
12.56
13.14
13.76
14.65
15.96
17.91
20.32
22.9
25.38
27.58
29.57
31.68
34.32
37.81
42.54
48.15
54.1
59.83
64.97
69.58
74.14
79.34
85.71
93.76
103
112.62
121.73
129.77
136.75
143.3
150.75
157.77
166.64
177.95
191.79
206.97
220.57
228.25
225.36
208.53
176.87
132.76
80.05
23.07
-34.94
-92.44
-149.16
-205.23
-260.37
-313.74
-363.88
-409.83
-450.91
-486.5
-515.73
-537.2
-549.18
-549.9
-538.28
-514.09
-478.52
-433.68
-382.2
-326.72
-269.48
-212.21
-156.17
-102.4
-51.75
-5.21
36.34
72.27
102.27
126.51
145.48
159.89
170.45
177.79
182.3
184.27
183.93
181.55
177.48
172.13
165.9
159.16
152.13
144.97
137.74
130.49
123.27
116.13
109.15
102.41
95.94
89.79
83.97
78.5
73.38
68.62
64.23
60.23
56.61
53.37
50.5
47.99
45.85
44.09
42.69
41.65
40.96
40.57
40.44
40.46
40.52
40.45
40.07
39.22
37.73
35.47
32.37
28.43
23.67
18.23
12.3
6.11
-0.06
-5.96
-11.34
-15.98
-19.76
-22.59
-24.43
-25.33
-25.38
-24.71
-23.45
-21.74
-19.73
-17.5
-15.15
-12.72
-10.28
-7.84
-5.42
-3
-0.58
1.91
4.47
7.16
10
12.98
16.06
19.21
22.4
25.63
28.87
32.13
35.43
38.85
42.3
45.76
49.26
52.84
56.55
60.48
64.69
69.27
74.33
79.72
85.36
91.16
97.09
103.12
109.23
115.4
121.67
128.08
134.32
140.19
145.45
149.86
153.1
154.79
154.4
151.21
146.53
140.86
134.48
127.65
120.54
113.33
106.17
99.21
92.63
86.59
80.96
75.65
70.58
65.73
61.08
56.61
52.35
48.35
44.67
41.15
37.71
34.3
30.89
27.5
24.15
20.88
17.77
14.95
12.39
10.11
8.12
6.44
5.09
4.04
3.25
2.67
2.23
1.79
1.21
0.38
-0.74
-2.17
-3.87
-5.8
-7.86
-9.98
-12.1
-14.18
-16.16
-18.03
-19.75
-21.29
-22.67
-23.87
-24.92
-25.86
-26.78
-27.74
-28.82
-30.03
-31.37
-32.81
-34.37
-36.1
-38.13
-40.6
-43.63
-47.3
-51.57
-56.35
-61.52
-67.06
-73.05
-79.72
-87.28
-95.9
-105.59
-116.12
-127.22
-138.65
-150.37
-162.59
-175.77
-190.37
-206.55
-224.15
-242.81
-262.14
-282.15
-303.31
-326.2
-350.8
-376.02
-399.78
-419.37
-432.08
-435.42
-427.21
-405.58
-369.56
-320.3
-261.91
-201.2
-146.07
-103.1
-75.41
-62.27
-60.09
-64.17
-70.03
-73.83
-72.39
-63.38
-45.93
-21.28
7.35
35.97
61.19
81.04
94.83
102.38
103.41
97.53
85.03
67.79
49.32
33.82
24.48
22.33
25.92
32.1
37.67
40.27
39.11
34.85
28.66
21.35
13.18
3.93
-6.12
-15.71
-23.13
-27.2
-28.47
-29.04
-31.06
-35.01
-38.94
-39.28
-32.93
-19.55
-2.49
12.16
18.43
13.04
-3.21
-26.18
-50.1
-69.2
-78.92
-76.1
-59.41
-29.98
8.35
49.44
86.39
113.9
129.65
134.53
131.42
123.32
112.39
100.19
88.39
79.16
74.5
74.9
78.68
82.79
84.67
83.8
81.89
81.06
81.38
80.04
72.92
57.76
36.75
16.11
2.93
1.14
9.34
22.04
33.32
40.07
42.87
44.4
46.69
49.69
51.75
51.45
48.61
43.88
37.58
28.99
17.05
1.86
-14.61
-29.1
-39.04
-44.2
-46.34
-47.55
-48.27
-46.98
-41.84
-32.84
-22.67
-15.39
-14.1
-19.3
-28.8
-39.51
-49.03
-56.42
-61.46
-63.16
-59.23
-46.72
-23.88
8.06
44.45
78.93
105.53
120.85
125.04
120.78
111.66
100.84
90.31
81.12
73.87
68.79
65.64
63.59
61.39
58.09
53.94
50.34
49
50.49
53.58
55.49
53.41
46.15
34.8
22.18
11.06
2.37
-5.3
-14.61
-27.73
-44.91
-64.15
-81.92
-94.9
-101.39
-101.78
-97.8
-91.38
-83.78
-75.52
-67.05
-59.32
-53.69
-51.08
-50.94
-50.95
-48.29
-41.21
-30.55
-19.51
-12.32
-12.21
-19.74
-32.46
-46.09
-56.54
-61.32
-60.12
-54.3
-45.85
-36.27
-25.93
-14.44
-1.33
12.94
27.09
39.59
49.58
57.39
63.9
69.52
73.51
74.44
71.35
65.17
58.76
55.47
57.33
63.79
72.09
78.87
82.01
81.43
78.44
74.45
70.21
65.89
61.65
58.26
56.78
57.88
61.24
65.52
68.96
70.09
68.39
64.16
58.64
53.5
50.32
49.49
49.36
46.03
34.94
14.05
-14.1
-42.44
-62.67
-69.52
-63.89
-52.23
-42.92
-41.7
-49
-60.82
-72.65
-82.89
-93.39
-107.08
-124.01
-139.49
-145.89
-137.39
-113.97
-82.25
-52.06
-31.54
-23.57
-25.56
-32.09
-38.66
-43.38
-46.65
-48.86
-48.94
-44.97
-35.86
-22.76
-8.53
4.09
14.24
22.88
31.36
39.71
45.94
47.69
44.26
37.37
30.11
25.02
22.32
20.11
16.23
10.07
3.2
-2.19
-5.34
-7.59
-11.29
-17.96
-27.02
-35.88
-41.89
-44.06
-43.63
-43.33
-45.9
-52.73
-63.56
-77.22
-92.35
-107.7
-121.98
-133.69
-141.14
-142.66
-137.04
-123.66
-102.77
-76.36
-48.79
-26.22
-14.81
-17.81
-33.01
-52.81
-66.81
-66.45
-48.98
-18.29
17.78
51.65
79.28
100.45
116.28
126.68
129.89
124.44
111.33
95
81.15
72.99
69.04
63.87
51.61
29.62
0.16
-31.25
-58.83
-79.19
-91.73
-97.25
-96.33
-88.38
-72.19
-46.7
-11.64
32.25
82.83
136.14
186.1
225.24
247.04
248.29
230.51
198.91
159.6
116.56
70.41
19.79
-35.91
-93.69
-146.39
-184.82
-201.37
-193.06
-162.24
-115.07
-59.12
-1.5
51.9
96.28
127.91
144.83
147.81
141
130.95
124.35
125.32
134.11
147.52
160.74
169.84
172.51
167.8
155.03
133.06
101.03
60.02
14.1
-30.04
-65.16
-86.22
-91.97
-84.79
-69.46
-51.41
-35.65
-25.91
-23.86
-28.58
-36.32
-41.14
-37
-20.46
7.35
40.52
70.53
89.63
93.9
84.06
64.72
42.19
22.49
10.22
7.65
14.66
28.99
46.54
62.16
70.97
69.57
57.24
36.26
10.76
-14.68
-36.21
-51.31
-58.7
-58.38
-51.45
-40.39
-28.77
-20.3
-16.97
-18.08
-20.32
-19.64
-13.64
-3.05
8.92
18.87
24.94
27.35
26.41
21.06
8.93
-11.72
-39.04
-66.64
-85.49
-88.27
-73.02
-44.7
-12.72
13.59
28.4
30.42
21.34
3.69
-20.56
-49.45
-79.79
-106.4
-123.02
-124.84
-110.6
-83.52
-50.08
-17.57
8.39
25.17
32.63
31.69
22.55
4.95
-20.73
-51.3
-80.01
-98.44
-100.34
-85.05
-58.73
-31.85
-13.95
-9.23
-15.3
-25.85
-35.11
-40.95
-44.98
-49.49
-54.08
-54.85
-46.57
-26.21
4.58
39.87
72.17
95.56
107.56
108.83
102.03
90.39
77.02
64.72
55.91
52.38
54.56
61.19
69.78
77.48
81.53
79.87
71.55
57.18
39.51
23.14
13.52
14.49
26.15
44.46
62.98
75.63
79.52
75.54
67.43
58.95
51.78
44.99
36.25
24.01
9.43
-4
-11.83
-11.13
-1.79
13.31
29.75
43.45
52.25
56.03
55.69
51.76
43.64
30.14
11.12
-11.57
-34.55
-54.47
-69.69
-80.43
-87.65
-91.83
-92.37
-88.66
-81.66
-74.71
-72.52
-78.81
-94.04
-113.95
-130.76
-136.53
-126.33
-100.4
-63.88
-24.12
12.77
44.19
71.48
97.95
125.94
155
181.69
201.65
212.26
214.11
210.21
204.07
198.02
192.68
187.57
182.25
177
172.89
171.1
172.22
175.57
178.91
178.76
171.27
153.5
124.84
87.77
46.85
7.24
-27.4
-56.33
-81.69
-107.07
-135.98
-170.72
-211.64
-257.15
-303.68
-346.22
-379.26
-397.94
-399.36
-383.8
-355.18
-320.19
-286.43
-260.26
-244.74
-238.64
-237.02
-233.28
-222.28
-202.77
-177.6
-151.67
-128.7
-109.42
-91.87
-74
-55.99
-40.18
-29.12
-22.54
-15.91
-2.52
22.48
58.23
97.68
130.89
150.19
153.94
146.68
135.94
127.88
124.43
122.88
117.96
105.5
84.61
58.43
32.98
14.48
6.94
10.83
23.35
39.61
54.52
64.29
66.94
62.46
52.09
38.53
25.78
18.29
19.31
29.57
46.63
65.74
81.98
91.99
95.17
92.91
87.43
80.51
73.34
66.99
62.83
62.1
64.31
66.83
65.29
56.22
39.4
18.74
0.32
-10.87
-13.44
-10.3
-6.73
-7.61
-15.31
-29.42
-47.95
-68.23
-87.54
-102.85
-110.94
-109.06
-95.84
-71.89
-39.21
-0.5
41.25
82.04
116.22
137.27
140.38
125.41
98.06
68.02
44.4
31.49
27.25
25.88
22.2
15.03
6.9
1.2
-1.13
-3.03
-9.35
-23.64
-45.39
-69.97
-91.01
-103.33
-104.99
-97.32
-83.67
-67.68
-52.26
-39.53
-31.18
-28.94
-34
-45.91
-61.76
-76.49
-84.45
-81.78
-68.36
-48.23
-28.16
-14.67
-11.45
-18.44
-32.77
-50.4
-67.98
-83.72
-97.05
-108.49
-118.45
-126.85
-132.63
-133.43
-126.65
-110.88
-87.33
-60.44
-36.61
-21.8
-19.54
-29.74
-49.09
-72.6
-95.27
-112.57
-120.43
-115.43
-95.62
-61.62
-17.47
29.76
71.87
102.13
117.72
120.26
114.45
105.86
99.12
96.7
99.19
105.65
114.25
122.75
129.09
132.49
134.12
136.7
142.9
153.04
163.99
170.16
166.05
149.04
121.02
87.52
55.16
29.16
12.18
4.63
5.48
12.87
24.18
35.62
42.7
41.29
29.23
7.05
-22.06
-53.67
-82.75
-104.29
-114.18
-110.45
-94.52
-71.64
-49.29
-34.45
-30.92
-37.85
-51.11
-65.8
-78.77
-89.12
-97.05
-102.54
-105.2
-105.09
-103.8
-104.24
-108.66
-116.35
-122.62
-120.7
-105.47
-76.33
-37.5
4.22
42.75
74.96
100.82
121.18
136.05
144.22
144.16
135.57
120.83
104.5
91.93
86.91
89.89
98.07
107.1
113.45
115.81
115.13
112.82
109.35
103.14
91.58
72.84
47.48
18.7
-8.75
-30.48
-44
-48.86
-46.27
-38.38
-27.7
-16.94
-8.7
-4.98
-6.62
-13.41
-24.16
-36.93
-49.39
-58.7
-62.07
-57.89
-46.52
-30.29
-13.15
0.81
8.25
7.25
-2.44
-19.72
-41.92
-65.09
-84.35
-95.4
-95.92
-86.27
-68.68
-45.69
-19.23
9.46
38.47
63.83
80.12
83.05
72.19
52.32
32.07
19.98
20.75
33.35
52.15
70.04
82.09
86.78
85.2
79.32
70.15
57.68
42.09
24.71
8.23
-4.33
-10.8
-11.16
-7.01
-0.94
4.88
9.27
11.66
11.64
8.78
2.36
-8.25
-23.04
-40.85
-59.19
-75.26
-86.77
-92.59
-92.69
-87.98
-80.28
-72.18
-66.59
-65.59
-69.24
-74.99
-78.07
-73.88
-60.93
-42.39
-25.42
-18.07
-25.34
-46.02
-72.81
-95.24
-104.4
-96.05
-71.1
-34.08
9.24
53.86
95.8
131.53
157.56
170.8
169.8
155.89
133.76
110.24
91.68
81.55
79.45
81.92
84.79
85.34
83.04
78.69
73.17
66.38
57.41
45.31
30.02
12.61
-4.99
-20.51
-31.43
-35.86
-33.47
-26.02
-17.16
-11.24
-11.4
-17.64
-26.55
-33.26
-34.37
-29.58
-21.56
-14.1
-10.14
-10.68
-15.68
-25.19
-39.6
-58.4
-78.51
-94.59
-101.14
-95.7
-80.41
-61.24
-44.7
-34.56
-30.43
-28.63
-25.39
-19.44
-12.28
-6.99
-6.72
-13.95
-30.55
-57.86
-95.6
-140.03
-182.91
-213.57
-223.31
-209.84
-178.77
-140.42
-104.22
-73.77
-46.68
-18.29
12.9
42.9
65.12
75.87
77.64
77.79
83.4
95.66
109.15
116.02
111.93
99.81
88.27
86.08
96.71
116.74
138.26
153.87
160.05
157.23
147.51
132.17
111.37
85.61
57.36
31.07
11.45
1.25
-0.06
4.46
10.75
15.86
18.72
19.53
18.45
15.08
8.73
-0.78
-12.26
-23.34
-32.04
-37.84
-42.17
-47.74
-56.83
-69.29
-82.03
-89.9
-87.89
-73.85
-50.33
-24.17
-4.03
3.33
-4.25
-23.52
-47.58
-68.84
-82
-85.36
-80.1
-68.68
-53.36
-35.51
-15.73
5.8
28.78
52.51
75.98
97.84
116.25
129.27
135.07
132.8
123.04
107.75
89.59
71.28
55.2
43.36
37.34
37.78
43.93
53.38
62.25
66.76
64.34
54.74
39.97
23.36
8.21
-3.37
-10.76
-14.69
-16.31
-16.73
-16.82
-17.13
-18.13
-20.14
-23.41
-28.19
-34.36
-41.25
-47.71
-52.69
-56.02
-58.57
-61.1
-63.27
-63.13
-57.93
-46.3
-30.12
-14.64
-6.55
-10.56
-26.4
-49.04
-71.36
-87.36
-94.67
-94.4
-89.32
-81.67
-71.88
-59.11
-43
-24.5
-5.21
13.07
29.12
42.61
53.67
62.45
68.75
72.24
72.42
68.57
59.82
45.98
28.49
10.45
-4.22
-12.26
-12.63
-6.97
0.93
7.21
9.76
8.85
6.12
3.41
1.61
0.46
-0.9
-3.04
-5.66
-7.79
-8.61
-8.01
-6.41
-4.71
-3.92
-4.51
-6.22
-8.61
-11.52
-15.19
-20.04
-26.37
-34.42
-44.35
-56.34
-70.61
-86.93
-103.81
-118.12
-125.67
-122.88
-108.75
-85.75
-59.66
-37.64
-25.46
-25.62
-37.1
-56.58
-79.64
-101.62
-117.3
-121.57
-110.39
-82.57
-41.31
5.75
49.1
80.71
96.59
97.78
88.88
75.38
61.76
50.79
43.99
42.2
45.05
50.76
56.92
61.31
63.01
62.95
63.09
64.84
67.78
69.8
68.67
63.49
55.34
46.66
39.87
36.05
34.94
35.98
39.03
44.28
51.56
59.23
64.48
64.67
58.67
47.75
35.02
23.57
14.89
8.6
3.34
-1.41
-4.29
-3.01
3.79
14.67
25.15
29.66
24.39
9.63
-10.81
-31.86
-49.86
-63.84
-74.54
-82.45
-85.93
-81.91
-68.26
-46.75
-23.92
-8.86
-8.55
-23.77
-48.56
-72.84
-87.55
-88.13
-75.15
-52.44
-24.23
6.96
39.87
72.81
102.56
124.81
136.03
135.48
125.94
112.42
99.82
91.46
88.23
89.12
91.93
94.21
94.14
90.93
84.95
77.01
67.68
56.47
42.15
23.32
-0.3
-26.85
-52.31
-71.47
-80.1
-76.55
-62.45
-42.38
-22.23
-7.06
0.25
-0.38
-6.8
-16.07
-25.68
-34.01
-40.17
-43.8
-44.79
-43.74
-42.22
-42.23
-45.31
-51.53
-59.06
-65.17
-67.55
-65.21
-58.84
-50.35
-42.22
-37.14
-37.74
-45.85
-61.51
-82.23
-103.08
-117.91
-121.37
-110.9
-87.08
-53
-12.7
29.98
71.96
110.42
142.16
163.72
172.18
166.34
147.88
121.25
92.21
66.25
46.87
35.02
30.02
30.66
36.16
45.92
58.59
70.89
77.7
73.93
56.79
28.09
-5.71
-35.71
-54.57
-59.32
-52.34
-39.43
-26.37
-16.23
-8.64
-1.37
7.18
16.07
21.77
20.13
9.01
-10.39
-34.07
-56.85
-74.88
-86.72
-93.13
-95.81
-96.19
-94.85
-91.78
-87.76
-84.64
-84.99
-90.62
-100.88
-112.34
-119.95
-119.28
-108.63
-90.4
-70.02
-54.16
-48.28
-54.23
-69.22
-86.59
-97.84
-95.27
-74.54
-36.48
12.92
64.43
108.43
138.09
151.58
151.63
143.58
132.64
122.26
113.51
106.01
99.06
92.22
85.29
78.18
70.62
62.71
55.17
49.25
46.32
47.07
51
56.79
63.13
69.01
74.09
78.49
82.53
86.36
89.78
91.92
90.59
82.73
65.43
38.04
3.61
-31.45
-59.49
-74.66
-75.51
-65.55
-51.38
-39.64
-34.27
-35.53
-41.19
-48.08
-53.83
-57.36
-58.34
-56.72
-52.37
-45.91
-39.13
-34.85
-35.27
-40.64
-48.96
-56.55
-60.1
-58.57
-53.81
-49.29
-48.07
-51.11
-57.15
-63.69
-68.31
-69.66
-66.96
-59.06
-43.88
-19.08
16.6
61.47
110.25
155.56
189.63
207.23
207.41
193.35
170.62
144.96
120.38
98.38
78.59
59.57
40.27
20.56
0.9
-17.72
-33.73
-45.19
-50.54
-49.55
-44.08
-37.84
-34.77
-37.09
-43.79
-51.21
-55.22
-53.77
-47.83
-40.83
-36.17
-35.1
-36.31
-37
-35.47
-32.64
-31.71
-36.05
-46.99
-62.61
-78.27
-88.68
-90.12
-82.14
-67.42
-50.5
-36.13
-28.01
-27.51
-33.59
-43.5
-53.58
-60.2
-60.37
-51.79
-32.96
-3.44
35.7
81.37
128.35
170.17
200.82
216.41
216.27
203.15
181.99
158.18
135.91
117.55
104.16
96.22
93.8
96.19
101.26
105.48
104.76
96.36
80.38
59.78
39.25
22.78
11.61
3.74
-4.5
-15.5
-28.57
-40.38
-47.26
-47.92
-44.57
-41.57
-42.86
-49.91
-61.36
-74.71
-88.11
-101.46
-115.7
-131.49
-148.17
-163.5
-174.41
-178.31
-174.04
-162.38
-145.68
-127.12
-109.71
-95.68
-85.87
-80.2
-78.08
-79.23
-83.37
-89.77
-96.67
-101.06
-99.36
-88.66
-67.68
-36.91
1.61
44.97
88.94
127.98
155.69
166.56
158.92
136.34
106.96
80.24
63.11
56.99
57.96
59.88
58.11
51.89
43.84
37.53
35.06
35.89
37.7
38.42
37.64
36.46
36.64
39.39
44.98
53.08
63.04
74.09
85.5
96.7
107.1
116.22
123.32
127.12
125.75
117.05
99.34
72.2
36.7
-5.1
-50.35
-95.68
-137.14
-170.31
-191.41
-198.9
-194.57
-183.25
-170.64
-160.29
-152.34
-144.32
-133.65
-120.42
-108.04
-101.78
-105.65
-119.95
-140.41
-160.03
-172.18
-172.88
-161.8
-140.99
-113.03
-79.96
-43.33
-4.78
33.38
68.21
97.13
118.5
131.97
138
137.5
131.51
121.37
108.91
96.31
85.39
77.1
71.56
68.67
68.58
71.71
77.78
84.99
90.02
89.3
80.75
64.89
45.05
26.17
13.07
8.75
13.72
25.92
41.13
54.45
61.48
59.93
50.42
36.42
22.9
14.45
13.5
19.21
28.06
35.34
37.26
32.63
23.14
12.3
3.53
-1.5
-3.69
-5.61
-10.01
-18.45
-30.88
-46.29
-63.39
-81.53
-100.1
-117.43
-130
-132.77
-120.87
-92.17
-49.52
-0.88
42.79
71.98
82.41
76.48
61.43
45.36
33.37
25.94
20.47
14.25
6.88
0.14
-3.88
-4.49
-3
-1.25
-0.2
0.66
2.17
3.94
4.02
0.01
-8.53
-19.12
-27.07
-28.08
-20.69
-7.46
6.4
15.69
17.87
14.08
7.79
3
2.18
5.38
10.44
14.35
14.96
11.6
5.18
-2.77
-10.83
-18.36
-25.49
-32.28
-38.06
-41.43
-40.64
-34.6
-23.9
-11.26
-0.79
3.29
-1.42
-14.56
-33.19
-53.02
-69.79
-80.33
-82.54
-75
-56.85
-28.06
9.74
52.53
94.62
130.17
154.39
164.51
160.08
142.75
115.75
83.97
53.33
29.69
16.87
15.24
21.59
30.34
35.61
33.04
21.02
0.62
-24.92
-51.21
-73.76
-89.12
-95.77
-94.4
-87.3
-76.9
-64.78
-51.47
-37.34
-23.52
-12.31
-5.88
-4.91
-7.75
-11.3
-13.16
-12.99
-12.31
-12.84
-14.65
-15.55
-12.75
-4.92
6.43
17.5
24.09
23.82
16.69
4.88
-8.7
-21.43
-31.59
-38.57
-43.2
-47.48
-53.4
-61.76
-71.46
-80.22
-86.32
-89.71
-91.75
-93.7
-94.99
-93.57
-87.94
-79.16
-71.25
-68.99
-74.33
-84.24
-91.68
-89.24
-72.94
-44.15
-7.84
30.69
67.68
101.17
129.41
149.67
158.82
155.21
140.6
120.32
101.51
89.83
87.04
90.63
95.76
98.27
97.03
94.11
92.19
91.71
89.63
81.09
62.76
36.09
7.58
-14.26
-23.76
-21.16
-12.19
-4.42
-2.4
-5.64
-9.81
-10.46
-6.54
-0.94
1.95
-0.46
-7.32
-15.43
-21.81
-25.68
-28.62
-32.79
-39.02
-45.88
-50.71
-51.51
-48.22
-42.77
-38.03
-36.29
-38.4
-43.83
-51.41
-60.12
-68.99
-76.89
-82.13
-82.46
-75.66
-60.31
-36.32
-5.28
29.64
64.17
93.84
115.1
126.07
126.92
119.4
105.71
87.45
66.29
44.79
27.02
18.03
21.53
37.25
60.12
81.83
94.54
94.13
81.54
60.93
36.81
11.93
-12.63
-36.01
-56.39
-71.2
-78.47
-77.94
-70.87
-59.04
-43.92
-26.54
-8.62
6.7
15.34
13.94
1.81
-18.63
-42.63
-65.2
-82.7
-93.64
-98.65
-99.69
-99.27
-99.46
-100.9
-102.44
-101.6
-96.1
-85.65
-72.83
-62.5
-59.74
-67.45
-85.1
-108.51
-131.4
-147.45
-151.96
-142.47
-118.9
-83.58
-40.95
2.8
40.82
67.35
79.73
79.93
73.8
68.43
68.36
73.08
78.02
77.86
70.31
57.84
45.97
39.37
38.36
38.69
34.22
20.99
-0.3
-24.82
-46.47
-60.48
-64.27
-56.5
-36.12
-2.93
40.48
87.13
126.31
146.98
142.83
115.21
72.45
25.91
-14.98
-45.71
-66.29
-78.09
-81.41
-75.1
-58.28
-32.28
-1.6
27.48
49.58
62.08
64.93
58.97
44.53
21.17
-10.46
-46.6
-80.11
-103.18
-110.99
-104.46
-89.76
-74.87
-65.27
-61.54
-60.23
-57.42
-51.66
-44.41
-38.31
-34.15
-29.31
-18.85
1.06
30.7
65.69
98.91
123.95
138.01
142.64
142.2
141.37
143.07
147.46
152.31
154.36
151.04
142.09
129.99
119.17
113.34
113.39
116.37
116.79
109.3
91.6
65.41
35.61
7.71
-14.58
-30.12
-39.89
-45.05
-45.69
-40.99
-31.27
-18.92
-8.16
-3.11
-5.51
-13.86
-24.47
-33.81
-40.25
-44.51
-47.83
-50.03
-49.05
-42.44
-29.75
-14.46
-3.05
-2.01
-13.97
-35.58
-59.2
-77.06
-85.18
-84.76
-79.88
-74.05
-67.28
-56.1
-36.61
-7.86
26.51
59.78
85.41
99.94
103.67
99.47
90.14
77.13
60.61
41.11
20.89
3.7
-6.56
-7.74
-0.63
11.57
24.9
35.84
41.98
42.3
36.47
24.78
8.84
-8.32
-22.41
-29.45
-27.68
-19.08
-8.53
-1.74
-2.66
-11.42
-24.68
-37.8
-47.21
-51.61
-52.05
-50.31
-48.06
-46.59
-47.64
-53.52
-66.47
-86.87
-111.59
-134.07
-146.88
-145.31
-129.95
-106.61
-84.15
-70.63
-70.19
-82.1
-101.46
-121.76
-136.98
-142.83
-136.86
-118.34
-87.82
-47.48
-1.31
45.49
87.43
119.84
140.08
148.33
146.76
138.41
126.12
111.84
96.68
81.7
68.45
58.97
54.82
56.12
61.08
66.36
68.35
64.96
56.27
44.45
32.54
22.96
16.43
11.92
7.68
2.49
-3.21
-7.3
-6.76
0.5
14.3
31.73
48.25
59.69
63.82
61.17
53.94
44.48
34.15
23.15
11.83
1.56
-5.55
-8.21
-7.46
-7.1
-11.73
-23.79
-41.75
-60.59
-74.48
-79.63
-75.77
-65.35
-51.83
-38.22
-26.82
-19.63
-18.54
-25.04
-39.41
-60.13
-83.61
-105.13
-120.5
-127.31
-125.52
-116.61
-102.79
-85.25
-63.6
-36.39
-3
34.7
71.72
101.25
117.94
120.29
111.23
96.19
80.26
65.81
52.42
39.06
25.57
13.6
5.36
2.48
5.23
12.78
24.33
39.67
58.56
79.24
98.09
110.95
115.21
111.3
102.36
92.54
84.25
76.58
66.29
50.65
29.9
8.02
-8.9
-15.86
-11.11
2.93
20.22
33.65
37.81
31.02
15.46
-3.51
-19.56
-27.81
-26.87
-19.59
-11.65
-9.22
-16.16
-32.08
-52.25
-69.77
-78.42
-74.73
-58.94
-34.04
-4.66
24.71
51.13
73.3
90.96
103.96
111.46
111.93
103.83
86.72
62.28
34.47
8.07
-13.19
-28.17
-37.92
-44.44
-48.39
-48.2
-41.34
-27.1
-9.04
5.7
9.42
-1.75
-25.21
-52.56
-73.83
-82.54
-78.42
-66.84
-54.88
-47.22
-43.73
-40.83
-34.59
-24.59
-14.5
-9.86
-13.87
-24.77
-36.57
-42.21
-38.21
-26.76
-14.51
-8.49
-12.09
-24.03
-39.62
-54.2
-65.05
-71.67
-74.47
-73.51
-68.15
-58.17
-45.16
-32.48
-24.27
-23.62
-30.82
-42.96
-55.09
-62.6
-62.84
-56.34
-45.4
-32.55
-18.53
-2.24
18.28
43.63
71.09
95.04
109.03
108.84
94.32
69.78
42.44
19.74
7.14
6.2
14.2
25.5
34.38
37.38
34.7
29.54
25.98
26.7
31.77
39.37
47.34
54.31
59.96
64.43
67.51
67.99
64.22
55.33
41.98
26.67
13.31
6.45
9.84
24.72
48.56
75.08
95.75
102.8
92.35
65.91
30.18
-5.66
-33.44
-48.86
-52.24
-47.73
-41.3
-37.99
-40.35
-48.12
-59.64
-72.94
-86.53
-99.72
-111.89
-121.69
-126.76
-124.75
-114.35
-96.5
-74.58
-53.82
-39.77
-35.97
-42.6
-56.42
-72.03
-83.64
-87.12
-80.88
-65.69
-43.83
-17.55
11.59
42.92
75.83
109.01
139.64
163.45
175.92
173.9
157.36
129.62
96.55
64.7
39.27
22.63
14.41
12.59
14.68
18.87
24.32
30.76
37.9
45.36
52.35
57.72
59.85
57.37
50.26
40.34
30.89
25.16
24.89
29.23
34.92
37.9
34.88
24.49
7.74
-12.07
-30.19
-42.07
-44.98
-39.27
-28.77
-19.64
-17.74
-25.61
-40.88
-56.98
-65.99
-62.46
-46.06
-21.76
1.88
16.27
15.73
-0.86
-29.7
-63.36
-93.36
-112.78
-117.88
-108.84
-88.89
-62.81
-35.55
-11.04
8.75
23.39
33.26
39.34
42.78
44.49
45.09
44.68
42.78
38.78
32.8
26.17
21.25
20.41
24.52
32.27
40.16
44.26
41.61
31.54
16.03
-1.15
-16.4
-27.62
-34.52
-38.45
-40.92
-42.33
-41.59
-36.77
-26.64
-11.94
4.18
17.21
22.92
19.28
7.16
-10.13
-28.11
-42.44
-50.12
-50.33
-44.33
-35.58
-28.72
-27.99
-35.81
-52.09
-74.67
-99.77
-123.04
-140.6
-149.65
-148.82
-138.6
-121.65
-102.3
-85.65
-76.19
-76.48
-86.43
-103.3
-122.45
-138.37
-145.72
-140.61
-121.48
-89.64
-49.1
-5.38
35.96
70.64
96.62
114.18
125.47
133.22
139.42
144.87
149.47
152.89
155.05
156.32
157.34
158.18
158.16
156
150.11
139.04
121.64
97.23
66.34
31.37
-3.39
-32.6
-51.43
-57.68
-52.59
-40.28
-25.93
-13.5
-4.73
0.72
3.84
4.85
3.46
-0.32
-5.08
-7.97
-6.4
0.12
9.26
16.35
16.65
7.82
-8.32
-26.31
-39.04
-41.22
-32.19
-16.57
-2.38
2.27
-7.1
-29.65
-59.58
-88.59
-108.96
-115.77
-107.75
-86.43
-54.8
-16.41
24.78
64.76
99.41
124.86
138.74
141.05
134.29
122.82
111.14
102.06
95.76
90.15
82.27
70.64
56.55
43.53
35.68
35.29
41.39
50.23
56.88
56.96
48.05
30.15
5.28
-22.97
-50.4
-73.3
-89.58
-99.24
-103.68
-104.73
-104.17
-103.23
-102.65
-103.06
-104.53
-105.61
-102.79
-91.17
-66.55
-28.57
17.57
62.2
94.7
107.77
99.93
75.2
40.2
1.28
-37.23
-72.29
-100.58
-118.08
-120.85
-107.04
-78.26
-39.74
1.2
37.56
64.43
79.94
85.09
82.83
76.75
70.12
65.27
63.07
62.79
62.75
60.75
55.18
46.17
35.46
25.66
19.12
16.8
18.02
21.19
24.79
28.16
31.41
34.32
35.6
32.91
24.23
9.68
-7.98
-24.54
-36.19
-41.54
-42.28
-42.11
-44.87
-52.93
-66.78
-85.12
-105.63
-125.49
-142.4
-155.04
-163.36
-168.36
-171.56
-174.25
-177.23
-181.38
-188.25
-200.68
-222.42
-256.18
-301.61
-353.95
-404.54
-443.46
-463.11
-461.03
-440.67
-409.17
-374.07
-340.58
-310.45
-282.74
-255.94
-229.69
-205.06
-183.7
-166.47
-152.75
-140.76
-128.54
-114.98
-100.22
-85.51
-72.4
-61.8
-53.62
-46.81
-39.89
-31.77
-22.09
-11.51
-1.27
7.41
13.78
17.96
20.63
22.83
25.43
28.84
32.98
37.48
42.01
46.47
51.07
56.1
61.84
68.36
75.47
82.89
90.3
97.61
104.86
112.18
119.55
126.79
133.55
139.41
144.12
147.78
150.83
153.94
157.87
163.03
169.59
177.46
186.33
195.92
206.03
216.56
227.64
239.92
254.42
272.51
295.08
321.4
348.51
371.73
386.3
389.61
382.49
368.63
352.68
338.22
326.44
316.46
306.53
295.26
282
266.51
248.18
226.13
200.09
171.19
142.55
117.98
99.97
88.33
79.89
69.96
54.91
33.98
9.61
-13.71
-31.91
-43.15
-48.34
-50.06
-50.72
-50.95
-49.71
-45.44
-37.5
-26.87
-15.92
-6.97
-1.23
2.01
4.74
8.99
15.61
23.91
32.2
39.1
44.79
50.67
58.33
67.86
76.64
80.68
77.08
66.28
52.33
41.22
37.46
41.64
50.7
60.15
66.71
69.67
70.15
69.51
68.17
65.75
61.82
56.69
50.99
44.22
34.31
18.35
-5.74
-37.34
-72.5
-104.99
-128.73
-139.52
-136.3
-121.56
-100.72
-80.85
-68.71
-68.39
-79.62
-97.92
-116.43
-128.48
-130.08
-120.83
-103.21
-80.97
-57.74
-36.36
-19.07
-7.77
-3.91
-8.53
-21.66
-42.23
-67.22
-92.32
-112.54
-123.55
-122.78
-110.31
-88.72
-61.81
-34.06
-9.77
7.29
14.25
10.13
-3.25
-21.18
-37.09
-44.93
-42.26
-31.14
-16.77
-4.4
3.72
9.21
15.65
25.76
39.07
51.83
59.3
58.81
51.75
42.74
36.73
36.18
39.96
44.68
47.36
47.59
47.08
47.49
48.63
48.11
42.86
31.72
16.63
1.91
-8.03
-11.23
-8.76
-3.41
2.1
6.26
8.69
9.34
7.82
3.84
-2.02
-8.01
-11.93
-12.55
-10.71
-9.4
-12.12
-21.52
-38.09
-59.88
-83.13
-103.68
-118.09
-124.22
-121.92
-113.24
-101.96
-92.31
-87.73
-89.33
-95.66
-103.46
-108.88
-109.15
-103.26
-92.29
-78.66
-65.5
-56.03
-52.39
-54.78
-60.94
-66.59
-66.68
-57.13
-36.53
-6.74
27.71
61.2
88.56
106.39
113.73
112.42
106.12
99.09
94.48
93.33
94.26
94.92
93.53
89.95
85.84
83.4
83.8
86.7
90.46
93.11
92.9
88.68
80.25
68.15
53.61
38.31
23.97
11.47
1.06
-6.66
-9.97
-6.28
6.25
26.35
48.49
64
65.05
49.07
20.65
-10.28
-33.6
-43.74
-42.08
-34.74
-28.04
-24.72
-23.44
-21.35
-17.72
-15.36
-19
-31.69
-51.95
-73.87
-89.91
-94.81
-87.7
-71.58
-50.47
-26.99
-2.09
23.57
47.78
66.58
76.14
75.4
67.12
56.56
48.59
44.92
43.39
39.77
30.84
16.52
0
-14.34
-23.37
-26.33
-24.42
-19.12
-11.38
-1.58
8.9
17.51
21.29
18.8
11.46
3.15
-1.93
-1.92
1.39
4.24
3.91
1.19
0.01
4.32
14.8
27.59
36.25
35.79
25.9
10.99
-3.03
-12.48
-17.87
-22.59
-29.66
-38.57
-45.42
-46.16
-40.2
-31.87
-28.23
-34.41
-49.79
-67.72
-79.18
-78.04
-64.45
-44.27
-25.28
-12.35
-5.36
0.1
9.14
24.13
43.3
62.09
76.36
84.68
88.84
91.85
95.54
99.11
99.71
94.32
81.95
64.6
46.32
31.31
21.86
17.48
15.34
12.17
6.01
-3.13
-13.16
-20.9
-23.48
-19.65
-10.79
-0.7
6.05
6.58
1.51
-5.41
-9.62
-8.74
-3.9
1.36
3.57
1.63
-3.09
-8.63
-14.83
-23.78
-38.04
-57.88
-79.52
-96.42
-102.81
-96.98
-82.33
-65.29
-51.89
-44.97
-43.75
-45.7
-48.83
-53.13
-60.39
-72.46
-89.13
-107.43
-122.31
-128.94
-124.69
-110.26
-88.44
-62.54
-34.63
-4.98
26.65
59.38
90.04
113.9
126.97
128.37
120.98
110.19
101.26
96.8
96.1
96.48
95.49
92.21
87.31
81.95
76.66
71.01
64.21
56.36
48.81
43.47
41.45
42.3
43.88
43.31
38.43
28.76
15.82
2.37
-8.83
-16.01
-18.81
-18.2
-16
-14.2
-14.25
-16.59
-20.91
-26.65
-33.53
-41.88
-52.03
-63.47
-74.07
-81.02
-82.28
-78.15
-71.4
-65.71
-63.54
-64.64
-66.44
-65.95
-62.1
-56.05
-50.06
-45.44
-41.16
-34.19
-21.38
-1.61
23.03
47.92
68.13
80.75
85.73
85.51
83.36
81.61
80.52
78.6
74.04
66.58
58.54
53.96
56.93
69.14
88.61
110.14
127.12
133.83
127.54
109.19
82.84
54.23
29.38
12.89
7.57
14
30.59
53.53
77.24
95.66
104.12
100.94
87.56
67.28
43.29
17.26
-10.51
-39.69
-68.41
-93.33
-111.15
-120.75
-123.57
-122.62
-120.55
-118.53
-116.82
-116.34
-119.52
-129.18
-146.22
-167.63
-187.01
-197.34
-193.87
-176.17
-147.32
-111.75
-73.36
-35.21
-0.39
27.41
44.52
49.74
45.59
37.34
30.25
26.75
25.63
24.05
20.67
17.02
16.55
21.34
29.95
37.55
38.7
31.01
16.65
0.98
-10.83
-16.55
-17.27
-15.62
-13.49
-11.21
-8.39
-5.44
-4.08
-6.69
-14.51
-26.1
-37.32
-43.06
-40.26
-29.95
-17.54
-10.31
-13.53
-27.37
-46.61
-63.07
-69.7
-63.78
-47.91
-28.18
-10.51
1.99
9.4
13.16
13.52
8.5
-4.57
-26.28
-53.4
-79.3
-96.42
-99.71
-88.61
-66.89
-40.34
-14.27
7.96
25.16
37.23
43.83
44.65
40.42
33.61
27.95
26.96
31.75
40.47
49.24
54.02
52.7
46.04
36.64
27.48
20.53
16.4
14.97
15.99
18.95
22.99
26.73
28.38
26.49
20.9
12.7
3.47
-5.64
-14.11
-21.62
-27.7
-31.3
-31.16
-26.82
-18.89
-8.67
2.41
13.32
23.58
32.63
39.85
44.75
47.12
46.55
42.37
33.59
19.54
1.06
-18.69
-34.67
-41.78
-37.56
-23.78
-5.52
11.2
22.79
29.9
36.81
48.54
67.25
90.53
112.34
125.92
126.78
114.91
94.15
69.97
46.82
26.8
9.9
-4.11
-14.35
-18.77
-15.38
-4.26
11.73
27.81
39.42
44.23
42.65
37.18
30.56
24.54
19.36
14.08
7.58
-0.66
-10.51
-21.48
-33.12
-44.88
-56.04
-65.73
-73.12
-77.07
-76.26
-69.58
-56.99
-40.25
-23.23
-10.78
-6.84
-12.71
-26.49
-44.35
-62.39
-78.33
-91.56
-101.9
-108.02
-107.02
-95.67
-72.59
-40.17
-4.54
26.73
47.56
55.39
51.82
41.07
27.94
15.89
6.44
-0.15
-3.58
-2.92
3.07
14.98
31.37
48.3
60.51
63.55
55.82
39.34
18.75
-0.67
-15.37
-24.53
-29.38
-31.81
-33.2
-34.18
-35.34
-37.6
-42.04
-48.98
-57.2
-63.61
-64.13
-55.67
-37.73
-13.26
11.88
30.78
37.81
30.92
12.41
-11.97
-35.24
-51.37
-57.14
-52.72
-41.31
-27.77
-17.2
-13.98
-20.7
-37.3
-60.4
-83.67
-99.26
-100.49
-84.51
-53.69
-14.95
23.01
52.93
71.31
78.71
78.61
75.51
72.72
71.66
72.22
73.88
76.5
80.33
85.18
89.93
92.7
91.36
84.44
71.72
54.58
35.6
18.38
6.59
2.8
7.36
17.97
30.39
39.92
43.34
39.94
31.67
22.1
14.48
10.6
10.7
13.7
17.7
20.52
19.94
14.12
2.26
-14.74
-34.46
-53.47
-68.72
-78.72
-83.8
-85.37
-84.96
-83.44
-80.91
-77.36
-73.6
-71.25
-72.05
-76.59
-83.83
-91.59
-97.74
-101.34
-102.79
-102.96
-101.98
-98.28
-89.04
-71.58
-44.94
-11
25.47
58.2
81.44
91.92
89.86
78.51
62.5
46.03
31.69
20.45
12.83
9.71
12.23
20.88
34.2
48.71
60.13
65.32
63.72
57.13
48.51
40.3
33.53
28.14
23.69
20.05
17.49
16.3
16.03
15.5
13.47
9.12
2.63
-4.78
-11.39
-15.79
-17.55
-17.54
-17.3
-18.5
-22.26
-28.07
-33.64
-35.84
-32.23
-22.26
-8.04
6.72
18.05
22.84
19.33
7.07
-13.19
-39.14
-66.3
-88.32
-98.52
-92.35
-69.58
-34.4
5.94
44.01
74.41
94.4
103.23
101.18
89.7
71.91
52.5
36.53
27.62
26.3
29.76
33.72
35.1
33.68
31.76
32.04
35.19
38.97
39.64
34.38
23.43
10.36
0.33
-2.78
1.61
10.51
19.08
23.37
22.02
16.6
10.01
4.84
2.02
1.03
0.77
0.1
-1.76
-5.26
-10.76
-18.49
-27.87
-37.47
-45.4
-50.3
-52.34
-53.49
-56.65
-64.09
-75.89
-89.4
-100.14
-103.67
-97.28
-81.19
-58.71
-35.06
-15.89
-5.9
-7.59
-20.57
-41.66
-65.31
-84.76
-93.66
-87.73
-65.98
-31.33
9.96
49.96
81.2
98.76
101.41
92.03
76.26
60.4
49.38
45.39
47.72
53.83
60.86
66.61
69.7
69.28
64.61
55.22
41.54
25.21
8.85
-4.77
-13.58
-16.52
-13.54
-5.08
7.95
24.06
40.99
55.75
65.38
68.13
64.07
55.02
43.69
32.6
23.39
17.01
14.18
15.62
21.57
30.85
40.7
47.36
47.53
39.6
24.52
5.48
-13.61
-29.4
-40.07
-45.29
-45.96
-43.73
-40.54
-38.09
-37.43
-38.47
-39.42
-37.81
-31.95
-22.46
-12.93
-8.7
-14.35
-31.49
-57.69
-87.06
-112.41
-127.9
-130.54
-120.33
-99.43
-71.15
-39.66
-9.7
13.94
27.5
30
24.16
15.61
10.4
12.21
20.47
30.82
37.35
35.61
25
9.17
-5.69
-13.3
-9.9
4.02
24.23
44.34
57.96
61.08
53.27
37.45
18.37
1.12
-10.36
-13.88
-9.2
2.02
16.49
29.77
37.67
37.56
29.79
17.59
5.54
-2.33
-4.37
-1.82
2.3
4.77
3.55
-1.62
-9.76
-19.16
-27.73
-33.17
-33.14
-26.22
-12.91
3.58
17.61
23.05
15.82
-4.13
-33.12
-65.24
-94.56
-116.75
-129.43
-131.44
-122.42
-102.46
-72.4
-34.8
5.96
44.24
74.39
92.74
98.81
95.12
85.93
75.25
65.09
55.34
44.46
30.99
15.13
-1.15
-15.09
-24.71
-29.55
-30.58
-29.27
-26.84
-24.01
-21.27
-18.86
-17.08
-16.12
-16.15
-17
-18.14
-18.61
-16.89
-11.19
-0.29
15.05
31.54
43.84
47
38.99
22.14
2.46
-13.17
-20.16
-18.2
-10.76
-2.95
1.33
0.66
-4.3
-12.2
-21.96
-32.77
-43.15
-50.19
-50.58
-42.69
-28.35
-13.21
-4.57
-8
-24.4
-49.41
-75.09
-93.59
-100.11
-93.82
-77.04
-53.28
-25.81
2.85
30.45
54.58
72.58
82.35
83.19
76.13
63.47
47.95
31.93
17.54
6.84
1.81
4.05
13.86
29.29
46.58
61.23
70.04
71.94
67.79
59.71
49.96
40.45
32.56
27.54
25.92
27.14
29.54
30.95
29.79
25.73
19.95
13.82
7.68
0.16
-10.61
-25.33
-42.32
-57.89
-68.17
-71.15
-67.66
-60.73
-53.83
-49.28
-47.16
-46.14
-44.76
-42.67
-40.53
-39.68
-41.42
-46.3
-54.26
-64.71
-76.87
-89.38
-100.33
-107.53
-109.37
-105.15
-95.36
-81.46
-64.93
-46.41
-25.46
-1.09
27.28
58.49
89.26
115.08
131.7
137.33
133.35
123.56
112.39
102.45
93.84
85
74.47
62.13
49.75
39.7
33.66
31.93
33.37
35.96
37.71
37.01
33.03
26.07
17.3
8.64
1.83
-2.51
-4.96
-6.43
-7.44
-7.5
-5.46
-0.8
5.43
10.53
11.24
5.9
-4.71
-17.84
-30.26
-39.82
-46.3
-50.84
-54.59
-58
-60.66
-62.54
-64.84
-69.84
-79.45
-93.48
-108.51
-119.02
-119.69
-107.59
-83.64
-51.56
-15.99
18.86
49.72
74.23
90.87
99.37
100.97
98.13
93.55
88.69
82.85
74
60.48
42.64
23.26
6.51
-3.82
-6.02
-0.84
8.92
19.26
26.22
26.99
20.86
9.57
-3.25
-13.4
-18
-16.35
-9.74
-0.79
7.58
13.33
15.76
15.59
14.56
14.44
15.94
18.04
18.38
14.37
4.41
-11.19
-30.24
-49.37
-65.02
-74.17
-74.81
-66.33
-50.22
-30.62
-13.89
-6.64
-12.88
-32.14
-59.19
-86.08
-105.12
-111.31
-103.47
-83.77
-56.53
-26.67
1.61
25.92
45.83
62.02
75.2
85.24
91.3
92.73
90.08
85.19
80.15
75.92
71.53
64.68
53.45
38.02
20.71
4.97
-6.52
-13.05
-15.82
-16.59
-16.48
-15.61
-13.35
-9.15
-3.27
3.43
9.96
15.52
19.83
23.06
25.66
28.01
30.09
31.22
30.02
24.9
14.79
-0.19
-18.65
-38.39
-57.48
-75.06
-91.34
-106.93
-121.62
-133.83
-141.13
-141.24
-133.51
-119.31
-101.54
-83.46
-67.45
-54.75
-45.8
-40.94
-40.8
-46.14
-56.59
-70.14
-83.02
-90.6
-88.85
-75.62
-51.12
-17.39
22.17
63.39
101.74
132.83
152.92
159.95
154.57
140.17
122.09
105.46
93.53
86.69
82.91
79.44
74.34
67.1
58.68
50.53
43.59
37.98
33.13
28.34
23.47
19.06
16.11
15.16
16
17.54
18.24
16.92
13.01
6.63
-1.64
-11.26
-21.94
-33.16
-43.85
-52.12
-55.82
-53.52
-45.35
-33.19
-19.89
-8.09
0.72
6.43
9.68
10.8
9.36
4.68
-3.68
-15.28
-28.73
-42.37
-54.89
-65.29
-72.34
-74.39
-69.43
-56.19
-35.51
-10.5
14.54
35.93
52.32
64.82
75.51
85.63
94.47
99.99
100.76
97.28
92.03
88
86.98
88.55
90.64
91.04
89.06
85.78
82.84
81.11
79.92
77.17
70.62
59.36
44.2
27.2
10.8
-3.24
-14.09
-21.68
-26.33
-28.65
-29.6
-30.43
-31.98
-34.32
-36.71
-37.78
-36.57
-33.74
-31.52
-32.99
-40.33
-53.54
-70.23
-86.54
-98.66
-104.3
-103.15
-96.42
-86.35
-75.61
-67.14
-63.78
-67.29
-77.1
-89.9
-100.42
-103.61
-97.26
-83.11
-66.21
-52.22
-44.56
-43.05
-44.61
-45.07
-41.16
-31.49
-16.19
3.84
27.52
53.57
80.19
105.4
127.57
145.79
159.72
169.15
173.38
171.27
161.77
145.08
123.5
100.89
81.18
66.6
56.74
48.93
40.21
29.48
18.4
10.65
9.71
16.53
28.29
39.4
44.14
39.62
27.1
11.01
-3.99
-15.79
-25.53
-36.13
-49.61
-65.36
-80.19
-90.22
-93.07
-88.9
-79.56
-67.1
-53.04
-38.73
-26.49
-19.78
-22.14
-35.03
-56.31
-80.65
-101.73
-115.06
-119.45
-116.65
-109.28
-98.72
-84.16
-63.35
-34.38
2.63
44.12
84.01
115.55
133.8
137.56
129.71
115.83
101.79
91.52
85.73
82.6
78.89
71.77
60.12
44.79
27.99
12.22
-0.93
-11.24
-19.37
-25.79
-30.13
-31.33
-28.57
-22.68
-16.53
-13.98
-17.71
-27.23
-38.74
-47.09
-48.13
-41.17
-29.04
-16.11
-5.86
0.38
3.09
3.39
1.66
-2.62
-10.18
-20.73
-32.14
-40.88
-43.39
-37.92
-25.68
-10.89
0.69
3.98
-3.31
-19.67
-40.47
-60.12
-74.17
-80.89
-80.97
-75.94
-66.39
-51
-27.48
5.22
45.23
87.45
124.72
150.48
161.42
158.3
144.63
124.82
102
77.6
52.53
28.63
9.33
-1.43
-1.41
7.78
20.7
30.09
30.07
18.84
-0.71
-22.79
-41.81
-54.58
-60.75
-61.73
-58.87
-52.54
-42.43
-28.45
-11.74
5.03
18.64
26.59
28.07
23.92
16.08
6.23
-4.86
-17.08
-30.06
-42.29
-51.24
-54.39
-50.68
-41.47
-30.31
-21.81
-19.84
-25.64
-37.08
-49.36
-56.85
-55.28
-43.72
-25.32
-6.06
7.5
11.1
4.47
-9.11
-24.53
-37.29
-45.16
-47.86
-45.53
-37.55
-22.44
0.64
29.76
59.85
84.5
98.87
102.32
98.65
93.49
90.86
90.96
90.41
85.23
73.84
58.5
44.16
35.45
33.79
36.34
37.63
32.43
18.37
-3.13
-27.88
-50.88
-68.27
-78.08
-80.1
-75.17
-64.67
-50.19
-33.76
-18.04
-6.06
-0.33
-1.73
-8.73
-17.93
-25.58
-29.15
-28.31
-24.84
-21.26
-19.71
-21.25
-25.83
-32.92
-41.92
-52.04
-62
-70.12
-74.87
-75.53
-72.58
-67.17
-60.08
-50.96
-38.8
-23.09
-5.13
11.64
22.85
24.86
16.23
-1.49
-24.22
-46.76
-64.39
-73.8
-73.39
-63.08
-43.82
-17.38
13.25
44.02
70.13
86.9
91.21
83.13
66.44
47.84
34.48
30.94
37.34
49.48
61.13
67.17
65.62
57.87
47.14
36.4
26.91
18.2
9.27
0.05
-8.3
-13.88
-15.23
-12.2
-6.34
-0.13
3.88
3.78
-1.06
-9.88
-20.79
-31.5
-39.96
-45
-46.56
-45.24
-41.87
-36.67
-29.3
-18.91
-4.89
12.74
32.8
53.15
70.8
82.52
86.3
82
71.61
58.01
43.43
28.28
11.25
-9.18
-33.08
-57.62
-78.1
-90.01
-90.92
-81.64
-65.26
-45.66
-25.79
-7.23
9.51
23.87
34.73
40.84
41.46
36.82
28.13
17.24
6.01
-3.93
-11.53
-16.28
-18.1
-17.55
-15.56
-13.59
-12.65
-13.04
-14.36
-15.83
-16.99
-17.9
-19.37
-21.95
-25.09
-26.99
-25.45
-19.16
-8.32
5.42
19.54
31.82
41.34
48.76
55.05
60.71
65.48
68.54
69.08
66.49
60.83
52.65
42.85
32.24
21.1
8.96
-5.07
-21.77
-40.58
-59.16
-74.11
-82.43
-83.2
-78.06
-70.23
-62.67
-56.55
-51.09
-45.19
-39.15
-34.98
-34.75
-38.49
-42.96
-42.92
-33.56
-13.49
14.14
43
66.58
80.74
84.82
81.09
73.02
63.85
55.99
51.2
50.71
54.81
62.56
71.79
79.43
82.61
79.87
71.7
59.89
46.42
32.52
18.53
4.47
-8.79
-19.11
-23.68
-20.94
-11.9
-0.14
9.74
14.45
13.53
9.11
4.21
0.73
-1.83
-5.53
-12.2
-21.99
-32.91
-42.02
-47.56
-50.01
-51.9
-56.15
-63.87
-73.52
-81.32
-83.17
-76.63
-62.68
-45.91
-32.79
-29.11
-37.28
-55.37
-78.22
-99.52
-114.54
-121.27
-120.1
-112.66
-100.46
-84.15
-63.88
-40.09
-14.18
11.2
33.2
49.7
60.02
64.82
65.27
62.41
56.73
48.33
37.26
24.25
10.92
-0.37
-7.24
-8.01
-2.38
8.58
23.09
38.72
52.89
63.19
67.91
66.78
61.23
53.52
45.66
38.38
31.12
22.67
12.34
1.08
-8.97
-15.58
-17.96
-17.59
-17.69
-21.45
-30.07
-41.91
-53.46
-61.57
-65.22
-66
-66.92
-70.54
-77.63
-87.05
-97
-106.45
-115.67
-125.39
-135.26
-142.67
-143.28
-133.37
-111.71
-80.5
-44.54
-9.3
21.39
45.68
63.23
74.44
79.46
78.51
72.53
63.92
55.88
51.43
52.15
57.38
64.86
71.65
75.59
75.93
73.15
68.4
62.54
55.48
46.23
34.11
19.93
6.5
-2.66
-5.03
-0.25
9.57
21.04
31.25
39.17
45.21
50.25
54.16
55.44
51.97
42.35
26.99
8.26
-10.54
-27.08
-40.79
-52.57
-63.78
-75.16
-86.09
-94.5
-97.75
-94.18
-83.94
-68.87
-51.53
-34.31
-18.63
-5.4
4.3
8.47
4.59
-8.75
-30.38
-55.92
-78.52
-90.62
-86.7
-65.61
-31.12
9.07
45.81
71.67
83.41
82.81
75.49
68.08
65.31
68.63
76.5
86.11
94.85
101.13
104.11
102.85
96.2
83.59
66.26
47.42
31.1
20.3
15.44
14.58
14.87
14.57
13.52
12.41
11.33
8.99
3.44
-6.66
-20.87
-36.85
-51.48
-62.39
-68.68
-70.88
-70.35
-68.4
-66.26
-65.08
-66.08
-69.98
-76.46
-83.84
-89.81
-92.65
-92.25
-90.6
-90.55
-94.02
-100.89
-108.53
-112.94
-110.32
-98.66
-78.63
-53.48
-27.89
-6.63
6.96
12.26
11.96
11.22
16.2
31.84
59.86
97.53
138.34
174.05
197.88
206.61
201.38
186.82
169.08
153.36
142.4
136.16
132.41
128.36
121.75
111.77
99.01
84.74
70.24
56.27
42.95
30.09
17.78
6.72
-1.87
-7.01
-8.7
-8.53
-9.07
-12.95
-21.57
-34.22
-47.97
-58.91
-63.83
-61.54
-53.16
-41.6
-29.91
-19.91
-11.93
-5.55
-0.73
1.96
1.63
-2.1
-8.25
-14.51
-18.38
-18.62
-15.77
-11.64
-8.31
-7.44
-9.86
-15.43
-23.35
-32.06
-39.07
-41.24
-35.82
-21.87
-0.81
23.81
47.89
67.83
81.31
87.49
86.66
79.95
69.29
57.52
47.84
42.86
43.64
49.21
57.01
63.74
66.58
63.92
55.56
42.25
25.09
5.29
-15.6
-35.52
-52.09
-62.83
-66.09
-61.73
-51.51
-38.51
-25.95
-16.04
-9.47
-5.68
-3.48
-2.29
-2.33
-4.16
-7.88
-12.56
-16.61
-18.71
-18.77
-18.05
-18.31
-20.54
-24.4
-28.34
-30.48
-29.86
-27.15
-24.08
-22.02
-20.99
-19.63
-16.34
-10.99
-5.55
-3.66
-8.28
-19.85
-35.34
-49.18
-55.39
-50.11
-33.26
-8.23
19.79
46.01
67.37
82.83
92.42
96.63
96.13
92.17
86.37
80.41
75.51
71.75
67.96
62.36
53.79
42.25
28.72
14.59
0.63
-12.98
-26.25
-38.62
-48.86
-55.79
-59.21
-60.22
-60.59
-61.77
-63.98
-66.11
-66.77
-65.32
-62.58
-60.71
-61.76
-66.18
-72.57
-78.58
-82.56
-84.58
-86.13
-88.84
-93.42
-99.35
-105.49
-110.94
-115.07
-117.01
-114.81
-105.31
-85.87
-56.28
-20.03
16.65
47.31
67.98
78.15
79.91
75.8
67.33
55.43
41.81
29.9
24.25
28.73
44.42
68.94
97.12
123.26
143.18
154.9
158.25
153.94
143.13
127.26
108.37
89.14
72.29
60
53.16
51.23
52.82
55.93
58.24
57.5
52.36
42.65
29.35
14.12
-1.04
-14.35
-24.62
-31.3
-34.34
-34.3
-32.42
-30.14
-28.83
-29.55
-33.07
-39.65
-48.79
-59.23
-69.05
-75.92
-77.73
-73.64
-64.75
-53.77
-44.04
-38.07
-36.49
-38.4
-42.21
-46.57
-50.95
-55.22
-58.7
-59.62
-55.63
-44.82
-26.68
-2.72
24.09
50.31
73.28
91.61
104.78
112.78
115.72
113.65
106.87
96.22
83.03
68.82
54.99
42.83
33.45
27.59
25.39
26.08
28.01
28.92
26.9
21.32
12.94
3.36
-5.74
-13.26
-18.92
-22.96
-25.92
-28.37
-30.62
-32.75
-34.66
-36.01
-36.56
-36.46
-36.22
-36.61
-38.13
-40.81
-44.4
-48.79
-54.24
-61.17
-69.36
-77.26
-82.33
-81.94
-74.63
-60.97
-43.59
-26.35
-13.26
-7.44
-10.55
-22.16
-39.37
-57.2
-69.64
-71.36
-59.92
-36.93
-7.33
22.76
48.65
68.64
83.85
96.41
107.56
116.56
121.16
119.54
111.9
100.91
90.47
83.63
80.87
80.09
77.75
70.94
58.63
41.85
22.98
4.55
-11.18
-22.55
-28.5
-28.72
-23.55
-14.38
-3.37
7.08
14.49
16.74
12.5
1.78
-13.9
-31.57
-47.59
-58.78
-63.71
-63.25
-60.03
-57.19
-57
-60.11
-65.69
-72.01
-77.19
-79.81
-79.32
-76.16
-71.78
-68.23
-67.34
-70.13
-76.2
-83.9
-90.75
-94.34
-93.1
-87.02
-77.49
-66.75
-57.16
-50.45
-47.45
-48.19
-52.14
-58.34
-65.37
-71.02
-72.67
-68.11
-56.33
-38.43
-17.31
3.31
20.21
31.64
37.64
39.34
38.34
36.09
33.49
31.11
29.69
30.32
34
41.19
51.35
63.02
74.15
82.92
88.4
90.54
89.87
86.97
82.14
75.27
66.49
56.64
47.25
40.12
36.49
36.43
39.08
43.18
47.34
50.2
50.46
47.18
40.28
30.95
21.5
14.51
11.33
10.96
10.35
6.32
-2.42
-13.92
-23.72
-27.34
-23.3
-14.32
-6.02
-4.05
-11.23
-26.53
-46.2
-65.96
-82.8
-95.54
-103.83
-107.06
-103.96
-93.54
-76.39
-55.24
-34.34
-17.58
-6.45
0.99
9.31
23.47
46.31
76.81
110.28
140.26
161.19
170.46
169.18
161.22
151.11
141.83
133.65
124.33
110.9
91.63
67.52
42.08
19.46
2.42
-8.7
-15.51
-19.91
-22.77
-23.56
-21.16
-15.16
-6.68
2.08
8.98
12.88
13.79
12.25
8.28
1.26
-9.39
-23.2
-38.1
-50.77
-58.04
-58.63
-53.61
-45.92
-38.91
-35.08
-35.48
-40.01
-48.37
-60.36
-75.43
-91.61
-105.28
-112.18
-109.33
-96.41
-75.83
-51.09
-24.79
2.37
30.68
59.51
86.07
105.86
114.84
111.81
99.37
82.75
67.37
56.22
49.05
43.38
36.95
29.2
21.58
16.76
16.99
22.46
30.89
38.58
42.01
39.35
31.03
19.22
6.91
-3.43
-10.68
-15.11
-17.75
-19.9
-22.81
-27.14
-32.85
-39.07
-44.32
-47.18
-47
-44.47
-41.58
-40.81
-43.53
-49.18
-55.33
-59.01
-58.05
-51.87
-41.93
-30.8
-21.24
-15.45
-15.29
-21.75
-34.69
-52.57
-72.14
-89.23
-99.46
-99.34
-87.08
-63.09
-29.65
9.24
48.14
81.4
104.27
114.68
113.92
106.13
96.35
88.3
82.99
78.74
73.01
64.2
52.72
40.35
29.01
19.7
12.28
5.84
-0.36
-6.61
-13.38
-21.33
-30.95
-41.62
-51.25
-56.8
-55.81
-48.01
-35.89
-23.78
-15.58
-13.02
-15.03
-18.74
-21.33
-21.5
-19.56
-16.58
-13.45
-10.31
-6.79
-2.86
0.53
1.45
-2.44
-12.33
-27.5
-45.14
-61.28
-72.48
-76.79
-74.17
-66.1
-54.98
-43.71
-35.08
-31.29
-33.1
-39.54
-48.29
-56.74
-63.16
-67.41
-70.44
-72.94
-73.99
-71.1
-61.25
-42.73
-16.52
13.65
42.58
65.56
80.07
86.35
86.95
84.92
82.66
80.72
78.38
74.77
70.2
66.52
65.96
69.49
75.68
81
81.55
75.07
62.25
46.11
30.3
17.19
7.42
0.15
-5.78
-10.52
-12.95
-11.59
-5.76
3.37
12.93
19.71
21.66
19.15
14.86
12.34
13.88
19.34
25.91
29.5
26.9
17.39
3.33
-10.84
-20.87
-24.8
-23.92
-22.24
-24.16
-32.36
-46.25
-62.29
-76.01
-84.39
-86.88
-85.07
-80.92
-74.55
-63.79
-45.56
-18.39
15.46
50.25
79.29
98.16
106.44
107.07
103.4
96.64
85.37
67.11
41.71
12.89
-12.47
-27.87
-30.52
-22.98
-11.67
-3.02
-0.59
-3.89
-10.02
-16.26
-21.53
-26.17
-30.51
-33.59
-33.3
-27.71
-16.8
-3.19
8.63
14.34
11.92
2.61
-9.66
-19.7
-23.29
-18.57
-6.83
8.03
20.66
26.19
22.14
9.48
-7.65
-23.89
-35.02
-39.64
-39.26
-36.87
-34.93
-34.36
-34.7
-35.58
-37.66
-42.21
-49.91
-59.48
-67.45
-69.58
-62.87
-47.27
-25.69
-2.52
18.48
35.33
48.13
58.03
65.95
72.01
75.5
75.59
71.68
64.02
53.66
42.57
33.06
27.13
25.41
26.68
28.29
27.4
22.69
15.08
7.46
2.73
1.89
3.52
4.67
2.79
-2.49
-9.27
-14.67
-16.49
-14.5
-10.02
-4.9
-0.53
2.65
4.47
4.47
2.12
-2.42
-7.57
-10.75
-9.97
-5.53
-0.35
1.09
-4.59
-17.72
-35.04
-51.42
-62.05
-64.45
-59.17
-48.77
-36.35
-24.8
-16.64
-14.11
-19.17
-32.36
-51.89
-73.35
-90.62
-98.27
-93.77
-78.68
-57.77
-36.69
-19.29
-6.1
5.23
17.96
34.03
52.93
71.91
87.21
95.59
95.38
86.87
72.26
55.03
38.76
26.11
17.93
13.39
10.76
8.75
7.26
7.08
8.9
12.25
15.67
17.6
17.62
16.69
16.36
17.21
18.07
16.71
11.48
3.11
-5.1
-8.63
-4.18
8.14
24.59
39.48
47.8
47.48
40.09
29.56
19.81
12.78
8.2
4.62
0.89
-2.91
-6.17
-9
-12.97
-20.32
-32.05
-46.47
-59.44
-66.21
-64.13
-54.14
-40.05
-26.21
-15.1
-6.59
1.13
9.5
18.34
26.07
31.02
32.61
31.5
28.98
26.17
23.59
21.36
19.54
18.39
18.16
18.97
20.73
23.16
25.88
28.17
28.82
26.41
19.98
10.1
-0.89
-9.61
-13.06
-10.22
-2.8
5.53
10.8
10.17
2.94
-9.66
-25.04
-40.07
-51.62
-57.29
-56.16
-49.46
-40.43
-33.34
-31.82
-37.17
-47.65
-59.2
-67.34
-69.12
-64.22
-54.77
-43.92
-34.61
-28.61
-26.19
-26.52
-28.03
-28.96
-27.62
-22.6
-12.82
2.23
22.29
46.17
71.33
94.2
110.83
117.94
114.08
100.47
81.09
61.52
46.87
39.75
39.41
42.15
43.21
39.14
29.31
15.92
2.55
-7.78
-14.21
-17.9
-20.89
-24.71
-29.29
-33.15
-34.3
-31.38
-24.23
-13.91
-2.09
9.49
19.26
25.94
28.36
25.47
16.68
2.38
-15.73
-34.7
-51.5
-64.01
-71.69
-75.55
-77.16
-77.41
-76.18
-72.76
-66.7
-58.34
-48.91
-39.49
-30.41
-21.18
-11.24
-1
7.74
12.42
11
3.09
-9.5
-23.52
-35.54
-43.16
-45.63
-43.65
-38.55
-31.32
-22.25
-11.04
2.35
17.21
31.88
44.4
53.43
58.72
61.14
62.05
62.48
62.71
62.5
61.64
60.32
59.09
58.42
58.46
58.75
58.58
57.38
54.77
50.74
45.51
39.36
32.57
25.51
18.66
12.81
8.92
7.92
10.42
16.16
23.93
31.96
38.45
42.05
42.38
40.14
36.49
32.4
27.89
22.19
14.68
5.94
-1.81
-5.61
-3.68
2.85
9.8
11.41
3.32
-15.26
-40.9
-67.68
-89.85
-104.16
-110.33
-109.87
-104.4
-94.71
-80.83
-63.04
-42.5
-21.14
-1.22
15.63
28.88
38.57
44.77
46.91
43.95
35.34
22.06
7
-5.96
-13.61
-15.1
-12.35
-8.8
-7.35
-8.76
-11.35
-12.34
-9.79
-3.88
3.3
9.15
11.82
11.08
7.96
3.94
0.22
-2.4
-3.59
-3.38
-2.04
-0.15
1.41
1.75
-0.06
-4.84
-12.89
-23.66
-35.39
-45.18
-50.06
-48.4
-40.91
-30.66
-21.85
-17.91
-20.05
-27.19
-36.95
-46.82
-54.92
-59.87
-60.34
-54.84
-42.22
-22.77
1.01
24.56
42.65
51.37
49.88
40.83
29.33
20.53
17.21
18.75
21.98
23.29
21
15.97
10.56
6.77
5.09
4.31
2.9
0.18
-3.37
-6.76
-9.33
-10.99
-11.9
-11.99
-10.85
-8.15
-4.2
-0.03
3.25
5.13
5.84
6
5.95
5.48
4.33
2.86
2.05
2.98
5.95
9.85
12.35
11.08
4.98
-4.94
-15.89
-24.39
-27.69
-24.94
-17.43
-7.99
0.06
4.13
3.07
-2.77
-11.82
-22.36
-33.28
-44.53
-56.68
-70.08
-83.95
-96.04
-103.39
-103.49
-95.14
-79.01
-57.2
-32.46
-7.53
15.23
34.23
48.74
58.89
65.66
70.35
73.61
74.92
72.87
66.14
54.72
40.36
26.3
15.72
10.47
10.42
13.9
18.96
24.22
29.26
34.02
38.15
40.54
39.77
34.99
26.76
17.06
8.55
3.39
2.27
4.28
7.53
10.3
12.04
13.2
14.51
16.2
17.66
17.77
15.6
11.01
4.92
-1.18
-5.98
-8.83
-10.04
-10.91
-13.24
-18.67
-27.92
-40.44
-54.47
-67.73
-78.21
-84.69
-86.83
-84.78
-78.73
-68.71
-54.8
-37.47
-17.63
3.61
24.97
44.97
62.1
74.85
81.78
82.08
75.89
64.26
48.86
31.79
15.36
1.89
-6.46
-8.21
-2.85
8.76
24.43
41.03
55.03
63.36
64.06
56.94
43.78
28.05
13.79
4.22
0.57
1.7
4.92
7.24
6.87
3.62
-1.65
-7.87
-14.38
-21.05
-27.77
-33.88
-38.15
-39.27
-36.66
-30.83
-23.41
-16.59
-12.35
-11.75
-14.7
-20.06
-26.16
-31.44
-34.79
-36.08
-35.89
-34.86
-33.14
-29.94
-23.89
-13.83
0.11
16.15
31.28
42.27
47.17
46.01
40.44
33.06
26.5
22.66
22.5
26.07
32.81
41.59
50.8
58.57
63.23
63.73
60.07
53.19
44.65
36.03
28.41
22.02
16.71
12.27
8.67
6.31
5.66
6.98
9.93
13.66
16.95
18.74
18.52
16.29
12.5
7.94
3.51
0.12
-1.7
-2
-1.47
-1.27
-2.72
-6.61
-12.88
-20.31
-26.92
-30.69
-30.36
-26.11
-19.72
-14.12
-12.04
-14.8
-21.47
-29.3
-34.93
-35.94
-31.97
-24.67
-16.9
-11.36
-9.65
-11.89
-16.79
-21.96
-24.47
-21.57
-11.48
5.82
28.18
51.54
71.03
82.25
82.57
71.83
52.12
27.5
2.82
-17.51
-30.67
-36.08
-35.16
-30.4
-24.35
-18.67
-13.8
-9.6
-5.99
-3.54
-3.24
-5.76
-10.75
-16.51
-20.66
-21.27
-18.08
-12.67
-7.63
-5.17
-5.97
-9.01
-12.43
-14.89
-16.14
-16.73
-16.98
-16.28
-13.23
-6.59
3.61
15.81
27.32
35.16
37.13
32.4
21.7
7.22
-7.71
-19.39
-24.68
-22.12
-12.43
1.69
16.39
27.74
32.68
29.72
19.24
3.54
-13.41
-26.84
-32.57
-28.49
-15.43
3.14
22.52
38.62
49.29
54.59
56
55.23
53.13
49.65
44.49
37.72
30.18
23.14
17.51
13.35
9.91
6.22
2.11
-1.4
-2.41
0.82
8.86
20.48
33.03
43.35
48.92
48.77
43.72
35.9
27.73
20.72
14.87
8.77
0.75
-9.83
-21.77
-32.42
-39.09
-40.47
-37.52
-32.79
-28.99
-27.79
-29.41
-33.14
-38.46
-45.18
-52.86
-60.16
-64.54
-63.43
-55.98
-44.11
-32.2
-25.14
-25.78
-33.57
-44.82
-54.69
-59.34
-57.22
-48.9
-36.05
-20.3
-2.73
15.69
33.56
48.72
58.65
61.55
57.35
48.08
37.33
28.87
24.95
25.33
27.63
28.6
26.09
20.27
13.55
9.12
9.18
13.69
20.56
26.83
30.14
29.68
26
20.5
14.54
9.02
4.29
0.25
-3.24
-6.03
-7.45
-6.7
-3.36
2.1
8
12.1
12.5
8.74
1.86
-6.09
-13.36
-19.23
-23.96
-28.22
-32.31
-36.07
-39.11
-41.51
-43.84
-46.67
-50.05
-53.23
-54.92
-54.27
-51.45
-47.68
-44.49
-42.63
-41.41
-39.32
-35.08
-28.53
-20.64
-12.91
-6.34
-0.97
4.06
9.72
16.3
23.21
29.45
34.44
38.48
42.8
48.82
57.4
68.32
80.36
91.97
101.77
108.96
113.46
115.79
116.53
115.97
113.82
109.28
101.4
89.58
73.86
55.08
34.66
14.27
-4.71
-21.47
-35.75
-47.49
-56.7
-63.31
-67.2
-68.61
-68.36
-67.5
-66.92
-66.9
-66.96
-66.23
-64.17
-61
-57.72
-55.45
-54.52
-54.03
-52.33
-48.03
-40.77
-31.46
-21.51
-11.7
-1.87
8.77
20.53
32.29
41.43
45.07
41.88
33.28
23.17
16.34
16.1
22.69
33.14
42.66
46.97
44.22
35.62
24.64
15.04
9.05
6.76
6.74
7.32
7.42
6.73
5.16
2.33
-2.51
-9.73
-18.7
-27.63
-34.29
-36.92
-35.13
-30.13
-23.95
-18.87
-16.89
-19.25
-26.22
-36.84
-48.69
-58.48
-63.09
-60.83
-52.31
-40.31
-28.64
-20.6
-17.75
-19.5
-23.96
-28.96
-33.1
-36.07
-38.32
-40.57
-43.46
-47.31
-52.01
-57
-61.04
-62.21
-58.56
-49.04
-34.44
-17.94
-4.13
2.88
1.34
-7.01
-17.59
-24.83
-24.51
-15.5
-0.13
16.99
31.18
39.53
41.98
40.81
39.21
39.71
43.01
47.94
52.24
53.75
51.22
44.82
35.79
25.91
16.75
9.23
3.57
-0.44
-3.27
-5.3
-6.53
-6.8
-6.02
-4.35
-2.3
-0.42
0.91
1.65
2.15
3.1
5.21
8.89
13.88
18.82
21.61
19.98
12.49
-0.47
-16.39
-31.44
-41.78
-45.1
-41.69
-33.94
-25.36
-19.14
-17.05
-19.35
-25.05
-32.34
-39.05
-42.99
-42.51
-37.02
-27.51
-16.39
-6.99
-2.48
-4.57
-12.83
-24.74
-36.46
-44.1
-45.05
-38.67
-26.4
-11.18
3.58
15.11
22.24
25.66
27.56
30.66
37
46.68
57.78
66.94
70.84
67.8
58.69
46.75
36.13
30.11
29.6
32.94
36.97
38.76
37.06
32.33
25.95
19.24
12.72
6.31
-0.02
-5.74
-9.71
-10.88
-8.93
-4.82
-0.53
1.63
0.08
-5.38
-13.53
-22.33
-29.63
-33.8
-34.09
-30.86
-25.46
-19.82
-15.77
-14.37
-15.72
-18.98
-23.05
-27.14
-31.25
-36.06
-42.3
-49.97
-57.89
-64.05
-66.44
-64.09
-57.6
-48.88
-39.96
-32.26
-26.18
-21.23
-16.69
-11.9
-6.51
-0.28
7.08
15.98
26.85
39.89
54.94
71.19
87.2
100.9
110.13
113.34
110.24
101.87
90.27
77.52
64.96
53.13
42.02
31.91
23.78
19.14
19.32
24.79
34.79
47.58
60.9
72.32
79.51
80.51
74.3
61.38
43.99
25.51
9.35
-2.43
-9.82
-14.49
-18.72
-24.11
-30.96
-38.55
-45.87
-52.39
-57.93
-62.3
-64.69
-63.89
-59.08
-50.57
-39.9
-29.17
-20.02
-12.85
-6.89
-0.94
5.73
12.7
18.52
21.35
20.03
14.62
6.43
-2.61
-10.75
-16.99
-21.02
-22.55
-20.86
-15.01
-4.84
8.05
20.05
26.93
25.95
17.62
5.67
-5.03
-11.09
-12.34
-11.45
-11.84
-15.41
-21.43
-27.34
-30.53
-29.81
-25.75
-19.96
-14.08
-9.22
-6.09
-5.21
-7.05
-11.81
-18.96
-27.12
-34.32
-38.79
-39.78
-37.91
-34.92
-33.01
-33.78
-37.58
-43.12
-47.94
-49.24
-45.02
-34.87
-20.28
-4.31
9.58
18.63
21.67
19.42
14.03
8.21
4.3
3.48
5.57
9.2
12.41
13.51
11.77
7.75
2.96
-0.82
-2.59
-2.5
-1.48
-0.53
0.02
0.71
2.35
5.15
8.32
10.3
9.67
6.1
0.61
-4.98
-9.02
-10.89
-11.15
-10.89
-10.92
-11.08
-10.52
-8.42
-4.9
-1.4
-0.03
-2.28
-7.93
-14.74
-19.66
-20.69
-18.24
-15.08
-14.88
-20.08
-30.63
-44.08
-57
-66.66
-71.86
-72.72
-69.65
-62.75
-51.92
-37.46
-20.56
-3.27
12.08
23.77
31.28
35.38
37.93
41.43
48.04
58.9
73.86
91.5
109.79
126.72
140.78
151.11
157.31
159.34
157.36
152.05
144.62
136.47
128.47
120.41
111.1
99.16
84.02
66.56
48.79
32.96
20.35
10.67
2.24
-7.09
-18.89
-33.13
-47.89
-60.15
-67.07
-67.4
-62.01
-53.57
-45.26
-39.51
-37.3
-38.16
-40.85
-44.13
-47.2
-49.41
-50.03
-48.12
-42.99
-34.95
-25.77
-18.35
-15.47
-18.61
-27.16
-38.71
-50.11
-58.56
-62.23
-60.25
-52.34
-38.64
-20.06
1.58
23.47
42.47
56.23
63.85
65.86
63.54
58.02
50.15
40.88
31.63
24.24
20.2
19.64
21.2
22.62
22.07
18.97
14.05
8.54
3.22
-1.81
-6.98
-12.73
-19.01
-25.21
-30.34
-33.26
-33.08
-29.33
-22.29
-13.28
-4.45
1.86
4.15
2.45
-1.78
-6.41
-9.92
-12.04
-13.64
-15.97
-19.84
-25.25
-31.42
-37.36
-42.29
-46.03
-48.73
-50.69
-51.93
-52.17
-50.87
-47.56
-42.37
-36.18
-30.58
-27.42
-27.9
-31.84
-37.68
-43.03
-45.51
-43.58
-36.85
-25.88
-11.64
4.72
21.83
38.11
51.71
60.91
64.68
63.02
57.1
48.8
40.2
33.04
28.42
26.49
26.44
26.71
25.71
22.62
17.98
13.3
10.15
9.29
10.19
11.42
11.67
10.43
8.14
5.64
3.29
0.78
-2.45
-6.5
-10.62
-13.44
-13.8
-11.49
-7.53
-3.71
-1.77
-2.69
-6.32
-11.59
-17.11
-21.88
-25.57
-28.32
-30.48
-32.13
-33.2
-33.6
-33.6
-33.84
-35.04
-37.64
-41.23
-44.87
-47.42
-48.04
-46.46
-42.91
-37.87
-32.06
-26.49
-22.44
-21.13
-23.2
-28.18
-34.55
-40.05
-42.41
-39.97
-32.37
-20.53
-6.28
8.22
21.14
31.32
38.63
43.59
46.96
49.32
50.78
51.18
50.56
49.53
49.18
50.63
54.26
59.16
63.31
64.5
61.28
53.84
43.94
34.01
25.96
20.48
17.16
15.18
14.1
13.99
14.92
16.46
17.49
16.72
13.48
8.22
2.31
-2.74
-6.1
-7.83
-8.63
-9.11
-9.54
-9.81
-9.99
-10.46
-11.68
-13.62
-15.42
-15.78
-13.68
-9.33
-4.52
-1.93
-3.92
-11.26
-22.69
-35.44
-46.28
-52.94
-54.75
-52.54
-47.8
-41.73
-34.64
-26.07
-15.38
-2.45
11.91
25.98
37.65
45.11
47.42
44.76
38.27
29.72
21.02
13.66
8.51
5.8
5.33
6.58
9.1
12.7
17.3
22.49
27.3
30.37
30.36
26.69
19.94
11.96
5
0.58
-1.21
-1.68
-2.67
-5.39
-9.57
-13.7
-16.04
-16.02
-14.71
-14.37
-17.14
-23.97
-33.92
-44.5
-52.97
-57.48
-57.68
-54.65
-50.02
-45.28
-41.42
-39.03
-38.5
-40
-43.14
-46.65
-48.49
-46.35
-38.73
-25.76
-9.34
7.45
21.5
30.82
35.21
35.77
34.27
32.21
30.39
28.76
26.74
23.61
19.06
13.49
7.92
3.81
2.24
3.56
7.13
11.65
15.76
18.48
19.73
19.96
19.8
19.59
19.41
19.11
18.62
18.15
18
18.28
18.67
18.52
17.1
14.1
9.87
5.4
2.13
1.02
2.08
4.12
5.06
2.58
-4.72
-16.59
-30.94
-44.5
-54.13
-58.06
-56.66
-52.32
-48.53
-48.35
-53.06
-61.62
-71.09
-78.11
-80.12
-76.32
-67.55
-55.25
-40.65
-24.3
-6.52
11.83
28.96
42.55
50.67
52.73
49.86
44.24
38.04
32.61
28.21
24.33
20.38
16.24
12.32
9.37
8.07
8.74
11.11
14.36
17.59
20.08
21.63
22.53
23.32
24.23
25.07
25.48
25.15
24.18
23
22.01
21.31
20.45
18.83
16.09
12.55
9.17
7
6.41
6.64
6
2.42
-5.42
-17.34
-31.58
-45.28
-55.59
-60.57
-59.78
-53.88
-44.09
-31.47
-16.96
-1.64
13.12
25.58
34.13
37.8
36.87
32.67
27.1
22.12
19.05
18.44
20.11
23.39
27.34
31.04
33.81
35.41
35.88
35.45
34.33
32.51
29.65
25.25
19.01
11.14
2.57
-5.14
-10.55
-13.09
-13.31
-12.61
-12.63
-14.37
-17.77
-22.03
-26.2
-29.9
-33.2
-36.41
-39.47
-41.85
-42.99
-42.94
-42.41
-42.39
-43.45
-45.28
-47
-47.6
-46.72
-44.63
-41.87
-38.67
-34.79
-29.93
-24.02
-17.42
-10.45
-2.78
6.74
19.35
35.2
52.63
68.28
78.45
80.94
76.34
67.83
59.36
53.6
50.39
47.18
40.76
29.45
14.4
-0.66
-11.31
-14.71
-10.98
-2.97
5.26
10.38
11.1
8.18
3.49
-1.27
-5.37
-8.83
-11.88
-14.56
-16.49
-17.2
-16.56
-15.1
-13.93
-14.21
-16.69
-21.58
-28.52
-36.65
-44.92
-52.1
-56.9
-58.23
-55.6
-49.43
-41.23
-33.2
-27.57
-25.91
-28.58
-34.59
-41.87
-47.82
-49.86
-45.98
-35.42
-18.98
0.75
20.15
35.73
45.47
49.65
50.45
50.59
51.75
53.69
54.72
53
48.03
41.15
34.82
30.96
29.84
29.89
28.95
25.7
20.55
15.41
12.6
13.46
17.74
23.95
30.42
36.18
41.08
45.34
48.8
50.54
49.44
45
38.09
30.72
25.07
22.24
21.77
22.1
21.54
19.37
16.11
12.87
10.4
8.46
6.13
2.61
-2.14
-7.4
-12.3
-16.51
-20.67
-25.94
-32.94
-41.22
-49.1
-54.49
-55.86
-52.88
-46.47
-38.01
-28.47
-18.17
-7.04
4.49
15.13
23.05
26.74
25.97
22.02
17.03
12.93
10.65
9.93
9.89
9.89
9.77
9.77
9.99
10.05
9.17
6.74
2.84
-1.65
-5.36
-6.97
-5.79
-2.1
2.99
7.91
11.26
12.29
11.15
8.79
6.44
5.05
4.86
5.37
5.58
4.4
0.95
-5.02
-13.1
-22.33
-31.37
-38.9
-43.96
-46.15
-45.71
-43.26
-39.65
-35.76
-32.44
-30.41
-30.2
-31.97
-35.38
-39.46
-42.72
-43.43
-40.33
-33.02
-21.93
-8.17
6.9
22.04
36.29
49
59.63
67.71
72.77
74.45
72.59
67.3
59.01
48.44
36.61
24.75
14.14
5.78
0.1
-2.87
-3.31
-1.44
2.56
8.28
14.69
20.37
24.05
25.19
24.37
23.08
22.63
23.33
24.26
23.76
20.52
14.38
6.53
-1.24
-7.28
-10.74
-11.77
-11.29
-10.66
-11.08
-13.38
-17.78
-23.82
-30.51
-36.68
-41.5
-44.81
-47.18
-49.48
-52.52
-56.4
-60.35
-63.05
-63.3
-60.84
-56.53
-52.28
-50.04
-50.75
-53.69
-56.69
-57.27
-53.74
-45.93
-34.96
-22.4
-9.52
3.05
15.09
26.11
35.23
41.54
44.59
44.92
43.87
42.91
42.95
43.82
44.43
43.48
40.23
34.8
28.19
21.79
16.93
14.61
15.35
19.31
26.11
34.51
42.53
47.95
49.04
45.36
38.16
29.85
22.8
18.14
15.23
12.18
7.22
-0.09
-8.52
-15.81
-19.92
-20.13
-17.33
-13.35
-9.75
-6.99
-4.53
-1.59
1.98
5.12
6.18
3.96
-1.37
-8.2
-14.55
-19.18
-22.2
-24.86
-28.49
-33.22
-37.7
-39.88
-38.15
-32.36
-23.7
-13.85
-3.99
5.51
14.82
23.97
32.35
39.02
43.31
45.31
45.79
45.53
44.66
42.47
37.93
30.5
20.77
10.39
1.39
-4.77
-7.76
-8.2
-7.11
-5.23
-2.76
0.42
4.07
7.43
9.45
9.53
8
6.03
4.87
4.95
5.46
4.76
1.47
-4.46
-11.72
-18.12
-21.87
-22.46
-20.8
-18.51
-17.08
-17.38
-19.63
-23.68
-29.07
-34.83
-39.64
-42.03
-41.12
-37.18
-31.7
-26.65
-23.54
-22.69
-23.34
-24.43
-25.39
-26.35
-27.63
-29.09
-29.82
-28.45
-23.92
-16.11
-6.01
4.78
14.54
21.77
25.46
25.09
20.85
13.67
5.21
-2.41
-7.28
-8.49
-6.4
-2.26
2.34
6.04
8.14
8.55
7.53
5.38
2.27
-1.74
-6.55
-11.78
-16.65
-20.25
-21.85
-21.28
-19.21
-16.78
-15.21
-15.09
-16.06
-16.72
-15.19
-10.04
-1.11
10.21
21.54
30.42
35.15
35.4
31.97
26.26
19.47
12.08
3.98
-5.13
-15.18
-25.25
-33.71
-38.84
-39.59
-36.36
-30.9
-25.75
-23.15
-24.15
-28.29
-33.73
-38.14
-39.67
-37.48
-32.09
-25.05
-18.3
-13.45
-11.14
-10.5
-9.57
-6.06
1.55
13.31
27.73
42.71
56.46
67.99
77.01
83.27
86.18
85.14
80.2
72.39
63.71
56.35
51.71
49.84
49.68
49.83
49.32
47.88
45.75
43.26
40.56
37.75
35.09
33
31.9
31.89
32.57
33.1
32.63
30.68
27.25
22.99
18.87
16.01
15.43
17.5
21.64
26.15
28.56
26.57
19.08
6.85
-7.8
-21.79
-32.6
-38.97
-40.94
-39.26
-34.79
-28.19
-20.11
-11.52
-3.49
3.08
8.03
11.88
15.3
18.44
20.67
20.84
18.06
12.39
4.84
-2.88
-9.03
-12.47
-12.76
-10.07
-5.02
1.49
8.25
13.75
16.56
15.67
11
3.41
-5.52
-14.06
-20.71
-24.56
-25.32
-23.14
-18.51
-12.16
-5.09
1.47
6.14
7.9
6.39
2.04
-4.26
-11.82
-20.38
-29.94
-40.09
-49.55
-56.3
-58.58
-56.04
-50.44
-45.12
-43.48
-47.19
-55.35
-64.96
-72.46
-75.38
-72.99
-65.9
-55.21
-41.59
-25.41
-7.45
10.51
25.63
34.98
36.96
32.18
23.32
13.96
7.03
3.71
3.5
4.99
7
9.11
11.49
14.08
16.06
16.01
12.91
6.85
-0.73
-7.76
-12.48
-14.3
-13.85
-12.3
-10.62
-8.98
-7.08
-4.73
-2.28
-0.6
-0.64
-2.7
-6.07
-9.49
-11.85
-12.78
-12.69
-12.34
-12.21
-12.2
-11.73
-10.43
-8.8
-8.06
-9.3
-12.73
-17.31
-21.55
-24.4
-25.86
-26.93
-28.85
-32.17
-36.17
-39.41
-40.33
-38.09
-32.61
-24.36
-13.86
-1.47
12.58
27.82
43.22
57.32
68.46
75.14
76.56
72.95
65.63
56.54
47.5
39.64
33.14
27.53
22.25
17.33
13.33
11.03
10.84
12.32
14.27
15.24
14.28
11.42
7.66
4.32
2.27
1.51
1.25
0.52
-1.03
-2.78
-3.44
-1.96
1.7
6.25
9.88
11.3
10.67
9.57
10.01
12.98
17.53
21.19
21.18
15.98
6.1
-6.09
-17.74
-26.74
-32.41
-35.18
-35.6
-33.89
-29.77
-23
-13.87
-3.42
6.89
15.87
22.82
27.55
30
30.1
27.96
24.01
19.02
13.56
7.9
1.97
-4.3
-10.48
-15.47
-17.88
-16.75
-12.07
-4.84
3.19
10.37
15.63
18.63
19.42
18.19
15.27
11.42
7.79
5.32
4.31
4.36
4.65
4.4
3.2
0.96
-2.29
-6.7
-12.47
-19.46
-26.79
-32.85
-36.03
-35.57
-32.09
-27.44
-23.69
-22.19
-23.17
-26.05
-30.08
-34.58
-38.93
-42.14
-42.67
-39.01
-30.41
-17.85
-4
7.78
14.89
16.65
14.41
10.78
8.26
8.08
10.06
12.95
15.36
16.37
15.92
14.47
12.69
11.06
9.81
9
8.63
8.66
9.01
9.71
10.71
11.86
12.8
13.1
12.56
11.42
10.45
10.45
11.78
13.8
15.01
13.88
9.66
2.79
-5.1
-12.1
-17.07
-20.15
-22.54
-25.62
-30.21
-36.08
-42.3
-47.74
-51.56
-53.33
-53.06
-50.97
-47.64
-44.02
-41.49
-41.39
-44.53
-50.52
-57.64
-63.24
-64.59
-59.83
-48.49
-31.65
-11.44
9.41
28.15
42.65
51.92
56.3
57.31
56.99
56.89
57.43
57.78
56.53
52.63
46.04
37.84
29.73
23.21
18.96
16.82
16.14
16.36
17.33
19.04
21.32
23.54
24.7
23.99
21.43
18.03
15.5
15.2
17.15
19.81
20.83
18.46
12.59
4.91
-2.12
-6.8
-8.94
-9.77
-11.05
-13.9
-18.3
-23.24
-27.41
-29.87
-30.21
-28.41
-24.57
-18.94
-12.17
-5.61
-1.11
-0.57
-5.13
-14.47
-26.63
-38.56
-46.91
-49.2
-44.58
-33.85
-18.96
-2.15
14.7
30.26
43.39
53.1
58.67
59.83
56.99
51.37
44.42
37.41
30.97
24.98
19.02
12.85
6.77
1.54
-1.88
-2.91
-1.51
1.54
4.99
7.51
8.18
6.82
4.13
1.07
-1.64
-3.95
-6.29
-9.07
-12.17
-14.82
-16.07
-15.46
-13.39
-11
-9.63
-10.04
-12.08
-14.96
-17.78
-20.04
-21.72
-23.01
-24.01
-24.75
-25.16
-25.25
-25.15
-25.11
-25.29
-25.87
-27.1
-29.21
-32.09
-35
-36.6
-35.41
-30.36
-21.31
-9.09
4.88
18.9
31.44
41.23
47.13
48.36
44.73
37.03
26.96
16.82
8.83
4.7
5.09
9.41
16.06
22.88
27.71
29.11
26.97
22.57
17.75
13.95
11.55
9.88
7.88
5.07
2.01
-0.16
-0.73
0
0.79
0.39
-1.53
-4
-5.46
-4.85
-2.48
0.04
0.73
-1.48
-6.13
-11.65
-16.42
-19.56
-21.35
-22.69
-24.38
-26.54
-28.9
-31.31
-33.98
-37.38
-41.56
-45.74
-48.22
-47.12
-41.61
-32.58
-22.54
-14.68
-11.47
-13.72
-20.33
-28.64
-35.51
-38.07
-34.49
-24.3
-8.57
10.19
28.48
42.8
50.82
52.15
48.36
42.31
36.79
33.37
32.12
32.27
32.87
33.44
33.89
34.15
33.79
32.24
29.16
24.91
20.5
17.03
15.02
14.19
13.8
13.12
12.03
10.91
10.19
10.01
10.06
9.82
9.02
7.75
6.38
5.19
4.16
2.87
0.73
-2.63
-7.09
-12.01
-16.52
-19.94
-22.08
-23.33
-24.43
-26.03
-28.3
-30.76
-32.5
-32.67
-30.94
-27.69
-23.84
-20.37
-18.02
-17.27
-18.33
-21.36
-26.43
-33.27
-41
-48.01
-52.16
-51.43
-44.76
-32.58
-16.77
0.07
15.6
28.37
37.87
44.15
47.3
47.22
43.96
38.12
30.86
23.73
18.21
15.09
14.34
15.48
17.78
20.64
23.62
26.4
28.77
30.65
31.96
32.52
32.13
30.52
27.59
23.58
19.28
15.88
14.38
15
16.96
18.6
18.13
14.72
8.89
2.41
-2.57
-4.72
-4.19
-2.52
-1.82
-3.74
-8.46
-14.98
-21.84
-27.91
-32.82
-36.67
-39.52
-41.07
-40.9
-38.79
-35.25
-31.64
-29.59
-30.26
-33.56
-38.15
-41.82
-42.4
-38.64
-30.62
-19.43
-6.54
6.61
19.16
30.55
40.16
47.14
50.48
49.63
44.89
37.52
29.17
21.44
15.34
11.04
8.18
6.1
4.28
2.58
1.12
0.25
0.34
1.6
3.88
6.74
9.39
11.07
11.24
9.89
7.48
4.97
3.41
3.72
6.23
10.45
15.06
18.51
19.72
18.59
16.07
13.49
11.94
11.68
12.02
11.88
10.33
6.83
1.33
-5.86
-14.15
-22.59
-30.18
-36.11
-40.24
-43.23
-46
-49.06
-51.89
-52.94
-50.47
-43.65
-33.35
-22.03
-12.74
-8.04
-9.18
-15.77
-26.02
-37.28
-46.6
-51.35
-49.75
-41.35
-26.89
-8.25
12.05
31.17
46.55
56.25
59.28
56.05
48.26
38.69
30.29
25.32
24.66
27.76
33.22
39.46
45.38
50.29
53.92
56.14
56.84
55.89
53.42
49.69
45
39.58
33.52
26.75
19.27
11.37
3.54
-3.77
-10.25
-16
-21.16
-25.82
-29.78
-32.89
-35.29
-37.57
-40.55
-44.85
-50.4
-56.56
-62.48
-67.61
-71.93
-75.79
-79.4
-82.59
-84.71
-84.86
-82.43
-77.42
-70.49
-62.83
-55.76
-50.27
-46.5
-43.75
-40.71
-36.22
-29.88
-22.37
-14.85
-8.2
-2.28
4.03
12.12
22.77
35.41
48.5
60.08
68.67
73.65
75.21
74.04
71
66.92
62.34
57.63
52.82
47.72
42.25
36.81
32.29
29.86
30.28
33.31
37.6
41.16
42.1
39.42
33.24
24.54
14.66
4.96
-3.44
-9.74
-13.58
-15.12
-15.1
-14.74
-15.28
-17.59
-21.67
-26.82
-31.87
-35.78
-37.92
-38.07
-36.18
-32.02
-25.2
-15.44
-3.09
10.71
24
34.52
40.3
40.03
33.38
21.26
5.7
-10.53
-24.46
-33.61
-36.79
-34.52
-29.1
-23.97
-22.76
-28.07
-40.81
-60.09
-83.4
-107.44
-128.71
-144.1
-151.4
-149.56
-139.17
-122.4
-102.6
-83.53
-68.28
-58.5
-53.96
-52.95
-52.96
-51.5
-46.49
-36.43
-20.72
0.22
24.93
51.22
76.78
99.95
120.03
136.98
150.64
160.36
165.36
165.52
162
157.19
153.65
152.76
153.91
154.77
152.18
143.41
127.25
104.3
76.87
48.19
21.71
0.13
-15.03
-23.77
-27.36
-27.65
-26.35
-24.61
-23
-21.99
-22.1
-23.64
-26.24
-28.63
-28.92
-25.5
-17.86
-6.96
5.16
16.08
23.75
27.24
26.59
22.48
16.04
8.77
2.59
-0.25
2.1
10.34
23.41
38.52
52.07
60.95
63.47
59.56
50.28
37.05
21.23
4.06
-12.83
-27.28
-37.02
-40.58
-38.25
-32.12
-25.3
-20.66
-19.85
-22.87
-28.39
-34.74
-40.51
-44.81
-47.19
-47.4
-45.23
-40.84
-35.01
-29.21
-25.45
-25.35
-29.23
-35.58
-41.5
-43.79
-40.57
-32.21
-21.23
-11.15
-4.93
-3.68
-6.56
-11.51
-16.23
-19
-18.92
-15.78
-9.82
-1.61
8.02
18.27
28.58
38.67
48.21
56.52
62.32
64.36
62.1
56.09
47.79
38.75
29.83
21.05
12.14
3.21
-4.84
-10.62
-13.28
-13.17
-11.77
-10.92
-11.85
-14.58
-18.09
-20.99
-22.17
-21.22
-18.48
-14.98
-12.15
-11.28
-13
-17.04
-22.33
-27.5
-31.5
-33.98
-35.56
-37.4
-40.53
-45.61
-52.4
-59.68
-65.53
-67.65
-63.97
-53.58
-37.22
-17.31
2.72
19.4
30.44
35.43
35.71
33.73
32.08
32.6
35.84
40.97
46.2
49.47
49.09
44.39
35.92
25.15
13.92
3.68
-4.78
-11.27
-15.71
-17.94
-17.57
-14.41
-9.01
-2.8
2.16
3.94
1.52
-4.77
-13.61
-22.95
-30.8
-35.61
-36.51
-33.36
-26.9
-18.82
-11.55
-7.82
-9.63
-17.34
-29.24
-41.99
-51.74
-55.71
-53.13
-45.28
-34.66
-23.7
-13.95
-5.86
0.67
5.66
8.85
10.04
9.7
9.14
10.14
13.98
20.8
29.57
38.55
46.06
51.03
53.08
52.25
48.83
43.19
35.93
28.12
21.23
16.92
16.39
19.79
25.74
31.76
35.15
34.15
28.68
20.34
11.45
3.98
-1.17
-4.36
-6.51
-8.45
-10.42
-12.29
-14.06
-16.1
-19
-23.14
-28.4
-34.04
-39.32
-43.85
-47.72
-51.32
-54.83
-58.18
-61.09
-63.4
-65.11
-66.19
-66.31
-64.73
-60.55
-53.33
-43.59
-32.62
-21.74
-11.85
-3.39
3.3
7.72
9.22
7.74
4.53
2.05
2.84
8.04
16.59
25.88
33.51
38.75
42.73
47.29
53.31
59.89
65.01
67.07
65.87
62.66
59.26
56.76
55.16
53.51
50.73
46.26
40.34
33.66
27
20.97
15.86
11.6
7.67
3.47
-1.41
-6.8
-12
-16.08
-18.37
-18.64
-17.13
-14.37
-11.14
-8.31
-6.9
-7.9
-11.62
-17.51
-24.5
-31.32
-37.13
-41.68
-44.95
-46.76
-46.66
-44.43
-40.79
-37.62
-37.22
-41.05
-48.4
-56.07
-59.57
-55.02
-40.96
-19.05
6.7
31.75
52.65
67.95
77.73
82.97
84.71
83.66
80.41
75.84
71.21
67.7
65.84
65.15
64.08
60.82
54.27
44.74
33.91
24.13
17.3
14.06
13.61
14.3
14.59
13.75
12
10.09
8.56
7.37
6.01
3.82
0.62
-3.43
-8.13
-13.41
-19.66
-27.19
-35.73
-44.31
-51.65
-56.68
-59.32
-60.47
-61.37
-62.8
-64.5
-65.24
-63.6
-58.87
-51.57
-43.23
-35.69
-30.18
-27.09
-25.93
-25.88
-26.19
-26.33
-25.88
-24.3
-20.89
-14.83
-5.76
6
19.32
32.35
43.42
51.4
56.09
58.22
59
59.49
60.26
61.3
62.25
62.82
62.94
62.67
61.91
60.27
57.15
52.11
45.28
37.51
30.08
24.13
20.2
18.09
17.2
16.85
16.61
16.3
15.73
14.54
12.25
8.6
3.79
-1.49
-6.4
-10.36
-13.43
-16.19
-19.35
-23.38
-28.15
-33.04
-37.35
-40.57
-42.72
-44.27
-45.95
-48.23
-51.14
-54.11
-56.32
-57.03
-55.93
-53.14
-49
-44.16
-39.4
-35.61
-33.66
-34.08
-36.49
-39.37
-40.32
-36.84
-27.57
-12.96
4.78
22.45
37.2
47.45
53.1
55.03
54.46
52.44
49.69
46.78
44.31
42.94
43.25
45.45
49.08
53.08
55.91
56.27
53.5
48.05
41.38
35.23
30.82
28.25
26.56
24.4
20.95
16.38
11.69
8.07
6.04
5.23
4.83
4.09
2.73
1
-0.81
-2.76
-5.09
-7.97
-11.25
-14.32
-16.46
-17.28
-16.72
-15.08
-12.94
-11
-9.98
-10.42
-12.32
-14.82
-16.36
-15.34
-11.13
-4.74
1.32
4.1
1.52
-6.48
-17.87
-29.41
-38.02
-41.9
-40.73
-35.25
-26.68
-16.05
-4.17
8.08
19.6
29.06
35.26
37.61
36.34
32.31
26.59
20.03
13.05
5.73
-1.81
-9.17
-15.63
-20.19
-21.86
-20.02
-14.82
-7.15
1.33
8.85
13.99
16.17
15.73
13.79
11.63
10.13
9.68
10.13
10.99
11.61
11.4
9.91
7.08
3.26
-0.82
-4.36
-6.94
-8.77
-10.6
-13.31
-17.47
-22.98
-29.06
-34.5
-38.26
-39.95
-39.76
-38.37
-36.64
-35.22
-34.66
-35.38
-37.43
-40.4
-43.35
-44.97
-43.9
-39.36
-31.39
-20.78
-8.8
3.3
14.61
24.64
33.11
39.64
43.76
45.07
43.47
39.36
33.64
27.6
22.63
19.83
19.77
22.25
26.28
30.33
32.94
33.16
30.93
26.96
22.42
18.31
15.13
12.87
11.32
10.33
9.94
10.15
10.63
10.71
9.53
6.65
2.36
-2.18
-5.41
-6.06
-3.75
0.67
5.56
8.99
9.51
6.75
1.34
-5.54
-12.64
-19.1
-24.53
-28.72
-31.37
-32.08
-30.72
-27.84
-24.65
-22.51
-22.26
-23.88
-26.48
-28.93
-30.29
-30.24
-28.81
-26.09
-22.14
-17.01
-11.21
-5.91
-2.8
-3.28
-7.62
-14.66
-21.88
-26.6
-26.97
-22.58
-14.61
-5.16
3.58
10.07
13.57
13.91
11.02
5.18
-2.75
-10.99
-17.01
-18.25
-13.19
-2.35
11.72
25.22
34.68
38.17
35.94
30.01
23.08
17.4
14.04
12.83
12.76
12.84
12.62
12.17
11.88
11.77
11.19
9.04
4.62
-1.68
-8.19
-12.63
-13.25
-9.87
-4.16
1.08
3.31
1.44
-4.02
-11.28
-18.16
-22.95
-24.7
-23.17
-18.55
-11.19
-1.52
9.85
22.07
33.86
43.62
49.78
51.45
48.87
43.43
37.16
31.82
28.05
25.31
22.31
17.98
12.1
5.44
-0.55
-4.45
-5.46
-3.69
-0.21
3.25
5.04
4.17
0.81
-3.64
-7.32
-8.94
-8.5
-7.31
-7.28
-9.85
-15.19
-22.19
-29.18
-34.64
-37.85
-38.89
-38.34
-36.98
-35.47
-34.24
-33.62
-33.6
-33.78
-33.6
-32.7
-31.25
-30.12
-30.45
-33.09
-37.87
-43.6
-48.24
-49.79
-47.07
-40.29
-30.82
-20.51
-10.78
-1.97
6.64
16.05
26.62
37.65
47.53
54.37
56.97
55.35
50.72
44.81
39.1
34.41
30.96
28.63
27.3
26.84
26.95
27.08
26.64
25.32
23.14
20.49
17.84
15.51
13.52
11.87
10.51
9.32
8.02
6.05
2.8
-1.9
-7.49
-12.73
-16.23
-17.26
-16.1
-13.87
-11.95
-11.39
-12.46
-14.73
-17.41
-19.71
-21.21
-22.06
-22.81
-24.31
-27.18
-31.68
-37.33
-42.97
-47.25
-49
-47.62
-43.11
-35.86
-26.04
-13.66
1.11
17.45
33.71
47.69
57.51
62.44
63.14
61.3
58.72
56.48
54.76
53.15
51.25
49.08
47.11
45.88
45.72
46.54
47.77
48.7
48.7
47.43
44.91
41.43
37.37
32.91
27.81
21.82
15.11
8.58
3.73
1.92
3.48
7.26
11.14
12.95
11.48
6.93
0.5
-6.66
-14.09
-22.33
-32.51
-45.24
-59.85
-74.34
-86.1
-93.17
-95.17
-93.16
-88.87
-83.62
-77.69
-70.57
-61.76
-51.47
-40.63
-30.44
-21.54
-13.77
-6.51
0.91
8.58
15.83
21.66
25.3
26.66
26.38
25.46
24.74
24.79
25.64
27.13
29.37
32.67
37.39
43.35
49.38
53.25
52.43
45.1
31.18
12.71
-6.7
-23.03
-33.18
-36.01
-32.74
-26.59
-21.77
-21.79
-27.91
-38.58
-50.02
-58.03
-59.99
-55.96
-48.23
-39.75
-32.46
-26.53
-21.06
-15.23
-9.26
-4.43
-2.19
-3.16
-6.78
-11.95
-17.62
-23.24
-28.42
-32.38
-34.01
-32.23
-26.81
-18.76
-10.09
-3.13
0.28
-0.61
-5.18
-11.73
-17.89
-21.35
-20.59
-15.21
-5.85
6.36
20.39
35.49
50.8
64.97
75.95
81.62
80.96
74.69
65.05
54.95
46.64
41.16
38.44
37.85
38.8
40.86
43.57
46.19
47.68
47.07
43.79
38.17
31.28
24.72
20.07
18.11
18.56
20.12
21.14
20.35
17.46
13.01
7.94
2.89
-2.01
-6.91
-11.73
-15.85
-18.3
-18.51
-16.99
-15.24
-15.21
-18.37
-24.94
-33.65
-42.23
-48.37
-50.58
-48.68
-43.78
-37.9
-33.19
-31.39
-33.3
-38.6
-45.87
-52.87
-57.19
-56.99
-51.81
-42.86
-32.62
-23.91
-18.78
-17.82
-20.15
-24.04
-27.76
-30.17
-30.62
-28.69
-23.98
-16.35
-6.14
5.51
16.93
26.47
33.21
37.33
39.73
41.33
42.42
42.5
40.85
37.17
32.09
27.02
23.57
22.69
24.25
27.2
30.1
31.74
31.56
29.51
25.88
21.22
16.34
12.16
9.47
8.5
8.83
9.38
9.08
7.41
4.53
1.22
-1.36
-2.3
-1.21
1.69
5.66
9.69
12.87
14.82
15.6
15.4
14.19
11.34
5.89
-2.86
-14.63
-27.79
-39.7
-47.6
-49.41
-44.53
-34.11
-20.82
-8.03
0.97
3.85
-0.14
-10.08
-23.63
-37.78
-49.4
-55.88
-55.53
-47.94
-34.32
-17.34
-0.41
13.28
21.92
25.43
25.29
23.52
21.67
20.27
19.05
17.46
15.08
11.92
8.17
4.01
-0.39
-4.56
-7.67
-8.66
-6.73
-1.89
4.67
10.84
14.42
14.03
9.9
3.81
-1.72
-4.64
-4.01
-0.1
5.95
12.62
18.52
22.47
23.55
21.28
15.76
7.84
-1.09
-9.51
-16.2
-20.55
-22.58
-22.49
-20.5
-17.01
-12.85
-9.27
-7.55
-8.3
-11.04
-14.38
-16.91
-18.05
-18.29
-18.81
-20.34
-22.31
-22.81
-19.54
-11.32
0.99
14.51
25.64
31.74
32.35
29.12
24.82
22.14
22.55
25.93
30.91
35.83
39.05
39.45
36.82
31.83
25.8
20.25
16.51
15.23
16.1
17.91
19.11
18.23
14.29
6.88
-3.69
-16.28
-29.03
-39.73
-46.59
-48.87
-47.28
-43.56
-39.69
-37.14
-36.36
-36.99
-38.48
-40.41
-42.49
-44.54
-46.17
-46.5
-44.78
-41.06
-36.48
-32.86
-31.73
-33.52
-37.16
-40.65
-41.89
-39.7
-34.14
-26.4
-18.2
-11.24
-6.76
-5.32
-6.65
-9.81
-13.25
-15.47
-15.67
-14.24
-12.71
-12.93
-16.13
-22.09
-29.03
-34.21
-34.97
-29.8
-18.9
-4.07
12.01
26.81
38.87
47.99
54.76
59.73
62.87
63.74
61.77
56.96
50.18
42.91
36.54
31.75
28.35
25.43
22.2
18.26
13.95
10
7.24
6.18
6.86
8.98
11.9
14.71
16.43
16.36
14.29
10.71
6.78
3.92
3.2
4.74
7.56
10.09
10.9
9.45
6.18
2.23
-1.21
-3.33
-3.97
-3.39
-2.31
-1.69
-2.33
-4.72
-8.66
-13.25
-17.37
-20.15
-21.46
-22.08
-23.27
-26.06
-30.61
-36.19
-41.54
-45.43
-47.01
-45.85
-41.75
-34.61
-24.64
-12.54
0.28
12.26
22.3
30.35
37.44
44.86
53.13
61.24
67.07
68.47
64.65
56.68
46.99
37.95
30.82
25.67
21.95
19.41
18.58
20.18
24.33
30.09
35.72
39.53
40.73
39.73
37.67
35.69
34.43
33.94
34.08
34.9
36.46
38.37
39.6
38.58
33.93
25.24
13.45
0.5
-11.52
-21.1
-27.61
-31.03
-31.29
-28.14
-21.12
-10.1
4.23
20.36
36.36
50.2
60.12
64.76
63.16
54.92
40.39
20.86
-1.81
-25.63
-49.04
-71.12
-91.26
-108.58
-121.45
-127.55
-124.71
-112.05
-90.79
-64.44
-38.01
-16.55
-3.85
-1.3
-7.58
-18.87
-29.99
-36.02
-34.05
-24.13
-9.38
5.32
15.53
18.9
15.49
7.19
-3.67
-15.34
-26.67
-36.44
-43.01
-44.6
-40.56
-31.97
-21.5
-12.06
-5.15
-0.14
5.14
12.7
23.06
34.75
45.25
52.44
55.4
54.29
49.64
41.83
31.06
17.96
3.97
-8.77
-18.15
-23.29
-24.99
-25.33
-26.73
-30.83
-37.68
-46.02
-53.79
-58.87
-59.85
-56.42
-49.71
-42.04
-36.12
-34.06
-36.45
-42.02
-48.18
-51.91
-50.73
-43.45
-30.56
-13.83
4.18
20.72
33.7
42.12
46.12
46.67
45.24
43.09
41.14
39.94
39.65
40.02
40.32
39.53
36.92
32.48
27
21.85
18.01
15.6
13.85
11.61
8.21
3.92
-0.07
-2.41
-2.36
-0.32
2.49
4.65
5.02
3.6
1.34
-0.21
0.29
3.37
8.35
13.62
17.53
19.07
18.25
15.72
12.26
8.41
4.64
1.68
0.71
3.05
9.14
18.02
27.05
32.68
31.95
23.77
9.47
-7.7
-23.62
-34.6
-38.33
-34.37
-23.82
-8.93
7.45
22.74
34.96
42.89
46.08
44.94
40.7
35.17
30.3
27.28
26.05
25.28
23.1
18.41
11.76
5.08
0.54
-0.75
0.44
2.14
2.53
1.01
-1.5
-3.58
-4.25
-3.69
-2.75
-2.15
-1.93
-1.68
-1.08
-0.59
-1.37
-4.52
-10.09
-16.78
-22.58
-25.73
-25.72
-23.72
-21.98
-22.68
-26.88
-33.84
-41.42
-46.87
-48.04
-44.39
-37.3
-29.33
-23.1
-20.2
-20.64
-23.18
-26.09
-28.05
-28.44
-27.1
-23.9
-18.44
-10.26
0.77
13.99
27.87
40.49
50.12
55.8
57.44
55.56
50.85
44.21
36.55
28.88
22.28
17.62
15.43
15.53
17.12
18.9
19.51
17.93
13.79
7.58
0.37
-6.58
-12.18
-15.79
-17.3
-17.08
-15.82
-14.26
-13.13
-13.08
-14.38
-16.76
-19.49
-21.49
-21.87
-20.42
-17.77
-15
-13.3
-13.45
-15.6
-19.32
-23.65
-27.21
-28.47
-26.41
-21.05
-14.11
-8.61
-7.48
-12.16
-21.59
-32.56
-41.24
-44.83
-42.61
-35.42
-24.55
-10.82
5.28
22.79
39.41
51.84
57.22
54.7
46.32
36.15
28.24
24.61
24.66
26.01
26.08
23.58
18.92
13.57
9.04
5.96
3.92
1.88
-1.03
-5.24
-10.42
-15.72
-20.37
-23.95
-26.48
-28.21
-29.2
-29.17
-27.82
-25.24
-22.18
-19.81
-19.03
-19.8
-20.91
-20.84
-18.76
-15.24
-12.01
-10.95
-12.83
-16.77
-20.77
-22.85
-22.04
-18.82
-14.63
-11.13
-9.56
-10.56
-14
-19.21
-24.86
-29.25
-30.65
-27.77
-20.13
-8.3
6.24
21.62
36.02
48
56.63
61.6
63.1
61.79
58.61
54.61
50.64
47.14
44.18
41.41
38.27
34.33
29.43
23.98
18.98
15.56
14.48
15.45
17.11
17.58
15.36
10.1
2.82
-4.61
-10.49
-13.98
-15.29
-15.39
-15.23
-15.4
-16.05
-17.14
-18.7
-20.84
-23.48
-25.94
-27.1
-25.71
-21.2
-14.27
-6.76
-1.22
0.32
-2.9
-10.05
-19.06
-27.54
-33.84
-37.45
-38.71
-38.17
-35.86
-31.26
-23.69
-13.05
-0.26
12.83
24.21
32.54
37.57
40.16
41.63
42.93
44.27
45.12
44.8
42.79
39.04
33.72
27.15
19.65
11.69
4.21
-1.58
-4.42
-3.51
0.89
7.31
13.58
17.51
17.81
14.67
9.64
4.8
1.94
1.67
3.24
5.04
5.4
3.31
-1.27
-7.58
-14.52
-21.06
-26.41
-29.92
-31.28
-30.71
-29.07
-27.67
-27.8
-29.94
-33.46
-36.8
-38.13
-36.32
-31.64
-25.84
-21.41
-20.47
-23.61
-29.71
-36.27
-40.23
-39.28
-32.6
-20.83
-5.75
10.34
25.31
37.54
46.09
50.63
51.47
49.49
45.91
41.89
38.28
35.43
33.28
31.65
30.3
28.91
27.03
24.21
20.34
15.81
11.6
8.82
8.08
8.83
9.62
8.95
5.99
1.18
-3.93
-7.52
-8.43
-6.52
-2.73
1.43
4.45
5.28
3.65
0.2
-3.82
-7.07
-8.68
-8.74
-8.1
-7.79
-8.31
-9.38
-10.24
-10.37
-10.12
-10.49
-12.52
-16.59
-22.02
-27.34
-30.96
-31.83
-29.7
-24.97
-18.44
-11.07
-3.93
1.77
4.75
4.1
-0.54
-8.65
-18.77
-28.73
-36.16
-39.09
-36.51
-28.71
-17.11
-3.79
9.16
20.18
28.65
34.69
39.01
42.54
46.02
49.76
53.56
56.64
58
56.75
52.44
45.21
35.79
25.34
15.11
6.29
-0.04
-3.16
-2.93
0.09
4.49
8.5
10.47
9.53
5.94
0.78
-4.5
-8.89
-12.16
-14.83
-17.67
-21.12
-24.77
-27.51
-28.15
-26.12
-21.89
-16.88
-12.7
-10.22
-9.27
-8.74
-7.23
-4
0.62
5.46
9.24
11.16
11.17
9.54
6.52
2.1
-3.87
-11.17
-18.78
-24.82
-27.12
-24.1
-15.38
-2.14
13.23
27.88
39.24
45.75
47.21
44.56
39.47
33.7
28.58
24.76
22.34
21.08
20.58
20.39
19.92
18.49
15.51
10.78
4.86
-1.03
-5.64
-8.34
-9.36
-9.57
-9.89
-10.62
-11.57
-12.42
-13.26
-14.65
-17.14
-20.77
-24.72
-27.73
-28.84
-28.04
-26.1
-23.95
-21.94
-19.62
-16.21
-11.57
-6.61
-3.05
-2.62
-6.2
-13.41
-22.7
-31.94
-39.06
-42.48
-41.39
-35.74
-26.37
-14.97
-3.8
4.51
7.74
4.65
-4.56
-18.07
-32.68
-44.52
-50.24
-47.96
-37.82
-21.86
-3.39
13.95
27.25
34.86
36.66
34.02
29.39
25.41
23.95
25.52
29.05
32.57
34.16
32.7
28.34
21.97
14.65
7.06
-0.22
-6.47
-10.56
-11.41
-8.64
-3.12
3.14
7.81
9.25
7.19
2.68
-2.51
-6.8
-9.18
-9.24
-6.94
-2.37
4.06
11.48
18.44
23.35
25.01
22.97
17.64
9.94
0.85
-8.47
-16.59
-21.82
-22.46
-17.68
-8.32
2.92
12.39
16.88
15.06
7.9
-1.92
-11.24
-17.42
-18.97
-15.37
-6.99
5.09
18.95
32.13
42.24
47.67
48.3
45.42
41.07
37.08
34.24
32.13
29.43
24.8
17.59
8.18
-2.12
-11.72
-19.29
-24.16
-26.33
-26.16
-24.29
-21.46
-18.39
-15.89
-14.48
-14.23
-14.65
-14.84
-14.09
-12.4
-10.47
-9.31
-9.65
-11.32
-13.24
-14.17
-13.14
-10.34
-7.06
-5.11
-5.88
-9.71
-15.67
-22.02
-27.12
-30.07
-30.97
-30.52
-29.39
-27.76
-25.38
-21.95
-17.87
-14.54
-13.7
-16.65
-23.02
-30.66
-36.43
-37.49
-32.53
-22.35
-9.37
3.83
15.55
25.51
34.27
42.22
48.99
53.52
54.8
52.55
47.61
41.44
35.53
30.76
27.2
24.26
21.14
17.2
12.4
7.22
2.34
-1.69
-4.62
-6.79
-8.75
-11.02
-13.63
-16.03
-17.52
-17.64
-16.37
-14.21
-11.75
-9.38
-7.16
-5.04
-3.06
-1.58
-1.13
-2.23
-5.04
-9.17
-13.76
-17.82
-20.61
-21.88
-21.93
-21.39
-20.89
-20.83
-21.08
-20.92
-19.34
-15.66
-9.86
-2.91
3.44
7.31
7.31
3.07
-4.73
-14.46
-23.92
-30.7
-32.5
-27.72
-16
1.41
21.56
40.56
54.73
61.95
62.27
57.75
51.41
45.94
42.82
42.02
42.41
42.52
41.03
37.13
30.62
21.97
12.43
3.81
-2.06
-4.12
-2.78
0.05
1.82
0.57
-3.97
-10.12
-15.14
-16.81
-14.56
-9.8
-5.12
-2.87
-4.09
-8.31
-14.32
-20.81
-26.98
-32.32
-36.36
-38.41
-37.67
-33.87
-27.84
-21.49
-17.2
-16.86
-20.91
-28.22
-36.47
-43.08
-46.09
-44.75
-39.54
-31.91
-23.65
-16.05
-9.49
-3.55
2.47
8.77
14.75
19.29
21.46
21.23
19.53
17.75
16.84
16.85
17.01
16.34
14.34
11.3
8.17
6.09
5.84
7.34
10.05
13.12
15.77
17.64
18.75
19.35
19.68
19.82
19.5
18.38
16.39
13.99
12.1
11.67
12.95
15.19
16.86
16.24
12.53
6.25
-0.99
-7.03
-10.11
-9.48
-5.48
0.94
8.53
15.95
21.73
24.05
21.22
12.46
-1.08
-16.08
-28.02
-33.03
-29.63
-19.44
-6.32
5.46
12.92
15.31
13.77
10.13
5.74
1.15
-3.45
-7.57
-10.1
-9.99
-6.91
-1.74
3.59
7.1
7.75
5.91
2.92
0.39
-0.84
-0.95
-0.62
-0.42
-0.37
0.02
1.07
2.32
2.65
0.95
-3.19
-9.09
-15.41
-21.02
-25.71
-30.08
-34.73
-39.32
-42.43
-42.27
-37.89
-30.1
-21.08
-13.36
-8.6
-7.05
-7.86
-9.89
-12.31
-14.81
-17.43
-20.33
-23.59
-27.31
-31.37
-35.28
-38.03
-38.25
-34.64
-26.6
-14.61
-0.03
15.34
29.89
42.47
52.32
58.94
62.04
61.72
58.53
53.53
47.85
42.44
37.53
32.85
27.99
22.94
18.38
15.4
14.77
16.17
18.19
18.86
16.91
12.67
7.87
4.61
4.18
6.12
8.49
9.12
6.99
2.79
-1.46
-3.7
-3.01
-0.08
3.31
5.27
4.81
2
-2.5
-7.95
-13.84
-19.61
-24.41
-27.03
-26.43
-22.62
-16.95
-11.77
-9.37
-10.61
-14.31
-18.01
-19.18
-16.46
-10.28
-2.28
5.94
13.61
20.77
27.89
35.08
41.86
47.24
50.39
51.06
49.57
46.41
41.59
34.44
24.09
10.34
-5.51
-20.72
-32
-36.93
-34.9
-27.37
-17.12
-7.12
0.46
4.61
5.32
3.18
-0.95
-6.11
-11.21
-15.2
-17.23
-16.88
-14.17
-9.57
-3.94
1.64
5.94
7.83
6.82
3.48
-0.47
-2.88
-2.05
2.25
8.53
14.26
16.97
15.36
9.59
0.77
-9.81
-21.23
-32.81
-43.44
-51.14
-53.44
-48.38
-35.78
-17.67
2.43
20.84
34.98
43.91
48.11
48.69
46.71
42.93
37.88
32.19
26.6
21.85
18.19
15.39
12.69
9.3
4.9
-0.26
-5.44
-9.8
-12.81
-14.46
-15.07
-14.91
-14.04
-12.49
-10.52
-8.78
-8.03
-8.66
-10.39
-12.4
-13.97
-15.08
-16.39
-18.95
-23.16
-28.37
-32.94
-35.21
-34.35
-30.9
-26.61
-23.68
-23.96
-28.28
-36.17
-45.94
-55.11
-61.12
-62.24
-58.23
-50.56
-42.06
-35.79
-33.87
-36.63
-42.31
-47.81
-49.73
-45.49
-34.05
-16.27
5.29
26.98
44.91
56.23
59.85
56.77
49.65
41.82
36.04
33.75
34.77
37.67
40.6
42.03
41.18
38.13
33.5
28.07
22.58
17.6
13.62
11.05
10.18
11.09
13.42
16.44
19.4
21.73
23.08
23.18
21.67
18.29
13.11
6.84
0.69
-4.12
-6.95
-8.07
-8.33
-8.42
-8.47
-8.19
-7.4
-6.51
-6.66
-9.06
-14.29
-21.82
-30.21
-37.78
-43.23
-45.88
-45.51
-42.26
-36.71
-29.95
-23.7
-19.72
-19.14
-21.98
-27
-32.25
-36.06
-37.55
-36.82
-34.57
-31.48
-27.67
-22.56
-15.15
-4.76
8.42
23.17
37.45
49.14
57.14
61.91
65.31
69.65
76.23
84.32
91.33
94.17
90.83
81.63
69.16
56.77
47.02
40.38
35.32
29.59
21.72
12.1
2.67
-4.1
-6.75
-5.64
-2.64
-0.1
0.6
-0.52
-2.11
-2.47
-0.43
4.23
10.85
18.44
26.19
33.54
39.87
44.21
45.3
41.92
33.7
21.48
7.18
-7
-19.49
-30
-39.18
-47.88
-56.54
-64.75
-71.65
-76.39
-78.47
-77.63
-73.6
-66.07
-54.93
-40.86
-25.45
-10.99
0.53
8.29
13.18
17.2
22.14
28.23
33.55
34.73
28.62
14.2
-6.6
-29.53
-49.85
-64.39
-72.41
-75.23
-74.75
-72.23
-67.91
-61.66
-53.74
-44.9
-35.91
-26.73
-16.53
-4.37
9.57
23.57
34.93
41.39
42.3
38.75
32.79
26.18
19.82
13.91
8.66
4.69
2.84
3.57
6.28
9.47
11.38
11.04
8.86
6.35
5.31
6.8
10.71
15.89
20.69
23.51
23.34
19.84
13.26
4.46
-5.32
-14.5
-21.43
-24.71
-23.71
-18.7
-10.86
-1.86
6.72
13.85
19.07
22.3
23.73
23.61
22.33
20.35
18.23
16.58
15.81
16.06
16.96
17.75
17.54
15.73
12.53
8.88
6.25
5.88
8.23
12.72
17.98
22.47
25.01
25.26
23.58
20.77
17.77
15.45
14.33
14.56
16.01
18.33
21
23.18
23.65
20.91
13.59
1.3
-14.59
-31.04
-44.24
-51.17
-51.16
-46.17
-39.71
-35.06
-33.8
-35.6
-39
-42.55
-45.47
-47.57
-48.75
-48.77
-47.59
-45.46
-43.13
-41.48
-40.91
-40.77
-39.43
-34.91
-25.74
-11.67
6.14
25.37
43.14
56.85
64.75
66.56
63.74
58.96
55.04
53.71
54.95
57
57.48
54.8
49.06
42.07
36.48
34.47
36.62
41.67
47.07
50.09
48.95
43.6
35.42
26.64
19.59
15.8
15.76
18.93
24.05
29.51
33.89
36.04
35.07
30.71
23.28
13.79
3.77
-4.87
-10.46
-12.18
-10.46
-7.12
-4.93
-6.84
-14.84
-28.97
-47
-64.95
-78.46
-84.43
-82.11
-73.26
-61.05
-48.38
-36.89
-26.87
-17.95
-10.2
-4.46
-1.9
-2.99
-6.91
-11.63
-14.55
-13.8
-9.04
-1.52
6.55
12.94
16.37
16.8
15.27
13.31
12.27
13.1
16.01
20.73
26.5
32.21
36.27
36.89
32.56
22.88
9.19
-5.48
-17.13
-22.61
-21.08
-14.63
-7.4
-3.68
-5.97
-13.89
-24.62
-34.64
-41.45
-44.56
-45.36
-45.92
-47.58
-50.4
-53.39
-55.34
-55.69
-54.6
-52.69
-50.48
-48.3
-46.3
-44.77
-44.16
-44.79
-46.42
-47.87
-47.02
-41.66
-30.48
-13.98
5.43
24.31
39.56
49.43
54.09
55.23
54.82
54.19
53.69
52.99
51.72
49.84
47.46
44.49
40.54
35.12
28.3
21.08
15.14
12.05
12.34
14.97
17.9
19.11
17.46
13.2
7.43
1.36
-4.07
-8.2
-10.26
-9.35
-4.97
2.4
11.16
18.72
22.59
21.61
16.42
8.96
1.44
-4.98
-10.6
-16.55
-23.65
-31.43
-38.06
-41.27
-39.6
-33.3
-24.27
-15.04
-7.44
-2.28
0.47
0.94
-1.31
-7
-16.32
-27.89
-38.84
-45.83
-46.63
-41.06
-31.06
-19.48
-8.61
0.76
9.01
16.99
25
32.39
38.07
41.35
42.5
42.58
42.71
43.43
44.4
44.63
43.07
39.43
34.37
29.14
25.01
22.51
21.25
20.15
18.14
14.84
10.71
6.74
3.93
2.67
2.64
3.38
4.55
6.26
8.88
12.29
15.32
16.09
12.94
5.47
-4.85
-15.23
-22.93
-26.48
-26.36
-24.42
-22.72
-22.24
-22.77
-23.45
-23.82
-24.26
-25.85
-29.59
-35.49
-42.45
-48.91
-53.54
-55.64
-54.91
-50.97
-43.05
-30.36
-12.87
7.85
28.67
45.71
55.88
58.06
53.54
45.48
37.39
32
30.41
31.94
34.82
37.08
37.37
35.23
31.23
26.47
22.15
19.01
17.19
16.28
15.46
13.88
10.94
6.5
0.93
-5.06
-10.5
-14.49
-16.29
-15.69
-13.04
-9.46
-6.49
-5.62
-7.55
-11.81
-16.88
-20.92
-22.73
-22.32
-20.87
-19.96
-20.82
-23.49
-27.07
-30.17
-31.56
-30.62
-27.35
-22.24
-16.16
-10.41
-6.52
-5.87
-9.05
-15.26
-22.18
-26.74
-26.12
-18.96
-5.83
10.98
28.21
42.72
52.23
55.76
53.67
47.43
39.17
30.95
24.17
19.23
15.63
12.36
8.52
3.84
-1.38
-6.51
-10.83
-13.75
-14.97
-14.4
-12.3
-9.5
-7.31
-7.02
-9.16
-13.11
-17.29
-19.85
-19.6
-16.55
-11.83
-6.85
-2.83
-0.18
1.02
0.82
-0.88
-4.08
-8.32
-12.62
-15.88
-17.32
-16.94
-15.61
-14.62
-15.03
-17.08
-20.11
-22.82
-23.82
-22.37
-18.75
-14.33
-11.15
-11.18
-15.44
-23.28
-32.63
-40.77
-45.41
-45.55
-41.66
-35.3
-28.12
-21.18
-14.48
-7.34
0.97
10.58
20.73
30.15
37.89
43.71
47.94
50.76
51.71
49.79
44.32
35.85
26.45
18.92
15.31
15.68
18.12
19.9
19.26
16.22
12.23
8.96
7.07
5.97
4.42
1.72
-1.7
-4.54
-5.45
-3.97
-0.53
3.78
7.84
10.92
12.85
13.64
13.18
11.21
7.43
1.96
-4.57
-11.06
-16.23
-19.2
-19.8
-18.84
-17.8
-18.42
-22.05
-29.1
-38.89
-49.95
-60.3
-67.89
-71.23
-69.46
-62.69
-51.82
-38.27
-23.42
-8.45
5.72
18.1
27.52
32.81
33.31
29.44
22.72
15.39
9.4
5.71
4.24
4.07
4.38
5.04
6.76
10.45
16.65
25.06
34.27
42.05
46.14
45.05
38.73
28.7
17.63
8.5
3.48
3.26
6.95
12.67
18.24
21.77
22.1
19
13.11
5.74
-1.21
-5.7
-6.26
-2.69
3.69
10.28
14.22
13.51
7.79
-1.72
-12.83
-23.44
-32.16
-38.33
-41.76
-42.59
-41.35
-38.96
-36.71
-35.76
-36.58
-38.54
-40.07
-39.28
-34.72
-25.84
-13.16
1.88
17.24
30.76
40.69
46.07
47.07
44.93
41.27
37.4
33.82
30.25
26.04
20.89
15.01
8.96
3.34
-1.46
-5.27
-7.97
-9.37
-9.15
-7.34
-4.52
-1.85
-0.75
-2.24
-6.36
-11.94
-17.09
-19.88
-19.08
-14.52
-7.2
1.25
8.99
14.49
16.92
16.17
12.84
7.96
2.8
-1.41
-3.81
-4.23
-3.23
-1.98
-1.84
-3.69
-7.59
-12.46
-16.66
-18.65
-17.6
-13.89
-9.01
-4.98
-3.71
-6.21
-12.16
-19.94
-27.11
-31.2
-30.69
-25.32
-16.04
-4.35
8.29
20.83
32.54
42.77
50.79
55.8
57.38
55.73
51.62
46.07
40.03
34.25
29.22
25.18
22.05
19.48
16.91
13.88
10.33
6.67
3.6
1.74
1.29
1.91
2.95
3.66
3.5
2.29
0.1
-2.53
-4.68
-5.25
-3.45
0.61
5.71
10.03
12.05
11.16
7.91
3.36
-1.6
-6.48
-10.97
-14.43
-15.62
-13.41
-7.88
-0.88
4.35
4.73
-0.96
-11.38
-23.25
-33.01
-38.23
-38.31
-34.14
-27.38
-19.62
-11.92
-4.79
1.84
8.28
14.68
20.84
26.15
29.85
31.56
31.59
30.79
30.13
30.11
30.34
29.95
28.32
25.5
22.4
20.2
19.6
20.31
21.22
21.15
19.52
16.62
13.39
10.73
8.97
7.69
6.16
3.85
0.98
-1.73
-3.6
-4.62
-5.43
-7.03
-9.93
-13.72
-17.41
-19.98
-20.94
-20.61
-19.88
-19.72
-20.85
-23.44
-27.13
-31.41
-35.72
-39.7
-43.18
-46.12
-48.53
-50.38
-51.67
-52.45
-52.8
-52.71
-51.79
-49.32
-44.43
-36.45
-25.43
-12.18
1.77
14.82
25.73
33.82
38.9
41.18
41.03
38.95
35.51
31.39
27.22
23.53
20.45
17.91
15.77
13.82
11.99
10.19
8.32
6.35
4.37
2.64
1.5
1.34
2.25
3.84
5.44
6.41
6.54
6.23
6.24
7.26
9.36
11.92
13.96
14.77
14.19
12.59
10.43
7.88
4.89
1.39
-2.45
-6.26
-9.83
-13.41
-17.42
-22
-26.45
-29.23
-28.87
-24.85
-18.2
-11.24
-6.72
-6.59
-11.27
-19.76
-30.07
-39.95
-47.41
-51.07
-50.3
-45.25
-36.67
-25.73
-13.59
-1.2
10.74
21.58
30.7
37.55
41.86
43.74
43.58
41.69
38.27
33.4
27.35
20.86
15.13
11.44
10.5
12.09
14.98
17.43
17.96
15.87
11.56
6.17
1.06
-2.69
-4.49
-4.14
-1.67
2.61
7.99
13.22
16.62
16.48
11.99
3.75
-6.13
-14.75
-19.56
-19.51
-15.4
-9.41
-3.89
-0.34
1.06
1.08
0.53
-0.32
-1.96
-5.05
-9.85
-15.69
-21.14
-24.67
-25.47
-23.67
-20.1
-15.45
-9.69
-2.05
8.21
20.89
34.33
45.97
53.44
55.91
54.52
51.67
49.45
48.43
47.54
45.2
40.56
34.27
28.2
24.21
23.04
23.95
25.28
25.48
23.8
20.36
15.71
10.41
4.74
-1.18
-7.24
-13.37
-19.57
-25.94
-32.48
-38.76
-43.84
-46.67
-46.65
-43.81
-39.04
-33.67
-28.94
-25.61
-24.01
-24.35
-26.74
-30.83
-35.55
-39.18
-39.95
-37.07
-31.43
-25.32
-21.42
-21.51
-25.59
-32.07
-38.84
-44.13
-47.12
-47.59
-45.42
-40.34
-32.2
-21.46
-9.49
1.72
10.44
15.86
18.33
19.03
19.29
19.86
20.69
21.22
21.03
20.2
19.57
20.32
23.2
28.02
33.55
38.09
40.28
39.92
38.04
36.54
37.04
40.08
44.58
48.31
48.87
44.92
36.95
27.01
17.71
10.85
6.58
3.68
0.46
-3.97
-9.25
-14.18
-17.86
-20.77
-24.78
-31.83
-42.35
-54.39
-64.12
-67.62
-62.94
-51.29
-36.51
-23.29
-15.09
-13.02
-16.03
-21.91
-28.63
-34.68
-39.06
-40.77
-38.8
-32.5
-22.16
-9.4
3.35
13.58
19.5
20.85
18.74
15.11
11.73
9.62
8.78
8.53
7.96
6.71
5.35
5.16
7.39
12.21
18.46
23.85
26.12
23.91
17.43
8.22
-1.71
-10.59
-17.6
-22.74
-26.57
-29.59
-31.92
-33.26
-33.31
-32.06
-29.85
-27.08
-23.9
-20.02
-14.65
-7.13
2.41
12.68
21.54
27
28.1
25.39
20.41
14.92
10.15
6.49
4
2.9
3.87
7.65
14.56
24.04
34.61
44.56
52.52
57.94
60.83
61.39
59.74
55.94
50.33
43.76
37.52
33.08
31.54
33.1
36.97
41.67
45.57
47.64
47.62
45.87
43.02
39.5
35.24
29.97
23.5
15.84
7.55
-0.26
-6.12
-8.56
-6.61
-0.3
8.99
18.64
25.28
26.06
19.64
6.95
-9.04
-24.53
-36.12
-41.75
-41
-34.82
-24.67
-12.03
2
16.36
29.78
40.78
48.03
50.85
49.63
45.69
40.33
33.97
25.78
14.03
-2.47
-23.07
-44.67
-62.57
-72.49
-72.6
-64.29
-51.53
-39.06
-30.48
-27.31
-29.18
-34.45
-40.89
-46.25
-48.63
-46.94
-41.36
-33.51
-26
-21.25
-20.18
-21.81
-23.82
-23.9
-21
-15.67
-9.35
-3.37
1.53
5.23
7.78
9.19
9.65
10.02
11.91
16.96
25.92
38.01
50.84
61.4
67.29
67.59
62.7
53.69
41.41
26.41
9.4
-8.11
-23.62
-34.23
-37.82
-34.17
-25.29
-14.62
-5.7
-0.82
-0.62
-4.5
-11.22
-19.35
-27.42
-33.91
-37.29
-36.61
-32.29
-26.29
-21.55
-20.79
-25.22
-33.76
-43.66
-51.53
-54.69
-52.04
-44.08
-32.54
-19.79
-8.5
-1.09
0.81
-3.29
-12.35
-23.9
-34.51
-40.92
-40.95
-34.55
-23.79
-12.01
-2.41
3.38
5.87
7.31
10.42
17.11
27.7
40.94
54.61
66.36
74.28
77.38
75.62
69.72
61.08
51.45
42.65
36.09
32.34
30.84
30.07
28.09
23.31
15.31
5.13
-4.93
-12.41
-15.84
-15.45
-12.96
-10.74
-10.55
-12.78
-16.57
-20.38
-22.81
-23.12
-21.17
-17.43
-12.59
-7.42
-2.6
1.3
3.93
5.18
5.11
3.91
1.83
-0.96
-4.28
-7.87
-11.63
-15.43
-19.18
-22.99
-27.1
-31.78
-37.19
-43.23
-49.23
-54.07
-56.3
-54.59
-48.2
-37.44
-23.88
-10.09
0.82
5.9
3.36
-6.62
-21.54
-37.07
-48.37
-51.91
-46.79
-34.83
-19.66
-5.03
6.49
13.67
16.24
14.5
9.05
1.21
-6.89
-12.72
-14.23
-10.68
-3.03
6.63
16
23.17
27.07
27.18
23.51
16.73
8.41
0.77
-4.01
-4.73
-1.82
2.89
7.08
9.15
8.85
7
4.61
2.2
-0.55
-4.34
-9.33
-14.71
-19.04
-21.04
-20.5
-18.44
-16.55
-16.25
-17.67
-19.78
-21.21
-21.09
-19.62
-17.87
-16.88
-17.05
-18.14
-19.65
-21.23
-22.95
-25.04
-27.5
-29.67
-30.39
-28.47
-23.32
-15.39
-6.17
2.3
8.14
10.38
9.03
4.84
-1.03
-7.37
-12.91
-16.07
-14.99
-7.92
5.74
24.77
45.92
64.79
77.49
82.12
79.31
71.51
61.67
52.01
43.59
36.79
31.94
29.5
29.83
32.71
37.01
40.99
42.95
42.01
38.36
33.21
28.04
23.92
21.2
19.41
17.86
16.23
14.72
13.96
14.43
15.82
16.98
16.49
13.77
9.56
5.62
3.63
3.94
5.22
5.28
2.57
-2.85
-9.26
-14.28
-16.32
-15.18
-12.02
-8.41
-5.37
-3.23
-2.03
-2.05
-3.74
-7.46
-12.66
-17.78
-20.88
-20.69
-17.15
-11.44
-5.01
1.47
8.42
16.93
27.73
40.23
52.48
61.77
65.81
63.54
55.26
42.15
25.73
7.42
-11.38
-29.34
-45.11
-57.65
-66.65
-72.6
-76.5
-79.12
-80.64
-80.62
-78.37
-73.64
-66.75
-58.51
-49.78
-41.27
-33.28
-26.07
-20.06
-15.75
-13.51
-13.12
-13.65
-13.84
-12.82
-10.62
-8.25
-7.24
-8.54
-12.03
-16.44
-19.86
-20.52
-17.63
-11.75
-4.68
1.15
3.76
2.24
-2.89
-9.87
-16.37
-20.29
-20.37
-16.51
-9.75
-1.98
4.29
6.68
3.76
-4.34
-15.56
-26.38
-32.92
-32.34
-23.95
-9.41
7.93
24.43
37.27
45.28
48.91
49.59
48.67
46.84
43.97
39.65
33.86
27.42
22.04
19.49
20.38
23.55
26.18
25.01
17.9
4.99
-11.24
-26.88
-38.08
-42.56
-40.14
-32.52
-22.48
-12.9
-6.06
-3.29
-4.89
-10.09
-17.28
-23.93
-27.55
-26.48
-20.67
-11.67
-2.17
4.9
7.39
4.39
-3.86
-16.25
-31.15
-46.22
-58.77
-66.42
-68.05
-64.22
-57.12
-49.44
-43.07
-38.48
-34.94
-31.46
-27.91
-25.2
-24.73
-27.45
-32.83
-38.86
-42.85
-42.47
-36.75
-25.92
-10.96
6.83
26.16
45.73
63.9
78.66
88.09
91.24
88.63
82.17
74.47
67.78
63.26
60.84
59.83
59.67
60.16
61.21
62.55
63.52
63.32
61.47
58.02
53.47
48.16
42
34.72
26.45
17.85
10.1
4.13
0.24
-1.91
-3.06
-3.98
-5.16
-6.7
-8.74
-11.35
-14.15
-16.06
-15.59
-11.7
-4.84
2.78
8.07
8.58
3.87
-4.5
-13.83
-21.71
-27.04
-29.91
-30.8
-29.61
-25.68
-18.36
-7.92
4.08
15.26
23.33
27.22
27.31
24.92
21.45
17.77
13.9
9.33
3.8
-2.39
-8.19
-12.33
-13.94
-12.98
-10.26
-7.04
-4.37
-2.45
-0.78
1.37
3.96
5.95
5.53
1.36
-6.4
-15.62
-22.85
-25.08
-21.36
-13.4
-4.76
1.13
2.62
0.19
-4.48
-10.04
-16.09
-22.57
-28.71
-32.46
-31.22
-23.71
-11.38
1.76
10.99
13.3
8.76
-0.04
-9.86
-18.61
-25.67
-30.86
-33.09
-30.08
-19.67
-1.8
20.27
40.68
53.57
55.85
48.8
37.31
27.13
22.04
22.33
25.42
28.13
28.88
28.28
28.08
29.33
31.26
31.67
28.42
20.94
10.69
0.24
-8.4
-14.74
-19.56
-23.88
-27.96
-31.28
-33.04
-33.07
-32.12
-31.42
-32.07
-34.37
-37.92
-41.93
-45.76
-48.95
-51
-51.14
-48.55
-42.79
-34.4
-24.95
-16.27
-9.57
-5.08
-2.28
-0.92
-1.59
-5.51
-13.35
-23.89
-33.74
-38.63
-35.44
-23.96
-7.23
10.15
24.47
34.47
41.14
46.09
50.12
52.85
53.62
52.68
51.68
52.87
57.39
64.21
70.38
72.6
69.05
60.28
48.76
37.53
28.57
22.05
16.99
12.04
6.53
0.75
-4.46
-8.11
-9.74
-9.72
-9.18
-9.29
-10.73
-13.29
-15.77
-16.63
-14.68
-9.66
-2.4
5.35
11.57
14.51
13.09
6.98
-3.43
-16.67
-30.45
-41.86
-48.2
-47.91
-41.3
-30.47
-18.45
-7.98
-0.33
4.8
8.77
12.86
17.33
21.25
23.11
21.8
17.47
11.53
5.91
2.08
0.47
0.39
0.72
0.51
-0.36
-1.63
-2.99
-4.57
-6.52
-8.46
-9.19
-6.92
-0.31
10.4
22.88
33.57
39.08
37.61
29.81
18.19
5.88
-4.9
-13.29
-19.52
-23.98
-26.49
-26.31
-22.96
-17.14
-10.8
-6.64
-6.8
-11.75
-19.97
-28.55
-34.8
-37.34
-36.67
-34.08
-30.54
-25.79
-18.55
-7.76
6.31
21.86
36.06
46.3
51.3
51.35
47.66
41.79
35.12
28.92
24.37
22.54
23.86
27.56
31.64
33.78
32.41
27.45
20.3
13.06
7.44
4.19
3.17
3.65
4.7
5.44
5.09
3.21
-0.25
-5
-10.47
-16.01
-20.9
-24.41
-25.95
-25.41
-23.49
-21.65
-21.77
-25.15
-31.7
-39.64
-46.33
-49.52
-48.46
-44.15
-38.46
-33.13
-29.06
-26.55
-25.98
-27.98
-33.06
-40.79
-49.17
-54.73
-53.94
-44.76
-27.86
-6.48
14.89
32.17
43.25
48.12
48.19
45.18
40.26
33.99
26.89
19.89
14.33
11.41
11.5
13.81
16.76
18.61
18.4
16.23
13.1
10.12
8.09
7.29
7.53
8.38
9.33
9.84
9.48
8.34
7.1
6.8
8.24
11.23
14.6
16.66
16.38
14.02
10.93
8.76
8.33
9.11
9.76
9.09
6.76
3.41
-0.12
-3.55
-7.24
-11.66
-16.53
-20.6
-22.24
-20.5
-16.02
-11.07
-8.6
-10.71
-17.6
-27.34
-36.68
-42.41
-42.72
-37.83
-29.5
-19.92
-10.43
-1.29
8.01
17.72
27.15
34.79
39.18
39.91
38.08
35.74
34.52
34.67
34.92
33.45
29.27
22.94
16.3
11.26
8.75
8.42
9.11
9.69
9.48
8.36
6.39
3.73
0.77
-1.91
-3.72
-4.24
-3.7
-2.88
-2.53
-2.88
-3.36
-3.3
-2.38
-1.05
-0.34
-1.4
-4.93
-10.98
-19.1
-28.1
-36.06
-40.68
-40.03
-33.53
-22.57
-10.55
-1.4
1.97
-0.9
-8.02
-16.06
-21.95
-24.25
-23.34
-20.6
-17.48
-15.1
-14.08
-14.86
-17.69
-22.4
-28.03
-32.73
-34.33
-31.01
-22.24
-9.06
6.28
21.22
33.77
42.74
47.81
49.17
47.33
43.02
37.26
31.22
25.75
21.31
17.85
15.29
13.71
13.32
14.03
15.27
15.85
14.48
10.57
4.39
-2.9
-9.95
-15.77
-19.92
-22.35
-23.13
-22.27
-19.77
-16.09
-12.25
-9.64
-9.5
-12.27
-17.26
-22.88
-27
-27.88
-24.97
-18.93
-11.45
-4.6
-0.07
1.43
-0.17
-4.35
-10.49
-17.9
-25.66
-32.63
-37.52
-39.2
-37.39
-33.1
-28.32
-25.03
-24.3
-25.52
-26.64
-25.38
-20.5
-12.63
-3.97
2.97
6.23
5.13
0.11
-7.72
-16.85
-25.59
-31.99
-34.18
-30.62
-20.63
-4.81
14.86
35.1
52.35
63.74
68.48
68.41
66.96
67.19
69.88
72.95
72.55
65.59
51.95
34.88
19.21
8.66
4.02
3.4
4.18
4.61
4.84
6.02
8.91
13.02
16.87
19
19.04
18.03
17.51
18.71
21.57
24.73
26.23
24.53
19.5
12.38
5.23
-0.07
-2.54
-2.44
-0.89
0.87
2.09
2.47
1.93
0.28
-2.92
-7.88
-14.09
-20.08
-24.02
-24.57
-21.95
-18.09
-15.75
-17.15
-22.6
-30.41
-37.53
-41.05
-39.58
-33.71
-25.32
-16.42
-8.26
-0.86
6.66
15.22
25.15
35.94
46.47
55.52
62.13
65.67
65.76
62.25
55.4
46.22
36.44
28.1
22.89
21.38
22.66
24.98
26.53
26.26
24.14
20.94
17.73
15.37
14.25
14.29
14.92
15.15
13.65
9.16
1.16
-9.69
-21.5
-31.43
-36.59
-35.12
-27.24
-15.36
-3.62
3.45
2.61
-6.53
-21.28
-36.79
-48.19
-52.63
-50.34
-44.28
-38.65
-37.13
-41.49
-51.17
-63.68
-75.63
-83.71
-85.88
-81.92
-73.75
-64.75
-58.49
-57.31
-61.47
-68.95
-76.28
-80.02
-77.94
-69.44
-55.35
-37.28
-17.04
3.51
22.62
38.59
50.04
56.21
57.45
55.02
50.73
46.18
42.17
38.44
34.13
28.58
22.01
15.68
11.11
9.38
10.28
12.6
14.68
15.11
13.39
9.79
4.95
-0.36
-5.3
-8.87
-10.14
-8.51
-4.2
1.63
7.37
11.73
14.55
16.54
18.49
20.33
20.99
19.01
13.73
6.35
-0.52
-4.07
-3.02
1.53
6.57
8.94
6.89
1.35
-4.71
-8.11
-7.64
-4.86
-3.14
-5.43
-12.4
-21.78
-29.68
-32.86
-30.77
-25.71
-21.37
-20.72
-24.76
-32.33
-41.06
-48.63
-53.4
-54.38
-50.84
-42.37
-29.42
-13.49
3
17.55
28.48
35.55
39.77
42.77
45.59
48.33
50.4
51.13
50.33
48.42
46.25
44.57
43.76
43.71
44.17
44.83
45.3
44.85
42.48
37.34
29.27
19.29
9.24
0.97
-4.73
-8.35
-11.25
-14.49
-17.96
-20.34
-20.04
-16.6
-11.07
-5.66
-2.46
-2.08
-3.61
-5.28
-5.69
-4.42
-1.9
1.27
4.63
7.77
9.88
9.59
5.52
-3.01
-15.33
-29.55
-43.13
-53.98
-60.94
-63.5
-61.55
-55.16
-44.84
-31.7
-17.58
-4.36
6.52
14.62
20.33
24.19
26.58
27.58
27.25
25.89
24.23
22.99
22.37
22
20.99
18.71
15.36
12.06
10.21
10.52
12.32
13.69
12.5
7.64
0.01
-7.94
-13.47
-15.08
-13.22
-9.84
-6.95
-5.38
-4.58
-3.18
-0.47
3.04
5.68
5.57
1.84
-4.8
-12.21
-18.1
-20.83
-19.99
-16.37
-11.46
-6.88
-3.93
-3.07
-4.18
-6.74
-10.3
-14.62
-19.58
-24.7
-29.03
-31.26
-30.44
-26.55
-20.65
-14.28
-8.46
-3.03
3.27
11.59
21.9
32.27
39.93
43.05
41.93
38.93
36.76
36.8
38.03
38.04
34.83
28.59
21.74
17.28
16.72
19.07
21.42
20.99
16.73
9.85
2.59
-3.38
-7.81
-11.39
-14.84
-17.91
-19.58
-19.05
-16.49
-13.17
-10.76
-10.31
-11.57
-13.14
-13.43
-11.81
-8.96
-6.52
-6.25
-8.83
-13.5
-18.31
-21.4
-21.86
-20.09
-17.55
-16.02
-16.6
-19.13
-22.7
-26.31
-29.41
-31.94
-34.01
-35.51
-35.94
-34.61
-31
-24.83
-15.98
-4.46
9.62
25.5
41.69
56.05
66.54
72.01
72.7
70.25
66.99
64.71
63.98
64.17
63.99
62.11
57.81
51.38
44.24
38.25
34.97
35.02
37.72
41.11
42.78
40.79
34.33
23.85
10.57
-4
-18.32
-30.81
-39.84
-43.89
-42.13
-35.44
-26.34
-18.22
-13.88
-14.09
-17.37
-20.76
-21.5
-18.31
-12.1
-5.28
-0.66
-0.21
-4.65
-13.63
-25.96
-39.97
-53.76
-65.26
-72.6
-74.59
-70.91
-62.13
-49.66
-35.35
-21.25
-9.28
-0.59
4.9
8.29
10.98
13.68
15.78
15.8
12.39
5.41
-3.58
-11.93
-17.06
-17.71
-14.16
-8.07
-1.36
4.42
8.64
11.45
13.17
13.86
13.17
10.7
6.72
2.54
0.06
0.93
5.42
11.58
16.17
16.4
11.35
2.5
-7.12
-14.56
-18.26
-18.37
-16.13
-12.79
-9.21
-6.23
-4.98
-6.74
-12.26
-21.11
-31.19
-39.45
-43.1
-40.85
-33.24
-22.17
-9.79
2.36
13.52
23.35
31.37
36.86
39.14
38.17
34.82
30.49
26.33
22.78
19.56
16.11
12.14
7.79
3.35
-1.17
-6.23
-12.33
-19.29
-25.97
-30.68
-31.9
-29.19
-23.69
-17.54
-12.84
-10.68
-10.78
-11.97
-13.04
-13.07
-11.82
-9.44
-6
-1.61
3.28
7.82
11.14
12.73
12.73
11.82
10.53
9.09
7.25
4.85
2.19
0.14
-0.46
0.21
0.62
-1.54
-8.15
-19.45
-33.62
-47.18
-56.28
-58.11
-51.89
-38.86
-21.6
-3.23
13.42
26.55
35.48
40.34
41.85
41.25
39.86
38.61
37.71
36.56
34.3
30.29
24.54
18.02
12.24
8.5
7.32
8.23
10.1
11.47
11.12
8.56
4.08
-1.37
-6.76
-11.23
-14.3
-15.71
-15.35
-12.98
-8.24
-1.02
8.31
18.95
29.94
40.35
49.43
56.84
62.71
67.53
71.76
75.57
78.42
78.73
74.03
62.12
42.37
16.53
-11.63
-37.78
-58.58
-72.82
-81.21
-85.17
-85.73
-83.24
-77.7
-69.5
-59.76
-50.36
-43.19
-39.4
-39.11
-41.8
-46.77
-53.7
-62.65
-73.9
-87.56
-103.26
-119.99
-136.28
-150.74
-162.2
-169.87
-173.1
-171.31
-163.84
-150.21
-130.4
-105.25
-76.52
-46.31
-16.58
11.18
35.98
57.27
74.56
87.38
95.65
100.01
101.89
103.48
107.41
115.88
129.85
148.2
168.05
185.49
196.88
200.02
194.81
182.92
167.07
150.09
134.15
120.43
109.2
99.98
91.75
83.4
74.45
65.58
58.67
56.07
59.61
69.32
83
96.55
104.94
103.54
89.79
64.04
29.72
-7.55
-41.61
-67.56
-83.18
-89.31
-89.18
-86.92
-86.19
-89.2
-96.22
-105.96
-115.88
-122.69
-122.9
-113.55
-93.38
-63.57
-27.91
8.05
38.51
59.14
68.26
66.85
57.86
45.05
31.97
21.27
14.43
11.77
12.3
14.2
15.37
14.56
12.34
11.43
15.72
28.55
50.78
79.65
109.3
132.23
141.63
133.31
106.58
64.25
11.82
-43.4
-93.78
-132.71
-155.68
-161.19
-150.92
-129.14
-101.19
-72.36
-46.79
-27.03
-13.96
-7.1
-4.88
-5.32
-6.82
-8.65
-11.22
-15.44
-21.81
-29.75
-37.52
-42.98
-44.52
-41.83
-35.91
-28.99
-23.67
-21.97
-24.92
-32.3
-42.79
-54.18
-64.06
-70.58
-72.79
-70.66
-64.91
-56.57
-46.5
-35.24
-22.97
-9.79
3.97
17.42
29.08
37.15
40.18
37.91
31.54
23.5
16.49
12.71
13.33
18.36
27.09
38.43
51.23
63.89
74.48
80.94
81.57
75.97
65.38
52.45
39.94
29.54
21.1
13.08
3.82
-6.94
-17.57
-25.48
-28.9
-28.15
-25.47
-23.56
-23.77
-25.24
-25.49
-22.08
-14.2
-2.77
10.33
23.19
34.12
41.24
42.09
33.99
15.69
-11.31
-42.33
-71.08
-92.06
-102.75
-103.77
-97.59
-86.87
-73.18
-57.19
-39.75
-22.54
-7.82
2.49
7.76
8.79
6.91
3.04
-2.82
-10.95
-20.72
-29.88
-35.01
-33.02
-22.83
-6.08
13.64
32.52
48.29
60.88
71.34
80.33
87.26
90.51
88.56
81.41
70.99
60.35
52.28
48.08
47.39
48.92
51.34
53.83
56.32
59.12
62.51
66.3
69.7
71.34
69.61
63.27
52.18
37.54
21.58
6.78
-5.11
-13.53
-19.05
-22.94
-26.59
-30.99
-36.34
-42.07
-46.95
-49.34
-47.98
-42.62
-34.19
-24.77
-16.68
-11.65
-10.4
-12.69
-17.73
-24.69
-32.81
-40.99
-47.78
-51.55
-50.82
-44.95
-34.4
-20.7
-6.21
6.47
15.18
18.75
17.17
11.56
3.68
-4.73
-12.54
-19.34
-25.26
-30.35
-34.38
-36.78
-37.14
-35.59
-32.77
-29.46
-26.08
-22.4
-17.78
-11.9
-5.3
0.66
4.35
4.83
2.5
-0.85
-2.59
-0.35
7.1
19.51
35.34
52.27
67.8
79.58
85.73
85.06
77.41
63.63
45.46
25.16
4.9
-13.61
-29.26
-41.58
-50.74
-57.31
-61.82
-64.3
-63.98
-59.64
-50.12
-35.26
-16.51
3.17
20.26
31.88
36.58
34.61
27.28
16.36
3.63
-9.07
-19.56
-25.34
-24.19
-15.08
1.05
21.19
41.3
57.57
67.61
70.9
68.33
61.32
51.13
38.5
23.69
7.16
-10.13
-26.62
-40.44
-49.98
-54.34
-53.64
-49.01
-42.19
-34.83
-28.02
-22.11
-16.83
-12.06
-8.42
-7.06
-9.35
-16.08
-26.82
-39.89
-52.55
-61.88
-65.74
-63.54
-56.52
-47.21
-38.56
-32.79
-30.88
-32.45
-36.3
-41.2
-46.11
-50.27
-52.85
-52.83
-49.1
-41
-28.71
-13.35
3.26
19.16
32.71
42.63
48.3
49.56
46.7
40.58
32.45
23.96
16.87
12.57
11.55
13.18
15.98
18.28
18.97
18.03
16.43
15.3
15.38
16.53
17.97
18.57
17.52
14.71
10.63
6.41
3.7
4.13
8.58
16.52
25.91
33.62
36.61
33.22
24.07
11.6
-1.02
-11.07
-17.21
-19.49
-18.72
-15.6
-10.43
-3.26
5.59
15.16
23.73
29.52
31.33
29.07
23.8
17.2
11.23
7.63
7.54
11.22
17.67
24.66
29.29
29.4
24.65
16.85
9.3
5.05
5.36
9.24
14.43
18.73
20.96
20.97
19.12
15.9
11.93
8.27
6.43
7.89
13.11
21.11
29.39
34.83
34.81
28.2
15.83
0.18
-15.42
-27.79
-34.85
-36.13
-32.82
-27.35
-22.58
-20.78
-22.99
-28.89
-37.15
-45.9
-53.32
-58.03
-59.26
-56.61
-49.91
-39.37
-25.78
-11.12
1.5
8.56
7.56
-1.8
-16.94
-33.17
-45.45
-50.03
-45.52
-32.85
-14.6
6.03
25.98
42.95
55.54
63.4
67.21
68.12
67.22
65.23
62.4
58.79
54.51
49.97
45.81
42.53
40.22
38.41
36.1
32.08
25.77
17.52
8.82
1.68
-2.38
-3.45
-3.25
-4.33
-8.45
-15.28
-22.41
-26.63
-26.06
-21.51
-16.35
-14.49
-18.22
-26.89
-37.38
-46.19
-51.31
-53.01
-52.95
-52.49
-51.63
-49.02
-43.28
-34.43
-24.55
-16.98
-14.73
-18.7
-26.96
-35.59
-40.36
-38.66
-30.45
-17.84
-3.72
9.47
20.53
29.22
35.55
39.27
39.96
37.69
33.4
28.72
25.01
22.56
20.43
17.43
13.43
9.99
9.66
14.27
23.32
33.97
42.29
45.45
43.07
37.1
30.23
24.18
18.84
12.99
5.65
-2.97
-11.47
-18.33
-22.89
-25.77
-28.19
-31.06
-34.29
-37.15
-39.03
-39.97
-40.62
-41.82
-44.05
-47.15
-50.48
-53.31
-55.15
-55.6
-54.29
-50.92
-45.53
-38.6
-31.28
-25.12
-21.63
-21.72
-25.15
-30.29
-34.56
-35.09
-29.83
-18.33
-2.18
15.57
31.46
42.86
48.69
49.43
46.8
43
40.05
39.23
40.87
44.25
47.76
49.55
48.36
44.16
38.13
31.98
27.05
23.75
21.73
20.53
20.09
20.66
22.15
23.41
22.59
18.38
11.38
4.46
1.34
4.3
12.38
21.67
27.34
26.61
20.17
11.35
3.8
-0.76
-2.85
-3.82
-3.91
-1.6
5.08
16.22
28.68
36.97
36.21
24.96
6.19
-14.19
-30.29
-38.74
-39.38
-34.12
-25.06
-13.47
0.19
15.33
30.48
43.4
51.9
54.69
51.84
44.49
34.07
22.07
9.92
-1.01
-9.37
-14.27
-15.43
-13.51
-9.91
-6.15
-3.57
-2.96
-4.41
-7.34
-10.65
-13.03
-13.46
-11.72
-8.63
-5.87
-5.21
-7.72
-13.14
-20.32
-27.75
-34.2
-38.73
-40.6
-39.21
-34.43
-27.14
-19.33
-13.64
-12.22
-15.39
-21.54
-28.01
-32.64
-34.82
-35.66
-36.81
-38.95
-41.05
-40.84
-36.35
-27
-13.86
1.05
15.71
28.95
40.3
49.6
56.44
60.22
60.49
57.33
51.37
43.62
35.3
27.63
21.61
18
16.79
17.03
16.93
14.5
8.68
0.12
-9.01
-15.89
-18.49
-16.58
-11.7
-6.26
-2.28
-0.4
0.05
0.17
0.63
1.21
0.92
-1.01
-4.35
-7.74
-9.43
-8.41
-5.14
-1.69
-0.8
-4.57
-13.35
-25.6
-38.47
-48.7
-53.68
-52.08
-44.25
-32.18
-19.09
-8.5
-3.16
-3.96
-9.52
-16.66
-21.39
-20.25
-11.42
4.8
26.22
49.42
70.6
86.65
95.83
98.24
95.49
89.82
82.78
74.62
64.56
51.92
37.4
23.38
12.94
8.13
8.63
11.8
14.25
13.71
10.32
6.27
4.09
4.95
7.91
10.73
11.5
9.79
6.77
4.11
2.88
2.68
2.12
-0.2
-4.85
-11.44
-19.09
-27.06
-35.07
-43.05
-50.73
-57.23
-61.38
-62.21
-59.4
-53.27
-44.56
-34.23
-23.58
-14.54
-9.49
-10.63
-18.86
-32.82
-48.84
-62
-68.07
-64.96
-53.28
-35.64
-15.54
4
20.96
34.17
43.15
47.82
48.54
46.05
41.41
35.74
29.99
24.82
20.39
16.57
13.01
9.42
5.95
3.1
1.48
1.33
2.13
2.72
2.06
-0.24
-3.45
-6.33
-7.97
-8.46
-8.74
-10.03
-12.78
-16.28
-19.3
-20.74
-20.38
-18.84
-17.08
-15.87
-15.5
-16.06
-17.66
-20.41
-24.06
-27.91
-31.05
-32.56
-32.06
-29.85
-26.84
-24.36
-24.07
-27.35
-34.86
-45.94
-58.35
-68.77
-73.89
-71.56
-61.75
-46.42
-28.76
-12.06
1.37
10.38
15.01
16.34
16.2
16.69
19.5
25.04
32.38
39.65
45.23
48.67
50.88
53.37
57.06
61.57
65.27
66.27
63.58
57.5
49.36
40.65
32.19
24.18
16.77
10.6
6.91
6.86
10.71
17.36
24.61
30.02
31.99
30.2
25.4
18.67
10.68
1.45
-9.38
-21.75
-34.74
-46.54
-55
-58.57
-57.06
-51.72
-44.58
-37.54
-31.75
-27.42
-24.26
-21.95
-20.34
-19.29
-18.58
-17.84
-16.91
-16.12
-16.33
-18.25
-21.74
-25.53
-27.45
-25.27
-17.77
-5.19
10.96
28.4
44.73
57.9
66.38
69.54
67.91
63.07
57.32
52.78
50.57
50.63
52.02
53.85
55.83
58.06
60.45
61.95
60.64
54.69
43.46
28.27
12.07
-1.75
-11.09
-15.91
-17.83
-18.78
-19.66
-20
-18.57
-14.49
-8.09
-0.86
5.36
9.15
9.93
7.77
3.03
-3.8
-11.74
-19.09
-23.73
-23.86
-19.22
-11.77
-5.27
-3.62
-9.07
-21.25
-37.28
-53.05
-65.09
-71.89
-73.91
-72.61
-69.29
-64.4
-57.44
-47.71
-35.14
-20.65
-6.21
5.72
13.08
14.87
11.7
5.63
-0.57
-4.46
-4.75
-1.85
2.57
6.4
8.25
8.14
7.63
8.82
13.08
20.22
28.39
34.76
36.99
34.52
28.79
22.21
16.78
13.09
10.37
7.37
3.73
0.34
-1.45
-1.28
-0.56
-1.76
-6.72
-15.17
-24.54
-31.58
-34.4
-33.65
-31.9
-31.66
-33.53
-35.92
-36.44
-34.05
-30.1
-27.55
-29.13
-35.36
-43.94
-50.92
-52.81
-48.29
-38.34
-25.43
-12.02
0.47
11.73
21.87
30.79
37.93
42.65
44.64
44.18
42.01
38.92
35.5
32.06
28.62
25.11
21.46
17.72
13.94
10.14
6.16
1.84
-2.83
-7.66
-12.12
-15.57
-17.73
-18.7
-18.98
-19.35
-20.51
-22.78
-26.06
-29.88
-33.43
-35.74
-35.91
-33.47
-28.81
-23.23
-18.68
-16.9
-18.66
-23.35
-29.23
-34.42
-37.71
-38.85
-38.18
-36.1
-32.88
-28.87
-24.88
-22.26
-22.45
-26.06
-32.22
-38.49
-41.8
-39.55
-30.58
-15.67
2.83
21.92
38.8
51.67
59.75
63.28
63.13
60.42
56.32
52.01
48.5
46.48
46.11
46.69
46.96
45.72
42.51
37.93
33.38
30.1
28.54
28.03
27.48
26.12
24.11
22.3
21.53
21.86
22.45
22.09
20.06
16.34
11.68
7.06
3.1
-0.06
-2.44
-3.88
-3.88
-1.96
1.9
7.04
12.28
16.25
17.9
16.68
12.55
5.93
-2.53
-11.92
-21.17
-28.96
-33.99
-35.16
-32.02
-24.93
-14.96
-3.58
8.06
19.41
30.43
41.04
50.67
58.1
61.82
60.89
55.5
47.03
37.56
29.02
22.48
17.96
14.86
12.55
10.8
9.86
10.13
11.73
14.15
16.25
16.65
14.16
8.25
-0.5
-10.58
-19.82
-26.13
-28.33
-26.43
-21.49
-15.27
-9.44
-5.02
-2.34
-1.4
-2.24
-5.06
-9.98
-16.38
-22.86
-27.62
-29.46
-28.59
-26.72
-26.15
-28.43
-33.57
-40.02
-45.66
-48.85
-49
-46.56
-42.3
-36.67
-29.56
-20.61
-9.78
2.22
14.08
24.12
30.93
34.02
33.63
30.6
26
20.96
16.41
13.36
12.83
15.55
21.54
29.67
37.68
43.15
44.41
41.36
35.53
29.05
23.58
19.56
16.29
12.7
8.35
3.72
-0.26
-2.77
-3.71
-3.65
-3.5
-3.94
-5.06
-6.72
-8.72
-11.08
-13.93
-17.36
-21.33
-25.5
-29.55
-33.27
-36.77
-40.38
-44.5
-49.4
-54.95
-60.49
-64.84
-66.73
-65.15
-60.15
-53.05
-46.11
-41.65
-40.97
-43.7
-47.85
-50.75
-50.13
-44.94
-35.41
-22.73
-8.41
6.12
19.53
30.68
38.59
42.78
43.48
41.6
38.39
34.87
31.57
28.63
26.18
24.39
23.47
23.39
23.64
23.46
22.12
19.52
16.2
13.02
10.74
9.52
8.79
7.52
4.74
0.05
-5.99
-12.02
-16.39
-17.88
-16.18
-11.97
-6.63
-1.4
2.72
5.15
5.47
3.48
-0.55
-5.81
-11.06
-15.09
-17.25
-17.91
-18.06
-18.58
-19.56
-20.17
-19.26
-16.09
-10.73
-3.98
3.1
9.74
15.48
19.92
22.45
22.26
18.61
11.57
2.4
-6.42
-11.92
-11.63
-4.72
7.89
23.74
39.94
54.04
64.54
70.91
73.21
71.73
66.77
59.05
49.74
40.37
32.35
26.32
21.9
18.05
13.79
9.05
5.05
3.65
6.37
13.36
22.93
32.02
37.63
38
33.36
25.73
17.84
11.96
9.06
8.63
9.18
8.95
6.75
2.36
-3.55
-9.94
-15.91
-21.02
-25.36
-29.2
-32.77
-36.26
-39.72
-43.09
-46.26
-48.92
-50.63
-51.04
-50.21
-48.73
-47.61
-47.7
-49.28
-52
-55.1
-57.92
-60.16
-61.61
-61.46
-58.31
-50.47
-36.95
-18.43
2.4
21.61
35.52
42.07
41.58
36.04
27.92
19.02
9.91
0.58
-8.6
-16.44
-21.13
-21.44
-17.66
-11.56
-5.35
-0.21
4.37
10
17.98
28.01
38.19
46.06
50.07
50.32
48.07
44.69
40.6
35.24
28.02
19.38
11.13
5.74
4.92
8.48
14.17
18.55
18.72
13.75
5.05
-4.28
-11.18
-14.29
-14.71
-15.25
-18.76
-26.38
-36.84
-47.35
-55.13
-58.92
-59.26
-57.86
-56.27
-55.09
-54.21
-53.44
-53.12
-53.83
-56
-59.31
-62.63
-64.43
-63.46
-59.18
-51.74
-41.48
-28.98
-15.09
-1.21
10.68
18.5
20.94
18.34
12.84
7.53
5.01
6.17
9.95
13.94
15.89
14.9
11.66
7.88
5.19
4.26
4.62
5.09
4.5
2.08
-2.33
-8.32
-15.11
-21.77
-27.42
-31.65
-34.78
-37.89
-42.24
-48.77
-57.47
-67.12
-75.79
-81.39
-82.12
-76.67
-64.15
-44.33
-17.88
13.17
45.59
75.23
98.31
112.7
118.68
118.65
116.16
114.23
113.87
113.85
111.61
105.09
94.07
80.54
67.6
57.68
51.56
48.29
46.46
45.53
46.44
50.63
58.59
69.02
79.02
85.66
87.68
86.64
86.03
89.28
97.73
109.7
121.22
127.93
127.18
119.28
107.25
95.06
85.66
79.55
74.77
68.49
59.01
46.81
33.92
22.41
12.74
3.45
-7.7
-21.94
-38.24
-53.57
-64.31
-68.17
-65.42
-58.47
-50.39
-43.36
-38.31
-35.05
-33.21
-33.01
-35.1
-39.78
-46.32
-53.04
-57.7
-58.79
-56.38
-52.16
-48.47
-47.09
-48.35
-51.15
-53.94
-55.64
-56.39
-57.18
-58.78
-60.7
-61.22
-58.39
-51.3
-41.21
-30.83
-22.82
-18.13
-15.62
-13.1
-9.01
-3.83
0.2
0.71
-2.94
-9.02
-14.32
-16.21
-14.27
-10.38
-7.4
-7.51
-11.01
-16.39
-21.54
-24.97
-26.26
-25.95
-24.79
-23.28
-21.75
-20.48
-19.78
-19.76
-19.95
-19.17
-16.41
-11.4
-5.28
-0.19
1.74
-0.29
-5.04
-9.93
-12.5
-12.13
-10.6
-11.06
-15.99
-25.51
-37.1
-46.91
-51.88
-51.39
-47.15
-42.06
-38.72
-38.55
-41.61
-47.11
-53.77
-59.85
-63.1
-61.1
-52.38
-37.48
-19.26
-1.73
11.64
19.82
24.42
28.39
33.86
40.82
47.45
51.51
52.04
50.03
47.62
46.69
47.55
48.86
48.62
45.71
40.77
35.78
32.68
32.07
32.87
32.97
30.45
24.63
16.43
7.73
0.34
-4.81
-7.95
-9.98
-11.77
-13.62
-15.27
-16.13
-15.89
-14.62
-12.63
-10.29
-7.89
-5.75
-4.29
-4.06
-5.5
-8.43
-11.82
-14.06
-13.78
-10.91
-6.99
-4.33
-4.91
-9.31
-16.55
-24.62
-31.46
-35.41
-35.3
-30.37
-20.34
-5.77
11.85
30.21
46.92
60.28
69.56
75.03
77.19
76.48
73.18
67.55
60.04
51.21
41.58
31.67
22.14
13.89
7.95
4.87
4.38
5.39
6.6
7.27
7.47
7.61
7.91
7.9
6.71
3.81
-0.39
-4.7
-7.78
-9.06
-9.17
-9.65
-12.14
-17.46
-25.26
-34.24
-42.69
-48.99
-51.97
-51.3
-47.49
-41.94
-36.64
-33.5
-33.71
-37.31
-43.11
-49.22
-53.78
-55.4
-53.55
-48.35
-40.35
-30.11
-18.06
-4.61
9.6
23.55
35.89
45.22
50.71
52.47
51.4
48.94
46.45
44.63
43.49
42.63
41.57
40.14
38.47
36.62
34.41
31.49
27.47
22.32
16.44
10.5
5.12
0.54
-3.42
-7.05
-10.51
-13.61
-16.06
-17.68
-18.62
-19.32
-19.93
-20.09
-19.04
-16.35
-12.39
-8.57
-6.85
-8.71
-14.25
-22.07
-30
-36.07
-39.32
-39.97
-39.06
-37.99
-38.12
-40.45
-45.2
-51.78
-58.8
-64.39
-66.6
-64.17
-56.82
-45.19
-30.55
-14.41
1.72
16.39
28.31
36.58
40.92
41.92
40.79
39.01
37.81
37.88
39.24
41.43
43.68
45.26
45.53
44.03
40.62
35.4
28.83
21.72
15.03
9.61
6.09
4.81
5.83
8.9
13.33
17.81
20.6
19.89
14.62
5.23
-6.31
-17.25
-25.21
-29.16
-29.7
-28.3
-26.35
-24.41
-22.37
-20.13
-18.22
-17.59
-19.06
-22.53
-26.91
-30.91
-33.92
-36.45
-39.69
-44.46
-50.4
-55.89
-58.83
-57.71
-52.27
-43.33
-32.11
-19.62
-6.3
7.66
21.84
35.25
46.58
54.38
57.67
56.41
51.63
45.21
39.21
35.09
33.08
32.08
30.42
26.95
21.78
16.43
12.91
12.68
15.77
21.01
26.73
31.51
34.59
35.6
34.19
29.96
22.82
13.55
3.92
-3.96
-8.5
-9.47
-8.13
-6.48
-6.09
-7.38
-9.67
-11.73
-12.56
-11.85
-9.92
-7.71
-6.37
-7.19
-11.25
-18.79
-28.88
-39.42
-47.68
-51.36
-49.47
-42.66
-32.65
-21.38
-10.17
0.48
10.47
19.76
28.05
35.02
40.64
45.05
48.24
49.86
49.08
45.24
38.52
30.13
21.99
15.82
12.48
11.58
12.02
12.62
12.8
12.63
12.36
12.16
11.95
11.48
10.59
9.35
7.67
5.03
0.63
-6.23
-15.23
-24.66
-32.08
-35.47
-34.51
-31
-28.07
-28.28
-32.36
-38.73
-44.96
-49.36
-52.05
-54.47
-58.07
-62.75
-66.65
-67.48
-64.24
-58.17
-52.12
-48.68
-48.77
-51.27
-53.82
-54.22
-51.22
-44.45
-33.99
-20.07
-3.41
14.35
30.6
42.55
48.37
48.01
43.16
36.41
29.99
25.13
21.95
20.14
19.26
19.26
20.19
22.36
25.8
30.33
35.33
39.8
42.75
43.59
42.46
40.21
37.97
36.5
35.78
35.02
33.16
29.53
24.34
18.67
14
11.63
12.05
14.69
17.81
19.2
16.98
10.5
0.81
-9.62
-18
-22.75
-24.14
-24.1
-24.86
-27.27
-30.37
-31.89
-29.97
-24.6
-18.09
-13.98
-15.22
-22.42
-33.46
-44.53
-51.74
-52.69
-47.2
-36.7
-23.2
-8.28
7.5
24.15
41.33
57.69
70.82
78.15
78.24
71.76
61.21
49.78
39.75
31.63
24.56
17.38
9.76
2.66
-2.12
-3.19
-0.52
4.32
8.88
10.93
9.2
3.8
-4.08
-12.75
-20.7
-27.04
-31.72
-35.28
-38.34
-41.36
-44.26
-46.58
-47.92
-48.41
-48.55
-48.92
-49.79
-50.96
-52.32
-54.27
-57.99
-64.99
-75.78
-88.88
-100.78
-107.19
-105.01
-94.04
-77.11
-58.81
-43.3
-32.68
-26.86
-24.64
-25.2
-28.81
-36.48
-48.82
-65.09
-83.19
-100.28
-114.03
-123.35
-128.42
-130.16
-129.61
-127.29
-123.12
-116.4
-105.9
-90.3
-68.61
-40.75
-7.91
27.53
62.67
94.92
122.52
144.85
162.12
174.85
183.4
187.87
188.18
184.23
176.28
165.14
152.09
138.64
126.08
115.11
105.43
96.15
86.36
75.66
64.56
54.17
45.63
39.41
35.03
31.28
26.88
21.17
14.41
7.66
2.25
-0.81
-1.2
0.79
4.43
9.17
14.74
21.17
28.39
36
43.24
49.1
52.67
53.35
50.77
44.87
35.9
24.74
12.84
2.12
-5.55
-9.11
-8.85
-6.27
-3.4
-1.81
-1.84
-2.63
-2.73
-1.13
2.04
5.49
7.43
6.47
2.39
-3.87
-10.69
-16.58
-20.77
-23.28
-24.36
-24.22
-22.71
-19.58
-14.81
-9.04
-3.54
0.19
0.88
-1.89
-7.56
-14.75
-21.57
-26.29
-27.91
-26.35
-22.49
-17.74
-13.48
-10.62
-9.39
-9.31
-9.51
-8.92
-6.57
-1.86
5.3
14.38
24.3
33.88
42.25
49.13
54.79
59.7
63.87
66.81
67.81
66.45
63.14
59.15
55.99
54.49
54.3
54.05
52.24
48.35
43.24
38.7
36.34
36.54
38.24
39.66
39.24
36.64
32.83
29.41
27.76
28.28
30.39
33
35.11
36.25
36.51
36.38
36.32
36.6
37.11
37.68
38.21
38.79
39.55
40.43
40.99
40.66
39.33
37.63
36.6
36.76
37.29
35.77
29.2
15.57
-4.64
-27.95
-49.13
-63.23
-67.52
-62.34
-50.78
-37.15
-25.35
-17.74
-14.89
-15.98
-19.6
-24.37
-29.17
-33.26
-36
-36.98
-36.26
-34.51
-32.86
-32.26
-32.97
-34.12
-34.25
-32.27
-28.37
-24.05
-21.14
-20.63
-21.97
-23.48
-23.55
-21.71
-18.9
-16.76
-16.44
-17.96
-20.58
-23.53
-26.7
-30.54
-35.33
-40.67
-45.39
-48.24
-48.78
-47.57
-45.73
-44.2
-43.2
-42.5
-41.91
-41.67
-42.56
-45.27
-49.82
-55.19
-59.71
-61.67
-59.96
-54.35
-45.28
-33.53
-19.89
-5.03
10.36
25.25
38.2
47.56
51.97
50.97
45.18
36.28
26.48
17.78
11.49
7.96
6.61
6.39
6.37
6.19
6.29
7.65
11.2
17.12
24.46
31.3
35.43
35.2
30.45
22.62
14.17
7.42
3.57
2.25
1.82
0.43
-2.85
-7.53
-11.99
-14.5
-14.29
-12.02
-9.54
-8.82
-11
-16.05
-22.92
-30.18
-36.57
-41.4
-44.43
-45.76
-45.77
-45
-44.14
-43.83
-44.5
-46.2
-48.47
-50.57
-51.56
-50.62
-47.19
-40.96
-31.83
-19.89
-5.49
10.76
27.88
44.38
58.42
68.16
72.46
71.4
66.36
59.65
53.58
49.57
47.7
46.95
45.91
43.62
39.98
35.59
31.32
27.78
25.13
23.18
21.68
20.28
18.47
15.6
11.13
5.02
-2.01
-8.48
-12.61
-13.02
-9.52
-3.23
3.71
8.86
10.44
7.86
1.76
-6.29
-14.45
-21.09
-25.09
-25.89
-23.56
-18.76
-12.74
-7.23
-4.12
-4.87
-9.94
-18.33
-27.74
-35.18
-37.95
-34.52
-25.17
-11.82
2.76
16.03
26.37
33.4
37.6
39.7
40.14
38.96
36.12
31.91
27.01
22.46
19.24
18.08
19.23
22.34
26.4
29.91
31.28
29.4
24.3
17.31
10.47
5.74
4.13
5.37
8.22
11.2
13.17
13.62
12.53
10.12
6.67
2.74
-0.88
-3.37
-4.1
-3.09
-1.05
0.86
1.58
0.52
-2.33
-6.74
-12.52
-19.68
-28.25
-37.75
-47.04
-54.48
-58.73
-59.51
-57.92
-55.75
-54.52
-54.74
-55.59
-55.74
-54.23
-51.03
-46.96
-43.05
-39.73
-36.55
-32.63
-27.1
-19.74
-10.93
-1.26
8.92
19.53
30.35
40.68
49.11
53.98
54.17
49.83
42.59
34.91
29.14
26.41
26.27
27.14
27.28
25.68
22.44
18.59
15.33
13.37
12.6
12.27
11.52
9.92
7.59
5.07
2.99
1.72
1.2
1.02
0.6
-0.58
-2.66
-5.26
-7.65
-8.94
-8.65
-7
-4.85
-3.22
-2.85
-3.89
-5.91
-8.33
-10.88
-13.63
-16.52
-19.06
-20.34
-19.6
-16.82
-13.1
-10.22
-9.99
-13.26
-19.39
-26.43
-31.78
-33.24
-29.78
-21.83
-10.88
1.37
13.77
26.03
38.28
50.36
61.29
69.34
72.63
70.11
62.12
50.3
36.83
23.69
12.05
2.34
-5.45
-11.37
-15.26
-16.91
-16.27
-13.69
-10.08
-6.66
-4.72
-5.08
-7.87
-12.31
-17.07
-20.79
-22.58
-22.53
-21.63
-21.22
-22.31
-24.99
-28.4
-31.25
-32.57
-32.18
-30.6
-28.45
-25.88
-22.41
-17.43
-10.9
-3.88
1.76
4.14
2.32
-3.22
-10.8
-18.33
-24.11
-27.17
-27.12
-24.01
-18.01
-9.59
0.56
11.39
21.63
30.23
36.7
41.12
43.86
45.29
45.35
43.7
40
34.35
27.52
20.91
15.97
13.61
13.71
15.24
16.91
17.72
17.32
16.07
14.53
12.9
10.83
7.85
3.83
-0.76
-4.93
-7.67
-8.6
-8.54
-8.95
-11
-14.63
-18.31
-19.96
-18.18
-13.44
-8.14
-5.46
-7.49
-13.94
-22.39
-29.71
-33.81
-34.63
-33.71
-33
-33.52
-35.13
-37.37
-40.4
-45.03
-51.9
-60.29
-67.9
-71.61
-69
-59.64
-45.39
-29.28
-14.08
-1.4
8.47
15.9
21.35
25.14
27.69
29.67
31.84
34.45
36.72
36.98
33.53
25.56
13.89
0.75
-10.93
-18.51
-20.48
-16.81
-8.83
1.15
10.38
16.44
17.87
14.85
9.17
3.64
0.96
2.45
7.34
13.08
16.56
15.66
10.26
2.13
-6.05
-12.26
-16.07
-18.52
-21.25
-25.34
-30.59
-35.73
-39.25
-40.27
-38.77
-35.3
-30.4
-24.25
-16.9
-8.83
-1.24
4.2
6.13
4.17
-0.91
-7.5
-13.8
-18.36
-20.22
-18.64
-13.03
-2.99
11.32
28.76
47.32
64.41
77.75
86.02
89.13
87.93
83.66
77.3
69.31
59.73
48.64
36.67
25.22
16.27
11.58
11.75
15.82
21.49
26.2
28.32
27.84
26.14
24.84
24.58
24.71
23.59
19.83
13.3
5.32
-2.11
-7.55
-10.92
-13.33
-16.17
-20.13
-24.81
-29.29
-32.97
-36.14
-39.6
-43.76
-47.93
-50.44
-49.57
-44.85
-37.65
-30.67
-26.64
-26.82
-30.3
-34.64
-37.19
-36.54
-32.86
-27.42
-21.55
-15.64
-9.05
-0.81
9.34
20.37
30.23
36.7
38.51
36.07
31.12
25.9
22
19.8
18.7
17.94
17.33
17.35
18.68
21.4
24.55
26.5
25.73
21.8
15.55
8.74
3.19
-0.03
-0.83
0.14
1.93
3.67
4.67
4.36
2.37
-1.23
-5.73
-9.95
-12.69
-13.44
-12.65
-11.49
-11.35
-13.13
-17.01
-22.53
-28.92
-35.51
-41.75
-47.23
-51.55
-54.39
-55.63
-55.42
-54.04
-51.72
-48.6
-44.75
-40.43
-36.13
-32.54
-30.13
-28.91
-28.21
-26.9
-23.67
-17.61
-8.49
3.05
15.65
27.72
37.68
44.43
47.52
47.05
43.6
38
31.26
24.54
19.13
16.13
16.17
19.08
23.66
28.07
30.43
29.62
25.66
19.79
13.82
9.4
7.18
6.73
6.97
6.83
5.94
4.63
3.55
3.19
3.54
4.26
5.09
6.07
7.49
9.4
11.33
12.33
11.46
8.35
3.49
-2.01
-7.05
-11.1
-14.33
-17.2
-19.92
-22.13
-23.11
-22.37
-20.32
-18.48
-18.76
-22.4
-29.11
-36.91
-43.03
-45.24
-42.77
-36.38
-27.63
-17.75
-7.14
4.43
16.98
29.74
41.22
49.96
55.36
58.03
59.36
60.48
61.48
61.34
58.47
51.97
42.21
30.99
20.77
13.68
10.51
10.44
11.67
12.36
11.74
10.39
9.68
10.81
13.79
17.15
18.62
16.35
10.07
1.48
-6.47
-11
-10.84
-6.81
-1.35
2.65
3.22
-0.01
-5.86
-12.54
-18.41
-22.64
-25.2
-26.34
-26.12
-24.37
-21.14
-17.1
-13.71
-12.63
-14.91
-20.39
-27.43
-33.78
-37.55
-38.01
-35.59
-31.24
-25.6
-18.66
-10.07
0.26
11.58
22.49
31.36
37.07
39.41
39.07
37.1
34.29
30.67
25.66
18.82
10.66
2.8
-2.51
-3.58
-0.31
5.72
12.16
17.3
21.15
25.15
30.76
37.98
44.77
47.95
45.09
36.26
24.25
13.21
6.47
4.88
6.5
7.78
5.46
-2.03
-14
-28.13
-41.74
-52.8
-60.43
-65.03
-68.09
-71.55
-77.18
-85.83
-96.77
-107.69
-115.22
-116.06
-108.11
-91.2
-67.09
-39.12
-11.71
10.47
23.35
24.4
13.45
-6.88
-31.88
-55.89
-73.86
-82.54
-80.81
-69.29
-49.89
-25.3
1.18
25.88
45.26
56.87
60.26
57.32
51.54
46.67
45.2
47.4
51.37
54.18
53.3
47.73
38.29
27.15
16.78
9.09
4.96
4.29
6.36
10.23
14.89
19.48
23.18
25.19
24.77
21.49
15.38
7.3
-1.22
-8.25
-12.16
-12.1
-8.31
-2.01
4.88
10.23
12.27
10.22
4.71
-2.09
-7.15
-7.66
-2.3
8
20.31
30.74
35.89
34.06
25.64
12.91
-0.83
-11.97
-17.51
-15.62
-6.1
9.43
27.95
46.07
60.98
71.1
76.15
76.76
73.93
68.65
61.66
53.49
44.57
35.27
25.84
16.41
7.07
-2.13
-10.97
-18.92
-25.15
-28.76
-29.01
-25.88
-20.25
-13.85
-8.65
-6.04
-6.39
-8.94
-12.39
-15.53
-17.59
-18.35
-18.04
-17.06
-15.84
-14.77
-13.99
-13.33
-12.32
-10.36
-7.25
-3.55
-0.6
-0.03
-3.03
-9.83
-19.45
-30.12
-39.97
-47.42
-51.6
-52.3
-49.72
-44.33
-36.78
-27.86
-18.55
-9.78
-2.28
3.55
7.73
10.59
12.64
14.37
16.03
17.61
18.8
19.18
18.39
16.24
12.89
8.95
5.22
2.48
1.15
1.17
2.09
3.42
4.75
5.77
6.21
5.77
4.17
1.46
-1.74
-4.46
-5.87
-5.66
-4.46
-3.34
-3.13
-3.98
-5.44
-6.92
-8.29
-10.09
-12.99
-17.14
-21.74
-25.42
-27.01
-26.38
-24.7
-23.81
-25.33
-29.93
-37.17
-45.92
-54.82
-62.62
-68.17
-70.49
-68.86
-62.98
-53.28
-40.82
-26.81
-12.57
0.74
12.1
20.48
25
25.42
22.46
17.88
13.98
12.69
14.88
20.03
26.84
33.85
39.91
44.32
46.74
46.83
44.29
39.32
32.8
26.24
21.28
18.97
19.16
20.56
21.36
20.14
16.69
11.87
7.01
3.1
0.3
-2.05
-4.86
-8.67
-13.28
-17.9
-21.69
-24.27
-25.84
-26.97
-27.96
-28.65
-28.39
-26.6
-23.37
-19.7
-17.14
-17.05
-19.98
-25.26
-31.34
-36.36
-38.99
-38.74
-35.9
-30.94
-24.01
-14.77
-2.69
12.39
29.77
47.62
63.43
74.8
80.11
79.15
73.03
63.75
53.53
44.34
37.6
34.11
33.96
36.58
40.93
45.63
49.29
50.68
48.92
43.8
35.81
26.09
16.1
7.13
-0.14
-5.75
-10.29
-14.41
-18.38
-22.05
-25.02
-27.09
-28.32
-29.11
-29.87
-30.86
-32.02
-33.08
-33.77
-34.03
-34.04
-34
-34.09
-34.26
-34.38
-34.47
-34.72
-35.46
-36.62
-37.5
-36.72
-32.79
-24.98
-13.81
-0.96
11.46
21.79
29.48
34.94
38.95
41.83
43.39
43.27
41.47
38.61
35.65
33.27
31.57
30.05
28.24
26.12
24.13
22.75
21.93
20.83
18.36
13.95
8.12
2.47
-1.09
-1.62
0.42
3.36
5.43
5.63
4.17
2.07
0.37
-0.48
-0.78
-1.2
-2.22
-3.96
-6.15
-8.59
-11.41
-15.11
-20.11
-26.44
-33.4
-39.83
-44.47
-46.42
-45.45
-42.15
-37.99
-34.95
-34.86
-38.49
-45
-51.93
-55.96
-54.44
-46.36
-33.04
-17.28
-2.14
10.18
18.94
24.4
27.29
28.28
28.01
27.11
26.43
26.73
28.25
30.53
32.43
32.65
30.28
25.21
18.29
11.01
5.14
2.06
2.35
5.62
10.7
16.23
21.14
24.77
26.96
27.63
26.62
23.84
19.58
14.61
10.18
7.43
6.86
8.1
10.14
11.83
12.41
11.71
9.89
7.25
4
0.38
-3.18
-6.29
-8.75
-10.8
-13.14
-16.6
-21.48
-27.19
-32.41
-35.78
-37.01
-37.17
-38.21
-41.92
-48.82
-57.63
-65.86
-70.96
-71.28
-66.39
-56.71
-42.91
-25.6
-5.55
15.76
35.8
51.54
60.57
62.13
57.52
49.49
41.11
34.55
30.43
28.08
26.32
24.38
22.3
20.98
21.46
24.24
28.76
33.41
36.13
35.32
30.74
23.51
15.85
9.96
7.12
7.28
9.38
12.07
14.27
15.41
15.2
13.64
10.92
7.32
3.4
-0.26
-3.28
-5.76
-8.08
-10.69
-13.86
-17.7
-22.25
-27.58
-33.77
-40.61
-47.5
-53.53
-58.12
-61.24
-63.43
-65.28
-66.68
-66.7
-63.89
-57.16
-46.54
-33.28
-19.32
-6.4
4.63
13.82
21.5
27.78
32.18
33.79
31.99
27.06
20.24
13.35
8.03
5.1
4.43
5.18
6.45
7.75
9.11
10.74
12.56
14.16
15.05
15.03
14.48
14.1
14.48
15.59
16.78
17.31
16.8
15.41
13.74
12.35
11.55
11.26
11.24
11.3
11.47
11.82
12.47
13.51
14.88
16.36
17.57
17.99
17.16
14.92
11.46
7.16
2.42
-2.53
-7.46
-12.11
-16.16
-19.38
-21.94
-24.3
-26.84
-29.33
-30.9
-30.51
-27.8
-23.65
-20.15
-19.53
-23
-29.96
-38.1
-44.33
-45.97
-41.75
-32.16
-18.97
-4.58
8.84
19.83
27.76
32.62
34.66
34.05
30.94
25.69
18.96
11.91
5.74
1.22
-1.61
-3.37
-4.81
-6.37
-7.85
-8.72
-8.57
-7.36
-5.3
-2.58
0.89
5.37
10.83
16.51
20.98
22.69
20.58
14.66
5.9
-4.34
-14.74
-24.28
-32.05
-37.17
-39.02
-37.5
-33.05
-26.34
-17.83
-7.74
3.63
15.19
24.85
30.09
29.11
21.94
10.7
-1.33
-11.31
-18.09
-22.42
-26.04
-30.48
-36.23
-42.73
-48.88
-53.58
-55.83
-54.88
-50.15
-41.59
-29.8
-15.96
-1.4
12.86
26.3
38.8
50.09
59.71
66.97
71.52
73.6
73.96
73.44
72.44
70.92
68.51
65.01
60.52
55.49
50.33
45.17
39.85
34.13
27.93
21.52
15.57
11
8.72
9.17
11.93
15.76
18.93
20.09
18.88
16.01
12.78
10.24
8.62
7.23
5.07
1.29
-4.34
-11.5
-19.63
-28.07
-36.11
-42.91
-47.81
-50.51
-51.44
-51.51
-51.74
-52.89
-55.09
-58.09
-61.49
-64.89
-67.76
-69.31
-68.41
-64.04
-55.64
-43.48
-28.71
-13.04
1.71
14.13
23.38
29.36
32.58
33.9
34.33
34.58
34.85
34.93
34.52
33.42
31.79
30.13
28.99
28.64
28.86
29.02
28.4
26.46
23.13
18.88
14.46
10.63
8.01
6.99
7.73
9.93
13.02
16.07
18.07
18.45
17.37
15.68
14.48
14.38
14.94
14.8
12.23
6.26
-2.95
-14.21
-25.84
-36.41
-45.02
-51.22
-54.78
-55.62
-53.92
-50.24
-45.68
-41.57
-39.09
-38.88
-40.83
-44.14
-47.53
-49.5
-48.54
-43.68
-34.62
-22.11
-7.97
5.53
16.38
23.47
26.88
27.73
27.44
27.19
27.45
28.15
28.89
29.43
29.71
29.72
29.31
28.21
26.25
23.48
20.34
17.4
15.1
13.65
13.02
13.12
13.77
14.63
15.05
14.38
12.15
8.55
4.42
0.93
-1.13
-1.79
-1.8
-2.23
-3.78
-6.37
-9.41
-12.35
-15.01
-17.71
-20.98
-24.91
-29.07
-32.53
-34.25
-33.67
-30.98
-27.09
-23.27
-20.73
-20.16
-21.68
-24.9
-29.22
-34
-38.6
-42.33
-44.39
-44.04
-40.87
-35.04
-27.23
-18.36
-9.19
0.05
9.52
19.33
29.18
38.24
45.36
49.85
51.68
51.53
50.44
49.31
48.56
48.18
47.93
47.66
47.39
47.23
47.17
47.1
46.8
46.12
44.96
43.19
40.66
37.22
32.89
27.99
23.12
19
16.25
15.03
14.96
15.2
14.8
13.06
9.9
5.87
1.73
-1.79
-4.26
-5.67
-6.34
-6.76
-7.55
-9.42
-12.98
-18.71
-26.61
-36.1
-46.11
-55.26
-62.3
-66.35
-67.06
-64.59
-59.3
-51.49
-41.28
-28.75
-14.36
0.63
14.27
24.55
30.26
31.58
30.01
27.46
25.18
23.34
21.18
17.99
13.92
10.11
7.95
8.21
10.41
13.19
15.1
15.37
14.19
12.37
10.63
9.31
8.22
6.97
5.37
3.48
1.58
0
-1.08
-1.76
-2.28
-3.07
-4.53
-6.89
-9.97
-13.23
-16.01
-17.87
-18.99
-20.05
-21.89
-24.84
-28.39
-31.31
-32.3
-30.81
-27.47
-23.95
-22.07
-23
-26.81
-32.55
-38.73
-43.82
-46.56
-45.97
-41.29
-32.07
-18.49
-1.54
16.9
34.29
48.11
56.42
58.34
54.15
45.08
33.02
20.03
8.05
-1.56
-8.2
-11.9
-13.15
-12.52
-10.42
-7.17
-3.08
1.28
5.07
7.44
7.84
6.17
2.81
-1.62
-6.46
-11.12
-14.99
-17.4
-17.69
-15.42
-10.57
-3.6
4.66
13.11
20.49
25.49
26.96
24.23
17.44
7.64
-3.35
-13.56
-21.58
-26.83
-29.67
-30.92
-31.42
-31.68
-31.72
-31.28
-30.06
-27.97
-25.18
-22.18
-19.61
-18.19
-18.66
-21.51
-26.85
-34.11
-42.07
-48.93
-52.76
-52
-45.91
-34.83
-20.14
-3.88
11.67
24.49
33.25
37.52
37.81
35.39
31.78
28.26
25.53
23.7
22.65
22.44
23.56
26.58
31.76
38.51
45.45
50.79
53.17
52.18
48.52
43.56
38.53
34.19
30.64
27.72
25.42
24.01
23.81
24.82
26.57
28.12
28.51
26.99
23.4
18.05
11.51
4.28
-3.3
-11
-18.4
-24.65
-28.46
-28.59
-24.43
-16.75
-7.83
-0.85
1.37
-2.42
-11.37
-22.92
-34
-42.14
-46.16
-46.08
-42.49
-36.18
-27.83
-18.09
-7.76
2.19
10.62
16.43
18.82
17.48
12.83
6.02
-1.25
-7.25
-10.77
-11.4
-9.48
-5.72
-0.88
4.3
9.18
13.22
16.05
17.7
18.64
19.48
20.49
21.42
21.61
20.55
18.34
15.69
13.39
11.74
10.26
7.91
3.83
-2.03
-8.79
-15.08
-19.68
-22.28
-23.41
-24.24
-25.83
-28.57
-32.06
-35.3
-37.34
-37.74
-36.75
-35.03
-33.27
-31.77
-30.51
-29.5
-28.94
-29.17
-30.36
-32.07
-33.31
-32.88
-29.96
-24.43
-16.96
-8.51
0.12
8.41
16.04
22.57
27.44
30.28
31.22
30.87
30.02
29.2
28.37
27.14
25.23
22.8
