-190.25
-196.63
-197.62
-196.8
-201.77
-217.02
-242.86
-276.19
-313.16
-350.65
-384.74
-411.72
-401.91
-340.79
-237.64
-121.17
-18.45
58.43
106.8
140.95
171.05
203.74
230.63
244.23
241.14
223.19
196.94
172.62
160.86
165.86
185.39
208.37
224.91
230.71
228.18
223.73
220.89
219.59
215.72
205.49
183.83
149.41
104.37
56.42
13.48
-19.84
-42.77
-57.8
-67.1
-74.04
-79.85
-83.79
-83.92
-78.86
-68.67
-54.79
-43.83
-34.62
-26.72
-19.12
-10.32
1.36
16.61
35.08
54.96
74.31
92.29
107.53
119.3
127.26
130.96
129.08
124.46
117.18
107.02
94.42
79.27
61.83
42.67
22.47
1.74
-19.16
-40.81
-63.54
-87.19
-111.92
-137.67
-164.17
-191.08
-218.08
-244.92
-272.04
-299.93
-329.19
-361.02
-396.45
-435.71
-477.59
-519.15
-556.15
-584.43
-600.48
-602.22
-589.47
-563.51
-526.64
-481.8
-432.2
-381.13
-331.67
-286.12
-245.61
-210.17
-179.01
-151.08
-125.5
-101.71
-79.46
-58.75
-39.63
-22.13
-6.29
7.94
20.69
32.13
42.43
51.7
59.95
67.08
72.93
77.35
80.31
81.84
82.11
81.38
79.94
78.05
75.91
73.65
71.36
69.08
66.89
64.8
62.89
61.2
59.75
58.52
57.42
56.37
55.26
54.03
52.63
51.09
49.45
47.8
46.2
44.7
43.34
42.16
41.2
40.41
39.81
39.34
38.96
38.63
38.33
38.11
38.05
38.26
38.83
39.8
41.13
42.72
44.41
46.04
47.51
48.77
49.84
50.77
51.54
52.08
52.19
51.73
50.6
48.88
46.84
44.91
43.48
42.81
42.85
43.3
43.79
44.01
43.99
44.11
45.05
47.45
51.6
57.26
63.68
69.86
75.09
79.23
82.93
87.4
93.9
103.11
114.76
127.77
140.53
151.69
160.78
168.34
175.86
185.32
198.6
216.78
239.69
265.26
289.56
307.72
315.39
310.75
295.65
275.32
256.56
245.06
243.09
248.51
255.48
256.63
245.95
221.07
184.13
141.13
100.17
69
52.73
52.6
65.99
87.89
112.65
135.44
153.17
164.38
169.11
168.6
164.97
160.47
156.81
154.43
152.14
147.71
138.93
124.85
106.59
87.12
69.97
57.8
51.44
49.67
50.16
50.38
48.83
45.47
41.35
37.69
35.22
33.88
32.85
30.99
27.13
20.44
10.5
-2.27
-16.34
-29.13
-37.39
-38.72
-32.71
-21.85
-11.01
-5.4
-8.41
-20.35
-38.48
-58.39
-75.72
-86.96
-90.09
-84.62
-71.5
-53.14
-32.89
-14.16
0.55
10.27
15.67
18.13
18.56
16.7
11.37
1.39
-13.38
-31.76
-51.75
-70.76
-86.24
-96.12
-99.02
-94.64
-83.93
-68.99
-52.91
-38.98
-29.98
-27.44
-31.28
-39.62
-49.75
-59.03
-65.66
-69.23
-70.62
-71.51
-73.55
-77.71
-83.84
-90.63
-96.1
-98.43
-96.83
-91.67
-84.43
-76.71
-69.52
-63.12
-57.61
-53.4
-51.25
-51.61
-53.79
-55.64
-54.23
-47.22
-34.26
-17.05
1.73
19.7
35.58
49.01
59.71
66.68
68.65
65.22
57.46
47.56
37.66
28.58
19.51
9.01
-3.42
-16.49
-27.9
-35.75
-40.01
-42.55
-45.66
-50.25
-55.24
-58.46
-58.23
-55.02
-51.25
-49.53
-51.08
-55.02
-59.17
-61.8
-62.54
-62.08
-60.82
-58.06
-52.07
-41.44
-26.72
-10.93
1.52
6.74
3.09
-8.38
-24.34
-40.64
-53.43
-59.57
-56.83
-44.33
-22.89
4.72
34.4
61.97
84.57
101.47
113.74
122.82
129.38
133.14
133.4
129.97
123.71
116.24
108.88
102.15
95.83
89.56
83.51
78.33
74.65
72.58
71.74
72.02
73.9
77.76
83.19
88.35
90.63
88.04
80.64
70.6
61.05
54.08
50.02
47.57
45.59
44.12
43.95
45.31
46.22
42.75
31.01
9.84
-17.7
-45
-64.83
-72.41
-67.28
-52.89
-34.65
-17.82
-5.52
1.53
4.35
4.72
4.56
4.96
6.02
6.51
4.42
-1.97
-12.84
-26.33
-38.79
-46.29
-46.54
-40.02
-29.64
-19.1
-11.14
-6.36
-3.81
-2.03
-0.17
1.64
2.87
3.39
3.43
2.99
1.18
-3.55
-12.91
-27.77
-47.25
-68.69
-88.41
-103.04
-110.63
-111.55
-107.97
-103.02
-99.51
-98.82
-100.6
-103.26
-105.09
-105.15
-103.45
-100.43
-96.29
-90.72
-83.11
-73.42
-62.57
-52.03
-42.86
-35
-27.65
-20.17
-12.95
-7.49
-5.55
-7.61
-12.37
-17.23
-19.88
-19.7
-17.88
-16.22
-15.81
-16.41
-16.87
-16.23
-14.56
-13.09
-13.17
-15.25
-18.42
-21.17
-22.2
-21.4
-20.04
-20.18
-23.71
-31.37
-42.3
-54.05
-63.29
-67.04
-63.94
-55.15
-43.88
-34.09
-28.9
-29.61
-35.85
-46.17
-58.81
-72.03
-83.85
-92.04
-94.4
-89.64
-78.18
-62.13
-44.53
-28.3
-15.17
-5.38
1.76
7.19
11.77
16.16
20.81
25.67
30.32
33.98
36.09
36.94
38.03
41.48
48.81
59.79
72.36
83.64
91.51
95.69
97.49
98.64
99.63
99.17
95.15
86.09
72.4
56.28
40.44
26.75
15.71
6.96
0.05
-4.94
-7.65
-8.15
-7.18
-5.65
-3.74
-0.5
5.66
15.59
28.02
39.42
44.98
40.6
24.85
-0.07
-28.72
-53.85
-68.8
-69.42
-55.04
-28.14
6.73
44.59
81.18
113.31
138.7
155.88
164.4
165.07
160.07
152.13
143.26
133.81
122.77
108.75
91.58
72.96
55.66
42.26
33.79
29.58
27.92
27.4
27.37
27.36
26.55
23.28
15.74
3.43
-12.24
-28.36
-41.68
-50.11
-53.66
-54.09
-53.88
-54.99
-58.21
-62.94
-67.7
-70.69
-70.64
-67.48
-62.48
-57.94
-56.62
-60.79
-71.29
-87.04
-105.01
-120.65
-129.2
-127.21
-113.88
-91.59
-65
-39.18
-17.6
-1
12.43
25.32
39.21
53.76
67.16
77.28
82.64
82.81
77.85
68.17
54.73
39.15
23.59
10.37
1.22
-3.46
-4.48
-3.44
-2.1
-1.83
-3.33
-6.87
-12.35
-19.25
-26.96
-34.92
-42.51
-49.29
-55
-59.41
-62.46
-64.46
-65.81
-66.88
-68.15
-70.05
-72.91
-77
-82.33
-88.35
-94.22
-99.07
-102.4
-104.54
-106.77
-110.37
-115.6
-120.99
-123.75
-121.2
-112.5
-99.13
-83.96
-69.78
-57.76
-47.05
-35.57
-21.83
-6.06
9.74
22.61
30.16
31.67
27.96
20.48
10.65
-0.63
-12.68
-24.54
-34.92
-42.55
-46.74
-47.53
-45.54
-41.39
-35.12
-26.42
-15.29
-2.7
9.12
17.22
19.2
14.17
3.32
-10.52
-23.82
-33.43
-37.44
-35.23
-27.79
-17.53
-7.81
-2.04
-2.7
-10.25
-22.78
-37.15
-50
-59.13
-63.84
-64.81
-63.32
-60.98
-59.76
-62.09
-70.7
-87.76
-113.42
-145.05
-177.7
-205.57
-224.03
-230.97
-226.92
-213.93
-194.18
-168.95
-138.32
-101.63
-58.41
-9.58
41.71
89.78
127.67
149.83
155.15
148.36
139.02
137.66
151.11
179.68
217.61
256.54
290.06
315.99
335.68
351.25
362.6
366.51
358.17
333.6
291.45
232.99
161.35
81.23
-0.94
-76.52
-135.07
-166.88
-166.81
-137.39
-89.04
-37.17
3.2
22.12
17.4
-5.84
-37.73
-67.53
-87.3
-94.49
-93.21
-92.23
-101.22
-125.76
-163.78
-205.3
-237
-248.56
-237.89
-212.19
-183.6
-162.01
-149.57
-140.14
-124.01
-94.39
-52.36
-7.39
26.8
38.78
24.88
-8.96
-49.94
-83.86
-100.35
-95.97
-73.78
-41.03
-6.44
21.38
34.46
26.55
-5.87
-61.4
-132.6
-207.1
-270.93
-312.82
-327.69
-317.53
-289.04
-250.64
-209.76
-171.68
-139.73
-115.65
-99.52
-89.67
-82.54
-74.13
-61.6
-44.57
-25.05
-6.12
9.66
21.64
31.43
42.17
56.6
75.58
97.71
120.27
140.97
159.11
175.83
193.21
213.54
237.37
263.44
290.13
317.01
344.8
373.49
400.16
419.2
426.77
421.82
407.59
390.22
375.19
363.64
351.27
331.12
300.46
268.61
249.84
255.26
284.82
326.2
360.96
374.36
362.29
335.05
317.1
328.19
373.02
439.46
506.99
558.66
588.72
601.69
610.22
634.25
683.31
752.06
823.53
879.48
909.83
915.88
905.42
832.5
676
446.14
184.28
-62.83
-266.08
-416.77
-508.9
-560.45
-585.29
-585.31
-563.57
-527.47
-488.42
-456.06
-434.43
-422.44
-418.33
-418.1
-412.7
-397.19
-372.15
-342.74
-314.9
-292.05
-274.8
-263.49
-256.39
-248.21
-235.73
-218.83
-200.13
-183.04
-169.81
-161.38
-158.66
-161.08
-165.95
-171.11
-175.53
-179.35
-183.38
-188.46
-195.5
-205.8
-220.02
-237.67
-257.68
-278.86
-300.19
-321.08
-341.49
-361.93
-383.53
-407.62
-435.96
-470.32
-511.78
-559.34
-608.92
-653.21
-683.27
-691.49
-674.51
-634.74
-579.18
-516.9
-455.65
-399.74
-349.82
-304.25
-261.17
-219.84
-180.66
-143.92
-109.45
-76.58
-44.45
-12.34
20.1
52.57
84.11
113.25
139.67
163.29
184.27
202.73
218.96
233.67
247.61
261.55
276.3
294.55
318.1
345.81
372.71
391.45
395.72
383.59
359.06
331.04
312.03
311.23
330.51
364.3
403.5
440.32
470.99
495.36
499.93
475.2
419.72
341.95
255.14
170.91
96.98
37.5
-6.27
-35.8
-52.49
-59.16
-60.04
-59.43
-60.14
-62.46
-65.07
-66.43
-65.84
-61.7
-53.17
-41.13
-28.3
-18.84
-17.22
-27.26
-50.42
-84.54
-122.97
-157.28
-180.92
-190.67
-186.95
-172.77
-152.51
-130.14
-108.33
-88.01
-69.92
-56.27
-49.85
-52.79
-65.22
-84.91
-106.87
-124.2
-130.41
-118.6
-90.41
-53.15
-16.9
14.71
41.54
64.75
84.32
97.75
100.98
90.49
65.24
31.14
-0.86
-20.53
-23.13
-11.03
8.6
28
42.05
49.91
53.82
56.5
58.81
60.07
59.27
56.05
51.05
45.47
40.73
38.04
37.79
39.02
40.2
40.06
38.22
35.23
32.13
30.05
29.83
31.58
34.38
36.93
38.08
37.27
34.63
30.75
26.33
21.96
17.87
13.42
7.73
0.09
-9.69
-21.17
-33.24
-44.53
-53.75
-60.23
-64.29
-66.98
-69.64
-73.41
-78.7
-84.99
-91.18
-95.94
-98.62
-99.7
-100.49
-102.6
-107.63
-116.42
-128.56
-142.62
-156.25
-166.75
-171.78
-169.63
-159.08
-140.25
-114.66
-85.48
-57.38
-35.04
-21.52
-16.74
-19.53
-26.01
-32
-35.43
-36.98
-38.36
-39.93
-39.62
-34.2
-22.36
-6.98
4.81
4.91
-11.15
-40.86
-75.26
-103.21
-116.77
-114.29
-100.07
-81.27
-63.72
-49.25
-35.71
-19.17
2.82
29.77
58.85
86.26
108.72
124.15
132
132.62
126.71
115.39
100.36
83.85
68.82
58.51
55.91
63.15
80.38
105.08
132.26
155.79
170.58
174.68
169.91
160.88
152.47
147.23
144.68
142.23
136.97
127.21
113.22
96.76
80.14
65.47
54.35
47.95
46.72
49.73
54.14
55.54
49.16
31.98
4.37
-29.6
-63.42
-90.69
-106.96
-110.91
-103.76
-88.67
-69.21
-48.95
-30.66
-16.2
-6.18
0.06
4.19
7.8
11.37
14.04
13.9
9.11
-0.6
-13.55
-26.59
-36.12
-39.7
-36.5
-27.3
-13.85
1.76
17.57
31.7
42.47
48.6
49.8
46.93
41.63
35.92
30.81
26.19
20.79
13.56
4.47
-4.63
-10.84
-11.63
-6.4
2.48
10.2
11.45
2.64
-16.16
-40.97
-64.91
-80.94
-84.59
-75.09
-55.41
-30.69
-6.73
11.24
19.4
15.81
0.53
-24.07
-53.57
-82.49
-106.36
-123.17
-133.79
-140.53
-144.86
-145.72
-140.48
-127.9
-111.14
-97.83
-96.85
-112.37
-139.86
-166.77
-178.89
-169.02
-142
-113.31
-100.19
-111.91
-144.42
-182.35
-207.29
-207.12
-181.19
-138.91
-93.33
-53.57
-22.18
3.92
29.6
58.06
89.33
121.71
154.28
187.9
225.61
267.81
309.8
342.43
356.51
348.09
321.68
289.53
266.8
268.99
302.72
363.94
440.57
517.7
582.14
624.96
642.08
633.62
608.67
576.83
545.71
519.65
500.02
486.39
477.27
470.39
462.36
456.18
451.41
443.49
425.22
390.9
339.68
277.29
214.19
124.13
4.1
-131.88
-261.3
-369.09
-452.86
-517.39
-566.26
-596.87
-613.55
-613.36
-595.21
-560
-510.81
-451.46
-386.69
-322.88
-267.9
-230.68
-211.98
-214.96
-236.23
-266.38
-289.63
-302.94
-309.64
-316.16
-329.12
-349.83
-378.04
-410.84
-443.72
-470.79
-486.76
-486.96
-470.44
-441.42
-405.19
-367.8
-332.92
-301.61
-272.83
-245.5
-218.21
-190.44
-162.74
-134.52
-104.45
-70.45
-30.98
14.56
64.79
117.21
168.28
213.77
251.11
279.82
301.71
319.92
338.58
360.9
388.98
423.05
460.44
497.91
530.64
552.28
556.53
540.53
505.52
456.74
401.21
343.47
287.25
232.99
178.05
119.23
56.96
-4.74
-59.23
-99.89
-124.51
-131.72
-123.39
-103.96
-91.84
-101.72
-138.85
-195.47
-244.39
-280.18
-305.09
-322.57
-336.49
-344.79
-341.78
-322.87
-287.32
-239.4
-188.63
-142.2
-104.24
-73.31
-44.78
-12.63
27.04
74.77
127.79
179.94
226.87
265.37
296.27
321.96
345.45
369.21
394.9
422.98
451.43
477.97
478.88
439.35
358.32
250.02
136.1
34.59
-46.28
-107.91
-155.75
-192.72
-220.86
-238.43
-242.44
-231.39
-206.2
-169.3
-123.51
-71.11
-18.99
26.26
56.66
64.83
47.96
10.29
-38
-85.03
-122.17
-146.77
-159.46
-162.76
-159.08
-149.89
-136.21
-119.72
-102.91
-88.88
-80.19
-76.61
-75.59
-73.76
-68.25
-58.12
-44.73
-30.52
-18.34
-10.48
-7.52
-8.69
-12.28
-16.8
-21.57
-27.14
-34.14
-43.11
-53.92
-65.5
-76.02
-83.37
-85.88
-80.92
-69.85
-54.72
-37.85
-21.19
-6.09
6.8
17.36
25.91
32.81
38.08
42.1
45.16
47.66
50.01
52.55
55.49
58.89
62.61
66.04
68.81
70.38
70.33
68.27
63.88
57.02
47.73
36.26
22.89
8.92
-4.94
-17.98
-29.5
-39
-46.21
-51.11
-53.95
-55.22
-55.34
-54.73
-53.74
-52.59
-51.34
-50.07
-48.81
-47.71
-46.97
-46.67
-46.82
-47.42
-48.29
-49.13
-49.69
-49.81
-49.49
-48.77
-48.58
-48.11
-46.86
-44.28
-39.85
-33.36
-25.15
-16.12
-7.49
-0.44
4.46
7.17
8.43
9.3
10.65
12.61
14.4
14.77
12.51
7.35
-0.03
-7.94
-14.42
-18.05
-18.7
-17.65
-16.93
-18.6
-23.85
-32.86
-44.6
-56.71
-65.96
-68.78
-62.27
-45.19
-19.26
10.7
38.1
56.63
62.85
57.85
46.46
34.57
26.4
22.55
20.31
15.56
5.71
-8.72
-24.22
-35.94
-40.29
-36.84
-28.66
-20.74
-17.61
-22.04
-33.82
-50.06
-66.77
-80.97
-91.74
-99.95
-106.73
-112.12
-114.6
-111.6
-101.17
-83.31
-59.64
-32.59
-4.96
20.43
40.54
52.26
53.46
44.52
29.05
13.01
3.16
4.54
18.67
43.39
74.02
104.86
130.99
149.21
158.53
159.91
155.61
148.51
141.31
135.69
131.94
128.9
124.63
117.3
106.21
92.36
78.2
66.33
58.15
53.06
48.92
43.64
36.51
28.68
21.88
16.98
12.82
6.51
-4.67
-21.27
-41.35
-61.99
-81.1
-98.65
-115.93
-133.87
-151.3
-164.35
-168.27
-160.33
-141.9
-118.25
-96.36
-81.66
-75.49
-74.92
-74.7
-70.42
-60.7
-47.46
-34.44
-24.68
-18.66
-14.13
-7.42
4.52
22.35
44.27
67.28
88.48
105.98
119.03
127.87
132.98
134.73
133.27
128.86
122.16
114.09
105.63
97.92
91.47
85.76
79.48
71.1
59.77
46.37
33.74
25.61
24.89
31.84
43.71
55.57
62.1
59.57
46.69
24.34
-4.84
-36.86
-67.04
-90.71
-103.89
-104.5
-93.22
-73.36
-50.05
-28.73
-13.89
-8.22
-11.85
-22.45
-36.37
-49.77
-59.73
-65.02
-65.65
-61.84
-53.47
-40.24
-22.41
-1.67
18.84
35.66
46.54
51.36
51.73
50.15
49.06
50.02
53.32
58.16
62.56
63.44
57.24
41.34
15.59
-17.21
-52.11
-83.82
-108.24
-123.18
-128.19
-123.94
-112.3
-96.39
-80.19
-67.81
-62.78
-67.02
-80.32
-100.53
-123.64
-144.72
-159.03
-163.57
-158.26
-146.5
-134.65
-130.25
-139.37
-164.02
-201.22
-243.87
-283.27
-311.85
-325.12
-322.3
-305.51
-278.62
-245.63
-209.87
-173.89
-139.56
-108.09
-79.69
-53.53
-28.41
-3.74
19.69
39.55
53.13
59.22
59.17
56.95
57.55
65.21
81.9
107.31
139.58
176.21
214.14
249.47
277.57
294.06
297.22
289.79
279.32
275.47
285.6
310.7
343.7
371.82
381.95
366.67
327.95
276.89
229.29
199.46
194.81
213.52
246.47
281.71
309.52
325.48
330.42
327.59
319.2
304.72
281.26
245.88
197.99
140.66
79.79
22.66
-23.6
-52.9
-60.71
-44.9
-7.04
46.83
106.74
160.95
199.32
215.8
209.62
184.18
145.1
98.44
49.51
2.71
-38.38
-70.91
-93.13
-104.87
-107.94
-106.02
-103.65
-105.16
-113.34
-128.79
-150.3
-176.13
-205.29
-238.02
-274.92
-315.05
-354.8
-387.48
-405.01
-400.59
-371.67
-321.66
-259.78
-199.15
-152.97
-130.98
-135.59
-161.22
-195.96
-225.36
-236.91
-223.66
-185.05
-125.77
-53.83
21.37
89.79
141.91
170.46
172.54
151.35
116.22
80.42
57.18
55.9
79.26
122.69
176.07
226.56
262.24
275.04
262.61
228.29
179.5
124.97
71.87
23.83
-20.03
-63.57
-111.08
-164.61
-221.95
-276.48
-319.45
-342.99
-342.7
-318.65
-274.7
-217.18
-153.95
-94.24
-48.35
-26.24
-34.42
-72.35
-130.81
-193.74
-243.42
-266.77
-259.45
-226.05
-176.77
-122.63
-71.55
-27.05
11.11
45.35
78.88
114.52
153.78
195.66
236.14
268.47
284.88
279.15
248.63
195.09
124.07
43.71
-36.74
-107.78
-160.6
-188.59
-189.13
-164.8
-123.05
-74
-27.21
11.38
40.58
62.98
82.19
100.35
116.98
129.83
136.69
137.09
132.75
126.38
120.08
114.07
107.02
97.39
84.98
71.41
59.69
53.47
55.86
68.63
91.72
122.94
157.77
190.3
215.16
229.48
234.09
232.74
230.08
229.18
230.22
230.99
228.63
221.26
208.51
191.07
169.97
146.6
122.87
101.28
84.21
72.75
66.05
61.29
55.02
44.56
29.26
10.4
-9.56
-27.73
-41.71
-50.2
-53.34
-52.75
-51.35
-52.46
-58.49
-69.88
-84.94
-100.99
-115.76
-128.51
-140.15
-152.24
-165.72
-180.6
-196.24
-211.71
-225.96
-237.29
-243.2
-240.93
-228.73
-206.87
-178.05
-146.83
-118.09
-95.62
-81.24
-74.7
-74.28
-77.39
-81.41
-84.41
-85.78
-85.96
-86
-86.53
-86.95
-85.4
-79.46
-67.25
-48.21
-23.26
5.49
35.23
63.08
86.5
103.98
115.2
120.86
122.19
120.36
116.33
110.74
104.11
96.82
88.81
79.41
67.24
50.89
29.91
5.45
-19.66
-41.58
-57.09
-65.09
-67.17
-66.86
-68.12
-73.78
-84.6
-99.36
-115.52
-130.44
-142.26
-150.12
-153.42
-151.58
-144.44
-132.62
-117.96
-102.99
-89.9
-79.79
-72.49
-66.92
-62.08
-58.01
-55.41
-54.97
-56.55
-59.19
-61.29
-61.45
-59.24
-54.92
-49.08
-41.98
-33.71
-24.52
-15.25
-6.9
0.03
5.78
11.36
17.81
25.55
34.12
42.72
50.95
59.07
67.73
77.13
86.19
92.92
95.2
91.76
83.15
71.34
58.8
47.45
38.03
30.32
23.61
17.23
11.07
5.42
0.89
-1.65
-1.25
2.86
11.19
23.57
38.85
54.91
68.76
77.1
77.2
67.88
50.41
28.64
8.21
-5.46
-8.94
-1.74
13.74
33.54
53.53
70.78
84.28
94.24
101.37
106.4
109.87
112.35
114.46
116.36
117.56
117.26
114.72
110.11
105.07
101.86
102.11
105.62
110.17
112.8
111.4
105.83
97.8
89.58
82.21
75
66.6
56.42
45.38
35.3
27.42
21.28
15
6.64
-3.97
-14.63
-21.9
-23.17
-18.43
-10.73
-4.99
-5.64
-14.65
-30.53
-49.18
-65.76
-76.55
-80.22
-77.59
-70.75
-61.81
-52.18
-42.55
-33.08
-23.93
-15.11
-6.25
3.3
13.97
25.34
35.72
42.47
42.91
35.25
19.66
-1.74
-25.82
-49.86
-72.47
-93.51
-113.19
-130.9
-144.88
-152.29
-150.61
-139.1
-120.11
-99.09
-83.47
-80.91
-97.09
-133.62
-186.83
-248.06
-305.59
-347.95
-367.46
-362.05
-335.33
-293.98
-244.11
-189.42
-131.75
-73.26
-18.18
26.57
53.69
59.09
44.21
15.47
-18.85
-52.33
-82.76
-111.81
-142.78
-177.39
-214.09
-248.23
-274.05
-287.13
-285.88
-271.8
-248.55
-220.51
-191.41
-163.39
-136.82
-110.96
-85.06
-58.53
-31.16
-2.88
26.91
59.29
95.25
134.95
177.44
220.67
262.17
299.91
333.13
362.82
391.82
424.15
463.38
510.59
562.47
611.34
647.1
660.82
648.33
612.03
559.79
501.53
445.4
395.07
349.58
305.32
258.88
208.69
155.31
100.53
45.87
-7.84
-60
-109.26
-153.37
-189.76
-216.89
-235.32
-246.96
-253.16
-253.04
-243.12
-219.07
-178.88
-124.93
-64.37
-7.39
36.02
58.92
59.53
41.82
14.22
-13.12
-32.2
-40.12
-40.11
-39.61
-46.61
-65.9
-97.72
-139.39
-188.01
-242.31
-301.76
-363.89
-421.58
-464.59
-483.6
-474.7
-441.81
-395.02
-346.13
-304.17
-272.78
-249.27
-228.44
-205.86
-179.64
-149.72
-116.17
-78.53
-36.68
7.84
53.43
96.22
130.47
150.57
153.58
141.02
118.64
94.3
75.52
71.06
85.43
117.4
160.64
206.97
250.08
287.42
319.68
349.25
383.48
427.78
483.11
545.91
610.31
670.88
724.1
767.91
770.06
710.32
588.56
427.21
257.53
103.42
-24.1
-123.75
-199.06
-254.99
-291.47
-308.24
-307.38
-294.33
-276.27
-259.45
-247.82
-242.98
-244.57
-246.89
-243.02
-228.16
-201.96
-169.14
-137.28
-115
-109.42
-123.76
-154.05
-191.38
-225.38
-247.53
-252.56
-238.88
-208.59
-166.76
-118.56
-72.49
-35.97
-13.02
-3.4
-2.84
-4.49
-2.84
5.21
19.62
37.33
53.7
63.68
62.35
49.04
27.84
5.66
-11.05
-18.87
-18.6
-13.22
-5.88
1.51
8.73
15.88
22.35
26.76
27.77
24.93
19.51
13.82
10.22
10.15
13.42
18.38
22.88
25.23
24.8
22.34
19.45
17.74
18.34
21.27
25.65
30.17
33.69
35.69
36.37
36.44
36.56
37.13
37.94
38.34
37.53
34.83
29.99
23.34
15.59
7.51
-0.14
-6.88
-12.46
-16.81
-19.95
-21.9
-22.6
-22
-20.26
-17.6
-14.31
-10.73
-7.15
-3.75
-0.54
2.68
6.23
10.1
14.27
18.52
22.52
25.96
28.66
30.82
32.95
35.77
39.36
43.66
48.15
52.09
54.73
55.7
55.23
54.09
53.37
53.28
53.63
53.51
51.53
46.21
36.46
21.7
1.48
-20.41
-42.4
-63.9
-85.19
-106.97
-129.99
-155.19
-183.56
-216.02
-252.4
-290.88
-326.27
-351.04
-357.95
-343.34
-309.01
-261.64
-209.72
-160.18
-116.83
-80.58
-51.68
-31.43
-21.81
-23.52
-33.85
-46.55
-54.17
-51.6
-38.01
-16.53
7.99
31.27
50.92
65.97
76.05
80.87
80.87
77.76
74.73
74.89
79.61
87.48
94.9
98.11
95.24
87.05
76.33
66.1
58.29
53.16
50.1
48.42
47.58
46.58
43.4
34.84
17.95
-8.06
-40.48
-73.15
-98.94
-112.55
-112.72
-102.57
-87.93
-74.26
-63.97
-55.93
-46.81
-33.94
-17.08
1.09
16.53
26.22
29.43
27.73
23.5
18.31
12.47
5.81
-0.67
-4.34
-1.99
8.27
25.32
44.81
61.02
69.75
70.03
64.25
56.63
50.94
48.82
49.45
50.73
50.7
48.58
44.72
39.9
34.66
29.07
22.91
16.06
8.94
2.02
-4.1
-9.43
-14.41
-19.64
-25.57
-32.13
-38.93
-45.32
-50.81
-55.35
-59.2
-62.85
-66.86
-71.32
-75.36
-77.1
-74.43
-65.65
-50.87
-31.99
-12.17
5.75
20.52
32.74
43.91
54.77
64.45
70.65
71.22
65.81
56.82
48.05
42.49
40.71
40.78
40.04
36.99
32.75
30.14
32.04
39.13
49.27
58.94
65.06
66.49
64
59.4
54.13
48.95
44.41
40.99
39.15
38.5
37.63
34.72
28.8
20.61
12.64
7.61
6.55
8.14
9.45
8.12
4.11
-0.47
-2.36
1.1
10.45
24.03
38.93
51.64
58.94
58.1
47.5
27.59
2.01
-23.17
-41.25
-47.3
-40.36
-23.61
-2.93
15.71
28.7
36.73
42.83
50.27
60.75
73.61
86.48
96.42
100.85
98.24
90.72
81.98
76.63
79.42
94.97
126.49
173.8
232.1
292.01
344.97
382.79
400.34
397.01
377.07
348.19
318.59
293.94
275.73
265.7
262.49
262.94
263.65
263.15
262.82
265.73
274.29
262.27
213.45
125.53
13.02
-101.95
-201.65
-278.01
-331.37
-367.14
-392.24
-407.32
-411.14
-402.71
-383.38
-357
-328.67
-303.3
-284.4
-273.44
-266.37
-258.45
-246.32
-229.54
-210.22
-191.57
-176.48
-166.57
-161.99
-159.25
-154.58
-145.42
-131.47
-114.39
-96.71
-80.79
-67.56
-56.77
-46.07
-33.08
-16.47
3.31
24.36
44.2
60.77
73.3
82.29
89.69
97.8
108.85
124.49
145.23
169.48
193.23
210.4
214.36
200.59
168.97
124.45
75.56
31.25
-2.76
-25.15
-38.44
-47
-54.73
-63.8
-74.8
-87.62
-99.94
-110.51
-118.35
-122.56
-122.53
-118.04
-109.14
-96.28
-80.16
-61.93
-43.88
-28.76
-19.03
-15.78
-17.97
-22.55
-25.66
-24.26
-17.4
-7.33
2.29
7.97
7.87
2.1
-7.96
-20.51
-33.66
-45.34
-54.09
-58.1
-55.78
-46.96
-33.99
-21.65
-15.42
-18.38
-28.93
-42.33
-51.42
-50
-36.13
-13.52
9.61
24.14
24.19
9.15
-19.67
-59.81
-109.22
-166.26
-228.15
-289.51
-342.23
-377.1
-377.1
-335.77
-260.86
-172.09
-91.3
-32.24
2.94
20.4
27.56
33.31
41.82
55.09
74.81
103.06
141.22
188.3
237.75
278.52
299.75
294.22
263.44
217.08
168.25
127.51
99.19
81.62
70.57
62.9
56.7
51.74
48.25
45.94
43.81
40.71
35.92
29.94
24.44
20.83
19.8
21.03
23.44
25.63
26.53
25.71
23.71
21.89
21.47
23.08
26.52
30.89
35.04
38
39.19
38.72
37.17
35.18
33.24
31.16
28.57
25.09
20.66
15.42
9.92
4.94
1.14
-0.99
-1.37
-0.1
2.56
6.42
11
16.03
21.36
26.92
32.63
38.48
44.47
50.63
57.09
63.51
69.73
75.73
81.54
87.31
93.2
99.36
105.92
113.04
120.17
126.92
132.93
137.91
141.53
143.27
142.32
137.15
130.06
121.32
111.04
99.31
86.44
72.97
59.48
46.46
34.15
22.51
10.61
-2.21
-16.3
-31.51
-47.26
-62.81
-77.66
-91.78
-105.64
-120.55
-137.55
-157.16
-179.11
-202.42
-225.87
-248.46
-269.74
-289.93
-310.21
-332.03
-356.89
-385.84
-419.06
-455.27
-491.04
-521.02
-538.98
-539.99
-522.38
-488.76
-445.07
-398.19
-353.13
-311.22
-270.42
-227.49
-180.2
-128.85
-76.02
-25.08
21.14
60.74
92.36
114.64
126.12
126.4
117.49
104.02
91.99
86.28
88.52
96.39
104.82
108.81
105.73
96.01
82.33
67.81
54.55
43.24
33.98
26.99
22.86
21.82
22.99
24.55
24.5
21.68
16.86
12.14
9.66
10.47
14.21
19.43
24.77
30.32
37.33
47.02
59
70.35
76.3
72.34
56.49
30.41
-1.24
-32.88
-59.91
-79.88
-92.18
-96.85
-93.4
-80.95
-59.08
-28.79
7.15
44.95
80.93
112.61
138.94
159.63
174.49
182.96
184.15
177.41
163.4
144.42
124.04
106.29
94.22
89.04
89.99
95.16
102.47
110.29
117.29
122.15
123.26
118.54
106.89
89.23
69.03
51.4
41.41
41.88
52.25
68.96
87.06
102.41
113.03
119.55
124.46
130.46
138.52
147.03
151.9
147.98
131.41
101.6
62.23
20.54
-14.77
-36.38
-41.03
-30.28
-9.39
15.1
37.56
54.8
66.51
74.1
79.67
84.9
90.42
95.74
99.54
100.1
95.92
86.05
70.4
50.44
29.12
10.24
-2.43
-6.49
-1.89
9.08
22.39
33.66
39.85
40.34
36.58
30.81
24.7
18.7
12.27
4.93
-2.83
-9.51
-13.65
-15.05
-14.72
-14.02
-13.58
-12.59
-9.52
-3.63
3.48
7.58
3.9
-9.98
-32.34
-57.36
-77.36
-86.35
-82.39
-68.18
-49.11
-30.37
-14.55
-1.38
10.9
23.71
36.62
47.3
53
52.14
44.94
32.93
17.87
1
-16.61
-33.74
-48.46
-58.44
-61.97
-59
-51.2
-41.38
-32.34
-26.28
-24.64
-27.99
-35.92
-47.2
-59.53
-70.33
-77.95
-82.43
-85.45
-89.38
-95.81
-104.4
-112.95
-118.77
-119.72
-114.67
-103.35
-86.18
-64.26
-39.8
-16.41
1.39
9.95
8.1
-2.28
-16.66
-29.46
-36.14
-34.59
-25.27
-10.48
6.9
24.43
40.49
54.26
64.91
71.63
73.98
71.99
66.27
57.97
48.3
37.83
26.32
13.43
-0.93
-16.31
-31.73
-45.9
-58.07
-67.92
-75.44
-80.87
-84.77
-87.98
-91.3
-95.23
-99.49
-102.77
-103.47
-100.8
-95.32
-88.76
-83.19
-79.8
-78.24
-76.73
-73.34
-67.16
-58.39
-47.85
-36.16
-23.35
-9.17
5.78
19.31
28.05
29.04
21.34
6.83
-10.1
-24.39
-31.93
-30.73
-20.72
-3.13
20.12
47.04
75.35
102.42
125.77
143.84
156.16
163.35
166.5
166.39
162.98
156
145.47
132.18
117.67
103.86
92.8
86.15
84.97
89.73
99.84
113.45
127.55
139
145.59
146.84
143.94
139.14
134.23
129.81
125.45
119.98
112.02
100.43
84.8
65.89
46.08
29.31
19.93
20.69
31.03
46.4
59.32
62.29
50.89
25.66
-8.26
-42.98
-70.53
-85.46
-86.46
-75.86
-58.28
-38.51
-20.02
-4.38
8.14
17.55
23.47
25.49
23.78
19.19
12.96
6.02
-1.78
-11.55
-24.85
-42.37
-63.07
-83.88
-100.85
-110.5
-111.35
-104.75
-94.41
-85.09
-80.58
-81.98
-87.48
-93.77
-97.8
-98.3
-96.4
-94.34
-93.84
-95.09
-97.01
-98.54
-99.77
-101.55
-104.24
-106.78
-106.34
-99.55
-84.77
-63.29
-39.1
-17.51
-3.06
2.18
-1.03
-9.78
-20.47
-30.37
-38.05
-43.16
-45.72
-45.2
-40.37
-29.53
-11.45
13.13
41
67.17
86.69
96.54
96.6
89.19
77.61
64.69
51.77
38.85
25.57
11.84
-1.93
-14.44
-24.35
-30.94
-34.5
-36.43
-38.96
-44.23
-53.53
-66.91
-83.04
-99.75
-114.78
-126.48
-133.96
-137.05
-136.28
-132.56
-127.06
-120.81
-114.44
-107.89
-100.3
-90.19
-76.25
-58.15
-37.01
-15.41
3.04
14.77
17.48
11.14
-1.8
-16.85
-28.96
-34.05
-30.34
-18.55
-1.37
17.95
37.05
55.04
72.38
90.14
108.84
127.71
144.88
158.15
165.85
167.8
165.18
160.19
154.94
150.75
148.12
146.95
147.36
150.03
156.08
166.2
179.74
194.37
206.62
212.95
211.35
202.46
189.27
176.09
166.69
162.74
163.09
164.3
162.34
154.03
138.18
115.56
88.34
59.54
32.8
11.94
0.04
-1.81
4.05
11.87
14.1
4.37
-19.66
-55.22
-95.51
-132.49
-159.3
-172.28
-171.07
-157.94
-136.85
-112.54
-89.71
-71.68
-59.9
-53.98
-52.55
-54.26
-58.62
-65.84
-76.01
-88.65
-102.34
-115.02
-124.69
-129.78
-129.17
-122.5
-110.26
-93.91
-75.79
-58.43
-43.83
-32.84
-25.09
-19.61
-15.51
-12.61
-11.14
-11.55
-14.11
-18.5
-23.99
-29.69
-34.58
-37.76
-38.65
-37.47
-35.18
-33.11
-32.56
-34.09
-37.15
-40.33
-42.11
-41.63
-39.08
-35.47
-32.13
-30.25
-30.76
-34.48
-42.18
-54.04
-69.09
-84.95
-98.17
-105.36
-104.52
-95.7
-80.53
-61.3
-40.09
-18.43
2.21
20.01
32.95
39.39
39.02
32.94
23.13
11.76
0.48
-9.59
-17.66
-23.12
-25.51
-24.97
-22.4
-19.24
-16.7
-15.34
-14.91
-14.79
-14.78
-15.44
-17.65
-22
-28.46
-36.14
-43.84
-50.79
-56.69
-61.55
-65.1
-66.68
-65.44
-60.7
-52.61
-42.39
-32.03
-23.86
-19.53
-19.32
-22.24
-26.24
-28.96
-28.47
-23.64
-14.4
-1.93
11.2
21.38
24.69
18.03
0.66
-25
-53.72
-78.84
-94.66
-98.43
-90.89
-75.5
-56.98
-39.18
-24.12
-11.48
0.65
14.2
29.46
43.92
52.9
51.71
37.99
13.99
-13.67
-36.36
-46.48
-40.12
-17.89
16.1
55.82
95.41
130.49
158.84
180.98
200.18
221.91
252
294.09
347.39
405.83
459.78
499.23
517.43
513
489.78
454.58
414.45
374.5
337.34
303.7
273.39
245.95
220.81
196.51
170.78
141.24
106.38
66.56
23.99
-18.1
-56.7
-90.34
-119.82
-148.06
-178.78
-214.78
-256.23
-299.91
-339.5
-367.56
-378.26
-369.56
-344.06
-307.85
-267.97
-229.87
-196.3
-167.59
-142.85
-121.2
-102.22
-85.94
-72.52
-61.89
-53.78
-47.79
-43.42
-39.83
-35.86
-30.11
-21.51
-9.56
5.26
21.62
37.62
51.19
60.82
65.82
66.54
64.15
60.39
56.91
54.87
55.04
57.58
61.98
67.27
72.49
76.95
80.83
85.08
90.76
98.65
108.62
119.8
131.21
142.26
152.61
161.48
167.04
166.44
156.97
137.11
107.39
70.31
29.45
-11.88
-51.51
-88.5
-122.99
-155.72
-187.58
-219.63
-253.48
-291.44
-336.02
-388.45
-447.19
-506.93
-559.32
-595.54
-609.69
-601.16
-575.01
-539.59
-503.19
-471.01
-444.2
-420.97
-398.82
-376.32
-353.47
-331.03
-309.36
-287.9
-265.57
-241.58
-215.96
-189.77
-164.71
-142.16
-122.59
-105.02
-87.74
-69.13
-48.52
-26.27
-3.66
17.61
36.1
50.95
62.44
71.31
78.35
83.83
87.54
89.02
87.79
83.72
77.01
69.13
61.53
55
49.31
43.62
36.95
28.59
18.17
5.67
-6.22
-15.08
-19.95
-21.58
-21.42
-20.54
-19.13
-16.68
-12.56
-1.34
20.82
54.18
95
138
179.01
216.2
249.71
280.7
318.55
370.52
438.29
517.09
599.17
678.11
750.57
815.67
873.72
935.44
1008.7
1094.3
1184.9
1269.8
1340.4
1393
1427.3
1380.9
1220.1
951.89
624.48
297.81
13.16
-214.34
-387.09
-514.74
-608.01
-665.79
-687.57
-677.95
-647.99
-611.21
-578.19
-554.31
-540.56
-535.22
-527.67
-509.33
-477.61
-436.87
-395
-358.71
-331.23
-312.27
-299.49
-284.38
-260
-223.98
-179.44
-132.76
-90.2
-55.73
-30.22
-12.07
3.95
22.69
46.82
76.26
108.69
140.1
165.85
181.13
181.75
166.14
135.78
95.05
50.01
6.15
-34.01
-70.21
-103.57
-132.66
-155.62
-170.31
-175.84
-173.37
-166.87
-162.87
-167.06
-182.54
-209.21
-244.3
-282.7
-318.28
-344.77
-350.15
-327.75
-278.6
-212.5
-143.87
-84.54
-38.4
-4.26
25.96
59
93.04
120.73
135.18
132.75
114.14
85.4
56.24
36.31
30.35
35.82
46.32
55.46
59.97
60.77
61.26
64.31
70.42
77.07
80.17
77.31
68.91
57.68
47.47
41.22
39.91
42.42
46.03
47.74
46
41.17
34.97
29.58
26.69
26.77
29.09
32.09
34.19
34.63
33.69
32.29
31.51
32.1
34.19
37.27
40.41
42.74
43.69
43.15
41.29
38.3
34.38
29.67
24.23
18.17
11.72
5.26
-0.76
-5.88
-9.75
-12.15
-13
-12.46
-10.76
-8.11
-4.73
-0.79
3.57
8.26
13.25
18.57
24
29.39
34.69
39.85
44.84
49.76
54.66
59.75
65.34
71.25
77.46
83.96
90.8
97.96
105.48
113.36
121.66
130.54
139.46
148.04
155.93
162.71
167.92
170.95
170.92
166.41
160.04
152.49
144.19
135.38
126.21
116.84
107.46
98.32
89.74
82.11
75.1
68.45
61.84
54.95
47.55
39.56
31.14
22.63
14.47
6.54
-1.34
-9.5
-18.35
-28.19
-39.05
-50.6
-62.18
-73.06
-83.04
-92.27
-101.29
-110.89
-121.79
-134.31
-148.25
-162.97
-177.88
-192.78
-207.86
-223.71
-241.02
-260.5
-282.83
-308.6
-337.78
-369.18
-400.13
-426.68
-444.7
-451.36
-445.93
-429.78
-405.21
-374.26
-338.14
-297.79
-254.36
-209.98
-167.39
-129.35
-98.07
-74.77
-59.66
-51.82
-49.2
-48.71
-47.03
-42.11
-34.76
-28.27
-26.48
-31.34
-41.23
-51.56
-57.2
-55.46
-47.29
-35.98
-25.09
-16.62
-11.34
-10.26
-15
-27.37
-47.03
-70.27
-90.82
-102.9
-104.18
-97.36
-88.29
-82.13
-80.96
-83.06
-84.97
-83.79
-78.65
-70.46
-60.29
-48.54
-35.33
-21.46
-8.4
2.24
9.94
15.78
21.89
30.03
40.06
50.04
56.87
58.51
55
48.46
42.2
38.98
40.36
46.56
57.25
72.15
91.15
113.59
137.54
159.98
177.44
187.53
190.02
187.06
182
177.8
175.89
175.85
176.22
175.14
171.29
164.39
155.27
145.42
136.61
130.11
126
123.1
119.3
112.73
102.78
90.57
78.55
69.41
64.72
63.87
64.24
62.04
53.61
36.88
12.3
-17.09
-45.96
-67.99
-77.71
-71.8
-50.19
-15.89
25.98
69.64
110.34
145.23
173.46
195.48
212.04
223.58
230.09
231.61
228.46
221.23
210.56
197.1
181.52
164.69
148.22
134.13
124.42
120.11
120.69
123.97
126.61
125.58
119.32
108.47
95.13
81.68
69.32
57.44
43.92
26.82
5.84
-17.04
-38.39
-55.58
-68.18
-77.73
-86.11
-93.43
-97.35
-94.77
-84.66
-70.22
-58.28
-56.11
-67.49
-90.77
-119.36
-145.23
-162.74
-170.75
-171.5
-167.84
-160.62
-148.57
-130.09
-105.03
-75.8
-46.75
-21.84
-2.92
10.24
19.02
24.38
26.04
22.97
14.39
0.67
-16.37
-34.17
-50.27
-62.6
-69.47
-69.83
-63.79
-52.52
-38.01
-22.22
-7.07
5.78
14.57
17.46
13.28
2.85
-10.47
-21.78
-26.8
-24.44
-17.1
-8.84
-2.96
0.03
2.18
5.68
10.47
14.08
13.2
6.02
-6.86
-23.48
-41.88
-60.99
-80.04
-97.92
-112.5
-121.93
-126.12
-126.9
-126.92
-127.43
-127.26
-123.35
-112.9
-95.28
-72.88
-49.39
-27.89
-9.89
4.45
15.19
21.48
22.02
16.52
6.42
-5.16
-14.67
-19.98
-21.11
-19.71
-17.36
-14.56
-10.11
-2.41
9.24
24.02
39.58
53.17
62.76
67.62
68.2
65.75
61.88
58.2
56.3
57.14
60.73
65.79
70
70.96
67.18
58.14
44.87
29.53
14.47
2.02
-6.03
-8.57
-5.36
3.06
14.55
25.71
33.75
36.57
33.47
25.19
13.01
-1.91
-19.49
-40.99
-67.84
-98.46
-129.69
-158.1
-181.14
-197.58
-207.07
-209.59
-205.29
-194.2
-173.43
-142.08
-102.79
-61.6
-24.95
3.1
21.71
32.52
38.51
48.41
68.78
101.56
143.58
189.71
236.28
282.16
327.78
374.3
429.95
500.53
585.75
678.56
769.27
849.94
916.03
965.61
952.11
849.54
664.58
436.1
209.64
14.65
-139.16
-254.27
-338.04
-398.39
-434.84
-447.06
-438.46
-417.15
-392.4
-370.93
-355.86
-347.86
-346.33
-344.46
-336.33
-319.79
-297.12
-272.48
-249.01
-228.1
-210.63
-196.42
-181.66
-163.21
-140.14
-114.4
-89.33
-68.55
-54.44
-48.49
-50.91
-59.06
-69.2
-77.46
-81.42
-79.45
-70.25
-52.69
-26.49
6.99
44.43
79.04
102.9
109.91
98.88
74.45
45.26
20.12
4.37
-1.59
-1.16
1.47
3.71
5.33
7.4
10.74
14.78
17.95
18.77
16.81
13.27
10.06
9.1
11.17
15.75
21.36
26.3
29.43
30.52
30.3
29.9
30.22
31.45
32.98
33.85
32.76
28.86
22.02
12.75
2
-9.08
-19.5
-28.52
-35.74
-41.12
-44.85
-47.41
-49.35
-51.16
-52.99
-54.65
-55.75
-55.84
-54.79
-52.89
-51.02
-50.25
-51.48
-54.72
-59.25
-63.74
-66.93
-68.15
-67.66
-66.6
-66.28
-67.95
-72
-78.54
-87.43
-98.09
-108.7
-115.87
-115.48
-104.18
-81.35
-49.53
-14.05
19.52
47.77
70.37
88.96
104.86
117.63
122.36
115.05
94.46
63.52
28.91
-1.42
-21.11
-27.37
-21.13
-6.07
13.5
33.42
50.31
62.07
67.9
68.44
65.33
60.57
55.49
50.64
45.35
38.37
28.59
15.71
0.59
-14.84
-28.07
-36.64
-38.5
-32.95
-21.09
-5.94
8.36
17.74
19.51
13.43
1.31
-13.84
-29.51
-44.74
-59.98
-75.98
-92.67
-108.91
-122.84
-133.24
-139.67
-142.02
-139.91
-132.74
-120.62
-105.41
-91.08
-82.27
-82.18
-90.65
-103.91
-116.39
-123.51
-123.45
-117.03
-106.15
-91.85
-73.98
-52.05
-26.64
0.01
24.93
45.58
61.27
72.87
81.96
89.2
93.92
94.64
90.14
80.9
68.72
55.89
44.01
33.99
26.4
22.02
21.67
25.49
32.21
39.16
43.46
43.31
39.1
32.8
26.75
22.36
19.41
16.75
13.23
8.14
0.89
-9.05
-22.02
-37.54
-53.68
-67.74
-77.43
-82.44
-84.69
-87.6
-94.3
-106.03
-121.46
-137.15
-148.93
-153.23
-148.22
-133.91
-111.94
-84.56
-53.79
-20.92
13.41
48.42
82.47
113.16
138.36
157.45
171.59
182.43
190.51
194.37
191.43
180.49
163.55
145.62
132.16
125.94
125.35
125.77
122.74
115.03
105.49
98.49
96.88
99.82
103.44
103.43
97.89
88.29
78.13
70.75
67.41
67.24
68.54
70.58
74.48
82.49
96.17
114.42
133.14
146.33
148.74
138.31
117.37
91.87
69.14
55.29
53
60.92
74.34
87.51
95.79
97.43
93.86
88.28
83.74
81.57
81.03
80.14
77.13
71.39
63.27
53.39
41.83
28.44
13.43
-1.66
-14.33
-22.2
-24.46
-22.52
-19.41
-18.4
-21.4
-28.45
-37.84
-47.2
-54.3
-57.81
-57.6
-54.66
-50.74
-48.01
-48.45
-53.1
-61.8
-73.03
-84.51
-94
-100.11
-102.79
-103.42
-104.51
-108.72
-117.56
-130.26
-143.26
-151.52
-150.53
-138.42
-116.93
-90.68
-65.09
-44.32
-30.09
-22.02
-18.9
-19.28
-21.53
-23.31
-21.69
-14.41
-1.5
14.27
28.58
38.08
42.35
43.7
45.21
48.25
51.66
52.9
50.24
44.5
38.61
35.54
35.92
37.34
36.01
29.15
16.88
1.94
-12.2
-23.55
-32.62
-41.69
-52.78
-66.05
-79.77
-91.36
-98.77
-101.73
-101.56
-100.12
-98.62
-97.3
-95.84
-94.21
-93.29
-94.45
-98.83
-106.37
-115.47
-123.51
-127.82
-126.69
-119.82
-108.19
-93.24
-76.2
-57.56
-37.34
-15.87
5.79
25.96
42.99
55.83
64.5
69.92
73.38
76.06
78.52
81.17
84.22
87.58
90.79
93.2
94.13
93.21
90.61
86.5
81.04
74.1
65.84
56.97
48.75
42.23
37.63
34.44
31.73
29.23
27.51
27.33
28.68
30.2
29.65
25.36
17.78
9.34
3.54
3.13
8.77
19.27
32.28
45.28
56.05
62.94
64.55
60.32
50.94
38.69
27.29
20.7
22.02
32.25
50.32
73.59
98.97
123.59
145.17
161.98
172.57
175.84
171.23
159.02
140.38
117.4
92.63
68.41
46.68
28.55
14.53
4.68
-1.54
-5.09
-7.05
-8.44
-9.67
-10.43
-10.44
-9.73
-9.18
-10.22
-14.12
-21.05
-29.64
-37.59
-42.79
-44.35
-43.2
-41.58
-41.61
-44.28
-49.26
-55.34
-61.06
-65.35
-67.27
-66.22
-62.43
-57.35
-53.81
-55.25
-64.22
-81.02
-103.37
-127.12
-147.89
-162.99
-171.57
-173.98
-170.81
-162.1
-147.76
-128.3
-105.34
-81.02
-57.11
-34.21
-12.28
8.64
27.61
42.52
50.85
51.05
43.41
30.44
16.06
3.88
-3.85
-6.84
-6.4
-4.57
-3.15
-3.01
-3.93
-4.9
-4.9
-3.53
-1.24
0.78
1.51
0.7
-1.21
-3.54
-6.17
-9.65
-14.79
-22
-30.84
-40.04
-48.29
-55.01
-60.65
-66.4
-73.18
-80.86
-88.36
-94.16
-97.07
-96.95
-94.55
-91.25
-88.61
-87.88
-89.67
-93.57
-98.22
-101.54
-101.19
-95.32
-83.16
-65.19
-42.8
-17.86
7.77
32.7
55.93
76.57
93.75
106.4
113.56
114.65
109.89
100.6
89.16
78.34
70.55
67.16
68.05
71.83
76.73
81.07
83.89
84.99
84.51
82.62
79.3
74.57
68.88
63.09
58.24
55.08
53.45
52.43
50.8
47.8
43.47
38.68
34.53
31.86
31.16
32.78
37.36
45.65
58.24
74.67
93
109.81
120.83
122.6
113.44
94.49
69.66
44.52
24.82
14.86
16.36
28.14
46.84
67.71
86.07
98.44
103.27
101.1
93.95
84.26
73.67
62.66
50.46
36.14
19.45
1.33
-16.29
-31.29
-42.17
-48.39
-49.97
-47.32
-40.96
-31.87
-21.86
-13.09
-7.49
-6.1
-8.65
-13.81
-19.92
-25.56
-29.87
-32.74
-34.64
-36.58
-40.15
-47.11
-58.48
-73.64
-89.63
-101.93
-106.37
-101.24
-88.45
-72.71
-59.28
-51.8
-51.11
-55.4
-61.73
-67.54
-71.49
-73.4
-73.45
-71.47
-67.03
-59.52
-48.61
-34.73
-18.98
-2.73
12.53
25.51
35.48
42.08
45.27
45.3
42.55
37.59
31.26
24.59
18.76
14.75
13.32
15.01
19.94
27.59
36.68
45.33
51.58
54.24
53.44
50.47
47.04
44.29
42.3
40.2
36.71
31.04
23.09
13.42
2.95
-7.4
-16.8
-24.68
-30.77
-35.19
-38.88
-43.53
-51.18
-63.61
-81.67
-104.73
-130.96
-157.92
-183.36
-205.64
-223.79
-236.92
-243.87
-243.27
-234.25
-217.21
-194.44
-169.5
-146.19
-126.95
-112.1
-100.1
-88.66
-75.59
-59.58
-40.37
-18.62
4.28
26.59
46.66
63.44
76.68
86.7
93.79
97.5
96.42
88.64
72.37
46.39
10.08
-36.99
-94.19
-158.67
-224.16
-281.44
-320.96
-336.77
-329.65
-307.68
-283.17
-267.4
-265.99
-276.85
-292.22
-303.03
-303.35
-292.41
-273.57
-251.62
-229.61
-207.16
-181.48
-149.8
-111.69
-70.05
-30.16
2.87
26.38
41.53
52.7
65.17
82.84
106.47
134.52
164.7
195.25
225.2
252.59
273.97
284.44
280.12
261.01
232.41
202.65
178.61
161.41
145.82
125.76
97.8
64.38
33.02
12.58
8.43
19.86
40.68
63.08
85.62
110.49
140.65
176.48
214.8
250.44
278.4
295.74
302.7
308.76
324.29
355.04
399.96
452.64
505.44
552.76
592
623.65
657.93
704.96
768.85
845.63
926.12
1001.1
1064.3
1113.2
1094.2
975.97
759.5
480.25
187.91
-78.4
-299.72
-473.08
-603.66
-693.5
-746.98
-766.03
-754.27
-719.35
-670.59
-615
-555.66
-495.76
-438.34
-381.91
-325.16
-269.48
-219.06
-178.19
-148.55
-129
-117.03
-109.96
-102.44
-89.83
-71.48
-51.62
-37.47
-35.72
-49.54
-77.15
-112.12
-144.43
-165.2
-171.08
-165.1
-153.72
-141.85
-129.89
-113.7
-87.54
-47.67
5.21
64.23
118.45
156.36
170.52
159.92
130.17
90.61
50.94
18.58
-3.18
-14.55
-18.13
-16.25
-10.16
-0.37
11.8
24.04
33.7
38.74
38.83
34.87
29.49
25.61
25.15
26.53
26.47
21.65
9.74
-4.89
-19.26
-30.52
-36.53
-36.34
-33.55
-32.24
-34.69
-40.35
-46.81
-52.24
-55.24
-54.95
-51.11
-48.76
-52.49
-63.71
-80.08
-98.01
-115.98
-134.45
-155.28
-180.62
-218.3
-273.92
-347.31
-432.01
-518.88
-600.48
-671.8
-730.04
-735.68
-665.75
-525.87
-349.38
-174.23
-23.8
94.69
183.7
249.08
297.03
326.97
338.46
334.45
321.99
308.78
299.66
296.02
296.97
300.26
298.99
287.55
264.48
232.92
197.73
162.67
131.23
104.8
83.68
65.09
46.36
26.91
8.65
-5.92
-15.28
-19.35
-19.29
-16.54
-13.49
-12.32
-13.86
-17.21
-20.86
-23.47
-24.2
-22.87
-21.52
-19.16
-15.57
-10.71
-4.08
4.82
16.17
29.74
44.76
60.37
76.09
91.21
104.87
116.78
127.01
135.85
143.57
150.2
155.65
160.07
163.42
165.24
165.61
164.88
163.36
160.92
156.69
149.01
135.58
118.52
98.49
76.61
54.24
32.67
12.49
-6.6
-25.71
-46.14
-68.79
-94.36
-122.18
-150.95
-179.24
-206.26
-232.15
-257.81
-284.65
-314.26
-348.86
-389.82
-436.93
-487.19
-534.44
-570.48
-587.56
-581.28
-552.44
-507.3
-454.76
-403.22
-358.08
-321.07
-291.37
-267.45
-248.38
-233.88
-223.77
-216.97
-211.44
-204.96
-196.03
-184.48
-171.36
-158.33
-146.66
-136.69
-127.63
-117.97
-106.33
-91.96
-75.27
-57.59
-40.59
-25.63
-13.2
-2.77
6.84
16.87
28.08
40.48
53.33
65.6
76.46
85.71
93.8
101.53
109.64
118.36
127.29
135.59
142.45
147.79
152.03
156.3
161.71
168.89
177.92
188.67
201.3
216.15
233.26
251.7
268.92
281
283.83
274.76
253.6
222.5
184.8
143.68
101.65
61.08
24.93
-3.14
-19.53
-22.34
-12.71
5.13
25.76
44.69
60.07
73.03
86.25
102.01
119.83
136.1
145.44
143.15
127.4
100.42
67.81
36.18
10.89
-5.35
-12.04
-9.57
1.92
22.4
50.96
84.6
118.33
146.75
165.99
175.15
176.01
171.57
164.69
157.87
153.41
153.27
158.46
168.14
179.54
188.87
192.73
189.59
180.46
167.93
154.8
142.77
131.99
121.75
111.59
102.55
97.37
99.78
112.93
137.21
168.87
199.99
220.72
222.64
202.02
161.22
107.73
50.83
-1.38
-43.42
-72.5
-87.86
-89.93
-80.53
-63.24
-43.49
-27.41
-19.76
-22.24
-33.09
-47.9
-61.66
-70.41
-72.48
-68.39
-60.43
-52
-46.44
-46.24
-52.29
-63.3
-76.4
-88.85
-99.05
-107
-113.52
-118.95
-122.61
-123.53
-121.55
-118.05
-115.53
-116.07
-120.03
-125.82
-130.96
-133.26
-131.68
-126.34
-117.25
-103.71
-84.25
-57.66
-24.4
12.73
48.62
77.05
92.53
91.99
76.5
51.55
25.73
8.13
5.73
21.14
51.92
91.67
132.35
167.17
192.68
209.09
219.27
227
235.25
245.46
257.97
272.63
288.91
305.62
320.14
328.39
325.92
309.6
279.38
238.64
192.75
146.6
103
62.82
26.56
-4.23
-26.87
-39.05
-40.77
-35.65
-30.17
-31.01
-42.45
-65.47
-98.55
-139.29
-185.32
-233.63
-278.96
-313.01
-325.97
-310.15
-264.34
-196
-119.64
-52.3
-8.43
4.05
-15.28
-60.5
-121.59
-186.63
-243.62
-281.69
-292.87
-273.79
-227.12
-161.93
-91.99
-32.58
3.53
9.18
-15.92
-65.84
-130.27
-196.91
-254.2
-293.22
-309.07
-301.45
-273.95
-232.36
-182.64
-129.4
-75.88
-25.03
19.09
50.6
62.87
51.26
15.42
-39.64
-104.75
-169.25
-223.91
-262.53
-282.49
-284.04
-269.23
-241.33
-204.35
-162.73
-120.67
-81.39
-46.46
-15.68
12.59
40.7
70.55
102.66
136.07
168.6
197.65
221.07
238.16
250.25
260.39
272.28
288.68
309.63
331.64
348.2
351.8
336.43
299.95
244.89
178.06
108.87
46.98
0.1
-27.81
-36.67
-29.54
-10.88
15.33
46.75
82.38
121.07
160.44
196.8
226.53
247.42
258.99
261.75
255.9
241.09
217.21
186.06
151.44
117.81
87.73
60.1
30.66
-5.3
-49.28
-98.59
-147.3
-189.75
-222.22
-243.83
-255.57
-259.5
-258.72
-257.44
-261.24
-275.32
-301.93
-337.34
-372.31
-395.55
-398.92
-380.8
-345.63
-301.46
-255.88
-213.83
-175.86
-140.58
-107.38
-77.74
-53.9
-35
-18.34
-0.33
19.69
42.74
68.98
98.01
129.08
162.15
201.78
251.51
311.84
375.32
436.82
492.24
538.62
572.44
591.48
602.45
613.41
630.51
648.87
666.65
681.87
692.38
694.41
685.63
674.72
670.39
676.43
681.38
679.3
668.32
650.4
627.72
554.47
410.08
204.67
27.27
-98.16
-173.06
-222.83
-260.91
-296.98
-336.98
-375.29
-405.77
-425.52
-444.2
-463.91
-483.45
-502.39
-524.93
-556.3
-592.81
-628.21
-656.68
-681.54
-701.48
-701.7
-669.14
-602.25
-511.45
-407.78
-299.95
-193.63
-97.88
-16.97
47.69
95.57
126.86
144.34
154.43
163.32
174.84
187.4
199.45
209.59
215.8
216.08
209.52
199.94
191
184.97
181.32
178.71
175.45
169.32
158.44
142.34
122.18
99.67
76.52
53.79
31.85
10.56
-10.86
-33.02
-55.89
-78.54
-99.79
-118.64
-134.64
-148.15
-160.15
-171.99
-184.78
-198.76
-212.95
-225.51
-234.39
-238.04
-236.08
-229.48
-220.29
-211.16
-204.46
-201.69
-203.63
-210.25
-221.31
-236.78
-256.8
-281.83
-312.74
-350.61
-396.36
-449.49
-506.66
-561.06
-603.24
-623.89
-617.27
-583.78
-530.1
-466.5
-402.9
-345.36
-294.97
-249.42
-205.69
-162.42
-120.57
-82.2
-48.89
-20.45
5.05
30.22
57
86.51
119.05
154.89
194.07
235.34
274.67
304.76
316.44
302.39
261
198.71
128.93
67.74
28.42
17.49
34.3
72.82
124.66
181.04
233.21
272.31
289.94
280.17
242.15
181.66
110.18
41.88
-10.77
-40.13
-44.43
-26.4
8.72
54.78
105.16
152.37
188.47
206.34
201.55
173.55
125.66
63.99
-3.67
-68.38
-120.93
-153.49
-162.52
-151.44
-130.28
-112
-106.39
-114.99
-130.27
-140.03
-134.67
-112.76
-81.59
-52.8
-35.85
-33.75
-42.91
-55.97
-65.87
-67.57
-58.37
-37.41
-5.58
33.61
73.39
104.45
117.56
107.24
74.97
29.78
-14.34
-43.15
-46.95
-23.57
21.97
79.96
140.22
194.95
239.98
274.49
299.95
319.24
335.84
353.21
374.02
399.02
426.11
450.43
465.77
467.06
452.47
424.45
389.2
354.34
326.46
309.18
302.51
303.69
308.67
313.65
315.79
313.91
307.37
295.55
277.54
252.19
218.89
177.58
129.39
76.28
21.25
-32.63
-82.84
-127.66
-166.87
-201.83
-235.16
-269.65
-306.69
-343.19
-372.66
-386.36
-376.3
-338.59
-275.31
-194.34
-107.41
-28.13
34.24
73.15
86.74
77.82
52.54
18.57
-16.81
-48.5
-76.32
-97.3
-111.99
-120.82
-124.11
-122.7
-118.65
-115.22
-116.04
-127.52
-146.84
-174.13
-208.34
-247.43
-288
-325.02
-352.35
-364.62
-363.71
-345.07
-313.14
-273.89
-232.13
-189.58
-145
-96.28
-13.49
59.6
121.25
163.41
181.76
177.98
159.33
135.57
114.87
100.85
87.54
76.46
64.04
49.2
33.36
18.83
6.79
-3.8
-15.83
-36.06
-62.06
-93.65
-129.13
-166.87
-206.13
-246.67
-287.39
-324.84
-355.28
-368.95
-360.43
-328.32
-276.24
-211.52
-142.64
-76.48
-17.05
33.37
76.8
114.72
149.06
182.4
218.24
260.29
310.73
368.18
426.31
476.1
507.59
514.22
495.57
457.53
409.62
361.1
317.69
280.68
248.21
217.89
188.82
161.93
139.03
121.19
107.79
96.74
85.41
71.85
55.58
37.84
21.01
7.53
-1.05
-4.71
-4.94
-4.13
-4.5
-7.1
-11.47
-16.04
-19.03
-19.61
-18.5
-18.08
-21.66
-32.63
-53.51
-85.6
-128.48
-179.46
-233.41
-282.9
-319.43
-335.05
-324.62
-287.61
-229.18
-159.47
-91.29
-37.1
-5.58
0.1
-17.73
-53.41
-100.28
-152.1
-202.97
-246.17
-273.86
-278.15
-254.48
-205.08
-139.89
-73.26
-17.6
22.09
49.78
74.3
102.79
134.93
162.27
173.02
159.12
121.48
69.9
18.44
-21.28
-44.78
-55.49
-61.71
-72.08
-92.57
-125.16
-168.27
-216.86
-263.3
-298.22
-312.84
-302.4
-268.79
-221.67
-176.17
-148.2
-148.88
-180.79
-237.29
-305.25
-369.78
-418.71
-445.34
-448.62
-431.61
-399.33
-357.17
-310.27
-263.55
-222.02
-189.82
-169.22
-159.24
-155.6
-151.64
-140.8
-118.82
-84.98
-41.77
5.96
51.48
87.26
106.66
106.41
88.64
61.4
35.99
22.77
26.95
46.84
75.71
105.82
132.27
154.29
173.74
191.8
207.49
217.9
220.28
214.37
203.18
191.93
186.52
191.97
209
234.91
263
283.66
286.73
264.91
216.74
148.06
72.46
3.59
-45.29
-66.33
-57.97
-23.87
29.15
92.65
156.77
212.46
245.97
248.1
215.84
155.19
81
12.97
-31.39
-42.87
-20.39
23.02
74.11
122
161.85
195.29
227.7
263.99
287.92
317.42
343.02
357.83
356.57
336.95
301.05
254.12
202.2
149.63
101.27
54.45
8.27
-38.39
-85.58
-130.37
-167.14
-189.71
-194.16
-177.97
-146.62
-106.33
-64.62
-33.97
-25.77
-43.04
-78.21
-120.16
-160.43
-198.48
-234.56
-268.22
-297.38
-318.94
-330.31
-330.99
-323.77
-312.69
-302.35
-294.42
-288.26
-281.5
-270.28
-252.27
-226.95
-196.3
-163.51
-131.92
-103.24
-77.69
-54.35
-31.38
-6.78
20.58
50.26
80.71
110.33
138.11
164.05
189.04
214.44
241.61
271.17
302.45
334.17
365.43
396.11
426.32
455.46
481.62
501.51
511.38
507.98
489.4
455.41
407.05
346.25
275.71
199.07
120.75
45.3
-23.86
-85.38
-140.46
-192.28
-244.8
-301.04
-361.37
-422.59
-478.1
-519.43
-539.02
-533.28
-504.05
-458.02
-404.14
-350.31
-301.15
-257.54
-218.13
-181.32
-146.59
-114.37
-85.09
-58.19
-32
-4.59
25.39
58.18
92.97
128.73
165.03
202.32
240.94
280.22
318.07
351.85
379.71
401.65
419.37
435.17
450.44
465.05
477.84
487.21
491.85
490.71
482.75
467.1
443.55
413.25
378.91
343.98
311.19
281.27
252.81
223.31
190.83
154.94
116.84
78.56
41.88
7.58
-24.89
-57.24
-91.65
-129.75
-171.2
-213.14
-250.94
-279.93
-297.38
-303.8
-302.93
-300.67
-302.52
-311.98
-329.59
-354.09
-383.07
-413.14
-439.75
-457.94
-463.77
-455.79
-435.65
-406.25
-370.69
-330.34
-284.51
-231.79
-172.41
-109.4
-47.96
6.81
53.69
94.02
130.75
166.67
203.73
242.89
284.04
325.88
364.91
396.93
416.03
417.01
397.84
361.46
314.74
265.72
221.25
173.59
120.16
63.5
10.61
-31.98
-61.38
-77.41
-85.35
-89.36
-92.08
-94.04
-96.28
-99.72
-105.37
-113.31
-122.83
-133.03
-142.6
-150.71
-157.32
-164.31
-174.32
-190.21
-214.11
-247.94
-293.4
-350.22
-405.73
-443.14
-449.32
-422
-370.64
-310.12
-255.05
-215.68
-195.04
-189.73
-193.43
-201.61
-210.58
-218.91
-225.5
-229.14
-228.05
-220.24
-204.05
-179.8
-149.04
-112.65
-73.3
-31.76
11.8
56.25
98.68
134.74
159.66
170.84
169.75
161.28
152.14
147.26
147.7
150.91
152.79
150.02
141.95
130.75
119.84
112.51
110.17
112.13
116.46
120.91
123.76
124.33
123.17
121.51
121.49
125.4
134.95
150.44
169.5
186.99
195.11
185.17
150.74
91.46
14.18
-68.32
-141.49
-194.16
-221.59
-226.07
-214.33
-193.59
-167.71
-137.8
-103.86
-67.02
-30.87
0.7
24.69
40.22
49.11
56.2
64.97
75.76
85.78
89.93
86.01
74.25
56.79
37.44
24.06
22.48
35.05
60.45
93.23
131.76
175.44
223.27
274.25
332.77
400.7
476.1
553.91
625
688.49
746.18
798.45
843.87
885.02
919.37
940.04
939.17
908.27
853.65
787.79
721.95
614.12
444.82
222.65
-16.99
-202.62
-330.97
-412.87
-459.54
-489.82
-513.95
-532.47
-547.08
-562.2
-584.29
-623.96
-680.46
-747.38
-817.17
-873.27
-891.84
-859.72
-783.03
-683.95
-591.73
-524.99
-482.32
-457.32
-441.61
-425.91
-405.32
-378.9
-347.68
-314.65
-277.88
-234.27
-183.76
-127.86
-68.71
-10.4
42.48
86.5
119.33
142.84
160.87
176.29
191.56
208.24
226.26
244.49
262.04
278.32
294.39
312.2
333.03
357.92
387.43
421.93
461.84
506.99
555.4
602.05
639.34
658.69
654.07
624.48
574.59
512.98
448.86
389.02
336.51
291.36
252.28
218.31
189.31
165.32
145.75
128.88
112.62
95.33
76.67
57.49
39.44
24.04
11.9
2.53
-5.41
-13.42
-22.5
-32.77
-43.52
-53.67
-62.29
-69.09
-74.46
-79.29
-84.49
-90.49
-97.17
-103.75
-109.29
-112.87
-114.07
-113
-110.23
-106.52
-102.59
-98.93
-95.68
-92.71
-89.74
-86.53
-82.9
-78.78
-74.18
-69.19
-64.01
-58.83
-53.96
-49.75
-46.61
-44.86
-44.7
-46.05
-48.58
-51.65
-54.32
-55.52
-54.2
-49.57
-41.24
-29.35
-14.6
1.84
18.66
34.48
48.01
58.13
63.81
64.07
58.09
45.33
25.81
0.3
-29.71
-62.22
-95.08
-126.57
-155.67
-182.14
-206.37
-228.93
-250.23
-270.27
-288.84
-305.74
-321.06
-335.12
-348.25
-360.48
-371.72
-382.26
-393.43
-407.53
-426.57
-450.37
-475.19
-493.9
-498.3
-482.59
-445.89
-392.58
-329.89
-264.55
-200.78
-140.46
-85.45
-39.35
-7.46
5.42
-2.18
-27.24
-63.69
-105.75
-150.43
-197.49
-246.99
-296.31
-338.74
-365.43
-369.19
-348.17
-307.1
-255.55
-204.59
-163.32
-136.63
-124.37
-122.69
-125.98
-129.14
-129.15
-125.44
-118.85
-110.12
-98.31
-80.64
-53.91
-16.94
27.71
73.9
113.97
142.48
158.47
166.27
173.37
187.29
212.67
249.47
293.22
336.7
371.76
391.22
390.13
366.96
324.58
270.88
217.68
178.15
162.47
173.68
205.91
246.01
277.89
287.78
268.37
220.47
152.24
76.5
7.22
-43.78
-69.52
-68.83
-45.85
-7.31
40.13
91.45
143.26
192.23
233.96
263.03
274.7
266.92
241.37
202.41
155.61
106.6
60.99
25.13
6.02
10.16
40.97
96.33
167.64
241.55
303.74
343.29
355.58
342.75
311.87
271.6
229.09
188.28
150.05
113.74
78.71
45.29
14.32
-14.21
-41.7
-70.83
-104.49
-144.68
-191.59
-243.57
-296.68
-344.9
-380.43
-395.32
-384.1
-347.04
-291.93
-232.52
-183.92
-156.87
-154.26
-171.18
-198.67
-228.82
-257.68
-284.6
-309.17
-328.4
-336.74
-329.29
-305.37
-269.92
-231.61
-198.04
-171.67
-149.13
-123.78
-90.25
-47.81
-0.77
43.73
78.7
99.9
106.3
99.73
83.83
63.63
45.1
34.41
36.71
54.72
87.58
130.17
173.86
208.48
224.89
217.48
185.7
133.45
66.98
-7.31
-84.52
-160.95
-232.34
-292.85
-335.38
-353.96
-346.97
-318.56
-277.59
-234.19
-195.87
-165.14
-139.65
-114.63
-86.2
-53.76
-20.59
7.63
25.42
29.69
20.8
1.7
-23.46
-50.93
-77.71
-101.16
-118.17
-125.24
-119.62
-100.83
-71.43
-36.42
-1.44
28.97
52.34
68.25
77.53
81.96
84.1
87.46
95.81
112.06
136.96
168.6
203.17
236.58
266.41
292.71
317.46
343.09
371.1
401.56
433.18
463.26
488.18
503.63
505.5
490.85
459.3
414
361.68
311.48
272.51
251.07
248.42
260.26
278.09
291.94
293.65
279.03
248.33
205.29
154.76
100.43
43.9
-14.59
-74.03
-130.56
-177.07
-205.15
-208.76
-187.96
-150.52
-109.83
-80.09
-70.91
-83.97
-113.7
-151.33
-189.97
-227.53
-265.81
-306.77
-348.5
-384.01
-403.63
-399.8
-371.01
-322.85
-265.48
-208.92
-158.75
-114.74
-72.23
-26.18
25.5
80.71
134.2
180.54
216.78
244
266.53
289.67
316.48
345.69
371.35
384.87
378.72
350.11
302.65
245.27
188.6
140.78
104.86
78.63
56.89
34.35
7.85
-23.72
-60.42
-101.81
-146.68
-191.79
-231.2
-257.53
-264.19
-248.13
-210.97
-158.17
-96.88
-33.7
26.42
80.19
125.13
159
179.76
186.23
178.57
158.56
128.85
92.4
51.77
9
-34.45
-77.45
-118.73
-156.3
-186.87
-206.16
-209.88
-195.48
-163.74
-118.91
-67.94
-18.61
22.48
51.14
65.47
65.2
50.87
23.68
-13.99
-58.32
-104.09
-145.43
-176.87
-194.54
-196.49
-182.85
-155.7
-118.19
-73.96
-26.45
21.06
65.12
101.67
126.46
136.2
130.33
112.12
88.19
65.97
50.42
41.53
34.41
21.98
-1.1
-35.41
-76.46
-116.94
-150.55
-174.87
-191.94
-205.89
-219.44
-231.5
-237.44
-232.08
-213.33
-184.17
-151.73
-124.08
-106.72
-100.78
-103.54
-110.6
-117.95
-123.14
-125.42
-125.19
-123.44
-120.85
-117.07
-110.14
-96.97
-74.51
-41.77
-0.51
45.65
93.21
139.93
184.51
225.05
257.66
276.95
278.5
261.71
230.79
193.02
155.37
121.76
92.84
67.87
47.24
33.52
29.77
36.74
51.1
65.83
72.96
67.12
47.82
19.12
-12.29
-40.13
-60.83
-74.13
-81.91
-86.54
-89.54
-91.18
-90.67
-87.14
-80.06
-69.58
-56.49
-42.29
-28.92
-18.26
-11.36
-8.12
-7.59
-8.57
-10.06
-11.3
-11.57
-9.6
-3.54
8.26
26.19
48.45
71.33
90.69
103.98
111.36
115.04
117.62
120.43
122.97
123.95
122.7
120.14
118.51
119.96
124.76
130.37
131.93
124.06
103.25
69.41
25.31
-25.08
-78.5
-133.51
-189.92
-246.8
-300.79
-345.83
-374.98
-383.51
-371.36
-343.47
-307.6
-270.85
-236.8
-205.25
-173.61
-139.42
-102.08
-63.16
-25.35
8.8
37.74
60.78
77.85
89.22
95.74
98.87
100.96
104.55
111.55
122.6
136.9
153.01
169.83
187.23
205.33
223.41
238.86
247.59
245.79
232.07
208.58
180
150.88
123.24
96.51
69.25
41.26
14.5
-7.89
-23.39
-31.02
-30.87
-23.18
-7.49
16.04
45.04
73.74
93.86
98
82.73
50.77
10.32
-28.04
-55.45
-67.71
-65.76
-54.37
-39.91
-28.12
-22.75
-24.98
-33.38
-44.32
-52.73
-53.61
-43.76
-22.95
5.89
37.5
66.15
87.54
99.75
103.26
99.96
92.3
82.97
74.59
69.36
67.93
68.56
67.76
62.03
50.22
34.39
18.72
7.2
1.59
0.75
1.96
3.06
3.95
6.3
12.02
21.42
33.18
45.27
56.24
65.49
72.52
75.63
71.97
58.66
34.65
2.03
-34.31
-68.66
-96.48
-115.9
-127.47
-132.87
-133.52
-129.71
-120.96
-106.86
-87.6
-64.04
-37.41
-8.84
20.96
51.18
80.52
106.86
127.8
141.55
147.81
147.56
142.33
133.15
119.84
101.8
79.27
54.21
30.53
12.95
4.96
7.34
17.64
31.03
42.43
48.3
47.71
42.41
35.68
30.59
28.36
28.26
28.08
25.24
17.89
5.17
-12.65
-34.67
-59.18
-83.78
-105.72
-122.9
-135.01
-143.35
-149.89
-155.9
-161.48
-165.75
-167.99
-168.36
-167.91
-167.37
-166.03
-162.03
-153.26
-139.03
-120.27
-98.9
-76.64
-54.4
-32.19
-10.42
8.67
21.48
24.51
16.25
-1.79
-25.84
-51.33
-74.64
-93.81
-108.28
-117.48
-119.93
-113.65
-97.28
-71.32
-38.77
-4.83
24.84
46.05
57.28
59.86
56.9
52.23
49.23
49.98
54.39
60.36
64.71
64.51
58.04
45.7
30.03
14.72
3.08
-3.52
-6.23
-8.28
-13.39
-23.89
-39.46
-57.22
-73.02
-83.36
-86.67
-83.95
-78.32
-73.46
-72.25
-75.63
-82.57
-91.01
-98.91
-104.69
-107.07
-104.94
-97.25
-83.01
-61.89
-34.7
-3.88
26.9
53.66
73.21
84.02
86.4
81.75
71.58
57.01
38.98
19.07
0.11
-14.03
-19.65
-14.88
-1.24
16.64
32.77
42.05
42.54
35.56
24.69
14.18
7.12
4.56
5.29
7.13
8.36
8.84
10.25
15
24.51
37.59
50.35
58.2
58.82
53.94
48.55
47.74
53.28
62.3
69.34
69.7
62.43
50.57
39.01
31.61
29.41
31.07
34.85
40.17
47.56
57.14
66.78
71.8
66.64
48.3
18.6
-15.56
-44.55
-60.1
-59.01
-44.43
-24.38
-7.6
0.58
0.64
-2.62
-3.64
0.23
7.5
14.04
16.44
14.58
11.34
9.95
11.19
12.94
12.06
7.49
2.08
1.36
10.13
28.64
51.84
72.01
83.45
85.24
80.64
74
66.8
56.79
39.74
12.94
-21.86
-58.5
-88.82
-106.47
-109.21
-99.63
-83.42
-67.12
-56
-52.91
-57.9
-68.58
-80.53
-88.38
-87.9
-77.11
-56.94
-30.79
-3.2
21.61
40.79
53.38
60.26
63.62
66.53
72.03
81.92
96.42
113.26
128.51
137.84
138.51
130.8
118.03
104.95
95.44
90.91
89.98
90.17
89.9
89.47
90.47
94.01
98.84
101.06
96.32
82.11
59.89
34.74
13
-0.88
-6.21
-5.47
-2.01
2.36
8.06
16.48
27.62
38.67
44.95
42.31
30.01
11.59
-6.39
-17.48
-18.41
-10.42
1.96
13.56
21.06
24.14
24.85
25.81
28.61
33.13
37.99
41.07
40.5
35.12
24.78
10.28
-6.85
-24.78
-42.06
-58.09
-73.5
-89.55
-107.33
-126.37
-144.44
-158.36
-165.59
-166.18
-162.65
-158.79
-157.79
-161.19
-168.94
-180.02
-193.09
-206.47
-217.61
-222.9
-218.77
-203.62
-179.86
-153.53
-131.45
-117.32
-109.36
-101.46
-87.34
-65.05
-38.79
-16.33
-3.95
-2.4
-6.82
-9.93
-7.14
0.69
7.83
7.75
-2.54
-21.33
-43.97
-66.09
-85.44
-101.93
-116.15
-127.59
-134.34
-133.85
-124.46
-106.66
-83.5
-59.32
-38.33
-23.09
-13.69
-8.23
-3.99
1
7.41
14.99
23.35
32.43
42.09
51.44
58.49
61.34
59.84
56.8
57.03
64.91
81.84
105.73
132.9
160.1
185.34
207.36
224.39
233.82
233.12
221.82
202.6
180.65
161
146.29
136.24
128.81
122.22
115.69
108.74
99.69
85.35
62.83
32.02
-3.13
-35.95
-60.02
-72.22
-73.78
-69.04
-63.06
-58.99
-56.73
-53.72
-46.97
-34.63
-16.88
4.17
25.52
44.3
58.45
66.4
67
59.47
44.12
23.13
0.92
-16.55
-24.16
-20.16
-7.72
6.66
16.8
20.45
20.27
21.35
27.27
37.54
48.27
55.2
57.01
55.99
56.03
59.63
66.2
73.05
77.13
77.04
73.18
66.63
58.12
47.82
36.3
24.97
15.88
10.36
8.01
6.62
3.33
-3.96
-15.59
-29.93
-44.28
-55.33
-60.44
-58.54
-50.97
-41.94
-37.49
-43.04
-60.72
-87.84
-117.37
-140.87
-151.89
-148.51
-133.71
-112.89
-90.81
-69.38
-48
-25.5
-2.26
19.55
37.4
50.19
58.99
65.69
70.83
72.35
66.74
51.62
28.7
4.14
-14.15
-20.54
-14.46
-0.22
15.82
28.58
36.29
40.16
42.73
46.06
50.76
56.09
60.51
62.33
60.3
54.06
44.4
33.03
22.1
13.33
7.25
3.15
-0.52
-5
-10.7
-17.27
-24.35
-32.22
-41.72
-53.77
-68.39
-84.12
-98.46
-109.65
-118.24
-127.2
-140.34
-159.84
-183.78
-205.65
-217.04
-211.51
-188.39
-153.36
-115.85
-84.58
-64.2
-54.08
-49.88
-46.75
-41.26
-31.94
-18.48
-1.17
19.3
41.62
63.78
83.44
98.47
107.67
110.8
108.38
101.21
90.81
79.8
71.4
68.11
70.07
74.72
77.83
76.1
69.78
62.81
60.45
65.62
76.69
88.32
94.65
92.41
82.4
68.5
54.69
42.63
31.2
18.35
3.36
-12
-24.56
-31.94
-34.18
-34.19
-36.07
-42.85
-54.85
-70.04
-85.28
-97.77
-106.12
-110.37
-111.44
-110.41
-108.25
-106.09
-105.53
-108.06
-113.6
-119.81
-122.41
-117.12
-101.92
-78.65
-52.18
-27.96
-9.46
3.22
12.59
21.88
33.07
45.76
57.45
64.7
64.88
57.32
43.79
28
14.41
6.39
4.87
8.34
13.89
19.07
23.22
27.29
32.39
38.23
42.82
43.68
40.01
33.63
28.13
26.88
31.27
39.89
49.43
56.43
58.46
54.39
43.97
27.75
7.49
-13.58
-30.93
-39.81
-37.33
-24.03
-4.15
15.69
28.89
31.06
21.11
1.11
-24.83
-52.07
-76.44
-94.98
-106.17
-109.41
-104.45
-91.05
-68.86
-37.97
0.3
43.08
86.36
125.53
156.48
176.61
185.21
182.91
170.98
150.75
123.92
92.77
60.62
31.83
10.91
1.23
3.85
17.06
36.6
57.01
73.11
81.38
80.41
70.92
55.25
36.64
17.97
0.88
-14.46
-28.83
-42.89
-56.35
-68.02
-76.69
-81.88
-84.16
-84.53
-83.27
-79.27
-70.84
-57.29
-40.59
-25.41
-17.48
-21.01
-36.47
-60.32
-86.64
-109.39
-124.17
-128.96
-123.88
-110.63
-91.84
-70.33
-48.24
-26.28
-3.67
21.35
49.7
80.05
108.52
129.9
139.85
136.76
122.21
100.31
76.08
53.92
36.8
26.04
21.33
21.22
23.62
26.35
27.94
27.86
26.97
27.28
31.34
40.93
55.56
71.41
82.2
81.37
64.94
34.41
-2.74
-35.99
-56.74
-62.34
-57.01
-48.94
-45.17
-47.51
-51.98
-52.51
-45.61
-32.92
-20.33
-14.38
-18.42
-30.7
-45.77
-58
-64.51
-66.01
-65.19
-64.41
-64
-62.28
-56.44
-43.87
-23.17
5.26
39.18
74.8
107.34
132.63
148.49
155.19
154.82
149.89
142.37
133.22
122.84
111.95
102.03
94.98
92.03
93.12
97.16
102.65
108.12
112.81
116.24
117.77
116.32
110.85
100.78
86.55
69.78
52.77
37.62
25.12
14.26
2.94
-10.78
-27.47
-45.39
-60.99
-70.59
-72.53
-68.52
-63.21
-61.87
-67.8
-80.89
-97.78
-113.81
-125.38
-131.3
-132.54
-130.87
-127.44
-122.45
-115.59
-107.21
-99.08
-94.33
-96.12
-106.29
-124.32
-147.02
-169.41
-186.27
-194.01
-191.87
-181.73
-166.25
-147.12
-124
-95.62
-62.06
-26.43
5.39
27.3
36.19
34.03
26.96
22.12
24.02
32.72
45.01
57.05
66.65
73.85
79.94
85.66
90.25
91.52
87.49
77.82
64.4
50.59
39.64
33.02
29.75
26.84
21.08
10.73
-3.4
-18.28
-30.08
-35.78
-34.69
-28.73
-21.42
-16.27
-15.67
-20.64
-31.35
-47.43
-68.26
-92.84
-119.21
-144.21
-164.02
-175.71
-178.64
-174.9
-168.5
-163.34
-160.95
-159.38
-153.92
-139.35
-112.98
-76.56
-36.18
-0.02
25.07
36.53
37.29
34.22
34.97
44.72
64.46
91.25
120.21
146.75
168.36
185.04
198.62
211.62
226.05
242.43
259.66
275.25
286.25
290.01
284.98
271.12
249.95
224.21
197.05
171.22
148.37
129.27
114.15
102.91
95.16
89.87
85.01
77.69
65.04
45.39
19.65
-8.65
-34.64
-54.26
-65.92
-71.31
-74.32
-79.23
-89.13
-104.88
-124.97
-146.27
-164.98
-177.98
-184.02
-184.06
-180.44
-175.73
-171.24
-166.61
-160.23
-150.01
-134.74
-114.61
-91.23
-67.5
-47.07
-33.31
-28.19
-31.38
-39.85
-48.99
-54.29
-53.02
-45.14
-32.63
-17.72
-1.69
15.52
34.48
54.79
74.52
90.96
102.29
108.81
112.88
117.12
122.31
126.5
125.99
118.1
103.64
87.22
75.21
72.14
78.04
88.47
97.16
99.25
93.35
81.21
65.94
50.16
35.17
21.4
9.05
-1.61
-10.55
-18.18
-25.04
-31.49
-37.29
-41.95
-45.31
-47.98
-50.78
-54.17
-57.86
-61.01
-63.06
-64.28
-65.62
-67.71
-69.84
-69.88
-64.72
-51.68
-29.86
-0.97
30.81
59.85
80.82
90.07
86.93
73.99
55.85
37.11
20.53
6.33
-7.15
-21.86
-38.44
-55.65
-70.7
-80.45
-82.89
-77.97
-67.28
-53.26
-38.07
-22.74
-7.34
8.26
23.42
36.36
44.41
44.99
36.95
21.51
2.25
-16.11
-29.48
-35.85
-35.54
-30.7
-24.1
-17.78
-12.46
-7.69
-2.47
3.5
9.21
12.49
10.99
3.38
-9.77
-25.91
-41.45
-53.2
-59.53
-61
-60.08
-59.95
-63.19
-70.77
-81.82
-94.28
-105.95
-115.44
-122.4
-127.18
-130.27
-131.92
-132.06
-130.84
-128.91
-127.57
-128.22
-131.44
-136.33
-140.36
-139.61
-129.63
-106.66
-69.09
-18.72
38.51
92.79
132.55
147.9
134.5
96.02
43.37
-9.15
-49.04
-69.98
-72.63
-62.39
-45.23
-24.54
-0.38
28.8
63.83
103.13
142.86
178.51
206.53
225.26
234.63
235.45
228.75
215.89
198.86
180.15
162.48
148.17
138.68
134.43
134.97
138.75
143.1
144.42
138.84
123.39
97.42
63.47
27
-5.25
-27.93
-39.42
-42.26
-42.12
-44.97
-54.54
-70.8
-90.11
-106.94
-116.11
-114.73
-103.04
-83.76
-60.56
-36.75
-14.93
2.7
13.76
15.77
7.03
-11.87
-37.3
-63.2
-83.06
-92.72
-91.9
-83.98
-73.84
-65.37
-59.74
-55.73
-51.28
-45.39
-39.17
-34.86
-34.28
-37
-40.34
-41.21
-38.66
-35.23
-35.86
-45.03
-63.67
-87.49
-108.03
-115.97
-105.1
-75.29
-32.86
11.72
47.87
68.76
73.06
64.44
49.12
33.26
21.17
14.93
15.07
21.24
32.52
47.18
62.63
76.43
87.2
95.5
103.06
111.62
121.35
130.51
136.45
137.43
133.8
127.68
121.77
117.81
115.79
113.96
109.9
101.92
89.8
74.89
59.33
45
32.43
20.73
8.26
-6.12
-22.05
-37.42
-49.07
-54.31
-52.36
-45.14
-36.63
-31.06
-31.21
-37.64
-49.17
-63.67
-79.22
-94.26
-107.36
-116.99
-121.66
-120.78
-115.12
-106.6
-97.5
-89.64
-83.57
-78.89
-74.98
-71.59
-68.95
-67.02
-65.07
-61.58
-55.04
-44.68
-31.1
-16.12
-2.18
8.5
14.67
16.31
14.84
12.43
10.99
11.06
11.44
10.03
5.08
-3.59
-14.43
-24.89
-32.55
-36.4
-37.22
-37.03
-38.02
-41.42
-46.72
-52.13
-55.76
-56.89
-56.76
-57.98
-63.45
-74.51
-89.92
-105.97
-118.03
-122.42
-117.85
-105.41
-87.54
-66.61
-43.81
-19.19
7.82
37.48
69.36
102.04
133.06
159.33
177.72
185.82
182.65
168.97
147.34
121.83
97.51
79.42
71.45
75.12
88.9
108.51
128.22
142.79
148.97
146.55
137.83
126.43
115.61
107.07
100.81
95.78
90.88
85.59
80.51
76.89
75.93
77.61
80.36
81.74
79.62
73.23
63.29
51.49
39.52
28.56
19.46
12.85
8.94
7.07
5.13
-0.24
-12.57
-34.05
-64.1
-98.89
-132.57
-158.97
-173.63
-174.91
-164.03
-144.56
-121.43
-99.34
-81.06
-66.61
-53.52
-38.6
-20.18
0.63
20.08
33.59
37.9
32.6
19.71
2.71
-14.63
-29.11
-38
-39.25
-31.8
-16.24
4.65
26.15
42.96
50.97
48.8
38.52
24.67
12.65
6.65
8.13
15.3
24
29.48
28.19
18.99
3.43
-14.76
-31.05
-41.67
-44.86
-41.29
-34.1
-27.85
-26.76
-33.08
-45.92
-61.48
-74.65
-81.04
-78.82
-69.11
-55.3
-41.45
-30.69
-24.41
-22.46
-23.52
-25.52
-26.39
-24.62
-19.68
-12.11
-3.27
5.56
14.25
24.31
38.06
56.91
79.73
102.38
119.16
125.27
119.22
103.58
83.79
65.77
53.58
48.45
49.23
53.48
58.51
61.85
61.6
56.56
46.65
33.15
18.68
6.41
-0.92
-2.13
1.81
8.19
13.48
14.79
10.66
1.4
-11.38
-25.26
-37.63
-46.03
-48.76
-45.57
-38.06
-29.67
-24.68
-26.73
-37.18
-54.46
-74.58
-92.78
-105.59
-112.2
-114.45
-115.5
-118.27
-124.18
-132.76
-142.21
-150.58
-156.88
-161.33
-165.18
-169.57
-174.36
-177.86
-177.15
-169.43
-153.3
-129.64
-101.34
-72.16
-45.21
-21.75
-0.75
20.16
42.95
67.59
91.39
110.01
119.54
118.52
108.82
94.79
81.11
70.68
64.11
60.33
57.87
55.75
53.22
48.94
40.65
26
4.14
-22.92
-50.41
-72.65
-85.5
-87.99
-82.12
-71.5
-59.66
-48.89
-40.21
-34.03
-30.64
-30.28
-32.8
-37.16
-41.1
-41.66
-36.32
-24.4
-7.97
8.46
19.44
20.6
10.57
-8.29
-30.83
-50.87
-62.84
-63.19
-50.77
-27.18
3.25
34.26
59.2
73.37
75.9
70.1
62
57.81
61.36
73.2
91.48
113.42
136.67
159.77
181.85
201.92
218.82
231.31
237.84
236.84
226.97
207.85
180.89
149.36
117.53
89.18
66.34
48.95
35.76
25.47
17.52
12.03
8.82
6.96
4.72
0.4
-6.79
-16.23
-26.44
-35.86
-43.73
-50.39
-56.82
-63.86
-71.25
-77.16
-78.82
-74.13
-62.97
-47.63
-32.24
-20.84
-15.51
-15.6
-18.05
-19.07
-16.04
-8.8
0.38
7.73
9.52
3.49
-10.35
-29.41
-49.48
-66.15
-76.54
-80.07
-78.02
-72.4
-64.29
-53.21
-37.9
-17.52
7.21
33.66
58.07
77.03
88.51
92.02
88.26
78.45
63.71
45.16
24.04
2.5
-16.28
-28.5
-31.05
-23.06
-6.98
11.94
27.88
36.66
37.25
31.96
24.88
19.79
18.44
20.3
23.34
25.11
23.81
18.9
11.08
2
-6.14
-11.24
-12.07
-8.67
-2.21
5.28
11.7
15.06
13.81
7.31
-3.78
-17.1
-28.77
-34.5
-31.33
-19.11
-1.49
14.99
23.46
19.5
2.87
-22.34
-49.54
-72.46
-87.52
-94.4
-94.85
-90.95
-83.25
-70.52
-50.95
-23.96
8.54
42.18
71.72
93.16
104.8
107.24
102.44
92.81
80.56
67.65
55.84
46.48
40.25
36.94
35.72
35.73
36.46
37.65
38.76
38.66
35.89
29.88
21.74
14.11
9.77
10.03
13.99
18.96
22.15
21.72
16.96
7.69
-6.24
-24.92
-47.94
-73.82
-100.22
-124.63
-145.5
-162.75
-177.63
-191.6
-205.24
-217.58
-226.27
-229.05
-224.98
-215.44
-203.65
-193.36
-187.05
-184.75
-183.99
-180.71
-171
-152.83
-126.83
-95.85
-64.08
-35.67
-13.15
3.22
15.47
26.81
39.76
54.81
70.45
84.3
95.01
103.49
112.17
123.35
137.35
152.16
164.64
172.3
174.66
173.11
169.98
166.94
164.36
161.41
156.74
149.33
138.77
125.37
109.95
93.52
76.44
58.3
38.08
14.79
-11.41
-38.57
-63.12
-80.86
-88.32
-84.01
-68.34
-43.37
-12.24
21.08
51.7
74.03
82.68
74
47.76
8.23
-36.2
-75.24
-99.78
-104.85
-91.52
-66.41
-38.83
-16.76
-3.59
2.27
5.6
11.42
22.54
38.79
57.8
76.63
92.77
104.56
110.9
111.15
105.4
94.51
79.97
63.54
46.92
31.35
17.65
6.2
-3.18
-11.01
-17.98
-24.53
-30.1
-33.52
-33.82
-30.97
-26.02
-20.63
-16.23
-13.55
-12.32
-11.4
-9.23
-4.42
3.38
12.93
21.36
25.32
22.77
14.42
3.62
-5.25
-9.15
-7.96
-4.27
-1.78
-3.28
-9.63
-20.11
-33.55
-49.05
-65.61
-81.54
-94
-99.33
-94.41
-77.97
-51.31
-17.95
17.65
51.29
79.43
99.21
108.1
103.96
85.86
55.11
16.08
-24.34
-58.61
-80.79
-88.18
-81.59
-64.46
-41.3
-16.87
4.53
19.52
26.39
25.86
20.92
15.28
11.49
9.7
7.76
2.88
-6.79
-21.06
-38.11
-55.74
-72.39
-87.06
-99.07
-107.95
-113.67
-117.25
-120.72
-126.07
-133.55
-141.12
-145.16
-142.38
-131.81
-115.4
-97.1
-80.95
-69.44
-62.76
-59.23
-56.12
-50.7
-41.12
-27.06
-10.1
6.79
20.57
29.82
35.66
41.03
49
60.83
75.12
88.87
99.21
104.69
105.23
101.33
93.44
81.97
68
53.88
42.67
36.7
36.38
39.7
43.25
43.81
39.91
32.47
24.11
17.71
14.89
15.34
17.01
17.62
16.01
12.98
11.01
12.59
18.64
27.83
37.5
45.26
50.48
54.59
59.97
68.45
80.18
93.97
107.94
120.12
128.52
131.07
125.62
110.57
85.75
53.04
16.75
-17.21
-42.87
-55.93
-55.17
-42.78
-23.7
-3.74
12.52
23.4
29.81
34.1
38.35
43.27
48.1
51.28
51.36
47.28
38.33
23.97
4.45
-18.4
-41.17
-59.52
-69.94
-71.11
-64.4
-53.09
-41.11
-31.63
-26.45
-26.01
-29.66
-36.04
-43.6
-51.13
-57.94
-63.53
-67.36
-68.59
-66.5
-61.03
-53.39
-45.66
-39.95
-37.41
-37.97
-40.7
-44.26
-47.6
-49.67
-49.36
-45.65
-38.5
-29.53
-21.74
-18.36
-20.94
-28.42
-37.52
-44.23
-45.65
-41.02
-31.59
-19.72
-7.84
2.48
10.98
18.87
28.08
40.15
55.06
71.02
85.24
94.79
97.84
94.24
85.39
73.3
59.91
46.8
34.9
25.21
18.47
15.35
15.79
18.98
23.3
26.79
27.97
26.06
21.3
14.83
8.23
2.9
-0.47
-2.03
-2.75
-3.65
-5.51
-8.56
-12.42
-16.28
-19.44
-21.49
-22.48
-22.85
-23.01
-23.05
-22.8
-22.31
-22.23
-23.71
-28.21
-36.47
-48.18
-61.7
-75.13
-86.71
-95.32
-100.62
-102.86
-102.58
-100.55
-97.68
-95.12
-93.89
-94.37
-95.85
-96.64
-94.88
-89.2
-79.6
-67.05
-52.93
-37.75
-20.89
-1.41
20.77
43.78
64.5
79.45
86.55
85.91
79.7
70.73
60.98
51.44
42.66
35.6
31.62
31.91
36.14
41.88
45.39
43.49
35.45
23.33
11.2
2.81
-0.04
1.67
4.94
6.68
5.07
0.31
-6.13
-12.32
-16.78
-18.79
-18.34
-15.71
-11.14
-4.89
2.65
10.62
17.93
23.21
25.43
24.6
21.92
19.68
20.24
25.2
34.53
46.79
59.93
72.74
85.26
97.92
110.28
119.72
121.98
112.84
91.01
59.68
25.81
-2.59
-19.93
-24.98
-20.91
-13.1
-6.42
-3.29
-3.42
-4.88
-5.73
-5.02
-2.94
-0.52
1.07
0.71
-2.57
-9.15
-18.45
-28.7
-37.32
-41.73
-40.39
-33.16
-21.13
-6.04
10.41
26.72
41.28
51.95
56.55
53.75
44.2
31.14
19.51
13.88
16.14
24.49
34.28
40.3
39.43
32.2
22.29
14.27
10.89
11.84
14.51
15.78
13.95
9.53
4.26
-0.51
-5.07
-11.08
-20.22
-32.63
-46.52
-59.03
-67.88
-72.73
-75.64
-79.92
-87.92
-99.49
-111.64
-119.4
-118.11
-105.41
-82.56
-53.84
-24.59
1.16
22.08
39.35
55.3
71.31
86.97
100.39
109.51
112.9
110.12
101.41
87.35
69.01
48.24
27.71
10.79
0.74
-0.19
8.42
24.76
45.06
64.21
76.93
79.35
70.51
53.13
32.95
16.44
8.18
8.84
15.18
22.11
25.23
22.83
16.26
8.79
3.67
2.82
6.27
12.78
20.72
28.66
35.46
40.29
42.75
43.2
42.94
43.81
47.13
53.04
60.33
66.69
69.63
67.27
58.86
44.7
26.02
4.8
-16.58
-35.93
-52.14
-65.87
-79.43
-95.49
-115.19
-136.8
-156.21
-168.62
-170.83
-162.59
-146.03
-124.13
-99.34
-73.17
-46.96
-22.63
-2.78
10.06
14.62
11.28
1.43
-13.39
-32.06
-53.58
-76.16
-96.6
-110.72
-115.06
-108.47
-92.88
-72.65
-52.66
-36.49
-25.51
-19.15
-16.28
-16.26
-18.96
-23.89
-29.22
-31.56
-27.45
-15.39
2.44
20.54
32.63
35.14
29.56
21.76
18.31
22.23
30.83
37.29
35.14
22.6
4
-13.03
-22.77
-25.33
-26.82
-35.02
-53.99
-80.97
-107.74
-125.68
-130.89
-125.96
-117.71
-112.39
-112.2
-115.12
-117.61
-117.98
-117.73
-119.96
-126.19
-133.91
-137.05
-128.99
-106.11
-69.84
-25.87
18.48
57.5
89.19
115.23
138.81
161.91
183.85
201.81
212.95
216.04
212.06
203.35
192.06
179.15
164.6
148.62
132.83
120.32
114.41
116.69
125.69
137.27
146.45
149.63
145.8
136.18
123.3
109.73
97.4
87.29
79.1
71.55
62.71
50.69
34.44
14.58
-6.78
-26.69
-42.61
-53.63
-60.51
-65.04
-69.11
-73.73
-79.02
-84.84
-91.17
-97.85
-103.99
-107.78
-106.87
-99.78
-87.28
-72.69
-60.85
-56.01
-59.69
-70.12
-82.94
-93.11
-97.21
-94.34
-85.84
-73.98
-60.51
-46.13
-30.87
-14.69
1.86
17.39
30.19
39.13
43.99
45.42
44.27
40.78
34.71
26.03
15.61
5.65
-0.93
-1.96
3.08
12.78
24.62
36.14
45.97
53.91
60.41
65.66
69.4
71.42
71.94
71.7
71.53
71.64
71.58
70.5
67.83
63.77
59.15
54.68
50.24
44.64
36.08
23.11
5.55
-15.31
-36.95
-56.39
-71.22
-80.07
-82.96
-81.48
-78.6
-77.69
-81.19
-89.33
-99.75
-108.42
-111.39
-106.74
-95.16
-79.79
-64.83
-54.17
-49.98
-52.41
-59.52
-67.78
-73.06
-71.66
-61.82
-44.54
-23.35
-2.89
12.82
21.86
24.55
22.31
16.75
9.15
0.58
-7.61
-13.68
-16.09
-14.42
-9.63
-3.96
0.67
3.72
6.5
11.5
20.49
33.15
46.74
57.2
61.14
57.42
47.27
33.38
18.53
4.26
-8.94
-21.04
-31.81
-40.85
-47.81
-52.81
-56.33
-58.57
-59.2
-57.33
-52.48
-45.46
-38.19
-32.54
-29.13
-27.27
-25.57
-23.45
-21.65
-21.63
-24.03
-27.22
-27.75
-21.71
-6.78
16.58
45.25
74.46
99.27
115.57
120.52
112.52
92.11
62.7
30.6
3.6
-11.33
-10.25
6.36
34.1
66.31
96.48
120.19
135.93
144.63
148.32
148.88
146.76
141.28
131.48
117.05
98.93
78.89
59.18
41.5
26.98
16.31
10.18
9.5
14.71
25.1
38.33
50.72
58.22
58.12
50.14
36.24
19.73
3.81
-9.42
-19.51
-27.28
-33.87
-40.15
-46.55
-53.23
-60.18
-67.64
-75.59
-83.61
-90.68
-95.65
-97.77
-97.24
-95.19
-92.62
-89.91
-86.2
-79.93
-70.15
-57.49
-44.34
-33.81
-28.22
-27.89
-31.25
-35.6
-38.39
-38.12
-34.35
-27.19
-16.76
-3.18
13.23
31.76
51.38
70.9
89.25
105.18
116.69
121.14
116
100.23
75.2
44.85
14.27
-11.93
-30.97
-42.06
-45.67
-42.5
-33.2
-18.72
-0.75
18.06
34.38
45.38
49.87
48.54
43.58
37.49
31.82
26.83
21.94
16.43
10.28
4.31
-0.18
-2.27
-2.09
-0.99
-0.89
-3.38
-8.97
-16.94
-26.1
-35.3
-43.77
-50.94
-56.43
-59.83
-60.99
-60.5
-59.57
-59.8
-62.39
-67.5
-74.23
-80.91
-85.89
-88.35
-88.75
-88.3
-88.3
-89.36
-90.87
-91.22
-88.49
-81.32
-69.48
-53.74
-35.4
-15.59
4.98
25.95
46.86
66.88
84.55
98.22
106.73
109.87
108.04
101.89
91.99
79
63.99
48.76
35.7
27.21
24.87
28.64
36.73
46.15
53.53
56.24
53.14
44.89
33.55
21.54
10.84
2.31
-4.41
-10.27
-16.29
-22.85
-29.67
-36.39
-42.84
-48.96
-54.44
-58.34
-59.56
-57.48
-52.46
-46.06
-40.48
-37.46
-37.63
-40.37
-43.94
-46.32
-45.5
-39.84
-28.64
-12.9
4.26
18.17
23.91
18.67
3.58
-16.08
-32.5
-38.42
-29.88
-7.53
24.1
58.73
90.73
116.58
135.41
148.12
156.02
159.78
159.39
154.52
145.23
132.17
116.25
98.31
78.83
58.15
37.37
18.74
5.12
-1.16
0.65
8.85
19.68
28.95
33.84
33.67
29.39
22.37
13.56
3.37
-8.12
-20.65
-33.44
-45.25
-54.97
-62.04
-66.59
-69.25
-70.79
-71.87
-72.65
-73.24
-74.05
-75.78
-78.91
-83.11
-87.12
-89.31
-88.65
-85.35
-80.88
-77.45
-76.73
-79.06
-83.31
-87.38
-89.03
-86.43
-78.62
-65.54
-47.87
-26.68
-3.02
22.34
49.09
76.81
104.26
128.8
146.97
155.94
154.68
144.23
127.22
106.68
85.19
64.98
48.21
37.22
33.89
38.66
50
64.39
77.55
85.98
88.29
85.26
79.1
72.23
66.33
62.01
58.99
56.51
53.75
49.88
44.03
35.33
23.54
9.32
-5.54
-18.72
-28.89
-36.8
-45.07
-56.96
-74.06
-95.18
-116.67
-134.05
-144.12
-146.16
-141.86
-133.94
-124.71
-115.43
-106.73
-99.21
-93.52
-90.02
-88.14
-86.28
-82.39
-74.97
-63.98
-51.11
-38.63
-28.14
-20.04
-13.65
-7.98
-2.78
1.1
2.44
0.69
-3.42
-8.13
-11.97
-14.38
-15.53
-15.23
-12.07
-3.34
13.83
40.35
73.87
108.93
139.01
158.39
163.79
154.86
133.88
104.87
72.42
40.45
11.86
-11.66
-29.68
-42.39
-50.11
-52.93
-51.08
-45.67
-38.93
-33.68
-32.03
-34.51
-39.93
-46.36
-52.79
-60.02
-69.77
-82.73
-96.84
-107.66
-110.37
-102.72
-87.02
-69.76
-58.79
-59.44
-72
-91.64
-110.93
-122.79
-122.74
-109.73
-85.45
-52.96
-15.46
24.06
63.08
99.81
133.46
163.75
190.64
213.88
232.56
244.96
249.02
243.31
227.91
204.98
178.38
152.27
129.82
112.02
97.92
85.74
74.23
63.61
55.11
49.59
46.26
42.58
35.31
22.45
4.74
-14.52
-31.5
-44.24
-53.8
-63.65
-77.22
-95.79
-117.55
-138.92
-156.8
-169.92
-179.05
-185.43
-188.79
-186.59
-175.74
-154.87
-126.32
-96.15
-71.94
-59.4
-59.97
-70.3
-83.99
-94.18
-95.84
-87.03
-69.05
-45.4
-20.16
3.37
23.58
40.4
54.46
66.72
77.99
88.81
99.59
110.27
119.83
126.02
125.96
117.79
102.44
83.79
67.45
58.13
57.04
61.72
68.13
73.19
76.16
77.98
79.2
78.8
74.81
66.05
53.82
41.75
33.56
30.57
30.87
30.36
25.3
14.44
-0.52
-15.91
-28.13
-35.35
-38.11
-38.9
-41
-46.91
-57.17
-70.1
-82.81
-92.9
-99.45
-103.03
-104.69
-104.69
-102.13
-95.81
-85.7
-73.86
-63.81
-58.67
-59.2
-63.08
-66
-63.85
-54.5
-38.4
-17.61
5.76
30.1
54.05
75.99
94.1
106.75
112.86
112.24
105.52
93.98
79.32
63.48
48.87
37.78
31.72
30.67
32.54
33.91
31.92
25.94
17.78
10.5
6.16
4.69
3.99
1.37
-4.59
-13.23
-22.66
-31.05
-37.79
-43.82
-50.44
-57.81
-64.28
-67.13
-64.5
-56.8
-46.67
-37.6
-32.42
-32.13
-36.2
-43.52
-53.11
-64.29
-75.77
-85.07
-89.14
-86.24
-77.4
-66.73
-60
-61.85
-73.4
-91.6
-110.49
-123.66
-126.57
-117.93
-99.61
-75.44
-49.47
-24.43
-0.81
22.52
46.72
71.69
95.48
114.83
126.93
131.3
129.91
126.06
122.33
119.41
116.5
112.61
108.24
105.78
108.28
117.32
131.87
148.51
163.17
173.09
177.77
178.5
176.98
174.02
169.46
162.63
153.31
142.08
129.91
117.85
106.88
97.76
90.65
84.56
77.39
66.37
49.15
25.71
-1.06
-26.32
-45.67
-57.7
-64.9
-72.48
-85.86
-108.3
-139.74
-177.14
-215.77
-250.39
-276.07
-289.01
-287.63
-273.49
-251.1
-226.86
-206.73
-194.17
-188.69
-186.28
-181.5
-169.9
-150.27
-125.3
-100.71
-82.79
-75.67
-79.53
-90.78
-103.45
-111.58
-111.24
-101.02
-81.63
-54.98
-23.51
10.01
42.62
71.33
93.62
108.04
114.6
114.45
109.43
101.76
93.66
86.7
81.16
75.85
68.85
58.71
45.64
31.71
19.85
11.98
7.72
4.54
-0.5
-8.7
-18.96
-28.68
-35.76
-40.04
-43.56
-49.09
-58.14
-69.8
-81.27
-89.56
-92.8
-91.02
-85.62
-77.85
-67.84
-54.38
-36
-11.99
16.91
48.42
79.1
105.35
124.43
135.16
137.96
134.69
127.95
120.16
112.81
106.23
100.1
94.21
89.14
86.42
88.03
95.05
106.42
118.83
127.96
129.99
123.02
107.73
87.08
65.04
45.04
29.11
17.47
9.05
1.88
-6.06
-15.78
-27.09
-38.83
-49.45
-57.8
-63.75
-68.28
-72.67
-77.8
-83.74
-90.09
-96.47
-102.62
-107.98
-111.52
-111.89
-108.17
-100.78
-92.24
-86.65
-87.42
-95.14
-106.54
-115.69
-116.81
-107.17
-88.43
-65.41
-43.05
-23.45
-5.12
15.1
39.31
66.73
93.89
116.95
133.84
144.6
150.12
150.48
144.48
131.03
111.15
88.94
70.36
60.52
61.15
69.68
80.7
88.56
89.85
84.07
72.99
59.11
44.75
31.65
21.04
13.67
9.7
8.36
8.07
6.83
3.14
-3.08
-10.57
-17.37
-21.87
-23.72
-23.93
-24.14
-25.54
-28.23
-31.41
-34.37
-36.88
-38.77
-39.07
-35.64
-26.12
-9.7
11.28
31.6
45.04
47.14
37.25
18.85
-2.1
-19.18
-27.05
-22.69
-5.86
20.57
50.92
78.07
95.84
101.68
97.55
88.52
79.77
73.86
69.91
65.28
57.77
46.74
33.14
18.27
3.2
-10.98
-22.44
-28.68
-27.77
-19.87
-8.02
3.02
9.04
8.41
2.72
-4.43
-9.83
-12.21
-12.27
-11.77
-12.35
-14.98
-20.12
-28.09
-39.12
-52.76
-67.52
-81
-90.96
-96.64
-99.4
-102.03
-107.02
-114.72
-122.69
-126.96
-124.4
-114.9
-101.44
-88.53
-79.68
-75.74
-74.81
-73.66
-69.72
-62.03
-51.33
-39.16
-26.96
-15.67
-5.49
4.41
15.63
29.86
47.93
68.7
88.94
104.41
111.73
110.07
101.68
90.24
78.83
68.9
60.34
52.89
47.33
45.51
49.21
58.47
71.11
83.53
92.27
95.46
93.49
88.16
81.13
73.16
64.06
53.37
41.6
30.33
21.21
14.89
10.48
6.07
0.06
-7.67
-15.59
-21.52
-24.47
-25.92
-29.07
-37
-50.99
-69.24
-88.16
-104.35
-116.17
-123.98
-128.97
-132
-132.93
-131.66
-128.76
-125.8
-124.58
-125.68
-127.75
-128.15
-124.69
-117.29
-108.44
-101.15
-96.95
-94.65
-90.75
-81.92
-67.37
-49.61
-33.27
-23.4
-22.85
-31.66
-47.4
-66.02
-82.99
-93.79
-94.64
-82.92
-58.66
-23.95
17.73
63.17
111.12
162.1
217.14
272.83
326.08
368.41
390.63
386.41
355.26
303.17
240.6
179.09
127.87
92.04
71.43
62.55
59.95
58.19
53.17
43.33
29.63
14.22
-0.95
-16.1
-32.76
-52.12
-72.96
-91.31
-102.3
-103.09
-94.84
-82.04
-70.31
-63.03
-60.72
-62.36
-67.84
-79.12
-98.82
-127.45
-161.28
-192.7
-212.65
-214.64
-196.98
-162.89
-118.65
-70.83
-24.29
18.64
57.26
91.5
120.95
144.37
160.31
167.87
167.34
159.96
147.37
130.87
111.18
89.17
66.65
46.44
31.33
22.87
20.39
21.31
22.43
21.58
18.35
13.64
8.35
2.44
-5.06
-15.29
-28.66
-44.38
-61.07
-77.6
-93.42
-108.18
-121.27
-131.39
-137.04
-137.4
-133.4
-127.51
-122.5
-119.7
-118.01
-114.71
-107.51
-96.44
-84.14
-74.76
-71.52
-74.73
-81.32
-86.26
-84.82
-74.65
-56.5
-33.51
-9.53
12.71
32.59
50.98
69.22
88.14
107.44
125.7
140.99
151.57
155.91
152.72
141.12
121.52
96.28
69.85
47.68
34.35
31.63
37.88
49.09
60.85
70.43
77.15
81.48
83.8
83.7
80.38
73.59
64.26
54.27
45.35
37.82
30.25
20.3
6.3
-11.51
-30.66
-47.54
-59.34
-65.61
-68.22
-70.43
-75.3
-84.29
-96.57
-109.8
-121.12
-128.33
-130.27
-126.94
-118.86
-106.82
-91.92
-75.66
-59.95
-46.72
-37.3
-31.81
-29.25
-27.86
-26.01
-22.6
-16.95
-8.38
3.96
20.73
41.84
65.75
89.51
109.66
123.27
128.84
126.88
119.67
110.28
101.56
95.56
93.02
93.11
93.86
93.24
89.88
83.61
75.12
65.31
54.65
43.21
30.96
18.37
6.51
-3.39
-10.38
-14.38
-16.06
-16.33
-15.71
-14.42
-12.69
-11.09
-10.72
-12.83
-18.15
-26.71
-37.74
-49.88
-61.65
-71.84
-80.05
-86.96
-93.96
-102.25
-111.99
-121.57
-128.01
-128.37
-121.56
-109.75
-98.32
-93.37
-98.76
-113.59
-131.93
-145.24
-146.3
-132.18
-105.05
-70.67
-34.95
-1.23
30.25
61.34
93.61
126.68
158.23
185.14
204.94
216.97
221.96
221.12
215.52
206.1
193.89
180.35
167.32
156.58
149.48
146.53
147.42
150.88
154.46
154.79
148.58
133.87
111.22
83.67
55.34
29.52
7.26
-12.84
-33.02
-54.33
-76.15
-96.75
-114.38
-128.48
-139.27
-146.94
-151.1
-151.39
-148.51
-144.6
-142.75
-145.03
-151.44
-159.84
-167.76
-174.28
-180.77
-189.56
-201.64
-215.21
-225.8
-228.4
-219.77
-199.84
-171.12
-136.95
-100.03
-61.6
-22.01
18.16
57.28
92.92
122.73
145.41
161.26
171.54
177.25
178.65
175.58
168.08
157.2
145.23
134.96
128.56
126.65
128.26
131.56
134.75
136.33
135.11
130.27
121.53
109.32
94.89
79.97
65.89
53.06
41.13
29.93
19.99
12.17
6.78
2.91
-1.35
-7.89
-17.44
-29.15
-41.49
-54.05
-68.57
-87.83
-113.26
-142.95
-171.48
-191.77
-198.29
-189.62
-169.25
-143.96
-120.75
-104.3
-95.81
-93.69
-94.99
-97.29
-99.37
-100.77
-100.66
-97.36
-88.52
-71.86
-46.73
-14.83
19.81
52.32
79.07
98.74
111.89
119.37
121.19
116.4
104.35
86.16
65.43
46.99
34.71
29.67
29.83
31.67
32.28
31.31
30.57
32.18
36.26
40.41
41.3
36.67
27.13
15.75
6.05
-0.46
-5.12
-10.97
-20.54
-33.66
-47.62
-58.74
-64.4
-64.42
-60.96
-56.96
-54.6
-54.8
-57.43
-62.12
-67.89
-73.1
-75.8
-74.31
-67.91
-57.59
-46.45
-38.48
-37.13
-43.64
-56.51
-71.83
-84.65
-90.79
-88.27
-77.34
-59.89
-38.81
-17.35
1.28
14.51
21.39
23.1
22.85
24.71
31.75
43.98
57.89
68.54
72.7
71.07
67.66
67.15
71.86
80.38
88.9
94.43
97.27
100.48
107.57
119.64
134.27
146.93
154.01
155.06
152.9
151.31
152.2
154.56
155.56
152.98
147.05
140.47
136.36
136.09
138.52
140.99
141.71
141.19
141.85
146.03
153.58
160.83
161.76
150.71
124.94
86.13
39.88
-5.92
-43.31
-66.73
-74.53
-69.13
-56.12
-42.08
-31.84
-26.64
-24.06
-20.12
-11.71
1.95
19.26
37.44
53.93
67.07
75.7
78.9
76.56
70.37
64.31
63.5
71.8
89.44
112.57
134.81
150.35
156.64
154.98
149.11
142.58
137.18
132.7
128.01
122.14
115.09
107.34
99.09
89.99
79.49
67.87
56.33
46.4
38.64
31.92
23.55
11.19
-5.33
-23.33
-38.04
-44.89
-41.76
-30.15
-14.4
0.19
9.51
11.91
7.8
-1.58
-15.27
-32.93
-54.36
-78.64
-103.64
-126.69
-145.85
-161.52
-176.45
-194.3
-216.66
-240.74
-259.53
-264.7
-250.83
-218.18
-172.74
-123.47
-78.67
-43.52
-19.95
-8.05
-7.82
-19.57
-42.95
-76
-115.07
-155.99
-195.89
-234.35
-272.75
-312.28
-351.69
-386.66
-411.44
-421.58
-416.63
-400.53
-379.67
-359.05
-339.3
-316.54
-284.58
-238.95
-179.89
-113.05
-47.43
8.01
47.27
68.33
72.88
64.95
49.51
31.31
13.48
-3.45
-21.67
-44.89
-76.82
-119.52
-172.44
-232.41
-294.17
-351.37
-397.51
-426.97
-436.16
-424.53
-394.94
-353.02
-305.96
-260.52
-221.34
-190.37
-167.07
-149.4
-134.96
-121.76
-108.56
-94.86
-80.65
-66.26
-51.86
-37.34
-22.25
-5.99
11.87
31.31
51.78
72.51
92.83
112.54
131.74
150.78
169.7
188.08
205.3
221.01
235.53
249.89
264.79
280.09
294.65
306.63
314.02
314.94
307.42
289.25
258.37
213.9
157.9
96.21
37.78
-7.78
-33.34
-36.66
-20.72
8.28
43.66
80.65
117.3
153.58
190.08
226.96
263.23
297.12
326.53
349.21
363.11
366.77
359.74
343.32
320.1
293.07
264.63
235.9
207.17
179.21
154.32
136.03
126.94
126.49
129.98
130.17
120.45
98.11
65.6
28.87
-6.02
-35.62
-60.2
-82.92
-107.34
-135.52
-167.42
-201.22
-234.27
-263.88
-287.39
-302.72
-309.02
-306.99
-298.26
-284.36
-265.57
-240.81
-208.84
-169.82
-126.43
-83.48
-46.26
-18.4
-1.01
6.93
7.25
1.7
-8.05
-19.66
-29.98
-36.07
-37.06
-35.34
-35.59
-42.04
-55.65
-72.5
-85.22
-86.48
-72.17
-42.81
-2.6
43.03
89.63
134.44
175.98
212.65
242.11
261.64
269
263.4
246.1
220.14
189.57
158.56
130.48
107.19
88.94
74.57
62.55
51.86
42.49
35.29
31
29.28
28.05
24.28
15.19
0.01
-19.16
-38.27
-53.08
-61.17
-62.92
-61.02
-58.58
-57.69
-58.71
-60.79
-63.13
-65.26
-66.28
-63.73
-53.52
-31.65
2.72
45.27
86.8
116.06
124.43
109.42
76.03
34.91
-1.87
-25.14
-31.31
-22.15
-3.02
19.74
40.62
55.81
63.36
62.54
53.39
36.31
11.89
-18.97
-53.95
-89.24
-119.35
-137.68
-138.07
-116.97
-75.31
-19.04
41.84
96.13
134.31
151.06
146.61
126.33
99.14
74.97
61.65
62.88
77.68
101.38
127.57
150.34
165.44
170.56
165.13
150.32
129.25
106.79
88.55
78.99
79.19
85.7
91.98
90.94
77.83
51.92
16.5
-22.84
-60.07
-90.01
-109
-114.64
-105.79
-82.97
-48.53
-7.08
34.92
70.31
92.7
97.71
84.16
54.31
13.27
-31.75
-73.04
-104.33
-121.88
-124.72
-114.36
-94.08
-68.17
-41.25
-17.29
1.16
13.71
22.14
29.43
38.23
49.78
63.47
77.2
88.3
94.4
93.89
86.05
71.3
51.57
30.23
11.37
-1.77
-8.33
-10.22
-10.78
-12.96
-17.95
-24.85
-31.78
-37.52
-42.53
-48.81
-58.51
-72.22
-88.02
-102.18
-110.71
-111.3
-104.49
-93.48
-82.61
-75.72
-74.93
-80.46
-91.18
-105.4
-121.4
-137.28
-150.68
-158.81
-159.41
-151.91
-137.96
-121.01
-105.13
-93.45
-86.86
-83.79
-81.48
-77.35
-70.65
-62.64
-55.08
-48.51
-41.44
-31.15
-15.53
4.86
26.57
44.78
55.86
58.81
55.28
47.95
39.1
29.99
21.44
14.89
12.45
16.03
26.03
40.88
57.17
70.59
77.16
74.11
60.66
38.53
11.93
-13.46
-32.64
-42.96
-45.07
-42.18
-38.14
-35.57
-35.02
-35.77
-37.08
-39
-41.89
-45.56
-48.51
-48.54
-44.03
-35.46
-26.01
-20.25
-21.85
-31.5
-46.2
-60.38
-68.48
-67.24
-57.06
-41.7
-26.26
-14.72
-8.36
-5.87
-4.5
-1.75
3.47
10.64
17.8
22.59
23.33
19.36
11.22
0.65
-10.04
-18.22
-20.93
-15.09
1.84
30.87
70.18
114.77
157.69
192.29
214.78
225.34
227.55
226.03
223.59
219.97
212.43
197.92
174.93
144.71
110.88
77.97
49.97
29.69
18.75
17.45
24.56
37.13
50.92
61.2
64.11
58.17
44.64
26.84
8.77
-6.11
-15.52
-18.38
-14.93
-7.01
2.2
8.59
8.62
0.85
-13.09
-29.45
-44.4
-55.88
-64.28
-71.36
-78.71
-86.59
-93.86
-99.26
-102.78
-105.59
-108.78
-112.39
-114.95
-114.61
-110.57
-103.78
-96.35
-90.3
-86.38
-83.69
-80.52
-75.46
-67.96
-58.17
-46.73
-34.31
-21.61
-9.53
1.03
9.68
17.21
25.38
36.06
50.06
66.13
81.2
91.59
94.18
87.62
72.58
51.4
27.61
5.39
-11.2
-19.2
-17.46
-6.94
9.62
28.56
46.18
59.34
65.69
63.85
53.47
35.86
13.91
-8.61
-28.08
-42.01
-49.45
-50.69
-46.78
-39.11
-29.23
-18.76
-9.41
-2.58
0.91
1.01
-1.88
-7.31
-14.77
-23.74
-33.33
-42.15
-48.54
-51.5
-51.26
-49.16
-47.21
-47.3
-50.44
-56.45
-64.12
-71.51
-76.51
-77.47
-74.19
-68.39
-63.06
-61.35
-64.88
-72.65
-81.21
-86.41
-85.53
-78.65
-68.48
-58.62
-51.16
-45.67
-39.79
-30.98
-18.48
-4.05
8.8
16.92
19.2
16.63
11.17
4.5
-2.73
-10.7
-19.08
-25.99
-28.17
-22.72
-8.93
11.01
32.67
51.12
62.9
66.87
64.08
56.73
47.32
38.24
31.69
29.43
32.21
39.15
47.78
54.84
57.35
54.24
46.88
38.47
32.47
30.92
33.52
37.74
40.25
38.42
31.55
20.96
8.88
-2.87
-13.42
-22.68
-30.53
-36.09
-38.16
-36.24
-31.23
-24.98
-18.98
-13.02
-5.26
6.17
21.3
37.07
48.11
49.37
39.1
20.47
0.66
-11.91
-10.87
5.91
36.26
75.16
116.53
154.45
184.22
203.14
210.97
209.63
202.21
191.51
178.93
164.16
145.87
122.93
95.53
65.21
34.38
5.71
-18.3
-35.54
-44.33
-44.02
-35.64
-22.3
-8.88
-0.57
-1.12
-11.43
-29.23
-49.96
-68.46
-80.76
-85.27
-82.99
-76.55
-69
-63.07
-60.54
-62.14
-67.43
-74.56
-80.31
-81.25
-75.32
-62.99
-47.48
-32.91
-22.02
-14.78
-9.18
-3.45
2.23
5.75
5.03
-0.33
-8.52
-17.06
-24.87
-32.74
-41.97
-52.03
-59.86
-61.55
-54.99
-41.62
-25.96
-12.76
-4
1.53
6.6
13.16
21.1
29.04
35.93
41.66
46.44
49.62
49.16
42.59
28.65
8.84
-13.08
-32.84
-47.17
-54.45
-54.4
-47.83
-36.34
-22.41
-9.46
-0.79
2.07
0.36
-2.55
-3.24
-0.28
5.04
9.67
10.79
7.58
1.32
-5.9
-12.71
-19.04
-25.64
-32.95
-40.32
-46.16
-49.04
-48.71
-46.31
-44.03
-43.99
-47.24
-53.35
-60.79
-67.36
-71.1
-71.01
-67.23
-61.06
-54.61
-50.19
-49.23
-51.61
-55.5
-58.04
-56.31
-48.57
-34.8
-16.55
3.78
23.75
41.17
54.3
62.09
64.64
63.24
60.22
58
57.88
59.32
60.28
58.63
53.7
47
41.54
39.9
42.73
48.67
55.42
61.4
66.35
70.53
73.32
72.53
65.42
50.95
31.3
11.35
-3.85
-11.98
-14.76
-16.88
-22.67
-33.26
-45.98
-56.41
-61.46
-61.04
-57.47
-53.61
-50.99
-49.25
-47.13
-43.91
-40.11
-37.22
-36.52
-38.68
-43.78
-51.56
-61.45
-72.53
-83.08
-90.77
-93.48
-90.32
-82.54
-73.11
-65.48
-62.82
-67.19
-79.12
-97.22
-117.99
-135.89
-144.47
-138.46
-116.4
-81.86
-42.22
-5.44
23.75
45.44
63.59
82.95
105.79
130.68
153.67
170.83
180.03
181.25
175.79
165.22
151.07
135.31
120.74
110.64
107.43
111.57
121.24
133.36
144.68
153
157.33
157.68
154.51
148.34
139.76
129.3
117.45
104.66
91.21
77.23
63.19
50.05
38.99
31.09
26.57
24.68
24.02
23.49
22.68
22.09
22.7
24.79
27.27
27.43
21.61
6.3
-20.14
-56.38
-97.44
-135.47
-162.01
-170.95
-161.33
-138.02
-109.66
-84.68
-67.7
-58.36
-52.85
-47.22
-39.84
-31.86
-25.24
-20.74
-17.51
-14.38
-11.67
-11.81
-18.1
-31.59
-49.6
-66.28
-75.49
-74.07
-63.46
-48.3
-33.5
-21.62
-12.16
-3.26
6.08
14.86
20.42
20.31
14.25
4.63
-4.98
-11.86
-15.7
-18.52
-22.99
-30.45
-40.13
-50.04
-58.43
-64.6
-68.62
-70.53
-69.7
-65.4
-58.04
-49.75
-43.85
-43.27
-48.81
-58.36
-67.89
-73.36
-72.58
-65.72
-54.9
-42.85
-31.75
-22.53
-14.73
-6.87
2.87
15.71
31.29
47.52
61.12
69.01
69.68
63.57
52.75
39.9
27.29
16.57
9.03
5.67
7.1
13.23
22.75
33.45
42.67
48.45
50.29
49.47
48.28
48.84
51.95
56.8
61.17
62.73
60.22
53.67
44.03
32.4
19.71
6.94
-4.7
-13.56
-18.24
-18.59
-16.36
-14.95
-17.7
-25.89
-37.95
-50.43
-59.5
-62.89
-60.84
-55.66
-50.41
-47.44
-47.57
-50.13
-53.55
-55.9
-55.3
-50.08
-39.06
-21.89
0.52
25.95
51.36
73.88
91.82
104.69
113.11
118.29
121.2
121.82
119.04
111.54
98.77
81.83
63.23
46.36
34.1
27.84
27.36
31.29
37.92
45.55
52.84
58.18
60
57
48.91
36.95
23.36
10.48
-0.43
-9.6
-18.17
-26.78
-35.11
-42.04
-46.43
-48.15
-48.15
-47.79
-48.07
-49.28
-51.13
-53.53
-57.16
-62.96
-71.42
-81.69
-91.78
-99.69
-104.74
-108.07
-111.62
-116.24
-120.26
-120.17
-112.73
-97.42
-77.58
-59.25
-48.31
-47.43
-54.8
-65.23
-73.11
-74.64
-68.97
-57.55
-42.43
-25.33
-7.14
11.49
29.55
45.66
58.87
69.05
76.89
83.36
88.79
92.16
91.34
84.41
71.03
53.04
33.82
17.17
6.21
2.6
6.39
16.62
31.71
49.4
66.64
80.06
87.09
86.98
81.18
73.01
66.32
63.68
65.53
69.94
73.9
74.81
71.62
65.15
57.8
52.25
50.31
52.14
56.38
60.77
63.01
61.48
55.6
45.95
33.91
21.19
9.59
0.24
-6.81
-12.95
-20.67
-32.66
-50.54
-73.88
-99.87
-123.86
-141.06
-147.97
-143.11
-127.14
-102.17
-71.17
-37.61
-5.2
22.71
43.78
57.35
64.72
68.37
70.63
72.37
72.2
66.86
53.16
30.03
-0.3
-32.67
-60.79
-79.56
-86.67
-82.87
-70.8
-53.48
-33.23
-11.84
8.49
24.57
32.89
31.03
19.67
3.12
-12.4
-21.66
-22.88
-18.5
-13.68
-13.26
-19.32
-30.46
-42.89
-52.74
-58.01
-59.04
-57.72
-56.29
-56.15
-57.49
-59.57
-61.5
-62.78
-63.58
-64.45
-65.66
-66.84
-66.96
-64.88
-60.11
-53.85
-48.38
-46.37
-49.03
-55.44
-62.98
-68.95
-71.91
-71.69
-68.98
-63.77
-55.13
-41.58
-22.17
2.09
28.36
53.05
72.99
86.29
92.49
91.86
84.96
72.91
57.74
42.56
30.78
24.82
25.51
31.87
41.73
52.52
62.29
69.93
75.11
77.37
76.16
71.21
63.15
53.59
44.7
38.53
35.71
35.64
36.94
38.39
39.69
40.78
41.15
39.62
34.75
25.8
13.62
0.74
-9.88
-16.71
-20.69
-24.28
-30.08
-39.42
-51.81
-65.52
-78.75
-90.44
-100.19
-107.64
-112.18
-113.1
-110.39
-104.89
-98.18
-91.97
-87.21
-83.5
-79.23
-72.09
-60.13
-42.8
-21.23
2.05
24.08
42.7
57.42
69.12
78.82
86.77
92.39
94.83
93.81
90.21
85.61
81.23
77.3
73.29
68.87
64.74
62.64
64.19
69.39
76.09
80.46
78.82
69.47
53.38
33.6
13.73
-3.57
-17.45
-28.37
-36.95
-43.1
-45.96
-45.01
-40.86
-35.5
-31.37
-30.09
-31.51
-34.06
-35.98
-36.6
-36.58
-37.3
-39.64
-43.17
-46.29
-47.02
-43.61
-35.17
-21.93
-5.51
11
23.53
28.36
23.82
11.31
-5.13
-20.47
-30.36
-32.14
-24.58
-7.18
19.82
54.73
93.35
129.41
156.5
170.79
172.63
166.06
156.27
146.51
136.84
125.09
109.03
88.15
64.15
39.72
17.01
-2.87
-19.3
-31.42
-38.11
-38.8
-34.58
-28.52
-24.75
-26.52
-34.41
-46.07
-57.3
-64.27
-65.44
-62.16
-57.74
-55.54
-57.1
-61.66
-67.06
-70.87
-72
-71.06
-69.86
-70.19
-72.64
-76.1
-78.22
-76.56
-69.74
-58.37
-45
-33.24
-26.43
-26.32
-32.32
-41.78
-50.94
-56.21
-55.56
-48.69
-36.55
-20.74
-2.8
16.26
35.97
55.97
75.83
94.61
111.23
124.66
133.95
138.28
137.09
129.99
116.89
98.59
76.87
54.23
33.36
16.67
5.67
0.81
1.57
6.53
13.57
19.85
22.31
18.49
7.79
-7.72
-24
-36.74
-43.46
-44.53
-43.03
-42.85
-46.41
-53.54
-61.85
-68.37
-70.94
-69.27
-64.61
-58.97
-54.2
-51.69
-52.47
-56.91
-64.35
-73
-80.31
-83.66
-81.54
-74.26
-63.8
-53.25
-45.29
-41.43
-41.41
-43.25
-44.17
-41.44
-33.47
-20.48
-4.46
12.06
27.02
39.49
49.74
58.59
66.71
73.95
79.55
82.67
82.73
79.69
74.08
66.95
59.57
53.12
48.3
45.19
43.41
42.43
41.79
41.43
41.31
40.93
39.48
35.98
30.05
22.24
13.73
5.62
-1.52
-7.98
-14.42
-20.83
-26.19
-28.89
-27.93
-23.93
-19.12
-16.3
-17.34
-21.98
-28.33
-34.17
-38.2
-40.83
-43.67
-48.17
-54.49
-61.42
-66.97
-69.35
-67.88
-63.27
-57.31
-52.58
-51.96
-57.75
-70.63
-88.69
-107.33
-120.87
-124.66
-117.14
-100.42
-78.71
-56.19
-35.38
-16.77
0.45
16.92
32.64
47.37
61.25
74.57
86.99
96.65
100.43
95.46
81.27
61.05
40.64
25.61
18.72
19.25
24.26
31.11
39.2
49.75
63.9
80.69
96.66
107.59
111.12
108.1
102.2
97.41
95.7
95.87
94.94
90.52
82.81
74.15
67.34
63.67
62
59.62
54.42
46.55
38.85
35.4
38.94
49.02
61.74
70.86
70.36
56.68
29.88
-6.73
-47.86
-87.26
-118.62
-136.41
-137.05
-120.12
-89.45
-52.82
-19.71
2.35
11.14
10.42
7.55
9.04
16.81
27.47
35.03
34.94
26.65
13.51
0.19
-9.99
-16.36
-19.82
-21.04
-19.44
-13.68
-3.54
8.89
19.66
24.51
21.32
11.05
-2.65
-15.19
-22.98
-24.73
-21.58
-16.35
-12.68
-13.81
-21.39
-34.77
-51.17
-66.84
-78.34
-83.98
-84.14
-80.59
-75.08
-68.56
-61.33
-54.07
-48.45
-47.02
-51.69
-61.92
-73.83
-81.53
-79.95
-67.41
-46.32
-21.9
0.49
17.81
30.08
39.29
47.61
55.97
63.8
70.17
74.47
76.49
76.08
72.82
66.13
55.96
43.82
32.55
25.32
24.24
29.44
39.08
50.23
60.05
66.77
69.68
68.69
63.63
54.32
40.94
24.43
6.8
-9.24
-21.16
-27.91
-30.23
-30.34
-30.65
-32.28
-34.8
-37.07
-38.44
-39.69
-42.68
-49.09
-59.05
-70.53
-80.53
-86.86
-89.43
-90.44
-92.88
-98.42
-106.12
-112.7
-114.26
-108.48
-95.83
-79.03
-61.43
-45.22
-30.55
-16.02
-0.31
16.69
33.14
45.76
51.52
48.94
38.36
21.91
2.93
-14.96
-28.74
-36.52
-37.94
-33.99
-26.45
-16.97
-6.47
4.75
16.39
27.69
37.35
43.94
46.69
46.15
43.99
41.86
40.37
38.69
35.16
28.6
19.41
9.76
2.35
-0.85
0.23
3.68
6.9
8.04
6.9
4.69
3.08
2.82
3.17
2.4
-1.26
-8.8
-20.17
-34.9
-52.51
-72.25
-92.56
-110.47
-121.61
-121.52
-107.67
-81
-46.34
-10.7
19.45
40.74
53.8
62.29
70.26
79.87
90.54
100.02
106.01
107.72
106.2
103.26
100.14
96.89
92.88
87.99
83.48
81.72
84.69
92.54
103.27
113.67
120.69
122.57
118.88
110.14
97.4
82.44
68.14
58.13
55.51
60.67
70.25
78.06
77.72
65.79
43.52
16.22
-9.11
-26.23
-31.79
-26.44
-14.59
-3.4
-0.88
-13.21
-41.9
-82.4
-125.13
-158.88
-175.31
-171.96
-152.25
-123.09
-91.34
-61.55
-35.71
-14.43
2.02
13.58
20.93
25.5
28.94
31.88
33.01
29.72
19.86
3.6
-15.66
-32.39
-41.7
-41.61
-33.63
-21.88
-10.83
-3.41
-0.29
-0.47
-2.49
-5.27
-8.5
-12.01
-15.37
-17.58
-17.73
-15.7
-12.5
-9.86
-9.29
-11.28
-14.98
-18.75
-21.31
-22.6
-23.71
-25.94
-29.8
-34.55
-38.7
-41.04
-41.76
-42.64
-45.96
-52.92
-62.52
-71.75
-76.84
-75.12
-66.22
-52.04
-35.71
-19.84
-5.64
7.14
19.55
32.67
46.92
61.76
75.58
86.05
90.68
87.57
76.3
58.64
38.53
20.72
9.05
5.18
8.26
15.76
24.97
34.27
43.2
51.52
58.28
61.62
59.69
52.09
40.73
28.98
19.89
14.37
10.8
6.48
-0.33
-9.25
-18.35
-25.74
-31.34
-36.82
-44.12
-53.82
-64.64
-74.55
-82.31
-88.58
-95.1
-103.59
-114.13
-124.89
-133.02
-135.89
-132
-120.98
-103.58
-81.34
-56.74
-32.85
-12.73
1.35
8.55
9.63
6.84
2.92
0.58
1.97
8.33
19.61
34.64
51.92
69.91
87.05
101.49
111.14
114.18
109.85
99.48
86.55
75.59
69.86
69.77
72.76
74.86
72.97
66.2
55.89
44.19
32.65
21.6
10.84
0.77
-7.19
-11.37
-11.27
-8.1
-4.52
-3.46
-6.64
-13.86
-23.51
-33.89
-43.9
-53.27
-61.99
-69.97
-77.05
-83.17
-88.71
-94.59
-101.6
-109.37
-116.04
-118.73
-114.89
-103.71
-86.97
-68.79
-54.26
-47.33
-49.14
-57.52
-67.47
-72.82
-68.48
-51.94
-23.84
12.45
52.26
91.11
125.67
154.25
176.58
193.11
204.22
209.77
209.12
201.53
186.48
164.36
137.2
108.65
83.29
65.21
56.55
56.82
63.59
73.72
84.85
95.8
105.73
113.32
116.28
112.16
99.97
81.4
60.47
41.95
28.95
21.51
16.78
10.6
-0.26
-16.47
-35.87
-54.5
-68.52
-76.13
-77.96
-76.2
-73.03
-69.34
-65.01
-60.24
-56.83
-58.02
-66.99
-84.25
-106.03
-125.26
-134.56
-129.75
-111.85
-86.3
-60.17
-38.94
-24.36
-14.86
-7.46
0.15
8.2
15.21
19.65
21.19
20.7
19.4
17.6
14.4
8.69
0.47
-8.11
-13.53
-12.68
-4.72
8.38
22.7
34.49
41.75
44.28
42.81
38.11
30.61
20.59
8.65
-4.35
-17.51
-29.85
-40.29
-47.56
-50.82
-50.37
-47.96
-46.43
-48.63
-55.92
-67.37
-80.52
-92.48
-101.22
-106.06
-107.16
-104.94
-99.44
-90.59
-78.61
-64.22
-48.37
-31.74
-14.63
2.89
20.31
36.25
48.74
56.54
60.02
61.37
63.62
68.91
77.17
86.13
92.5
93.52
88.25
77.57
63.27
47.32
31.55
17.98
8.68
5.29
8.09
15.38
24.08
31.09
34.82
35.32
33.62
30.41
25.4
18.09
8.63
-1.82
-11.66
-19.9
-27.01
-34.28
-42.26
-49.53
-52.87
-49.18
-37.47
-20.15
-2.44
9.73
12.59
6.06
-6.45
-20.21
-31.46
-38.89
-43.94
-49.56
-58.3
-70.69
-84.96
-97.73
-105.51
-106.36
-100.45
-89.67
-76.34
-62.21
-47.57
-31.79
-14.14
5.39
25.72
44.77
60.58
72.24
80.08
84.84
86.47
84.01
76.33
63.46
47.47
32.12
21.25
16.6
16.88
18.48
17.33
11.15
0.47
-11.66
-21.71
-27.48
-28.97
-28.09
-27.36
-28.58
-31.93
-36.01
-38.27
-36.28
-28.88
-16.95
-3.04
9.43
17.92
22.05
23.75
26.19
32.27
43.17
57.7
72.87
84.81
90.06
86.35
72.91
50.84
23.55
-3.63
-24.17
-32.14
-24.49
-2.6
27.75
58.31
81.49
93.3
94.62
89.97
84.94
83.23
85.07
87.67
87.22
81.29
69.84
54.53
37.27
19.36
1.38
-15.51
-28.65
-34.64
-31.06
-18.61
-1.87
12.34
18.19
13.26
-0.39
-17.48
-32.37
-41.32
-43.52
-40.63
-35.53
-30.93
-29.03
-31.16
-37.69
-47.68
-58.47
-66.12
-66.67
-58.22
-42.28
-23.92
-9.77
-5.24
-12.19
-28.08
-46.97
-62.03
-68.28
-64.2
-51.54
-33.9
-15.33
1.16
14.53
25.51
35.89
47.73
62.32
79.32
96.66
110.95
118.52
116.72
104.8
84.37
58.82
32.3
8.3
-10.85
-24.23
-31.98
-34.61
-33.09
-28.69
-23.03
-17.93
-15.11
-15.52
-19.07
-24.9
-32.06
-39.97
-48.18
-56.35
-63.83
-69.6
-72.88
-73.78
-73.54
-73.77
-75.4
-77.68
-78.68
-76.2
-69.14
-58.35
-46.39
-36.24
-29.8
-27.44
-28.19
-30.59
-33.16
-34.72
-34.3
-31.13
-24.95
-16.26
-6.13
4.7
16.39
30.12
46.9
66.26
85.62
100.87
107.94
104.94
93.02
75.69
57.22
40.8
27.69
17.67
9.82
3.3
-2.07
-5.88
-7.6
-7.07
-4.76
-2.01
-0.72
-2.85
-9.21
-19.08
-30.38
-40.77
-49.04
-55.5
-61.43
-67.52
-73.25
-77.23
-78.63
-78.02
-76.93
-76.5
-76.61
-76.05
-73.79
-70.45
-68.41
-70.57
-78.18
-89.32
-99.44
-103.51
-98.29
-83.33
-60.44
-32.47
-2.52
26.21
50.37
66.87
74.13
73.24
68.13
63.74
63.39
67.1
71.4
71.14
62.27
44.17
20.37
-2.71
-18.41
-22.41
-13.95
4.11
26.86
49.3
68.15
82.47
92.6
99.02
101.89
101.38
98.5
95.36
94.44
97.24
103.16
109.54
112.98
111.5
105.54
97.58
90.78
87.1
86.28
85.72
81.46
69.71
48.3
17.79
-17.83
-51.51
-75.17
-82.64
-72.45
-48.75
-19.71
5.61
21.12
25.98
24
20.62
19.62
21.34
23.37
22.77
18.15
10.43
1.73
-6.45
-14.32
-22.96
-32.7
-41.94
-47.56
-47.05
-40.3
-30.02
-20.52
-15.42
-16.04
-21.26
-28.55
-35.04
-38.47
-37.61
-32.53
-24.79
-17
-12.52
-13.96
-21.85
-33.73
-44.84
-50.09
-46.63
-35.51
-21.25
-10
-6.78
-13.41
-27.82
-45.18
-60.15
-69.02
-70.54
-65.57
-56.11
-44.02
-30.07
-14.11
4.12
24.47
45.8
65.74
81.32
89.86
89.78
81.16
66
47.52
28.67
11.23
-4.3
-17.82
-28.33
-33.68
-31.41
-20.91
-4.7
11.87
23.12
25.54
19.42
8.38
-3.19
-12.72
-20.15
-26.87
-33.91
-40.89
-46.43
-49.39
-50.22
-50.74
-52.93
-57.64
-63.85
-69.29
-71.55
-69.39
-63.21
-54.66
-45.97
-39.13
-35.49
-35.48
-38.39
-42.68
-46.47
-47.98
-45.91
-39.67
-29.28
-15.13
2.21
22.05
43.42
64.94
84.75
100.63
110.79
114.56
112.39
105.42
94.97
82.1
67.74
52.94
39.4
29.22
24.38
25.41
30.79
37.33
41.55
41.28
36.68
29.82
23.22
18.38
14.92
10.82
3.73
-7.63
-22.52
-38.39
-52.08
-61.69
-67.44
-70.9
-73.42
-75.15
-75.24
-72.44
-66.32
-58.33
-51.16
-47.28
-47.75
-52.15
-59.35
-68.62
-79.6
-91.69
-102.82
-109.27
-107.6
-96.99
-80.25
-62.63
-49.43
-43.24
-42.93
-44.94
-45.3
-41.62
-33.6
-22.44
-9.28
5.2
20.08
33.68
43.81
49.04
49.76
48.42
48.4
51.92
58.61
65.63
69.48
67.54
59.65
48.17
36.94
29.41
27.17
29.4
33.87
38.63
43.29
48.72
55.64
63.45
70.17
73.5
72.6
69.18
66.86
68.67
75.35
84.78
93.51
98.88
100.19
98.15
93.33
85.21
72.71
55.81
36.51
18.2
4.18
-3.85
-6.41
-5.37
-2.84
-0.37
1.26
0.75
-4.36
-17.16
-39.92
-72.63
-111.8
-150.45
-180.13
-194.06
-189.86
-170.91
-144.66
-119.51
-100.9
-89.28
-81.29
-73.05
-62.83
-52.05
-43.67
-39.4
-37.75
-34.67
-26.4
-12.55
3.19
15.65
22.09
24.86
30.38
45.09
70.37
100.3
124.39
133.7
126.18
107.77
88.56
76.64
73.44
73.88
71.13
61.65
47.63
34.84
28.27
28.87
33.16
36.04
34.59
29.38
23.08
17.94
14.35
11.21
7.39
2.93
-0.68
-1.35
2.17
9.24
17.58
24.08
25.49
19.97
8.31
-5.74
-16.64
-19.65
-13.41
-0.85
12.08
19.91
21.12
18.78
18.3
23.71
35.47
50.85
66.26
78.92
87.22
90.02
85.96
74.42
57.44
40.27
29.34
28.69
37.25
49.42
58.51
60.29
54.57
43.73
29.81
13.32
-5.19
-23.17
-36.09
-39.97
-34.98
-26.03
-20.07
-21.39
-28.93
-38.04
-45.11
-50.8
-59.07
-72.97
-90.69
-105.86
-112.09
-108.46
-101.27
-99.93
-110.18
-129.59
-149.42
-160.73
-160.36
-152.3
-143.61
-138.65
-136.1
-131.09
-119.63
-102.35
-83.96
-69.59
-61.22
-56.42
-50.69
-40.91
-27.04
-11.46
2.91
14.66
23.62
29.64
32.19
30.7
25.65
18.78
12.45
7.73
3.88
-0.96
-8.1
-16.96
-25.28
-30.1
-29.56
-24.12
-16.12
-8.43
-2.75
0.59
2.51
4.58
8
12.94
18.53
23.78
28.26
32.54
38.35
47.44
59.68
72.59
82.04
84.09
77.48
64.32
48.97
35.8
27.28
23.3
21.99
21.49
20.94
20.47
20.04
18.8
15.39
8.89
-0.25
-9.84
-16.53
-17.58
-12.27
-2.46
7.59
12.41
7.3
-9.41
-34.89
-62.24
-82.55
-88.18
-75.74
-47.5
-10.14
28.34
61.75
87.37
105.98
120.45
133.7
147.11
160.07
170.66
176.58
176.66
171.19
161.32
147.89
130.77
109.33
84.05
57.97
36.32
24.69
25.88
37.89
54.35
67.44
71.59
66.11
54.83
43.24
34.97
30.06
25.67
18.5
7.07
-7.61
-23.29
-38.08
-51.28
-63.27
-74.57
-84.77
-92.16
-94.5
-90.05
-79.05
-64.45
-51.56
-46.38
-53.32
-72.66
-99.7
-125.8
-141.12
-138.48
-116.53
-80.34
-39.23
-2.59
24.16
41.19
52.77
64.25
78.88
96.54
114.32
128.25
135.11
133.45
123.9
109.23
93.51
80.75
73.22
70.58
70.33
69.29
65.51
59.32
52.17
44.6
34.62
18.63
-6.17
-39.05
-74.92
-106.01
-125.85
-132.2
-127.54
-117.31
-106.99
-100.15
-98.08
-100.53
-106.5
-114.67
-123.52
-131.69
-137.96
-141.44
-141.32
-136.79
-127.42
-113.87
-98.22
-83.49
-72.29
-65.44
-61.46
-57.16
-49.4
-36.83
-20.87
-4.73
8.63
18.33
26.06
35.06
47.82
64.26
81.3
94.31
99.32
94.99
83.13
67.67
52.69
40.96
33.43
29.87
29.88
33.37
40.19
49.5
59.03
65.36
65.32
57.74
44.22
28.54
14.89
5.7
0.51
-3.29
-8.6
-16.79
-26.8
-36.06
-42.38
-45.32
-46.44
-48.03
-51.8
-57.86
-64.8
-70.73
-74.14
-74.6
-72.86
-70.36
-68.59
-68.69
-71.18
-75.92
-82.25
-89.36
-96.23
-101.69
-104.43
-103.08
-96.73
-85.22
-69.3
-50.27
-29.58
-8.18
13.4
34.17
52.22
64.69
68.38
61.18
43.38
18.25
-8.78
-32.09
-47.66
-54.11
-52.49
-44.97
-33.82
-20.6
-6.39
7.53
19.48
28.03
32.87
35.06
36.78
40.04
45.29
51.25
55.9
58.08
58.2
57.81
58.15
58.99
58.84
56.02
50.12
42.85
37.36
36.76
42.36
52.92
65.08
75
79.69
77.86
69.44
54.68
33.66
7.33
-21.15
-46.05
-60.66
-60.08
-44.03
-17.7
10.42
32.77
46.32
53.61
60.45
71.69
87.91
105.04
116.81
118.24
108.07
88.71
64.67
40.55
19.84
4.43
-5.03
-8.65
-6.91
-0.42
10.11
23.39
37.41
49.34
56.05
55.33
47.13
33.8
19.13
6.69
-1.92
-7.54
-12.41
-18.14
-24.76
-31.18
-36.86
-42.97
-51.65
-63.55
-76.15
-83.83
-80.84
-65.98
-45.06
-28.96
-27.82
-44.79
-73.66
-101.85
-117.61
-116.8
-104.28
-89.8
-80.74
-77.51
-74.14
-63.32
-42.17
-14.85
10.1
25.88
31.81
33.39
37.98
49.6
66.33
82
90.62
90.45
84.69
78.53
75.34
75
74.83
72.04
66.08
59.1
54.37
54.02
57.44
62.05
64.88
63.73
57.85
47.8
34.61
19.01
1.52
-17.19
-35.7
-52
-64.37
-72.01
-75.93
-78.83
-83.73
-91.78
-101.12
-107.82
-108.62
-103.28
-94.94
-88.25
-86.78
-90.98
-98.16
-104.44
-106.8
-103.68
-94.79
-80.28
-60.9
-38.88
-17.88
-1.82
7.18
10.77
13.73
21.44
36.76
58.44
81.74
101.29
113.12
115.08
106.43
87.19
58.72
25.21
-6.08
-26.72
-30.64
-17.76
5.16
27.95
42.05
44.44
38.14
29.16
22.23
18.5
16.03
12.63
8.83
7.6
12
22.34
35.22
44.89
46.39
38.91
26.32
15.14
10.43
12.88
18.11
18.68
8.17
-15.25
-47.86
-82.08
-109.68
-125.14
-127.31
-118.94
-105.14
-90.92
-80.1
-75.46
-78.67
-89.79
-106.54
-124.23
-136.79
-139.09
-128.75
-107.05
-77.67
-44.86
-11.47
21.22
52.81
82.87
110.7
135.32
155.9
171.85
182.45
186.15
181.37
168.42
151.09
135.97
129.93
136.76
155.2
179.46
201.62
215.29
217.88
210.31
195.13
174.61
150.43
123.82
96.49
71.06
50.46
36.32
28.05
23
17.85
10.1
-0.8
-13.6
-25.92
-35.64
-42.05
-46.07
-49.36
-53.53
-59.2
-65.9
-72.19
-76.9
-80.25
-84.74
-94.05
-110.88
-134.56
-160.14
-180
-187.2
-179.16
-159.28
-134.74
-112.39
-95.35
-82.34
-69.99
-56.63
-44.22
-37.52
-40.28
-51.47
-64.21
-68.85
-58.34
-33.05
-1.36
24.46
35.1
29.43
14.95
3.14
2.62
14.53
33.06
50.16
61
66.13
69.63
74.75
80.68
83.16
78.08
64.89
47.27
30.89
19.87
14.82
13.46
12.61
10.39
6.66
1.95
-3.63
-10.84
-20.7
-33.54
-48.59
-64.15
-77.95
-87.91
-92.58
-91.57
-85.58
-76.36
-66.11
-57.05
-50.58
-47.01
-45.53
-44.78
-43.46
-40.75
-36.37
-30.3
-22.58
-13.02
-1.42
12.13
27.25
43.66
61.13
79.23
97.06
112.87
124.44
129.46
126.53
115.87
99.42
80.27
61.45
45.33
33.25
25.58
21.88
20.86
20.76
19.82
16.84
11.84
6.18
1.61
-0.98
-2.1
-3.53
-7.37
-14.98
-26.16
-39.28
-52.21
-63.41
-72.73
-81.22
-90.21
-100.29
-110.56
-118.91
-123.31
-122.97
-118.88
-113.13
-107.57
-102.65
-96.91
-87.82
-73.55
-54.53
-33.86
-16.01
-5.1
-3.57
-11.29
-25.92
-43.59
-59.89
-70.5
-72.12
-63.49
-45.82
-22.87
0.23
18.71
30.26
35.92
39.08
43.37
50.23
58.47
65.23
67.91
65.48
58.51
48.3
35.64
20.73
4.3
-10.71
-19.02
-15.22
2.84
31.9
63.76
88.72
100.42
98.64
88.88
78.45
72.35
71.26
72.59
73.16
72.07
71.47
74.59
82.91
94.87
106.68
114.83
118.07
117.81
116.6
116.6
118.34
120.95
123.07
123.46
120.75
112.98
97.74
73.37
40.33
1.76
-36.67
-68.38
-87.97
-92.81
-83.5
-63.15
-36.47
-8.75
14.94
31.19
38.76
38.55
32.85
24.13
13.96
2.68
-9.87
-23.48
-37.34
-50.29
-61.41
-70.15
-76.36
-79.96
-80.56
-77.44
-70.49
-60.73
-50.26
-41.49
-36.31
-35.55
-38.84
-45.1
-53.01
-61.26
-68.5
-73.28
-74.38
-71.08
-63.75
-53.39
-41.3
-29.14
-19.23
-14.07
-15.42
-23.33
-35.5
-47.44
-54.32
-53.53
-46.45
-37.5
-31.63
-31.76
-37.45
-45.27
-51.06
-52.17
-48.12
-39.79
-28.24
-14.38
0.78
15.79
29.17
40.11
49.16
57.56
66.03
73.64
77.3
73.36
60.09
39.39
16.23
-3.64
-16.49
-21.93
-22.09
-19.57
-15.52
-9.66
-2.09
5.22
8.67
5.33
-4.47
-16.3
-24.2
-24.81
-19.88
-15.23
-16.43
-24.42
-34.56
-39.76
-35.78
-24.4
-12.38
-6.87
-10.75
-21.09
-31.84
-37.94
-38.25
-35.21
-32.4
-32.23
-35.3
-41.1
-48.55
-56.29
-62.04
-63.07
-57.48
-45.66
-30.7
-16.92
-7.41
-2.11
1.92
8.17
18.04
30.23
41.96
51.16
57.53
62.11
65.65
67.62
66.28
60.08
48.88
34.14
18.1
2.91
-10.06
-20.17
-27.01
-29.98
-28.77
-23.7
-15.92
-6.88
2.27
10.72
17.74
22.06
22.22
17.42
8.21
-3.62
-15.42
-24.74
-30.28
-31.73
-29.13
-22.64
-13.27
-3.62
2.33
0.44
-11.58
-32.47
-57.13
-78.66
-91.03
-91.1
-78.94
-57.24
-30.02
-1.42
25.16
47.42
64.65
78.12
90.27
103.42
118.39
133.46
145.02
149.5
145.11
132.67
115.34
97.17
81.78
71.52
67.54
70.08
78.26
90.03
102.51
112.53
116.97
114.15
104.41
89.98
74.04
59.48
47.9
39.16
31.92
24.63
17.03
10.22
6
5.73
8.87
12.53
12.39
4.52
-12.71
-37.38
-64.76
-88.94
-104.86
-109.9
-104.34
-90.69
-72.72
-54.22
-37.99
-25.47
-16.42
-9.26
-2.16
6.1
15.54
25.09
32.95
37.46
