29.63
34.63
37.72
39.77
41.3
42.2
42.06
40.39
37.16
32.86
28.31
24.19
20.72
17.65
14.49
10.88
6.8
2.59
-1.28
-4.33
-6.27
-7.01
-6.67
-5.49
-3.84
-2.04
-0.26
1.48
2.99
3.68
2.73
-0.52
-5.99
-12.49
-18.14
-21.14
-20.82
-18.14
-15.17
-14.02
-15.92
-20.78
-27.49
-34.81
-41.82
-48.06
-53.19
-56.57
-57.1
-53.6
-45.54
-33.25
-18.13
-1.99
13.3
26.34
36.43
43.54
48.1
50.67
51.7
51.22
48.97
44.7
38.65
31.77
25.49
21.22
19.65
20.44
22.37
24.15
24.97
24.93
24.69
24.85
25.43
25.71
24.8
21.95
17.23
11.31
5.14
-0.66
-6.05
-11.3
-16.55
-21.07
-23.41
-21.89
-15.62
-5.26
7.12
18.77
27.48
32.3
33.54
31.77
26.83
17.83
3.79
-15.11
-36.69
-57
-71.71
-77.75
-74.41
-63.17
-46.51
-26.69
-5.11
17.42
39.94
60.73
77.55
88.5
92.81
91.05
84.7
75.34
64.2
52.16
40.13
29.2
20.54
14.95
12.5
12.61
14.41
17.01
19.51
21.01
20.78
18.51
14.45
9.5
4.74
0.89
-2.05
-4.43
-6.56
-8.47
-10.08
-11.62
-13.74
-17.32
-22.73
-29.26
-35.24
-39.01
-39.89
-38.71
-37.38
-37.92
-41.41
-47.57
-54.95
-61.65
-66.05
-67.26
-65.01
-59.61
-51.53
-41.38
-29.72
-17.11
-4.05
9.04
21.71
33.39
43.18
49.89
52.46
50.39
44.11
34.98
24.9
15.7
8.66
4.22
2.18
2.05
3.32
5.54
8.18
10.54
11.82
11.37
8.98
5.01
0.34
-3.95
-6.78
-7.68
-6.8
-5.04
-3.63
-3.78
-6.02
-10.04
-14.86
-19.34
-22.81
-25.19
-26.95
-28.59
-30.27
-31.82
-33.11
-34.32
-36.21
-39.68
-45.31
-52.78
-60.8
-67.4
-70.52
-68.75
-61.59
-49.66
-34.35
-17.52
-1.02
13.51
24.94
32.68
36.74
37.82
37.23
36.58
37.2
39.53
42.79
45.31
45.31
41.87
35.57
28.22
22
18.44
17.83
19.42
22.07
24.97
27.85
30.68
33.21
34.62
33.93
30.62
25.18
19.08
14.12
11.51
11.22
12.03
12.23
10.7
7.39
3.35
-0.09
-2.19
-3.15
-3.94
-5.56
-8.41
-12.02
-15.43
-17.85
-19.03
-19.29
-19.14
-19.04
-19.22
-20.02
-21.98
-25.78
-31.65
-38.77
-45.06
-47.76
-44.43
-34.12
-18.03
0.8
18.64
32.39
40.73
44.27
44.84
44.39
44.18
44.48
44.92
45.15
45.3
46.05
48
51.22
54.82
57.32
57.32
54.1
48.16
40.89
34.01
28.87
26.13
25.61
26.7
28.58
30.45
31.52
31.11
28.7
24.2
18.18
11.82
6.55
3.48
2.95
4.49
7.18
10.11
12.7
14.78
16.28
16.79
15.54
11.47
3.76
-7.79
-22.51
-38.81
-54.54
-67.27
-74.71
-75.36
-69.11
-57.54
-43.64
-30.85
-21.64
-16.69
-14.77
-13.68
-11.47
-7.36
-1.61
4.88
11.15
16.27
19.12
18.41
13.22
3.76
-8.08
-19.13
-26.23
-27.71
-23.99
-17.31
-10.49
-5.67
-3.87
-5.09
-8.69
-13.7
-18.91
-23.01
-24.87
-24
-20.65
-15.63
-9.71
-3.25
3.65
10.53
16.14
18.64
16.61
9.99
0.49
-8.94
-15.81
-19.29
-20.63
-22.28
-26.34
-33.43
-42.39
-51.06
-57.42
-60.42
-60.03
-56.71
-50.71
-42.03
-30.69
-17.1
-2.3
12.15
24.62
33.73
38.77
39.71
37.03
31.56
24.51
17.02
10.01
3.99
-0.86
-4.7
-7.76
-10.27
-12.31
-13.95
-15.41
-16.83
-18
-18.24
-16.51
-11.93
-4.43
4.95
14.25
21.2
24.24
23.06
18.6
12.57
6.82
2.67
0.72
1.03
3.21
6.6
10.17
12.56
12.57
9.54
3.72
-3.8
-11.42
-17.77
-22.04
-24.38
-25.64
-26.86
-28.91
-31.91
-35.35
-37.98
-38.45
-35.61
-28.82
-18.17
-4.38
11.13
26.59
39.94
49.35
53.61
52.71
48.09
41.93
36.42
32.7
30.65
29.28
27.73
25.95
24.72
24.91
26.65
29.13
31.04
31.48
30.37
28.33
26.09
23.85
21.41
18.65
16.15
15.08
16.48
20.3
25.08
28.4
28.26
24.21
17.58
10.84
6.34
5.13
6.75
9.67
12.1
12.71
10.96
7.02
1.63
-4.15
-9.24
-12.83
-14.85
-16
-17.62
-21.07
-26.82
-33.99
-40.58
-44.37
-44.02
-39.65
-32.7
-24.88
-17.42
-10.56
-3.61
4.05
12.44
20.8
27.88
32.37
33.48
31.11
25.72
18.24
9.76
1.43
-5.68
-10.57
-12.55
-11.35
-7.34
-1.71
3.57
6.39
5.39
0.64
-6.25
-12.74
-16.59
-16.81
-13.94
-9.63
-5.62
-2.86
-1.43
-1.06
-1.62
-3.34
-6.56
-11.3
-16.82
-21.9
-25.33
-26.66
-26.41
-25.78
-25.98
-27.56
-30.29
-33.46
-36.45
-39.21
-42.22
-45.81
-49.58
-52.25
-51.95
-47.15
-37.36
-23.53
-7.76
7.48
20.27
29.63
35.47
38.28
38.56
36.74
33.26
28.78
24.33
20.92
19.09
18.53
18.24
17.03
14.07
9.45
3.85
-1.7
-6.33
-9.48
-10.76
-9.74
-6.09
0.04
7.79
15.5
21.34
24.09
23.64
20.82
16.82
12.39
7.41
1.17
-7.06
-17.36
-28.99
-40.6
-50.69
-58.14
-62.37
-63.45
-62.01
-59.01
-55.54
-52.71
-51.33
-51.53
-52.77
-53.83
-53.18
-49.52
-42.06
-30.96
-17.29
-2.78
10.69
21.48
28.63
31.95
31.92
29.52
26.05
23.03
21.89
23.54
27.97
34.16
40.25
44.19
44.62
41.4
35.83
29.97
25.76
24.13
25.02
27.45
30.16
32.09
32.61
31.57
29.05
25.37
20.93
16.36
12.46
10.06
9.81
11.93
15.98
20.94
25.51
28.42
28.87
26.76
22.56
16.95
10.54
3.72
-3.28
-10.06
-16
-20.37
-22.8
-23.51
-23.44
-23.88
-26.08
-30.6
-36.95
-43.74
-48.94
-50.6
-47.58
-39.85
-28.49
-15.19
-1.67
10.79
21.35
29.53
34.88
36.87
35.36
30.8
24.41
17.95
13.27
11.58
13.16
17.3
22.53
27.14
29.8
30.01
28.29
25.91
24.1
23.42
23.39
22.92
21.01
17.51
13.29
9.87
8.48
9.27
11.25
12.83
12.61
10.01
5.32
-0.61
-6.71
-12
-15.72
-17.37
-16.86
-14.84
-12.67
-12.07
-14.51
-20.56
-29.67
-40.43
-50.96
-59.46
-64.45
-64.95
-60.52
-51.6
-39.58
-26.72
-15.42
-7.41
-3.11
-1.53
-1.07
-0.44
0.77
2.18
3.21
3.75
4.17
4.91
5.97
6.6
5.69
2.57
-2.4
-7.86
-12.05
-13.67
-12.43
-8.99
-4.52
-0.27
2.76
3.9
2.84
-0.3
-4.99
-10.36
-15.35
-19.17
-21.61
-23.01
-23.97
-25
-26.29
-27.92
-29.93
-32.43
-35.45
-38.66
-41.34
-42.65
-41.91
-39.02
-34.54
-29.52
-25.02
-21.96
-20.77
-21.41
-23.45
-26.17
-28.61
-29.79
-28.89
-25.5
-19.64
-11.58
-1.77
9.19
20.62
31.67
41.42
48.91
53.55
55.24
54.33
51.48
47.31
42.29
36.8
31.26
26.36
23.01
21.97
23.43
26.78
30.63
33.52
34.51
33.47
31.02
27.95
24.75
21.49
18.12
14.73
11.73
9.55
8.19
7.16
5.59
2.84
-1.06
-5.28
-8.62
-10.05
-8.97
-5.32
0.77
8.94
18.51
28.38
37.14
43.52
46.84
47.42
46.19
44.13
41.56
37.9
32.16
23.78
13.35
2.73
-5.64
-9.99
-10.1
-7.47
-4.53
-3.49
-5.37
-9.6
-14.64
-18.79
-21.14
-21.83
-21.72
-21.78
-22.47
-23.65
-24.66
-24.78
-23.58
-21.1
-17.73
-13.98
-10.34
-7.23
-5.04
-3.92
-3.87
-4.43
-4.84
-4.22
-1.99
1.77
6.34
10.52
13.34
14.43
14.19
13.51
13.34
14.2
15.9
17.54
17.83
15.77
11.09
4.51
-2.43
-7.91
-10.58
-10.31
-8.24
-6.38
-6.78
-10.73
-18.13
-27.49
-36.61
-43.14
-45.23
-41.79
-32.68
-18.69
-1.44
16.9
34.02
47.79
56.82
60.57
59.45
54.53
47.18
38.66
30.05
21.94
14.44
7.35
0.41
-6.4
-12.81
-18.29
-22.19
-24.2
-24.62
-24.01
-22.97
-21.94
-21.1
-20.55
-20.51
-21.4
-23.54
-26.89
-30.94
-34.95
-38.35
-41.08
-43.68
-46.76
-50.4
-53.84
-55.79
-55.12
-51.74
-46.87
-42.5
-40.47
-41.63
-45.58
-50.98
-56.31
-60.39
-62.59
-62.41
-59.2
-52.4
-41.85
-28.34
-13.48
0.68
12.59
21.79
28.85
34.86
40.76
46.88
52.82
57.81
60.92
61.4
58.85
53.41
45.8
37.33
29.5
23.62
20.43
20
21.94
25.54
29.92
34.07
36.89
37.45
35.3
30.84
25.19
19.86
16.06
14.18
13.82
14
13.65
11.98
8.71
3.91
-2.09
-8.73
-15.36
-21.19
-25.48
-27.72
-27.85
-26.44
-24.73
-24.18
-26.01
-30.74
-38.05
-46.87
-55.6
-62.53
-66.02
-64.85
-58.21
-46.08
-29.4
-10
9.66
27.23
41.09
50.72
56.8
60.78
64.21
68.09
72.59
76.9
79.74
79.84
76.64
70.67
63.38
56.47
51.21
47.9
45.8
43.7
40.83
37.29
34.06
32.25
32.29
33.5
34.33
33.19
29.43
23.75
17.85
13.53
11.71
12.04
13.12
13.24
11.14
6.52
0.16
-6.62
-12.39
-16.2
-17.86
-17.92
-17.6
-18.34
-21.37
-27.37
-36.2
-46.9
-57.84
-67.1
-72.83
-73.74
-69.33
-59.85
-46.17
-29.6
-11.73
5.62
20.57
31.49
37.49
38.62
35.87
30.82
25.06
19.77
15.59
12.62
10.75
9.81
9.45
9.1
8.09
5.96
2.88
-0.17
-1.94
-1.45
1.29
5.04
7.77
7.61
3.68
-3.44
-12.16
-20.6
-27.36
-31.89
-34.28
-34.94
-34.23
-32.61
-30.7
-29.4
-29.62
-31.92
-36.22
-41.88
-47.8
-52.93
-56.53
-58.14
-57.46
-54.25
-48.41
-40.15
-30.05
-18.88
-7.45
3.66
14.15
23.84
32.34
39.09
43.44
44.88
43.4
39.53
34.23
28.62
23.56
19.48
16.4
14.05
12.14
10.45
8.88
7.56
6.78
6.73
7.38
8.46
9.28
9.09
7.57
5.09
2.58
1.06
1.07
2.3
3.93
5.06
5.18
3.95
0.77
-5.42
-15.49
-29.26
-44.83
-59.1
-69.21
-73.82
-73.79
-71.48
-69.09
-67.37
-65.34
-61.06
-53.04
-41.22
-26.77
-11.49
3
15.81
26.59
35.3
42.12
47.47
51.76
55.4
58.59
61.1
62.66
63.19
62.98
62.66
62.87
63.7
64.6
64.53
62.71
59.1
54.56
50.44
47.69
46.25
45.29
43.75
41.04
37.54
34.31
32.27
31.74
32.19
32.63
32.22
30.64
28.2
25.52
23.15
21.11
18.97
15.97
11.33
4.43
-4.94
-16.5
-29.2
-41.28
-50.63
-55.25
-53.84
-46.41
-34.37
-20.05
-5.88
6.28
15.59
22.15
26.42
28.66
28.71
26.18
20.85
13.14
4.18
-4.36
-10.71
-13.54
-12.44
-7.92
-1.31
5.64
11.21
14.1
13.65
10.03
4.05
-3.15
-10.3
-16.39
-21.05
-24.38
-26.77
-28.71
-30.47
-32.24
-34.02
-35.76
-37.19
-37.81
-37.05
-34.69
-31.15
-27.43
-24.64
-23.27
-22.76
-21.77
-18.88
-13.42
-5.99
1.88
8.53
12.82
14.38
13.22
9.4
2.99
-5.52
-14.65
-21.87
-24.25
-19.63
-7.62
9.93
29.56
47.38
60.36
66.98
67.27
62.28
53.74
43.67
34.14
27.08
23.7
24.05
27.01
30.71
33.22
33.13
29.66
22.33
10.82
-4.93
-24.04
-44.09
-61.37
-71.99
-73.38
-65.65
-51.48
-35.1
-20.63
-10.58
-5.31
-3.65
-3.92
-4.75
-5.53
-6.08
-6.17
-5.27
-2.48
2.88
10.86
20.69
31.01
40.3
47.55
52.51
55.69
57.98
60.07
62.17
64.07
65.35
65.8
65.53
64.84
63.92
62.68
60.59
56.92
51.04
42.75
32.28
20.27
7.49
-5.55
-18.84
-32.74
-47.71
-63.81
-80.35
-95.9
-108.61
-116.98
-120.34
-118.86
-113.43
-105.32
-96.02
-87.27
-81.11
-79.38
-82.9
-90.63
-99.59
-105.56
-104.63
-94.74
-76.47
-52.76
-27.68
-5.37
11.09
20.13
21.73
17.27
9.2
0.59
-5.77
-7.95
-5.51
0.51
8.11
15.15
19.98
21.7
19.97
14.75
6.39
-4.18
-15.09
-23.82
-27.97
-26.4
-20.03
-11.64
-4.83
-2.24
-4.43
-9.66
-15.03
-18.02
-17.59
-14.45
-10.21
-6.48
-4.28
-4.12
-6.24
-10.73
-17.18
-24.25
-29.72
-31.05
-26.62
-16.44
-2.31
12.98
26.7
37.13
43.83
47.3
48.59
48.83
49.04
49.91
51.72
54.29
57.16
59.87
62.04
63.44
63.81
62.84
60.34
56.45
51.99
48.15
45.91
45.45
46.08
46.63
46.05
44.03
40.92
37.49
34.34
31.65
29.24
26.86
24.29
21.39
18.23
14.92
11.78
9.11
7.21
6.17
5.77
5.59
5.06
3.76
1.4
-2.08
-6.7
-12.5
-19.46
-27.31
-35.34
-42.33
-46.76
-47.38
-43.56
-35.68
-25.02
-13.4
-2.65
5.82
11.26
13.55
12.95
10.04
5.5
0.14
-5.27
-10.03
-13.72
-16.25
-17.87
-18.92
-19.56
-19.64
-18.79
-16.7
-13.44
-9.56
-5.85
-2.99
-1.21
-0.23
0.5
1.33
2.13
2.3
1.02
-2.37
-8.02
-15.56
-24.11
-32.43
-39.17
-43.09
-43.47
-40.47
-35.28
-29.87
-26.44
-26.65
-30.88
-38.12
-46.17
-52.42
-54.8
-52.34
-45.38
-35.35
-24.22
-13.94
-5.97
-0.94
1.37
1.84
1.66
1.93
3.31
5.85
9.2
12.7
15.6
17.16
16.81
14.31
9.82
4.12
-1.65
-6.3
-9.13
-10.23
-10.43
-10.74
-11.79
-13.51
-15.16
-15.92
-15.4
-13.82
-11.82
-10.05
-8.85
-8.2
-8.06
-8.48
-9.68
-11.79
-14.67
-17.7
-20.1
-21.37
-21.59
-21.49
-22.17
-24.62
-29.29
-35.7
-42.54
-48.09
-50.8
-49.91
-45.59
-38.82
-30.86
-22.63
-14.42
-6.03
2.77
11.87
20.64
28.28
34.24
38.43
41.2
42.94
43.79
43.6
42.2
39.68
36.51
33.46
31.32
30.63
31.44
33.43
36.05
38.72
40.89
42.24
42.62
42.16
41.16
39.94
38.66
37.29
35.59
33.41
30.84
28.14
25.58
23.19
20.6
17.11
12.19
5.89
-1.02
-7.22
-11.49
-13.35
-13.35
-12.93
-13.83
-17.33
-23.75
-32.46
-42.12
-51.17
-58.19
-62.18
-62.56
-59.16
-52.2
-42.33
-30.56
-18.09
-6.01
4.9
14.32
22.33
29.31
35.53
40.94
45.15
47.61
47.93
46.18
42.96
39.17
35.82
33.64
32.9
33.5
35.11
37.28
39.55
41.48
42.56
42.37
40.65
37.41
32.98
27.9
22.79
18.16
14.24
10.98
8.06
4.98
1.29
-3.16
-8.24
-13.57
-18.6
-23
-26.76
-30.22
-33.89
-38.19
-43.17
-48.48
-53.38
-56.92
-58.16
-56.44
-51.55
-43.75
-33.78
-22.49
-10.8
0.68
11.54
21.41
29.78
35.94
39.18
39.16
36.17
31.12
25.22
19.55
14.78
11.09
8.35
6.37
5.05
4.21
3.53
2.46
0.46
-2.78
-7.11
-11.89
-16.27
-19.39
-20.62
-19.71
-16.86
-12.73
-8.42
-5.19
-4.02
-5.29
-8.67
-13.34
-18.37
-23.15
-27.58
-31.81
-36.04
-40.34
-44.74
-49.27
-54.04
-58.94
-63.46
-66.57
-67.01
-63.81
-56.76
-46.47
-34.02
-20.49
-6.74
6.55
18.7
28.86
36.28
40.55
41.9
41.17
39.51
37.95
37.18
37.38
38.29
39.37
40.01
39.65
37.99
35.07
31.32
27.32
23.52
20.18
17.29
14.86
12.99
11.88
11.51
11.56
11.35
10.1
7.48
3.66
-0.69
-4.87
-8.29
-10.89
-12.86
-14.41
-15.59
-16.33
-16.76
-17.37
-18.96
-22.34
-27.89
-35.33
-43.74
-51.91
-58.57
-62.66
-63.27
-59.77
-51.91
-40.03
-25.05
-8.45
8.14
23.39
36.51
47.3
55.88
62.28
66.33
67.87
66.87
63.69
59.07
53.9
48.89
44.43
40.6
37.36
34.8
33.16
32.67
33.29
34.49
35.46
35.38
33.86
31.17
27.98
25.12
23.1
21.91
21.11
20.08
18.26
15.36
11.49
7.11
2.88
-0.43
-2.24
-2.45
-1.57
-0.54
-0.52
-2.57
-7.46
-15.47
-26.24
-38.65
-50.76
-60.1
-64.33
-62.08
-53.54
-40.4
-25.24
-10.54
2.02
11.83
18.98
23.89
26.91
28.29
28.22
26.89
24.53
21.24
17.03
12.03
6.65
1.58
-2.31
-4.37
-4.53
-3.31
-1.63
-0.41
-0.23
-1.12
-2.68
-4.4
-6.02
-7.79
-10.15
-13.52
-17.86
-22.6
-26.9
-30.05
-31.88
-32.7
-33.18
-33.8
-34.8
-36.15
-37.82
-40.08
-43.42
-48.29
-54.51
-61.12
-66.39
-68.42
-65.84
-58.27
-46.58
-32.41
-17.51
-3.14
10.03
21.81
32.04
40.35
46.3
49.6
50.48
49.62
47.89
45.84
43.47
40.38
36.21
31.07
25.57
20.69
17.13
15.06
14.14
13.79
13.55
13.28
13.14
13.21
13.32
13.11
12.18
10.44
8.19
5.89
3.77
1.68
-0.92
-4.57
-9.39
-15.03
-20.75
-25.82
-29.92
-33.27
-36.53
-40.41
-45.43
-51.71
-58.89
-66.09
-72.06
-75.32
-74.68
-69.47
-59.78
-46.44
-30.79
-14.24
1.99
16.95
29.99
40.73
49
54.82
58.39
60.09
60.22
59.1
56.99
54.09
50.72
47.28
44.15
41.64
39.89
38.82
38.12
37.43
36.38
34.7
32.31
29.38
26.22
23.29
20.93
19.28
18.24
17.48
16.65
15.46
13.76
11.55
8.91
5.95
2.9
0.03
-2.31
-3.76
-4.21
-3.85
-3.28
-3.36
-4.98
-8.73
-14.71
-22.45
-31.09
-39.54
-46.78
-51.87
-54.12
-53.12
-48.67
-40.84
-30.1
-17.31
-3.74
9.24
20.48
29.33
35.75
40.18
43.18
45.08
45.96
45.66
44.06
41.38
38.15
35.09
32.82
31.61
31.24
31.17
30.82
29.74
27.76
25.05
21.93
18.7
15.52
12.41
9.45
6.75
4.48
2.63
0.92
-1.16
-4.12
-8.05
-12.46
-16.48
-19.27
-20.46
-20.38
-20.05
-20.7
-23.32
-28.37
-35.62
-44.28
-53.11
-60.66
-65.51
-66.59
-63.36
-56.06
-45.57
-33.23
-20.47
-8.57
1.49
9.09
13.99
16.22
16.11
14.16
10.98
7.17
3.21
-0.64
-4.19
-7.25
-9.54
-10.74
-10.59
-8.91
-5.83
-1.73
2.81
7.09
10.54
12.64
13.11
11.92
9.27
5.61
1.64
-1.82
-4.09
-4.96
-4.79
-4.47
-5.03
-7.21
-11.04
-15.82
-20.39
-23.79
-25.75
-26.84
-28.14
-30.77
-35.34
-41.64
-48.58
-54.6
-58.07
-57.85
-53.48
-45.33
-34.37
-21.85
-8.92
3.46
14.55
23.8
30.81
35.39
37.65
38.04
37.15
35.5
33.36
30.8
27.94
25.17
23.05
21.95
21.88
22.29
22.33
21.27
18.93
15.81
12.85
10.99
10.63
11.46
12.61
13.08
12.31
10.31
7.63
4.98
2.8
1
-0.92
-3.47
-6.91
-11.03
-15.35
-19.32
-22.59
-25
-26.63
-27.71
-28.6
-29.8
-31.83
-35.04
-39.42
-44.51
-49.36
-52.82
-53.72
-51.27
-45.19
-35.88
-24.35
-11.93
0.07
10.68
19.39
26.2
31.35
35.12
37.7
39.21
39.72
39.3
38
35.83
32.84
29.15
25.17
21.46
18.58
16.84
16.15
16.06
16.07
15.89
15.57
15.38
15.59
16.21
16.92
17.21
16.66
15.15
12.97
10.68
8.83
7.71
7.25
7.1
6.77
5.88
4.27
2.06
-0.54
-3.35
-6.18
-8.91
-11.31
-13.11
-14.15
-14.58
-15.04
-16.41
-19.53
-24.72
-31.61
-39.08
-45.64
-49.87
-50.64
-47.4
-40.13
-29.33
-15.98
-1.55
12.19
23.61
31.64
36.17
38.02
38.67
39.57
41.61
44.78
48.26
50.94
51.97
51.07
48.54
44.99
41.06
37.18
33.65
30.79
28.98
28.46
29.11
30.19
30.46
28.71
24.35
17.84
10.62
4.57
1.05
0.41
1.8
3.83
5.17
5.14
3.86
1.88
-0.26
-2.3
-4.25
-6.14
-7.88
-9.37
-10.7
-12.34
-15.05
-19.48
-25.74
-33.14
-40.29
-45.57
-47.71
-46.25
-41.49
-34.42
-26.17
-17.72
-9.66
-2.3
4.21
9.76
14.19
17.31
18.96
19.08
17.89
15.77
13.25
10.83
8.97
8.05
8.36
9.96
12.56
15.54
17.97
18.99
18.13
15.56
11.98
8.44
5.76
4.34
4.1
4.58
5.18
5.24
4.24
1.8
-2.06
-6.81
-11.51
-15.06
-16.69
-16.38
-14.91
-13.79
-14.69
-18.93
-26.85
-37.51
-48.92
-58.6
-64.31
-64.66
-59.46
-49.56
-36.49
-22.09
-8.37
2.86
10.32
13.7
13.79
12.19
10.52
9.72
9.57
9.11
7.6
5.18
3.02
2.53
4.33
7.73
11.06
12.59
11.59
8.62
5.02
1.87
-0.63
-3.07
-6.15
-9.9
-13.62
-16.3
-17.42
-17.46
-17.72
-19.5
-23.35
-28.7
-34.17
-38.32
-40.34
-40.4
-39.49
-38.93
-39.81
-42.62
-47.12
-52.41
-57.14
-59.87
-59.51
-55.6
-48.41
-38.7
-27.37
-15.2
-2.73
9.55
21.06
30.98
38.47
43
44.54
43.64
41.17
38.03
34.86
32.06
29.76
28.02
26.75
25.74
24.64
23.14
21.14
18.76
16.28
13.84
11.47
9.14
6.95
5.19
4.15
3.91
4.11
4.12
3.43
2.02
0.41
-0.66
-0.77
-0.08
0.77
1.05
0.27
-1.83
-5.17
-9.64
-15
-20.87
-26.71
-31.94
-36.36
-40.26
-44.26
-48.85
-54
-58.88
-62.24
-62.97
-60.41
-54.56
-45.8
-34.81
-22.35
-9.35
3.13
13.99
22.43
28.15
31.45
33.07
33.91
34.65
35.53
36.36
36.66
36.05
34.53
32.57
30.96
30.31
30.71
31.68
32.58
33.16
33.83
35.44
38.59
43.14
48.04
51.75
53
51.27
46.82
40.3
32.28
23.13
13.27
3.45
-5.3
-11.96
-16.07
-18.05
-19.07
-20.41
-22.78
-26
-29.13
-31.08
-31.23
-29.8
-27.86
-26.74
-27.49
-30.25
-34.35
-38.55
-41.71
-43.26
-43.32
-42.53
-41.57
-40.9
-40.63
-40.73
-41.14
-41.69
-42.01
-41.45
-39.24
-34.69
-27.7
-18.83
-9.15
0.27
8.73
16.01
22.2
27.32
31.22
33.62
34.39
33.85
32.76
31.98
31.91
32.37
32.65
32.01
30.25
27.83
25.74
24.86
25.54
27.26
29.06
29.87
29.13
26.99
24.2
21.74
20.23
19.78
19.98
20.21
19.9
18.86
17.33
15.74
14.51
13.75
13.25
12.61
11.55
9.98
8.16
6.46
5.11
4.09
3.06
1.53
-0.8
-3.93
-7.61
-11.38
-14.88
-18.05
-20.84
-23.19
-24.88
-25.73
-25.96
-26.25
-27.7
-31.43
-37.99
-46.94
-56.95
-66.09
-72.37
-74.27
-71.01
-62.79
-50.63
-36.36
-22.08
-9.76
-0.52
5.65
9.71
13.03
16.67
20.95
25.49
29.69
33.17
36.01
38.68
41.52
44.55
47.41
49.72
51.25
52.11
52.56
52.79
52.75
52.08
50.38
47.37
43.08
37.85
32.26
26.94
22.35
18.75
15.99
13.64
11.02
7.51
2.76
-3.16
-9.72
-16.24
-22.07
-26.95
-31
-34.62
-38.06
-41.3
-44.05
-46.13
-47.72
-49.51
-52.36
-56.85
-62.92
-69.73
-75.93
-80.03
-80.75
-77.37
-69.9
-58.95
-45.64
-31.27
-17.06
-3.96
7.42
16.64
23.48
27.95
30.34
31.23
31.31
31.11
30.83
30.37
29.63
28.73
28.1
28.21
29.2
30.7
32.01
32.55
32.18
31.19
30.05
28.98
27.79
26.11
23.68
20.69
17.73
15.46
14.08
13.11
11.58
8.55
3.67
-2.63
-9.35
-15.48
-20.5
-24.47
-27.98
-31.7
-36.07
-41.15
-46.61
-51.91
-56.48
-59.99
-62.44
-64.26
-66.13
-68.64
-71.76
-74.68
-75.96
-74.11
-68.19
-58.19
-44.92
-29.67
-13.7
1.96
16.5
29.29
39.78
47.71
53.23
56.92
59.42
61.16
62.26
62.45
61.48
59.36
56.4
53.19
50.33
48.27
47.29
47.37
48.16
49.15
49.7
49.18
47.39
44.54
41.24
38.17
35.85
34.34
33.33
32.39
31.17
29.48
27.28
24.58
21.52
18.34
15.45
13.29
12.07
11.54
10.93
9.3
5.99
1.06
-4.84
-10.76
-15.93
-20.08
-23.42
-26.4
-29.41
-32.72
-36.56
-41.22
-46.95
-53.77
-61.24
-68.52
-74.38
-77.4
-76.23
-69.95
-58.32
-42.1
-23.03
-3.44
14.45
29.22
40.45
48.3
53.08
54.9
53.82
50.29
45.51
41.18
38.76
38.77
40.56
42.84
44.48
45.12
45.16
45.26
45.69
45.99
45.38
43.28
39.82
35.7
31.8
28.66
26.13
23.54
20.26
16.24
11.88
7.91
4.78
2.42
0.25
-2.48
-6.23
-10.86
-15.72
-20.15
-23.71
-26.42
-28.74
-31.28
-34.61
-39.13
-44.87
-51.64
-58.98
-66.22
-72.55
-77.21
-79.53
-78.93
-74.94
-67.35
-56.27
-42.06
-25.46
-7.51
10.54
27.39
41.68
52.08
57.44
57.11
51.29
41.12
28.63
16.27
6.28
0.05
-2.04
-0.65
2.95
7.41
11.57
14.72
16.62
17.39
17.3
16.66
15.62
14.17
12.18
9.6
6.52
3.24
0.08
-2.82
-5.64
-8.86
-12.89
-17.78
-23
-27.7
-31.08
-32.77
-33.06
-32.57
-32.13
-32.32
-33.49
-35.85
-39.53
-44.6
-50.82
-57.44
-63.12
-66.17
-65.07
-59.06
-48.33
-34
-17.71
-1.1
14.47
28.03
38.92
46.64
51
52.13
50.65
47.58
44.14
41.35
39.7
39.03
38.72
38.15
37.05
35.7
34.66
34.48
35.36
37.02
38.78
39.76
39.2
36.75
32.45
26.81
20.64
14.76
9.67
5.43
1.69
-2
-5.95
-10.02
-13.72
-16.56
-18.41
-19.65
-20.98
-23.05
-26.07
-29.82
-33.87
-37.75
-41.27
-44.45
-47.3
-49.79
-51.87
-53.66
-55.49
-57.63
-60.04
-62.09
-62.49
-59.82
-53.09
-42.27
-28.32
-12.79
2.8
17.37
30.33
41.47
50.54
57.3
61.58
63.57
63.77
63.01
62.05
61.4
61.22
61.29
61.2
60.63
59.37
57.43
55.04
52.55
50.27
48.32
46.51
44.44
41.78
38.48
34.81
31.27
28.24
25.78
23.62
21.28
18.41
15.03
11.46
8.24
5.7
3.88
2.47
0.99
-0.92
-3.36
-6.02
-8.42
-10.2
-11.44
-12.83
-15.42
-20.17
-27.44
-36.76
-46.86
-56.2
-63.4
-67.44
-67.77
-64.11
-56.46
-45.33
-31.83
-17.64
-4.55
6.12
14.11
19.96
24.54
28.27
30.73
30.97
28.22
22.7
15.77
9.46
5.45
4.4
5.75
8.22
10.64
12.42
13.62
14.47
14.93
14.54
12.76
9.34
4.68
-0.38
-4.93
-8.48
-11.12
-13.35
-15.63
-18.18
-20.86
-23.44
-25.79
-28.08
-30.52
-33.12
-35.58
-37.34
-38.04
-37.84
-37.54
-38.33
-41.2
-46.36
-53.04
-59.68
-64.46
-65.94
-63.46
-57.15
-47.7
-35.99
-22.85
-8.97
4.88
17.85
29.07
37.81
43.71
46.77
47.31
45.73
42.34
37.44
31.42
25
19.13
14.77
12.48
12.23
13.39
15.07
16.45
17.16
17.16
16.67
15.91
14.95
13.79
12.51
11.26
10.25
9.5
8.79
7.57
5.28
1.69
-2.95
-7.95
-12.43
-15.74
-17.76
-18.77
-19.39
-20.25
-21.83
-24.34
-27.64
-31.3
-34.75
-37.49
-39.34
-40.61
-42.02
-44.35
-48.03
-52.87
-58.02
-62.29
-64.64
-64.33
-61.05
-54.71
-45.29
-32.93
-18.17
-2.07
13.77
27.74
38.68
46.3
51.17
54.28
56.31
57.43
57.34
55.85
53.34
50.88
49.75
50.83
53.99
58.03
61.2
62.06
60.03
55.57
49.79
43.8
38.36
33.76
30.03
27.19
25.4
24.64
24.57
24.54
23.86
22.22
19.83
17.32
15.35
14.11
13.33
12.44
10.94
8.74
6.03
3.12
0.01
-3.52
-7.8
-13.04
-19.14
-25.84
-32.95
-40.39
-48.12
-56
-63.45
-69.52
-73.11
-73.39
-70.1
-63.65
-54.86
-44.63
-33.69
-22.47
-11.26
-0.45
9.4
17.59
23.45
26.59
27.11
25.52
22.74
19.75
17.43
16.48
17.33
20
24.07
28.71
32.76
35.11
34.95
32.14
27.19
21.06
14.8
9.21
4.72
1.38
-0.97
-2.68
-4.2
-6.08
-9.04
-13.63
-20.05
-27.91
-36.17
-43.38
-48.1
-49.5
-47.78
-44.36
-41.43
-41.26
-45.25
-53.26
-63.59
-73.52
-80.35
-82.22
-78.61
-70.09
-57.84
-43.14
-27.22
-11.33
3.26
15.33
24.16
29.84
33.16
35.19
36.74
37.96
38.39
37.57
35.36
32.25
28.99
26.29
24.49
23.64
23.63
24.36
25.82
27.81
29.87
31.41
31.88
31.09
29.25
26.74
23.92
20.89
17.53
13.66
9.36
4.82
0.42
-3.57
-7.06
-10.22
-13.28
-16.53
-20.2
-24.3
-28.71
-33.13
-37.23
-40.71
-43.45
-45.54
-47.3
-49.14
-51.42
-54.46
-58.18
-62.04
-65.01
-65.76
-63.06
-56.25
-45.54
-31.95
-17.09
-2.48
10.77
22.13
31.48
38.83
44.17
47.45
48.84
48.71
47.71
46.57
45.77
45.45
45.41
45.24
44.56
43.21
41.27
39
36.71
34.63
32.9
31.55
30.43
29.39
28.27
27.13
26.12
25.62
25.95
27.13
28.66
29.67
29.34
27.25
23.67
19.39
15.37
12.13
9.5
6.81
3.29
-1.35
-6.77
-12.13
-16.54
-19.54
-21.3
-22.55
-24.11
-26.6
-30.24
-34.86
-39.99
-45.03
-49.38
-52.42
-53.58
-52.32
-48.33
-41.54
-32.26
-21.16
-9.12
2.91
14.17
24.16
32.74
39.97
45.93
50.56
53.57
54.56
53.32
50.1
45.76
41.59
38.82
38.15
39.54
42.17
44.9
46.57
46.5
44.57
41.06
36.49
31.36
26.22
21.44
17.29
13.85
11.08
8.79
6.75
4.75
2.65
0.37
-2.05
-4.43
-6.46
-7.76
-8.07
-7.51
-6.53
-5.98
-6.87
-10.09
-15.96
-24.21
-33.89
-43.68
-52.14
-57.96
-60.27
-58.63
-53.09
-44.15
-32.72
-20
-7.39
3.76
12.48
18.39
21.63
22.77
22.4
20.95
18.66
15.73
12.49
9.39
6.89
5.21
4.36
4.03
4.01
4.21
4.68
5.53
6.64
7.67
8.15
7.8
6.53
4.46
1.73
-1.59
-5.53
-10.12
-15.24
-20.54
-25.65
-30.25
-34.11
-37.11
-39.11
-40.02
-40.1
-40.05
-41.02
-44.21
-50.36
-59.14
-69.02
-77.6
-82.3
-81.33
-74.11
-61.47
-45.33
-28.03
-11.65
2.37
13.47
21.88
28.26
33.33
37.55
40.9
43.13
43.94
43.22
41.17
38.16
34.57
30.76
26.97
23.52
20.83
19.3
19.07
19.85
20.98
21.72
21.56
20.44
18.71
16.86
15.16
13.55
11.72
9.46
6.83
4.14
1.8
0.09
-1.07
-2
-3.16
-4.99
-7.84
-11.84
-16.9
-22.67
-28.56
-33.95
-38.39
-41.8
-44.55
-47.2
-50.29
-53.99
-57.92
-61.3
-63.08
-62.18
-57.74
-49.49
-37.71
-23.42
-8.11
6.6
19.35
29.32
36.26
40.46
42.37
42.56
41.51
39.7
37.55
35.48
33.83
32.85
32.69
33.3
34.57
36.15
37.68
38.78
39.32
39.41
39.28
39.08
38.78
38.2
37.14
35.58
33.77
32.12
30.89
30.1
29.43
28.4
26.64
24.01
20.7
17.13
13.81
11.2
9.63
9.12
9.35
9.7
9.49
8.2
5.7
2.3
-1.4
-4.71
-7.14
-8.48
-8.86
-8.67
-8.47
-9.05
-11.35
-16.35
-24.69
-36.23
-49.79
-63.18
-73.75
-79.19
-78.32
-71.36
-59.74
-45.4
-30.19
-15.39
-1.78
10.13
19.99
27.57
32.96
36.56
38.9
40.34
40.84
40.04
37.64
33.69
28.77
23.76
19.4
16.1
13.85
12.46
11.88
12.19
13.4
15.29
17.37
19.04
19.98
20.23
20.09
19.83
19.44
18.65
17.11
14.78
11.97
9.28
7.2
5.9
5.13
4.37
3.12
1.07
-1.74
-5.03
-8.34
-11.26
-13.64
-15.7
-18.03
-21.3
-26
-32.09
-39.02
-45.84
-51.61
-55.64
-57.52
-57.08
-54.26
-49.09
-41.72
-32.6
-22.55
-12.59
-3.79
2.9
6.95
8.24
7.14
4.41
0.94
-2.43
-5.21
-7.25
-8.61
-9.33
-9.29
-8.25
-6.04
-2.85
0.73
3.94
6.13
7.04
6.81
5.9
4.78
3.85
3.39
3.65
4.9
7.28
10.64
14.35
17.43
18.86
18.09
15.24
11.05
6.59
2.76
-0.11
-2.27
-4.43
-7.31
-11.43
-16.88
-23.42
-30.48
-37.33
-43.23
-47.63
-50.39
-51.82
-52.62
-53.43
-54.6
-55.94
-56.89
-56.76
-54.97
-51.18
-45.22
-37.17
-27.36
-16.39
-5.16
5.31
14.22
21.21
26.41
30.17
32.79
34.31
34.5
33.1
30.05
25.7
20.78
16.21
12.84
11.14
11.1
12.17
13.51
14.32
14.2
13.29
12.08
11.11
10.72
10.96
11.74
13.07
15.06
17.78
20.97
23.97
25.85
25.9
23.89
20.2
15.6
10.78
6.05
1.37
-3.43
-8.27
-12.73
-16.25
-18.51
-19.57
-19.94
-20.31
-21.08
-22.28
-23.58
-24.57
-25.03
-24.97
-24.56
-24.01
-23.56
-23.42
-23.92
-25.42
-28.24
-32.48
-37.87
-43.72
-49.04
-52.64
-53.4
-50.55
-43.9
-33.93
-21.72
-8.72
3.7
14.52
23.29
30.03
34.92
38.11
39.72
39.81
38.65
36.72
34.62
32.92
31.89
31.42
31.15
30.77
30.22
29.78
29.84
30.61
32
33.57
34.83
35.46
35.45
34.99
34.36
33.72
33.07
32.38
31.79
31.56
32.01
33.32
35.24
37.12
38.06
37.27
34.43
29.87
24.48
19.35
15.32
12.71
11.16
9.97
8.37
5.88
2.45
-1.59
-5.76
-9.6
-12.84
-15.48
-17.76
-20.17
-23.23
-27.34
-32.58
-38.59
-44.54
-49.32
-51.77
-50.97
-46.54
-38.71
-28.28
-16.45
-4.52
6.42
15.62
22.73
27.76
30.79
31.89
31.02
28.19
23.65
18
12.17
7.15
3.69
2.07
2.1
3.2
4.7
6.13
7.22
8
8.64
9.26
9.88
10.35
10.45
9.93
8.77
7.08
5.15
3.36
1.87
0.57
-0.98
-3.37
-7.02
-11.96
-17.68
-23.27
-27.72
-30.38
-31.24
-31.07
-31.17
-32.79
-36.75
-43.14
-51.25
-59.83
-67.5
-72.96
-75.27
-73.91
-68.84
-60.51
-49.76
-37.69
-25.44
-14.04
-4.2
3.61
9.15
12.43
13.7
13.46
12.38
11.14
10.18
9.63
9.3
8.99
8.63
8.32
8.22
8.42
8.78
9.04
9.07
8.92
8.92
9.42
10.51
11.98
13.34
14.1
13.99
13.07
11.68
10.11
8.48
6.61
4.22
1.13
-2.67
-6.92
-11.38
-15.85
-20.29
-24.63
-28.76
-32.36
-35.15
-37.03
-38.31
-39.78
-42.3
-46.37
-51.69
-57.1
-60.8
-61
-56.57
-47.54
-35.09
-21.11
-7.52
4.36
14.06
21.79
28.07
33.24
37.31
39.97
40.98
40.35
38.49
36.1
33.79
31.94
30.61
29.66
28.92
28.27
27.61
26.87
26.01
24.99
23.98
23.18
22.75
22.59
22.32
21.37
19.37
16.38
12.92
9.74
7.38
5.85
4.72
3.4
1.56
-0.71
-3.05
-5.17
-7.13
-9.37
-12.47
-16.69
-21.73
-26.83
-31.08
-33.87
-35.17
-35.51
-35.77
-36.83
-39.26
-43.21
-48.24
-53.44
-57.51
-59.03
-56.71
-49.85
-38.52
-23.68
-6.99
9.67
24.68
37.07
46.56
53.37
57.89
60.44
61.14
60.16
57.76
54.46
51.03
48.21
46.54
46.17
46.96
48.51
50.35
51.92
52.72
52.34
50.66
47.91
44.63
41.44
38.68
36.35
34.11
31.59
28.72
25.79
23.19
21.14
19.39
17.46
14.89
11.58
7.89
4.4
1.54
-0.54
-1.94
-2.84
-3.34
-3.63
-4.14
-5.68
-9.2
-15.33
-23.9
-33.81
-43.21
-50.09
-52.94
-51.15
-45
-35.44
-23.75
-11.21
1
11.91
20.68
26.7
29.67
29.63
27.03
22.64
17.49
12.63
8.94
6.93
6.61
7.59
9.21
10.88
12.26
13.35
14.25
14.94
15.11
14.33
12.35
9.27
5.69
2.41
0.11
-1.1
-1.68
-2.46
-4.32
-7.73
-12.6
-18.28
-23.79
-28.18
-30.98
-32.37
-33.21
-34.69
-37.86
-43.3
-50.77
-59.43
-67.99
-75.08
-79.45
-80.15
-76.59
-68.75
-57.26
-43.43
-28.97
-15.49
-4.08
4.93
11.84
17.25
21.61
25
27.17
27.82
26.95
25.01
22.75
20.92
19.99
19.94
20.37
20.79
20.95
20.83
20.67
20.62
20.58
20.14
18.82
16.27
12.54
8.11
3.48
-0.88
-4.85
-8.49
-12.05
-15.63
-19.2
-22.67
-26
-29.28
-32.64
-36.18
-39.78
-43.24
-46.34
-49.09
-51.75
-54.74
-58.41
-62.66
-66.9
-70.08
-71.01
-68.69
-62.62
-52.92
-40.26
-25.79
-10.84
3.28
15.52
25.34
32.74
38.08
41.84
44.4
45.87
46.19
45.32
43.49
41.16
38.93
37.27
36.32
35.98
35.99
36.17
36.46
36.91
37.48
38
38.24
37.97
37.1
35.69
33.94
31.95
29.79
27.44
24.88
22.11
19.15
16.04
12.78
9.33
5.68
1.86
-2.13
-6.23
-10.33
-14.35
-18.13
-21.57
-24.71
-27.7
-30.69
-33.67
-36.39
-38.37
-39.23
-38.91
-37.95
-37.37
-38.34
-41.6
-47.12
-53.83
-59.91
-63.41
-62.81
-57.56
-48.09
-35.55
-21.32
-6.61
7.86
21.78
34.94
47.14
58.03
67.17
74.21
78.96
81.3
81.24
78.82
74.3
68.22
61.48
55.11
50.05
46.81
45.31
45.02
45.26
45.41
45.22
44.63
43.72
42.6
41.28
39.79
38.19
36.54
34.89
33.21
31.36
29.12
26.29
22.84
18.94
15.01
11.52
8.74
6.62
4.69
2.28
-1.14
-5.6
-10.58
-15.13
-18.46
-20.4
-21.54
-23.09
-26.34
-31.98
-39.84
-48.88
-57.51
-64.05
-67.15
-65.94
-60.17
-50.17
-36.9
-21.8
-6.54
7.38
19.02
27.98
34.37
38.3
39.74
38.56
34.8
29.1
22.73
17.22
13.74
12.58
13.08
14.03
14.4
13.82
12.66
11.62
11.08
10.79
9.99
7.93
4.31
-0.41
-5.26
-9.26
-11.87
-13.21
-13.82
-14.35
-15.18
-16.36
-17.78
-19.38
-21.17
-23.24
-25.58
-28.06
-30.48
-32.74
-34.95
-37.43
-40.57
-44.73
-50.01
-56.18
-62.62
-68.33
-72.12
-72.78
-69.42
-61.76
-50.32
-36.28
-21.07
-6.06
7.79
19.87
29.82
37.36
42.18
44.04
42.95
39.38
34.25
28.74
23.95
20.62
18.97
18.71
19.26
20.11
21.01
21.97
23.1
24.31
25.22
25.27
24.02
21.47
18.08
14.69
12.11
10.74
10.48
10.7
10.66
9.76
7.75
4.79
1.32
-2.16
-5.36
-8.26
-11.12
-14.37
-18.36
-23.21
-28.84
-34.97
-41.22
-47.04
-51.81
-54.84
-55.68
-54.35
-51.58
-48.63
-46.9
-47.25
-49.63
-52.89
-55.32
-55.22
-51.51
-44
-33.2
-20.12
-5.9
8.29
21.37
32.38
40.75
46.33
49.46
50.82
51.15
50.91
50.26
49.04
47.1
44.49
41.56
38.84
36.81
35.71
35.42
35.61
35.84
35.74
35.01
33.49
31.11
27.92
24.18
20.29
16.74
13.92
11.94
10.57
9.51
8.56
7.77
7.32
7.27
7.48
7.48
6.77
5.05
2.56
-0.2
-2.62
-4.41
-5.67
-6.79
-8.17
-9.92
-11.88
-13.79
-15.59
-17.49
-19.78
-22.7
-26.02
-29.17
-31.44
-32.41
-32.21
-31.55
-31.49
-32.95
-36.34
-41.32
-46.87
-51.53
-53.89
-52.94
-48.31
-40.18
-29.22
-16.39
-2.73
10.66
22.74
32.67
39.87
44.16
45.63
44.68
41.8
37.69
33.18
29.2
26.56
25.75
26.68
28.79
31.25
33.35
34.76
35.51
35.84
35.98
36.06
36.07
36.02
36.01
36.07
36.2
36.22
35.85
34.81
32.91
30.17
26.75
23
19.22
15.7
12.58
9.95
7.8
5.97
4.27
2.37
-0.06
-3.21
-7.03
-11.12
-14.86
-17.68
-19.42
-20.53
-22.03
-25.05
-30.41
-38.03
-46.86
-55.18
-61.08
-63.22
-61.2
-55.57
-47.45
-38.15
-28.68
-19.68
-11.48
-4.27
1.7
6.21
9.05
10.19
9.7
7.77
4.7
0.85
-3.19
-6.68
-8.78
-8.82
-6.53
-2.23
3.21
8.66
12.97
15.35
15.58
13.94
11.17
8.17
5.79
4.6
4.71
5.69
6.75
7.05
6.01
3.51
-0.13
-4.33
-8.52
-12.27
-15.48
-18.17
-20.56
-22.9
-25.39
-28.07
-30.7
-32.82
-33.91
-33.67
-32.29
-30.54
-29.59
-30.39
-33.29
-37.8
-42.74
-46.65
-48.21
-46.57
-41.53
-33.54
-23.51
-12.63
-2.1
7.16
14.61
20.14
23.87
26.09
27.13
27.27
26.63
25.23
23
19.98
16.55
13.46
11.78
12.31
15.2
19.74
24.65
28.72
31.24
32.28
32.3
31.75
30.63
28.59
25.28
20.74
15.54
10.58
6.68
4.22
3.01
2.36
1.51
-0.12
-2.7
-5.99
-9.57
-12.97
-15.99
-18.61
-20.92
-23.03
-24.94
-26.59
-27.83
-28.52
-28.49
-27.7
-26.33
-24.79
-23.74
-23.93
-25.87
-29.48
-33.94
-37.83
-39.52
-37.82
-32.28
-23.41
-12.38
-0.67
10.48
20.2
28.12
34.23
38.73
41.88
43.94
45.22
45.84
45.65
44.29
41.32
36.63
30.69
24.57
19.59
16.78
16.51
18.31
21.32
24.62
27.67
30.36
32.75
34.75
36.04
36.23
35.09
32.83
29.99
27.34
25.48
24.6
24.43
24.28
23.42
21.2
17.44
12.38
6.65
1.11
-3.4
-6.4
-7.91
-8.5
-9.06
-10.51
-13.49
-18.14
-24.15
-30.85
-37.4
-42.9
-46.43
-47.2
-44.67
-38.85
-30.36
-20.4
-10.37
-1.49
5.51
10.43
13.46
14.98
15.31
14.7
13.37
11.5
9.27
6.85
4.4
2.05
-0.02
-1.63
-2.61
-2.77
-2.01
-0.4
1.75
3.91
5.32
5.39
3.9
1.22
-1.79
-4.23
-5.57
-5.93
-5.98
-6.62
-8.51
-11.75
-15.97
-20.56
-25.05
-29.11
-32.55
-35.22
-37.1
-38.33
-39.39
-41.02
-43.94
-48.49
-54.25
-60.18
-64.78
-66.66
-64.87
-59.11
-49.75
-37.71
-24.3
-10.88
1.29
11.43
19.39
25.56
30.56
34.84
38.36
40.69
41.23
39.71
36.38
32.01
27.58
23.92
21.52
20.48
20.51
21.17
21.87
22.1
21.46
19.82
17.41
14.65
12.1
10.09
8.67
7.53
6.36
4.86
2.94
0.68
-1.71
-3.96
-5.81
-7.05
-7.6
-7.56
-7.39
-7.73
-9.19
-12.06
-16.13
-20.76
-25.18
-28.84
-31.53
-33.49
-35.1
-36.7
-38.56
-40.72
-43.17
-45.83
-48.51
-50.75
-51.84
-50.83
-46.88
-39.63
-29.31
-16.87
-3.62
9.06
20.1
28.92
35.35
39.51
41.68
42.3
41.87
40.92
39.88
38.95
37.99
36.7
34.83
32.35
29.63
27.24
25.7
25.25
25.77
26.88
28.14
29.28
30.11
30.57
30.53
29.86
28.48
26.54
24.41
22.64
21.68
21.65
22.35
23.24
23.83
23.8
23.23
22.46
21.81
21.36
20.68
18.99
15.36
9.15
0.45
-9.83
-20.12
-28.75
-34.54
-37.3
-37.9
-37.86
-38.64
-41.02
-44.86
-49.31
-53.31
-55.95
-56.76
-55.48
-51.88
-45.74
-36.93
-25.9
-13.66
-1.66
8.71
16.71
22.46
26.76
30.53
34.13
37.23
39.19
39.54
38.44
36.67
35.2
34.66
35.03
35.78
36.36
36.51
36.41
36.41
36.71
37.07
36.99
36.04
34.09
31.43
28.51
25.67
22.93
20.02
16.54
12.25
7.23
1.8
-3.46
-8.09
-11.75
-14.32
-15.85
-16.52
-16.61
-16.49
-16.79
-18.29
-21.75
-27.54
-35.33
-44.01
-51.95
-57.54
-59.55
-57.62
-52.12
-43.91
-34.05
-23.49
-13.02
-3.3
5.02
11.35
15.25
16.58
15.61
12.92
9.31
5.51
2.06
-0.81
-3.01
-4.45
-4.96
-4.36
-2.59
0.1
3.13
5.86
7.75
8.57
8.49
7.83
6.78
5.23
2.91
-0.4
-4.52
-8.84
-12.54
-15.01
-16.18
-16.6
-17.11
-18.38
-20.5
-23
-25.11
-26.27
-26.48
-26.36
-26.89
-28.9
-32.68
-37.94
-43.95
-49.88
-55.03
-58.87
-60.9
-60.49
-56.8
-49.19
-37.61
-22.91
-6.86
8.25
20.49
28.83
33.4
35.27
35.75
35.89
36.13
36.33
36.09
35.12
33.4
31.09
28.5
25.77
22.99
20.27
17.74
15.57
13.92
12.77
12
11.43
10.98
10.68
10.67
10.9
11.08
10.74
9.41
6.98
3.83
0.6
-1.99
-3.57
-4.2
-4.33
-4.49
-5.11
-6.41
-8.45
-11.24
-14.7
-18.65
-22.77
-26.63
-29.77
-32.14
-34.05
-36.09
-38.86
-42.61
-47.02
-51.31
-54.32
-54.91
-52.17
-45.69
-35.74
-23.29
-9.85
2.92
13.68
21.85
27.62
31.75
35.04
37.9
40.16
41.32
41.03
39.34
36.78
34.11
32
30.8
30.54
31.1
32.35
34.08
35.82
36.82
36.3
33.85
29.75
25.04
21.1
19.05
19.21
21.08
23.64
25.92
27.5
28.55
29.49
30.58
31.64
32.09
31.27
28.79
24.71
19.56
14.07
8.89
4.38
0.55
-2.79
-5.86
-8.93
-12.2
-15.94
-20.55
-26.29
-33.22
-40.86
-48
-52.94
-54
-50.19
-41.61
-29.67
-16.55
-4.45
5.13
11.73
15.85
18.35
19.93
20.84
21.03
20.51
19.5
18.33
17.26
16.33
15.3
13.84
11.7
8.92
5.92
3.29
1.73
1.77
3.62
7.05
11.38
15.7
19.12
21.08
21.45
20.37
17.97
14.33
9.53
3.75
-2.66
-9.22
-15.48
-21.01
-25.49
-28.62
-30.23
-30.31
-29.23
-27.74
-26.87
-27.59
-30.48
-35.55
-42.19
-49.4
-55.87
-60.3
-61.71
-59.67
-54.3
-46.17
-36.06
-24.6
-12.34
0.08
11.82
21.83
29.07
32.9
33.35
31.01
26.85
21.74
16.3
10.99
6.32
3.04
1.85
3.18
6.74
11.64
16.58
20.34
22.36
22.77
22.32
21.89
21.98
22.51
22.91
22.38
20.43
17.03
12.64
7.94
3.6
-0.08
-3.22
-6.17
-9.41
-13.28
-17.82
-22.9
-28.2
-33.3
-37.86
-41.77
-45.22
-48.68
-52.69
-57.55
-63.06
-68.51
-72.73
-74.48
-72.81
-67.31
-58.21
-46.24
-32.48
-18.12
-4.28
8.17
18.65
26.91
33.04
37.24
39.8
41
41.12
40.47
39.44
38.29
37.17
36.07
34.8
33.33
31.8
30.62
30.27
31.07
32.92
35.32
37.61
39.09
39.36
38.27
35.85
32.31
27.98
23.29
18.86
15.33
13.1
12.3
12.61
13.42
14.1
14.09
13.14
11.21
8.44
4.93
0.89
-3.41
-7.6
-11.29
-14.24
-16.53
-18.6
-20.95
-23.96
-27.53
-31.09
-33.85
-35.25
-35.3
-34.64
-34.31
-35.16
-37.55
-41.16
-45.16
-48.61
-50.64
-50.71
-48.57
-44.1
-37.31
-28.36
-17.66
-5.89
6.01
17.1
26.63
34.25
39.97
44.04
46.68
48
48.02
46.78
44.63
42.25
40.46
39.86
40.67
42.58
45.08
47.74
50.24
52.5
54.28
55.16
54.64
52.45
48.88
44.76
41.11
38.61
37.29
36.4
34.93
32.09
27.72
22.31
16.73
11.73
7.58
4.09
0.76
-2.86
-6.88
-10.98
-14.55
-17.03
-18.26
-18.66
-19.2
-21.1
-25.33
-32.06
-40.6
-49.58
-57.32
-62.45
-64.25
-62.56
-57.68
-50.1
-40.33
-29.08
-17.35
-6.48
2.21
7.8
10.2
10.13
8.76
7.13
5.75
4.56
3.25
1.61
-0.17
-1.62
-2.19
-1.59
0.15
2.71
5.69
8.69
11.36
13.35
14.45
14.55
13.67
12.04
9.85
7.17
3.98
0.25
-3.85
-7.88
-11.24
-13.43
-14.22
-13.76
-12.66
-11.71
-11.77
-13.43
-16.89
-21.79
-27.45
-32.99
-37.73
-41.47
-44.44
-47.15
-50.12
-53.48
-56.87
-59.58
-60.73
-59.59
-55.71
-48.95
-39.55
-28.05
-15.23
-2.06
10.38
21.21
29.89
36.36
40.97
44.19
46.28
47.15
46.39
43.56
38.57
31.88
24.52
17.85
13.07
10.88
11.21
13.31
16.02
18.24
19.3
19.11
18.06
16.74
15.55
14.58
13.67
12.68
11.62
10.64
9.91
9.43
8.91
8.01
6.47
4.31
1.83
-0.53
-2.43
-3.81
-4.86
-5.94
-7.44
-9.62
-12.52
-16.03
-19.83
-23.49
-26.56
-28.7
-29.85
-30.32
-30.62
-31.3
-32.77
-35.02
-37.68
-40.08
-41.51
-41.28
-38.9
-34.15
-27.14
-18.27
-8.23
2.17
12.2
21.25
29.02
35.34
40.24
43.68
45.64
46.14
45.29
43.44
41.15
39.19
38.14
38.33
39.57
41.29
42.67
42.99
42
39.9
37.24
34.63
32.45
30.72
29.21
27.63
25.85
23.93
22.1
20.57
19.38
18.44
17.52
16.44
15.09
13.45
11.67
9.82
8.02
6.36
4.98
3.99
3.49
3.38
3.25
2.36
-0.16
-4.93
-11.95
-20.46
-29.05
-36.13
-40.41
-41.3
-38.94
-34.03
-27.45
-20.05
-12.57
-5.64
0.05
3.93
5.66
5.36
3.57
1.15
-1.15
-2.96
-4.3
-5.47
-6.7
-7.91
-8.74
-8.75
-7.73
-5.86
-3.67
-1.71
-0.31
0.48
0.79
0.69
0
-1.68
-4.62
-8.74
-13.49
-17.95
-21.24
-22.87
-22.97
-22.12
-21.17
-20.8
-21.31
-22.65
-24.48
-26.45
-28.29
-29.94
-31.57
-33.44
-35.84
-38.94
-42.66
-46.61
-50.1
-52.12
-51.68
-48.07
-41.17
-31.6
-20.62
-9.7
-0.12
7.46
13.05
17.19
20.46
23.22
25.48
26.98
27.37
26.45
24.23
21.02
17.38
13.97
11.45
10.24
10.4
11.59
13.17
14.52
15.26
15.34
14.91
14.23
13.49
12.75
12.05
11.36
10.67
9.92
8.99
7.82
6.44
4.99
3.57
2.11
0.29
-2.34
-6.1
-10.95
-16.34
-21.43
-25.4
-27.88
-29.03
-29.5
-30.16
-31.82
-34.89
-39.25
-44.24
-48.79
-51.7
-51.88
-48.65
-41.9
-32
-19.82
-6.51
6.62
18.39
27.83
34.47
38.22
39.41
38.58
36.34
33.26
29.87
26.63
24.05
22.54
22.3
23.23
24.98
27.05
29
30.54
31.58
32.14
32.26
31.98
31.44
30.92
30.79
31.35
32.6
34.15
35.28
35.27
33.72
30.78
27.14
23.64
21.02
19.59
19.24
19.45
19.49
18.61
16.27
12.21
6.59
0.02
-6.55
-12.18
-16.29
-18.85
-20.48
-22.23
-25.12
-29.79
-36.14
-43.19
-49.36
-52.83
-52.1
-46.53
-36.63
-23.84
-10.06
3
14.3
23.44
30.39
35.19
37.7
37.82
35.7
31.97
27.55
23.41
20.16
18.08
17
16.73
17.02
17.69
18.54
19.18
19.12
17.9
15.33
11.57
7.18
2.86
-0.72
-3.22
-4.75
-5.74
-6.74
-8.19
-10.23
-12.78
-15.68
-18.71
-21.74
-24.57
-26.89
-28.41
-28.96
-28.64
-27.93
-27.54
-28.17
-30.36
-34.28
-39.72
-46.16
-52.79
-58.53
-62.19
-62.74
-59.48
-52.4
-42.19
-30.06
-17.45
-5.69
4.35
12.34
18.4
22.94
26.35
28.94
30.82
31.97
32.37
32.06
31.18
29.83
28.03
25.72
22.88
19.68
16.5
13.89
12.22
11.54
11.56
11.74
11.54
10.62
8.91
6.54
3.84
1.14
-1.29
-3.24
-4.64
-5.53
-6.12
-6.72
-7.68
-9.27
-11.62
-14.67
-18.2
-21.84
-25.23
-28.1
-30.43
-32.46
-34.54
-37.07
-40.17
-43.72
-47.36
-50.55
-52.73
-53.39
-52.13
-48.66
-42.89
-34.96
-25.31
-14.66
-3.82
6.48
15.73
23.71
30.34
35.54
39.24
41.32
41.89
41.24
39.86
38.27
36.86
35.72
34.78
33.92
33.13
32.6
32.56
33.08
33.91
34.58
34.5
33.33
31.1
28.23
25.33
22.86
21.07
19.94
19.4
19.42
20.06
21.27
22.64
23.52
23.15
21.09
17.57
13.28
9.2
6.1
4.2
3.12
2.22
0.94
-0.93
-3.21
-5.6
-7.82
-9.82
-11.8
-14.17
-17.35
-21.61
-26.99
-33.25
-39.9
-46.18
-51.29
-54.36
-54.68
-51.81
-45.77
-37.12
-26.78
-15.91
-5.48
3.79
11.61
17.98
22.96
26.58
28.8
29.62
29.25
28.19
27.11
26.71
27.41
29.28
31.99
35.01
37.74
39.74
40.74
40.67
39.6
37.71
35.26
32.52
29.73
27.03
24.39
21.72
18.9
15.89
12.64
9.17
5.52
1.77
-1.94
-5.53
-8.97
-12.42
-16.06
-20.07
-24.39
-28.65
-32.33
-35
-36.67
-37.89
-39.58
-42.65
-47.48
-53.69
-60.11
-65.13
-67.3
-65.73
-60.33
-51.79
-41.29
-30.11
-19.35
-9.76
-1.71
4.75
9.75
13.42
15.9
17.29
17.7
17.33
16.43
15.26
14.01
12.76
11.57
10.52
9.83
9.77
10.62
12.41
14.87
17.48
19.57
20.5
19.85
17.61
14.11
10.03
6.21
3.32
1.64
0.92
0.51
-0.42
-2.38
-5.36
-8.87
-12.21
-14.96
-17.2
-19.43
-22.25
-25.88
-29.91
-33.48
-35.6
-35.69
-33.9
-31.06
-28.44
-27.2
-27.97
-30.65
-34.47
-38.27
-40.89
-41.48
-39.58
-35.06
-27.93
-18.45
-7.36
3.97
13.79
20.66
24.11
24.99
24.99
25.6
27.23
29.15
30.08
29.37
27.45
25.6
24.97
25.69
26.79
26.95
25.58
23.28
21.42
21.15
22.58
24.74
26.31
26.5
25.5
24.23
23.55
23.65
23.98
23.67
22.24
19.81
16.97
14.35
12.12
9.99
7.51
4.54
1.3
-1.64
-3.92
-5.53
-6.91
-8.55
-10.72
-13.18
-15.32
-16.57
-16.59
-15.59
-14.25
-13.47
-14.08
-16.63
-21.19
-27.31
-34.09
-40.33
-44.74
-46.23
-44.14
-38.39
-29.49
-18.5
-6.76
4.28
13.38
19.77
23.29
24.51
24.35
23.78
23.43
23.34
23.09
22.21
20.52
18.35
16.48
15.62
16.13
17.84
20.18
22.48
24.29
25.52
26.25
26.67
26.84
26.7
26.22
25.41
24.36
23.08
21.57
19.68
17.36
14.69
11.88
9.17
6.65
4.13
1.22
-2.51
-7.21
-12.69
-18.44
-23.86
-28.48
-32.15
-35.06
-37.55
-40.06
-42.89
-46.14
-49.72
-53.37
-56.7
-59.22
-60.34
-59.49
-56.21
-50.35
-42.29
-32.85
-23.1
-13.97
-6.03
0.61
6.21
11.04
15.27
18.84
21.54
23.11
23.37
22.22
19.74
16.23
12.28
8.66
6.2
5.51
6.86
10.08
14.57
19.55
24.1
27.45
29.06
28.79
26.86
23.77
20.05
16.19
12.52
9.2
6.28
3.76
1.6
-0.32
-2.11
-3.94
-5.93
-8.09
-10.38
-12.68
-14.91
-16.93
-18.63
-19.95
-20.9
-21.69
-22.6
-23.96
-26.02
-28.96
-32.82
-37.51
-42.78
-48.01
-52.36
-54.76
-54.3
-50.43
-43.28
-33.69
-22.81
-11.83
-1.55
7.6
15.54
22.21
27.52
31.38
33.73
34.79
34.91
34.54
34.01
33.43
32.74
31.8
30.7
29.69
29.22
29.68
31.09
33.08
34.96
36.04
35.94
34.83
33.24
31.85
30.98
30.53
30.02
28.92
27.1
24.91
23
21.89
21.66
21.84
21.71
20.76
18.95
16.68
14.44
12.54
10.94
9.36
7.66
5.96
4.53
3.42
2.26
0.15
-3.98
-10.78
-20.04
-30.59
-40.39
-47.19
-49.29
-45.97
-37.86
-26.68
-14.57
-3.28
6.11
13.26
18.17
20.86
21.37
20
17.41
14.48
11.84
9.44
6.53
2.33
-3.3
-9.47
-14.56
-17.13
-16.56
-13.42
-9.02
-4.58
-0.64
2.96
6.59
10.2
13.37
15.52
16.32
16.13
15.79
16.18
17.62
19.75
21.58
22.08
20.91
18.47
15.78
13.9
13.26
13.24
12.59
9.92
4.33
-4
-14.04
-24.1
-32.43
-37.77
-39.5
-37.56
-32.31
-24.42
-14.84
-4.78
4.36
11.36
15.47
16.6
15.32
12.51
9.04
5.59
2.67
0.6
-0.48
-0.55
0.22
1.67
3.55
5.65
7.8
9.71
10.81
10.31
7.3
1.28
-7.46
-17.65
-27.35
-34.47
-37.48
-36.07
-31.24
-24.98
-19.6
-16.82
-17.29
-20.53
-25.18
-29.66
-32.65
-33.5
-32.44
-30.43
-28.78
-28.78
-31.27
-36.33
-43.43
-51.47
-59.08
-64.91
-67.74
-66.67
-61.38
-52.21
-40.25
-27.15
-14.58
-3.78
4.72
11
15.55
18.88
21.36
23.23
24.47
24.93
24.36
22.54
19.42
15.37
11.29
8.37
7.65
9.56
13.74
19.17
24.63
29.13
32.17
33.56
33.34
31.48
27.99
22.97
16.74
9.73
2.39
-4.88
-11.82
-18.2
-23.8
-28.38
-31.81
-34.13
-35.56
-36.37
-36.83
-37.07
-37.22
-37.47
-38.14
-39.65
-42.39
-46.53
-51.94
-58.19
-64.47
-69.7
-72.62
-71.94
-66.75
-56.85
-43.08
-27.11
-10.74
4.77
18.98
32.13
44.47
55.72
65.08
71.59
74.72
74.71
72.37
68.46
63.36
57.03
49.46
41.21
33.53
28.05
26.04
27.78
32.41
38.27
43.49
46.47
46.25
42.82
36.75
29.14
21.29
14.33
9.05
5.75
4.26
3.97
4.13
4.07
3.35
1.96
0.19
-1.38
-2.21
-2.01
-0.89
0.65
1.87
2.02
0.62
-2.43
-6.8
-11.87
-16.91
-21.27
-24.5
-26.45
-27.24
-27.23
-26.78
-26.16
-25.49
-24.73
-23.98
-23.51
-23.92
-25.93
-30.1
-36.59
-44.92
-54.02
-62.38
-68.33
-70.36
-67.39
-59.12
-46.09
-29.73
-11.97
5.14
19.98
31.75
40.46
46.71
51.3
54.9
57.77
59.81
60.69
60.12
57.98
54.51
50.3
46.14
42.87
41.04
40.8
41.9
43.92
46.29
48.52
50.26
51.08
50.63
48.63
45.04
40.25
35.06
30.34
26.71
24.31
22.75
21.38
19.64
17.24
14.17
10.52
6.35
1.69
-3.36
-8.57
-13.62
-18.26
-22.45
-26.34
-30.06
-33.57
-36.59
-38.87
-40.38
-41.57
-43.26
-46.28
-51.12
-57.7
-65.26
-72.49
-77.82
-79.68
-76.91
-69.03
-56.57
-40.99
-24.42
-8.93
4.06
14.08
21.52
27.18
31.81
35.67
38.66
40.46
40.91
40.16
38.6
36.67
34.74
33.03
31.72
30.92
30.68
31.04
31.78
32.59
33.04
32.74
31.51
29.41
26.73
23.9
21.34
19.42
18.34
18.12
18.53
19.11
19.29
18.64
17.05
14.75
12.13
9.44
6.67
3.54
-0.29
-4.93
-10.12
-15.35
-20.17
-24.32
-27.79
-30.68
-33.11
-35.2
-37.2
-39.41
-42.13
-45.34
-48.61
-51.21
-52.52
-52.54
-52.03
-52.2
-54.06
-57.77
-62.4
-66.09
-66.93
-63.64
-55.98
-44.78
-31.46
-17.52
-4.09
8.19
19.17
28.87
37.32
44.42
49.98
53.73
55.54
55.53
54.02
51.63
49.02
46.75
45.09
43.94
42.92
41.56
39.52
36.73
33.45
30.09
27.05
24.57
22.63
21.13
20.03
19.38
19.39
20.15
21.58
23.22
24.53
25
24.42
22.92
20.9
18.82
16.98
15.48
14.23
13.15
12.16
11.25
10.39
9.45
8.23
6.51
4.21
1.49
-1.36
-4.09
-6.6
-9
-11.42
-13.76
-15.72
-16.91
-17.14
-16.64
-16.11
-16.46
-18.51
-22.65
-28.72
-36.05
-43.65
-50.3
-54.85
-56.33
-54.23
-48.63
-40.17
-29.85
-18.77
-7.85
2.21
10.98
18.23
23.98
28.34
31.58
33.89
35.33
35.83
35.29
33.74
31.51
29.16
27.3
26.43
26.77
28.21
30.34
32.56
34.11
34.41
33.07
30.14
26.04
21.47
17.18
13.79
11.62
10.62
10.41
10.35
9.7
7.81
4.37
-0.54
-6.49
-12.89
-19.07
-24.5
-28.73
-31.48
-32.79
-33.01
-32.9
-33.3
-34.83
-37.52
-40.77
-43.72
-45.58
-46.15
-45.86
-45.54
-46
-47.74
-50.78
-54.72
-58.83
-62.14
-63.65
-62.43
-57.83
-49.68
-38.49
-25.33
-11.64
1.16
11.96
20.14
25.56
28.46
29.23
28.35
26.39
23.92
21.6
20
19.45
19.96
21.14
22.47
23.46
23.81
23.56
22.85
21.92
20.91
19.95
19.17
18.76
18.85
19.42
20.13
20.48
19.96
18.32
15.78
12.85
10.13
7.97
6.37
5.04
3.55
1.49
-1.39
-5.12
-9.49
-14.15
-18.55
-22.13
-24.46
-25.34
-24.91
-23.64
-22.17
-21.17
-21.1
-22.09
-23.96
-26.36
-28.94
-31.47
-33.93
-36.52
-39.42
-42.62
-45.86
-48.53
-49.81
-48.87
-45.17
-38.58
-29.56
-18.92
-7.74
3.02
12.64
20.75
27.3
32.37
36.06
38.43
39.48
39.19
37.65
35.09
31.99
28.93
26.55
25.35
25.56
27.1
29.6
32.51
35.18
37.05
37.77
37.28
35.88
34.06
32.35
31.14
30.54
30.48
30.76
31.17
31.54
31.63
31.16
29.9
27.76
24.91
21.75
18.7
16.04
13.78
11.77
9.85
8.04
6.59
5.72
5.33
4.92
3.62
0.67
-4.21
-10.6
-17.49
-23.78
-28.8
-32.53
-35.61
-38.91
-42.97
-47.62
-52.06
-55.1
-55.63
-52.96
-46.96
-38.07
-27.21
-15.59
-4.53
4.67
10.96
13.81
13.28
10.13
5.62
0.98
-2.83
-5.4
-6.84
-7.5
-7.7
-7.48
-6.7
-5.13
-2.74
0.26
3.45
6.36
8.58
9.9
10.34
10.04
9.31
8.53
8.04
7.99
8.26
8.44
8.01
6.55
3.97
0.55
-3.2
-6.68
-9.56
-11.81
-13.71
-15.74
-18.4
-22.12
-27.08
-33.11
-39.71
-46.1
-51.42
-55.01
-56.68
-56.87
-56.51
-56.68
-58.15
-61.03
-64.53
-67.2
-67.31
-63.42
-54.93
-42.25
-26.72
-10.25
5.28
18.39
28.3
34.95
38.67
40.06
39.7
38.11
35.76
33.02
30.26
27.81
25.91
24.66
24.06
24.02
24.39
24.94
25.39
25.43
24.87
23.69
22.09
20.36
18.83
17.63
16.75
16
15.21
14.29
13.35
12.66
12.47
12.89
13.84
15.05
16.06
16.42
15.69
13.64
10.34
6.04
1.2
-3.8
-8.76
-13.67
-18.6
-23.51
-28.13
-32.07
-35
-36.8
-37.77
-38.46
-39.45
-41.18
-43.82
-47.29
-51.39
-55.88
-60.38
-64.26
-66.62
-66.29
-62.31
-54.22
-42.4
-28.04
-12.87
1.36
13.35
22.46
28.71
32.51
34.47
35.21
35.28
35.15
35.18
35.58
36.36
37.35
38.32
39.07
39.53
39.71
39.77
39.92
40.4
41.4
42.95
44.83
46.5
47.32
46.77
44.77
41.78
38.55
35.7
33.57
31.96
30.43
28.61
26.4
23.96
21.58
19.38
17.18
14.66
11.59
8.03
4.31
0.9
-1.97
-4.33
-6.45
-8.56
-10.68
-12.71
-14.62
-16.76
-19.86
-24.8
-32.01
-41
-50.28
-57.71
-61.28
-59.86
-53.57
-43.63
-31.84
-19.85
-8.74
1.13
9.79
17.29
23.44
27.9
30.37
30.88
29.77
27.58
24.79
21.76
18.76
16.11
14.31
13.86
14.95
17.27
20.03
22.29
23.52
23.73
23.44
23.15
22.93
22.24
20.33
16.68
11.4
5.26
-0.72
-5.77
-9.66
-12.67
-15.34
-18.11
-21.28
-25.02
-29.45
-34.71
-40.68
-46.99
-53
-57.99
-61.44
-63.32
-64.04
-64.32
-64.84
-66.02
-67.69
-69.13
-69.2
-66.7
-60.68
-50.9
-37.9
-22.89
-7.39
7.24
20.08
30.74
39.14
45.34
49.34
51.03
50.43
47.71
43.45
38.54
34.03
30.75
29.22
29.38
30.68
32.26
33.29
33.28
32.18
30.35
28.21
26.07
23.99
21.88
19.68
17.48
15.51
13.98
12.88
11.9
10.58
8.44
5.25
1.08
-3.79
-8.99
-14.16
-19.1
-23.7
-27.88
-31.66
-35.02
-38.05
-40.95
-44.06
-47.79
-52.49
-58.17
-64.41
-70.34
-74.69
-76.17
-73.81
-67.25
-56.82
-43.37
-28.04
-12.03
3.54
17.66
29.52
38.58
44.82
48.64
50.92
52.51
53.97
55.26
55.81
54.95
52.33
48.22
43.34
38.6
34.68
32.03
30.86
31.24
33.25
36.69
40.97
45.08
47.82
48.3
46.31
42.46
37.87
33.72
30.66
28.73
27.49
26.33
24.84
22.9
20.6
18.1
15.5
12.78
9.93
7.01
4.09
1.21
-1.65
-4.57
-7.55
-10.49
-13.24
-15.73
-18.07
-20.64
-23.95
-28.47
-34.49
-42.02
-50.68
-59.75
-68.05
-74.07
-76.21
-73.18
-64.59
-51.17
-34.61
-17.11
-0.79
12.96
23.58
31.19
36.46
40.14
42.86
44.94
46.29
46.52
45.25
42.34
38.26
33.94
30.52
28.85
29.22
31.28
34.33
37.56
40.26
41.86
41.91
40.04
36.12
30.45
23.67
16.67
10.24
4.83
0.41
-3.28
-6.61
-9.77
-12.72
-15.35
-17.68
-19.9
-22.35
-25.36
-28.93
-32.8
-36.48
-39.49
-41.58
-42.85
-43.68
-44.63
-46.29
-49.11
-53.3
-58.74
-64.78
-70.23
-73.59
-73.33
-68.47
-58.95
-45.66
-30.26
-14.59
-0.15
12.2
22.17
29.96
35.82
39.88
42.21
42.95
42.4
41.11
39.64
38.35
37.34
36.45
35.37
33.95
32.2
30.25
28.27
26.35
24.49
22.82
21.48
20.73
20.69
21.2
21.79
21.77
20.58
18.02
14.4
10.34
6.51
3.29
0.66
-1.62
-3.93
-6.44
-9.18
-12
-14.73
-17.29
-19.69
-22.08
-24.62
-27.44
-30.5
-33.68
-36.72
-39.33
-41.29
-42.68
-43.77
-45.06
-47.05
-50.03
-54.07
-58.98
-64.31
-69.33
-72.96
-73.87
-70.75
-62.8
-50.1
-33.86
-16.15
0.74
15.04
25.93
33.66
39.05
42.94
45.83
47.81
48.82
48.91
48.27
47.14
45.64
43.75
41.42
38.86
36.48
34.87
34.46
35.28
36.96
38.88
40.4
41.18
41.19
40.73
40.21
39.97
40.2
40.81
41.48
41.8
41.52
40.66
39.48
38.33
37.35
36.3
34.66
31.93
27.99
23.18
18.13
13.44
9.41
6.03
3.11
0.46
-2.09
-4.74
-7.89
-11.99
-17.27
-23.52
-30.07
-35.94
-40.3
-42.82
-43.72
-43.81
-44.03
-45.23
-47.94
-52.16
-57.24
-61.91
-64.59
-63.78
-58.65
-49.29
-36.73
-22.6
-8.65
3.8
13.94
21.61
27.03
30.6
32.72
33.68
33.69
32.87
31.41
29.6
27.83
26.47
25.77
25.86
26.58
27.62
28.53
28.89
28.43
27.12
25.23
23.21
21.46
20.21
19.24
18.08
16.15
13.19
9.43
5.48
1.84
-1.4
-4.63
-8.37
-12.74
-17.18
-20.7
-22.49
-22.59
-21.98
-22.15
-24.19
-28.22
-33.41
-38.49
-42.5
-45.25
-47.1
-48.53
-49.77
-50.8
-51.58
-52.4
-53.83
-56.43
-60.27
-64.54
-67.73
-68.22
-64.86
-57.42
-46.56
-33.46
-19.37
-5.32
7.91
19.51
28.69
34.92
38.17
39.09
38.75
38.09
37.46
36.57
34.93
32.4
29.54
27.38
26.82
28.06
30.48
33.02
34.78
35.42
35.16
34.45
33.57
32.58
31.37
29.89
28.24
26.52
24.68
22.55
20.01
17.11
14.19
11.67
9.76
8.32
6.88
4.89
2.02
-1.75
-6.13
-10.75
-15.23
-19.15
-22.16
-24.06
-24.97
-25.41
-26.29
-28.42
-32.11
-36.92
-41.79
-45.71
-48.22
-49.7
-51.1
-53.47
-57.22
-61.96
-66.55
-69.57
-69.68
-65.98
-58.12
-46.31
-31.32
-14.45
2.63
18.24
31.03
40.39
46.54
50.22
52.37
53.69
54.45
54.59
53.86
52.09
49.21
45.38
40.84
35.95
31.26
27.42
25.11
24.71
26.13
28.73
31.46
33.32
33.67
32.41
29.9
26.75
23.53
20.7
18.63
17.53
17.47
18.15
18.99
19.28
18.47
16.4
13.4
10.08
7.09
4.85
3.41
2.56
1.9
1.04
-0.3
-2.24
-4.66
-7.35
-10.05
-12.59
-15
-17.51
-20.43
-24.03
-28.5
-33.8
-39.59
-45.13
-49.31
-50.89
-48.9
-43.09
-33.99
-22.8
-10.93
0.46
10.68
19.38
26.41
31.6
34.69
35.52
34.16
30.88
26.11
20.36
14.19
8.2
3.06
-0.71
-2.8
-3.29
-2.62
-1.41
-0.25
0.58
0.96
0.95
0.57
-0.26
-1.58
-3.25
-4.98
-6.42
-7.31
-7.78
-8.2
-9.08
-10.72
-13.07
-15.68
-17.96
-19.48
-20.22
-20.59
-21.21
-22.64
-25.15
-28.5
-32.13
-35.31
-37.42
-38.31
-38.32
-38.26
-39.09
-41.57
-45.81
-51.24
-56.6
-60.32
-60.95
-57.59
-50.14
-39.26
-26.19
-12.4
0.75
12.14
21.12
27.48
31.41
33.3
33.66
32.93
31.47
29.57
27.4
25.25
23.39
22.07
21.37
21.19
21.35
21.65
22.08
22.7
23.6
24.69
25.61
25.93
25.3
23.7
21.52
19.38
17.74
16.67
15.76
14.38
12.13
9.05
5.57
2.18
-0.88
-3.74
-6.7
-9.86
-12.91
-15.35
-16.9
-17.87
-19.11
-21.49
-25.33
-29.99
-34.25
-36.99
-37.96
-37.92
-38.22
-39.99
-43.5
-48.14
-52.83
-56.55
-58.65
-58.82
-56.76
-52.08
-44.54
-34.35
-22.4
-10.08
1.23
10.62
17.83
23.12
26.9
29.56
31.41
32.77
33.93
35.02
35.97
36.58
36.72
36.63
36.87
38.02
40.29
43.29
46.16
48.1
48.83
48.67
48.23
48.03
48.14
48.25
47.88
46.75
44.88
42.43
39.57
36.27
32.37
27.81
22.74
17.53
12.65
8.45
4.92
1.74
-1.61
-5.56
-10.21
-15.23
-19.99
-23.93
-26.81
-28.98
-31.33
-34.82
-40.18
-47.32
-55.37
-62.83
-68.1
-69.91
-67.62
-61.27
-51.43
-39.07
-25.34
-11.6
0.88
10.98
18.18
22.66
25.24
27.04
28.99
31.37
33.76
35.39
35.61
34.31
31.96
29.41
27.39
26.22
25.71
25.38
24.79
23.72
22.32
20.91
19.75
18.85
17.96
16.64
14.55
11.64
8.18
4.65
1.4
-1.54
-4.55
-8.19
-12.87
-18.62
-25.02
-31.43
-37.13
-41.59
-44.62
-46.35
-47.19
-47.85
-49.02
-51.2
-54.41
-58.12
-61.41
-63.32
-63.16
-60.62
-55.74
-48.71
-39.72
-29.16
-17.69
-6.18
4.48
13.66
21.29
27.67
33.12
37.63
40.68
41.65
40.31
37.07
32.88
28.88
25.86
24.09
23.37
23.32
23.66
24.2
24.8
25.24
25.25
24.6
23.22
21.27
19.02
16.79
14.86
13.34
12.23
11.24
9.89
7.61
4.07
-0.7
-6.14
-11.48
-16.09
-19.75
-22.76
-25.64
-28.77
-32.06
-35.13
-37.61
-39.48
-41.17
-43.29
-46.36
-50.45
-55.23
-60.15
-64.63
-68.06
-69.78
-69.05
-65.04
-57.3
-45.96
-31.95
-16.72
-1.86
11.43
22.58
31.59
38.79
44.5
48.87
51.87
53.43
53.61
52.63
50.86
48.68
46.37
44.12
41.96
39.91
38
36.32
35
34.14
33.63
33.3
32.85
31.97
30.53
28.57
26.27
23.91
21.76
20.02
18.75
17.91
17.38
17.08
16.88
16.67
16.25
15.43
13.98
11.83
9.09
6.03
2.93
-0.03
-2.85
-5.66
-8.51
-11.32
-13.83
-15.85
-17.49
-19.22
-21.75
-25.72
-31.3
-37.99
-44.64
-49.73
-51.81
-49.93
-43.91
-34.56
-23.36
-12.1
-2.2
5.68
11.72
16.61
21.03
25.24
28.92
31.51
32.52
31.92
30.08
27.6
25.04
22.78
21.02
19.88
19.52
20.13
21.73
24.13
26.83
29.12
30.28
29.8
27.58
23.91
19.34
14.47
9.73
5.38
1.45
-2.1
-5.32
-8.31
-11.23
-14.33
-17.86
-21.88
-26.19
-30.33
-33.78
-36.2
-37.59
-38.45
-39.5
-41.46
-44.76
-49.29
-54.41
-59.05
-62
-62.21
-59.16
-52.94
-44.27
-34.17
-23.51
-12.82
-2.32
7.87
17.42
25.61
31.58
34.64
34.77
32.66
29.4
26
22.95
20.18
17.35
14.31
11.32
8.86
7.42
7.12
7.6
8.23
8.49
8.16
7.41
6.57
5.79
4.99
3.91
2.38
0.49
-1.37
-2.82
-3.8
-4.73
-6.42
-9.54
-14.26
-20.04
-25.8
-30.47
-33.41
-34.67
-34.77
-34.47
-34.41
-35.11
-36.87
-39.79
-43.7
-48.09
-52.11
-54.71
-54.93
-52.18
-46.29
-37.49
-26.35
-13.65
-0.38
12.39
23.55
32.23
37.97
40.89
41.57
40.83
39.4
37.7
35.92
34.02
31.98
29.86
27.86
26.16
24.87
23.97
23.42
23.23
23.39
23.86
24.52
25.13
25.39
25.18
24.55
23.74
22.93
22.13
21.22
20.01
18.47
16.76
15.14
13.8
12.61
11.14
8.88
5.54
1.2
-3.69
-8.54
-12.87
-16.4
-19.07
-20.97
-22.36
-23.65
-25.48
-28.57
-33.42
-40.01
-47.56
-54.64
-59.48
-60.59
-57.09
-49
-37.22
-23.19
-8.6
4.99
16.41
25.06
30.91
34.32
35.92
36.42
36.44
36.43
36.56
36.79
36.86
36.53
35.64
34.38
33.14
32.38
32.37
33.07
34.2
35.33
36.14
36.46
36.21
35.26
33.41
30.47
26.43
21.49
16.15
10.95
6.27
2.17
-1.58
-5.35
-9.26
-13.13
-16.58
-19.22
-20.92
-22.04
-23.27
-25.4
-28.97
-34.03
-40.08
-46.3
-51.74
-55.58
-57.25
-56.43
-53
-47.12
-39.18
-29.8
-19.73
-9.64
-0.11
8.47
15.8
21.57
25.42
27.03
26.39
23.8
19.98
15.88
12.28
9.73
8.34
7.89
7.93
8.06
8.02
7.7
7.14
6.39
5.52
4.57
3.55
2.49
1.56
0.89
0.63
0.74
0.91
0.66
-0.53
-3.02
-6.85
-11.7
-17.01
-22.1
-26.47
-29.95
-32.61
-34.82
-37.08
-39.87
-43.58
-48.32
-53.84
-59.35
-63.76
-65.75
-64.27
-58.86
-49.83
-38.17
-25.27
-12.41
-0.51
9.98
18.96
26.47
32.54
37.21
40.56
42.74
43.98
44.51
44.46
43.87
42.71
41.09
39.22
37.34
35.7
34.38
33.33
32.4
31.53
30.73
30.04
29.46
28.74
27.51
25.41
22.18
17.9
12.91
7.76
3.06
-0.72
-3.39
-5.1
-6.22
-7.28
-8.74
-10.97
-14.11
-18.12
-22.71
-27.5
-31.98
-35.71
-38.42
-40.2
-41.54
-43.17
-45.67
-49.24
-53.39
-57.13
-59.16
-58.37
-54.1
-46.33
-35.6
-22.76
-8.86
5.2
18.61
30.75
41.08
49.23
54.91
58.04
58.9
57.96
55.97
53.66
51.55
49.86
48.57
47.51
46.56
45.8
45.39
45.51
46.13
46.97
47.57
47.46
46.37
44.41
41.96
39.55
37.62
36.32
35.37
34.23
32.25
28.94
24.19
18.24
11.58
4.93
-1.08
-5.96
-9.37
-11.32
-12.17
-12.64
-13.78
-16.67
-21.98
-29.7
-39
-48.41
-56.23
-60.91
-61.43
-57.38
-49.13
-37.58
-24.16
-10.57
1.68
11.35
17.9
21.44
22.48
21.7
19.7
16.88
13.5
9.78
5.9
2.14
-1.18
-3.74
-5.29
-5.73
-5.13
-3.73
-1.82
0.21
2.01
3.23
3.63
3.07
1.6
-0.57
-3.08
-5.52
-7.64
-9.35
-10.8
-12.28
-14.1
-16.43
-19.31
-22.62
-26.11
-29.52
-32.67
-35.48
-38.1
-40.75
-43.67
-47
-50.6
-53.95
-56.21
-56.37
-53.58
-47.45
-38.29
-26.96
-14.76
-2.94
7.59
16.42
23.56
29.29
33.9
37.55
40.27
41.91
42.33
41.45
39.32
36.28
32.87
29.73
27.41
26.15
25.83
26.03
26.24
26.05
25.34
24.31
23.22
22.35
21.78
21.35
20.75
19.75
18.22
16.32
14.35
12.6
11.32
10.61
10.38
10.41
10.36
9.81
8.37
5.74
1.85
-3
-8.22
-13.1
-16.89
-19.23
-20.12
-20.07
-19.89
-20.44
-22.33
-25.63
-29.96
-34.54
-38.6
-41.63
-43.6
-44.89
-46.16
-47.91
-50.33
-53.17
-55.67
-56.92
-55.95
-52.01
-44.81
-34.61
-22.19
-8.72
4.51
16.46
26.44
34.31
40.29
44.73
47.88
49.82
50.5
49.94
48.43
46.45
44.55
43.16
42.46
42.28
42.33
42.31
42.06
41.55
40.77
39.64
38.04
35.87
33.2
30.37
27.81
25.93
24.88
24.46
24.13
23.25
21.25
17.99
13.72
9.02
4.67
1.27
-0.85
-1.92
-2.52
-3.34
-4.86
-7.14
-9.87
-12.59
-14.91
-16.79
-18.58
-20.85
-24.2
-28.89
-34.68
-40.84
-46.22
-49.53
-49.66
-46.01
-38.69
-28.43
-16.48
-4.21
7.09
16.47
23.37
27.62
29.45
29.36
27.99
25.9
23.57
21.24
19.01
16.99
15.3
14.17
13.87
14.63
16.54
19.59
23.57
28.08
32.56
36.22
38.31
38.3
36.01
31.82
26.4
20.6
15.05
10.11
5.74
1.6
-2.67
-7.42
-12.76
-18.61
-24.63
-30.34
-35.21
-38.9
-41.38
-42.96
-44.19
-45.66
-47.84
-50.81
-54.33
-57.8
-60.44
-61.43
-60.17
-56.4
-50.26
-42.28
-33.24
-23.94
-15.12
-7.22
-0.51
4.89
8.93
11.65
13.23
13.95
14.11
13.92
13.41
12.52
11.31
10.08
9.37
9.71
11.28
13.68
16.01
17.27
16.77
14.46
10.86
6.84
3.14
0.24
-1.73
-2.91
-3.55
-3.93
-4.39
-5.23
-6.74
-9.1
-12.31
-16.22
-20.5
-24.75
-28.56
-31.66
-33.91
-35.35
-36.23
-36.89
-37.65
-38.79
-40.4
-42.46
-44.82
-47.2
-49.05
-49.64
-48.16
-43.91
-36.67
-26.89
-15.6
-4.17
6.12
14.39
20.32
24.03
25.92
26.46
26.11
25.34
24.56
24.06
23.99
24.24
24.53
24.58
24.21
23.44
22.44
21.48
20.85
20.73
21.19
22.09
23.15
23.88
23.78
22.49
19.92
16.3
12.16
8.07
4.52
1.82
-0.06
-1.38
-2.5
-3.82
-5.59
-7.86
-10.5
-13.29
-16.05
-18.77
-21.53
-24.41
-27.41
-30.39
-33.02
-35.01
-36.21
-36.8
-37.22
-38.1
-39.95
-42.98
-46.87
-50.81
-53.68
-54.33
-51.94
-46.22
-37.51
-26.69
-14.96
-3.54
6.59
14.83
20.97
25.2
27.92
29.73
31.15
32.59
34.2
35.84
37.2
37.96
37.96
37.34
36.35
35.37
34.61
34.14
33.98
34.13
34.67
35.58
36.61
37.24
36.81
34.92
31.65
27.66
23.91
21.27
20.13
20.33
21.19
21.9
21.85
20.67
18.27
14.8
10.52
5.83
1.23
-2.67
-5.42
-6.9
-7.54
-8.19
-9.93
-13.58
-19.44
-27.16
-35.77
-43.97
-50.4
-53.96
-53.92
-50.01
-42.47
-32.04
-19.93
-7.56
3.62
12.54
18.64
22
23.07
22.45
20.71
18.21
15.22
12.07
9.22
7.25
6.7
7.74
10.07
13
15.63
17.21
17.44
16.41
14.6
12.55
10.66
9.07
7.71
6.35
4.76
2.85
0.52
-2.19
-5.3
-8.79
-12.55
-16.33
-19.78
-22.6
-24.67
-26.26
-28.04
-30.94
-35.75
-42.73
-51.28
-60
-66.99
-70.42
-69.13
-62.91
-52.48
-39.32
-25.14
-11.46
0.6
10.42
17.78
22.72
25.48
26.38
25.83
24.28
22.22
20.18
18.55
17.59
17.29
17.44
17.69
17.71
17.25
16.28
14.9
13.3
11.66
10.11
8.62
7.12
5.45
3.51
1.28
-1.21
-3.84
-6.51
-9.2
-11.98
-14.93
-18.01
-21.02
-23.65
-25.74
-27.5
-29.46
-32.41
-36.97
-43.17
-50.25
-56.77
-60.94
-61.3
-57.13
-48.6
-36.64
-22.65
-8.07
5.88
18.3
28.63
36.61
42.19
45.57
47.11
47.32
46.73
45.77
44.68
43.48
42.07
40.34
38.3
36.06
33.87
31.95
30.41
29.15
27.99
26.72
25.27
23.66
22.01
20.42
18.93
17.46
15.85
13.96
11.66
8.91
5.67
1.93
-2.22
-6.57
-10.84
-14.67
-17.8
-20.24
-22.32
-24.72
-28.16
-33.09
-39.47
-46.64
-53.55
-59.01
-62.04
-61.9
-58.33
-51.35
-41.31
-28.91
-15.17
-1.35
11.3
21.88
30.11
36.33
41.26
45.57
49.55
52.92
55.08
55.44
53.83
50.66
46.74
43
40.02
37.96
36.62
35.86
35.67
36.26
37.74
39.83
41.88
43.03
42.59
40.48
37.23
33.72
30.71
28.62
27.33
26.44
25.56
24.42
22.93
21.08
18.79
15.92
12.43
8.44
4.34
0.7
-2.05
-3.88
-5.24
-7.01
-10.15
-15.25
-22.2
-30.18
-37.85
-43.83
-46.97
-46.71
-43.07
-36.52
-27.92
-18.29
-8.68
-0.01
7.01
12
14.92
15.93
15.41
13.82
11.68
9.51
7.71
6.48
5.82
5.52
5.35
5.19
5.05
5.03
5.21
5.58
5.95
6.12
5.88
5.13
3.9
2.31
0.48
-1.46
-3.39
-5.15
-6.61
-7.71
-8.51
-9.19
-9.95
-10.96
-12.16
-13.4
-14.48
-15.3
-15.99
-16.9
-18.43
-20.92
-24.5
-28.96
-33.84
-38.48
-42
-43.5
-42.23
-37.83
-30.51
-21.14
-11.04
-1.55
6.34
12.29
16.53
19.67
22.29
24.73
27.01
28.94
30.26
30.78
30.37
29.01
26.8
23.95
20.77
17.63
14.95
13.02
11.96
11.64
11.7
11.69
11.28
10.3
8.8
7.04
5.26
3.58
1.95
0.22
-1.62
-3.42
-4.81
-5.53
-5.52
-5.13
-4.97
-5.69
-7.76
-11.22
-15.75
-20.69
-25.26
-28.8
-30.89
-31.56
-31.17
-30.47
-30.27
-31.19
-33.43
-36.69
-40.14
-42.7
-43.26
-40.98
-35.51
-27.15
-16.76
-5.69
4.66
13.06
18.84
21.89
22.66
21.89
20.41
18.84
17.53
16.6
15.93
15.41
14.97
14.68
14.62
14.84
15.27
15.68
15.87
15.73
15.33
14.88
14.6
14.55
14.58
14.45
13.96
13.07
11.94
10.8
9.81
8.98
8.26
7.54
6.84
6.32
6.17
6.54
7.33
8.23
8.79
8.63
7.56
5.77
3.61
1.51
-0.25
-1.58
-2.56
-3.25
-3.58
-3.5
-3.11
-2.86
-3.51
-5.76
-9.95
-15.77
-22.41
-28.8
-34.03
-37.47
-38.83
-37.98
-34.88
-29.7
-22.95
-15.57
-8.63
-3.07
0.79
3.2
4.85
6.4
8.16
10.06
11.8
13.11
13.95
14.59
15.3
16.33
17.69
19.22
20.71
22.03
23.14
23.99
24.51
24.48
23.64
21.86
19.2
15.98
12.71
9.88
7.72
6.16
4.86
3.37
1.43
-1.09
-4.15
-7.66
-11.54
-15.74
-20.13
-24.48
-28.48
-31.85
-34.5
-36.52
-38.27
-40.17
-42.48
-45.23
-48.19
-50.93
-53
-54.05
-53.81
-52.14
-48.96
-44.24
-37.99
-30.41
-21.89
-12.97
-4.29
3.53
10.02
14.78
17.63
18.54
17.71
15.59
12.78
9.93
7.62
6.17
5.64
5.94
6.8
7.88
8.89
9.5
9.51
8.8
7.44
5.66
3.83
2.38
1.58
1.5
1.94
2.58
3.12
3.28
2.91
1.99
0.52
-1.43
-3.7
-6.04
-8.14
-9.83
-11.14
-12.36
-13.78
-15.65
-17.94
-20.41
-22.79
-24.93
-26.94
-29.15
-31.94
-35.56
-40.03
-45.11
-50.25
-54.72
-57.63
-58.11
-55.51
-49.67
-41.06
-30.68
-19.82
-9.68
-0.98
6.21
12.31
17.87
23.23
28.33
32.85
36.39
38.72
39.77
39.58
38.21
35.73
32.35
28.51
24.86
22.11
20.7
20.7
21.84
23.65
25.6
27.16
27.89
27.43
25.76
23.15
20.23
17.65
15.91
15.07
14.83
14.83
14.84
14.91
15.14
15.45
15.42
14.43
11.89
7.64
2.01
-4.25
-10.2
-15.16
-18.73
-20.94
-22.08
-22.61
-23.12
-24.2
-26.41
-30.09
-35.19
-41.04
-46.53
-50.24
-50.95
-47.97
-41.45
-32.24
-21.65
-10.92
-0.93
7.84
15.27
21.42
26.39
30.28
33.26
35.57
37.56
39.62
41.98
44.69
47.49
49.96
51.68
52.4
52.16
51.24
50.01
48.71
47.33
45.7
43.57
40.91
37.92
34.91
32.18
29.86
27.85
25.9
23.74
21.21
18.27
14.97
11.45
7.87
4.5
1.6
-0.54
-1.8
-2.35
-2.72
-3.78
-6.4
-11.23
-18.25
-26.75
-35.4
-42.67
-47.16
-48.01
-45
-38.56
-29.69
-19.71
-9.96
-1.54
4.86
9.1
11.41
12.33
12.38
11.94
11.27
10.45
9.53
8.55
7.62
6.81
6.22
5.78
5.36
4.86
4.26
3.68
3.29
3.12
2.97
2.52
1.54
0.04
-1.65
-3.13
-4.3
-5.42
-7.04
-9.63
-13.2
-17.23
-20.98
-23.78
-25.43
-26.17
-26.5
-26.97
-27.96
-29.68
-32.26
-35.67
-39.69
-43.84
-47.3
-49.06
-48.27
-44.45
-37.65
-28.49
-17.92
-6.88
3.79
13.46
21.7
28.14
32.55
34.93
35.6
35.15
34.25
33.41
32.86
32.57
32.41
32.2
31.85
31.31
30.43
29.13
27.37
25.27
23.06
20.96
19.13
17.43
15.53
13.03
9.68
5.42
0.45
-4.81
-9.83
-14.05
-17.02
-18.55
-18.75
-18.05
-17.13
-16.66
-17.11
-18.65
-21.13
-24.22
-27.67
-31.3
-35.11
-39.1
-43.14
-46.87
-49.9
-51.92
-52.77
-52.41
-50.79
-47.69
-42.69
-35.44
-26
-14.98
-3.48
7.33
16.55
23.88
29.49
33.74
36.8
38.63
39.01
37.92
35.67
32.92
30.5
29.04
28.83
29.7
31.2
32.73
33.73
33.86
33
31.25
28.88
26.18
23.47
21.03
18.98
17.33
16.05
14.95
13.87
12.72
11.45
10.17
8.94
7.81
6.69
5.51
4.14
2.55
0.78
-1.11
-3.12
-5.23
-7.48
-9.85
-12.26
-14.56
-16.54
-18.06
-19.14
-20.01
-21.14
-23.04
-26.13
-30.46
-35.66
-40.96
-45.45
-48.24
-48.69
-46.5
-41.67
-34.5
-25.58
-15.78
-6.03
2.88
10.58
17.21
23.16
28.6
33.29
36.59
37.86
37.05
34.81
32.38
30.91
30.95
32.21
33.88
35.24
36.02
36.47
36.91
37.47
37.83
37.47
36.06
33.73
30.96
28.3
26.06
24.15
22.36
20.48
18.5
16.48
14.47
12.2
9.33
5.56
0.83
-4.57
-10.15
-15.37
-19.88
-23.53
-26.38
-28.66
-30.66
-32.74
-35.22
-38.31
-41.87
-45.38
-48.09
-49.11
-47.77
-43.8
-37.55
-29.88
-21.9
-14.58
-8.44
-3.62
0.1
2.9
4.85
5.8
5.63
4.38
2.38
0.19
-1.6
-2.5
-2.31
-1.03
1.12
3.83
6.77
9.54
11.8
13.2
13.57
12.84
11.22
9.11
6.99
5.23
3.89
2.75
1.45
-0.25
-2.4
-4.79
-7.11
-9.25
-11.38
-13.77
-16.58
-19.64
-22.5
-24.62
-25.7
-25.9
-25.73
-25.93
-27.15
-29.75
-33.75
-38.72
-43.82
-47.99
-50.16
-49.48
-45.62
-38.84
-29.95
-20.14
-10.67
-2.53
3.78
8.34
11.69
14.53
17.29
19.94
22.06
23.13
22.92
21.71
20.12
18.76
17.97
17.68
17.63
17.62
17.62
17.71
17.94
18.18
18.21
17.91
17.42
17.01
16.99
17.38
17.93
18.15
17.59
16.05
13.66
10.83
7.92
5.22
2.83
0.79
-0.89
-2.29
-3.65
-5.49
-8.41
-12.86
-18.71
-25.24
-31.3
-35.78
-38.17
-38.7
-38.19
-37.63
-37.72
-38.65
-40.2
-41.93
-43.24
-43.54
-42.18
-38.62
-32.58
-24.24
-14.28
-3.69
6.52
15.7
23.59
30.26
35.82
40.22
43.28
44.83
44.93
43.86
42.16
40.3
38.68
37.55
37.03
37.22
38.15
39.78
41.8
43.72
44.87
44.75
43.13
40.19
36.37
32.26
28.41
25.14
22.56
20.51
18.66
16.66
14.22
11.32
8.18
5.17
2.61
0.6
-1.07
-2.8
-4.96
-7.74
-10.93
-14.06
-16.69
-18.6
-19.96
-21.3
-23.15
-25.89
-29.48
-33.43
-36.97
-39.2
-39.36
-36.97
-31.87
-24.27
-14.77
-4.36
5.83
14.64
21.24
25.29
26.99
26.95
25.91
24.45
22.91
21.32
19.61
17.74
15.85
14.23
13.2
12.92
13.27
13.95
14.55
14.77
14.58
14.18
13.76
13.37
12.81
11.76
9.97
7.46
4.46
1.32
-1.74
-4.72
-7.8
-11.15
-14.81
-18.59
-22.18
-25.32
-27.82
-29.61
-30.8
-31.7
-32.73
-34.42
-37.16
-41.03
-45.67
-50.32
-54.1
-56.22
-56.09
-53.42
-48.14
-40.42
-30.69
-19.74
-8.58
1.68
10.18
16.44
20.51
22.77
23.78
24.01
23.7
22.98
21.87
20.47
18.95
17.52
16.3
15.34
14.59
13.94
13.3
12.66
12.07
11.54
11.01
10.35
9.4
8.04
6.22
3.98
1.39
-1.38
-4.1
-6.42
-8.07
-8.95
-9.27
-9.48
-10.07
-11.47
-13.8
-17
-20.82
-25.02
-29.41
-33.86
-38.16
-42.12
-45.55
-48.34
-50.49
-51.88
-52.18
-50.86
-47.32
-41.28
-32.98
-23.14
-12.83
-3.05
5.59
12.87
18.92
24
28.14
31.25
33.07
33.46
32.5
30.56
28.17
25.94
24.34
23.54
23.47
23.78
24.09
24.04
23.42
22.2
20.52
18.65
16.83
15.27
14.06
13.18
12.47
11.75
10.9
9.89
8.77
7.59
6.43
5.25
4.02
2.64
0.95
-1.16
-3.75
-6.77
-10.03
-13.14
-15.64
-17.23
-18
-18.52
-19.64
-22.19
-26.43
-31.88
-37.37
-41.42
-42.74
-40.69
-35.39
-27.58
-18.3
-8.48
1.23
10.48
19.04
26.65
32.96
37.64
40.57
41.87
41.96
41.37
40.5
39.55
38.64
37.77
37.1
36.81
37.06
37.78
38.69
39.4
39.58
39.02
37.68
35.61
32.92
29.83
26.57
23.46
20.72
18.44
16.49
14.56
12.34
9.52
6.05
2.09
-2.08
-6.08
-9.6
-12.51
-14.96
-17.33
-20.25
-24.28
-29.68
-36.16
-42.95
-48.97
-53.05
-54.36
-52.5
-47.61
-40.25
-31.31
-21.79
-12.68
-4.76
1.52
5.98
8.71
9.86
9.65
8.26
6.03
3.5
1.29
-0.07
-0.33
0.49
2.04
3.96
5.93
7.81
9.57
11.21
12.69
13.98
15.12
16.18
17.24
18.33
19.31
19.83
19.45
17.82
14.76
10.43
5.22
-0.29
-5.61
-10.47
-14.88
-18.98
-22.88
-26.55
-29.88
-32.88
-35.74
-38.9
-42.75
-47.38
-52.36
-56.82
-59.7
-60.09
-57.54
-52.09
-44.15
-34.33
-23.29
-11.74
-0.51
9.54
17.66
23.41
26.86
28.48
28.96
28.96
28.78
28.38
27.49
25.79
23.25
20.18
17.18
14.92
13.82
13.92
14.87
16.14
17.15
17.52
17.07
15.79
13.81
11.28
8.43
5.49
2.72
0.25
-1.89
-3.85
-5.75
-7.68
-9.63
-11.52
-13.37
-15.25
-17.24
-19.33
-21.4
-23.34
-25.13
-27.05
-29.53
-32.93
-37.17
-41.61
-45.11
-46.43
-44.67
-39.57
-31.55
-21.54
-10.65
0.14
10.12
18.91
26.42
32.74
38.11
42.66
46.32
48.81
49.78
49.09
46.97
44.03
41.04
38.64
37.07
36.3
36.07
36.15
36.47
36.96
37.47
37.71
37.35
36.25
34.55
32.56
30.52
28.51
26.3
23.65
20.51
17.12
13.94
11.35
9.4
7.7
5.76
3.23
0.2
-2.89
-5.63
-7.9
-10.17
-13.18
-17.62
-23.68
-30.96
-38.57
-45.38
-50.4
-52.83
-52.16
-48.29
-41.57
-32.72
-22.71
-12.49
-2.79
5.94
13.46
19.56
24.03
26.64
27.39
26.54
24.62
22.18
19.75
17.67
16.2
15.55
15.74
16.65
17.77
18.43
18.02
16.17
13.03
9.12
5.14
1.73
-0.79
-2.44
-3.51
-4.36
-5.42
-6.97
-9.25
-12.3
-16.01
-20.08
-24
-27.22
-29.36
-30.45
-30.96
-31.68
-33.37
-36.42
-40.59
-45.09
-48.75
-50.4
-49.27
-45.09
-38.2
-29.28
-19.19
-8.78
1.26
10.45
18.46
25.02
29.92
32.96
34.05
33.3
31.02
27.76
24.21
21
18.6
17.18
16.61
16.51
16.42
15.92
14.81
13.11
11.03
8.89
7
5.55
4.6
4.03
3.58
2.91
1.73
-0.13
-2.66
-5.69
-9
-12.4
-15.81
-19.13
-22.23
-24.86
-26.78
-27.96
-28.7
-29.58
-31.28
-34.25
-38.38
-43
-47.02
-49.28
-48.94
-45.64
-39.55
-31.31
-21.85
-12.13
-3
4.93
11.4
16.43
20.23
23.05
25.08
26.38
27.03
27.04
26.49
25.55
24.4
23.26
22.22
21.4
20.79
20.4
20.22
20.26
20.55
21.07
21.73
22.39
22.94
23.28
23.37
23.19
22.69
21.87
20.71
19.32
17.9
16.59
15.45
14.36
13.04
11.23
8.86
6.03
3.04
0.21
-2.23
-4.25
-6.04
-8.04
-10.82
-14.91
-20.62
-27.7
-35.39
-42.43
-47.48
-49.48
-47.98
-43.21
-35.8
-26.7
-16.84
-7.12
1.69
8.94
14.27
17.77
20
21.79
23.93
26.79
30.2
33.55
36.14
37.54
37.82
37.43
36.98
36.91
37.27
37.81
37.99
37.36
35.63
32.82
29.22
25.33
21.62
18.42
15.88
13.86
12.15
10.48
8.6
6.25
3.28
-0.42
-4.71
-9.09
-12.83
-15.29
-16.3
-16.41
-16.83
-18.8
-23.08
-29.45
-36.79
-43.52
-48.24
-50.14
-49.12
-45.54
-39.88
-32.69
-24.47
-15.82
-7.44
-0.01
5.93
10.16
12.78
14.11
14.37
13.67
11.95
9.21
5.67
1.84
-1.59
-3.99
-5.05
-4.93
-4.1
-3.17
-2.63
-2.65
-3.13
-3.82
-4.5
-5.03
-5.39
-5.61
-5.73
-5.83
-6.1
-6.79
-8.21
-10.65
-14.13
-18.35
-22.77
-26.67
-29.53
-31.12
-31.72
-31.93
-32.55
-34.16
-36.94
-40.56
-44.29
-47.2
-48.33
-46.97
-42.78
-35.79
-26.48
-15.62
-4.21
6.78
16.54
24.54
30.51
34.48
36.62
37.24
36.7
35.41
33.82
32.3
31.07
30.08
29.14
27.95
26.33
24.28
22.02
19.86
18.03
16.6
15.38
14.09
12.5
10.51
8.16
5.46
2.44
-0.91
-4.49
-8.03
-11.13
-13.41
-14.8
-15.55
-16.26
-17.47
-19.48
-22.12
-24.91
-27.28
-28.97
-30.11
-31.14
-32.61
-34.89
-38.09
-41.97
-45.97
-49.3
-50.97
-50.04
-45.76
-37.95
-27.17
-14.61
-1.75
10.08
20.07
28.07
34.32
39.16
42.71
44.9
45.61
44.93
43.28
41.31
39.64
38.58
38.01
37.55
36.77
35.5
33.97
32.62
31.89
31.89
32.31
32.59
32.15
30.83
28.86
26.74
24.97
23.78
23.04
22.37
21.39
19.88
17.85
15.44
12.76
9.86
6.71
3.42
0.19
-2.58
-4.49
-5.38
-5.64
-6.05
-7.68
-11.36
-17.16
-24.31
-31.31
-36.56
-38.88
-37.92
-34.09
-28.22
-21.16
-13.53
-5.71
1.98
9.12
15.1
19.34
21.51
21.71
20.48
18.58
16.67
15.12
13.9
12.82
11.72
10.64
9.8
9.48
9.82
10.64
11.47
11.73
11.02
9.29
6.91
4.54
2.77
1.87
1.61
1.36
0.39
-1.77
-5.19
-9.54
-14.28
-18.91
-23.1
-26.59
-29.21
-30.9
-31.76
-32.21
-32.91
-34.54
-37.52
-41.68
-46.25
-50.01
-51.74
-50.58
-46.36
-39.55
-31.04
-21.93
-13.12
-5.15
1.66
7.29
11.74
15.08
17.4
18.88
19.64
19.84
19.55
18.8
17.64
16.23
14.8
13.67
13.12
13.24
13.97
15.04
16.08
16.69
16.63
15.8
14.37
12.67
11.12
10.04
9.48
9.21
8.75
7.59
5.44
2.4
-1.11
-4.51
-7.36
-9.57
-11.41
-13.27
-15.45
-17.95
-20.47
-22.7
-24.6
-26.43
-28.74
-31.94
-36.05
-40.52
-44.41
-46.67
-46.55
-43.79
-38.56
-31.41
-22.98
-13.92
-4.85
3.61
10.97
16.92
21.43
24.73
27.11
28.78
29.76
29.91
29.11
27.41
25.09
22.64
20.46
18.77
17.5
16.45
15.4
14.26
13.12
12.15
11.5
11.17
11.02
10.89
10.67
10.4
10.29
10.54
11.21
12.16
12.98
13.2
12.53
10.96
8.71
6.1
3.44
0.88
-1.52
-3.69
-5.46
-6.62
-7.12
-7.22
-7.51
-8.81
-11.81
-16.81
-23.62
-31.53
-39.49
-46.27
-50.65
-51.68
-48.83
-42.13
-32.27
-20.44
-8.04
3.67
13.8
21.95
28.1
32.4
35.03
36.2
36.19
35.36
34.13
32.89
31.89
31.18
30.67
30.2
29.76
29.59
30.13
31.75
34.51
37.93
41.04
42.76
42.31
39.6
35.27
30.41
25.95
22.37
19.6
17.19
14.7
12.02
9.35
7.02
5.22
3.96
2.94
1.82
0.3
-1.77
-4.51
-7.99
-12.32
-17.5
-23.2
-28.77
-33.24
-35.67
-35.43
-32.41
-27.01
-20.01
-12.23
-4.49
2.5
8.14
11.96
13.7
13.42
11.46
8.33
4.51
0.34
-3.93
-8.04
-11.59
-14.11
-15.25
-14.96
-13.61
-11.78
-10.12
-9.08
-8.81
-9.19
-9.97
-10.83
-11.59
-12.04
-12.02
-11.52
-10.63
-9.62
-8.92
-8.97
-10.05
-12.23
-15.29
-18.81
-22.4
-25.75
-28.74
-31.54
-34.42
-37.66
-41.31
-45.11
-48.4
-50.26
-49.77
-46.35
-40.04
-31.48
-21.8
-12.24
-3.84
2.87
7.88
11.59
14.47
16.89
18.93
20.38
20.96
20.53
19.11
16.96
14.42
11.79
9.24
6.9
4.76
2.75
0.72
-1.51
-4.03
-6.74
-9.27
-11.14
-11.96
-11.58
-10.21
-8.32
-6.42
-4.91
-3.95
-3.58
-3.77
-4.57
-6.07
-8.37
-11.43
-15.07
-19.01
-22.93
-26.58
-29.91
-33.05
-36.22
-39.55
-42.92
-45.87
-47.79
-48.05
-46.18
-42.04
-35.78
-27.8
-18.59
-8.62
1.6
11.61
20.97
29.31
36.27
41.52
44.79
45.98
45.16
42.7
39.17
35.28
31.66
28.66
26.34
24.42
22.56
20.41
17.88
15.11
12.37
9.98
8.1
6.77
5.91
5.38
5
4.59
3.96
2.95
1.4
-0.73
-3.4
-6.46
-9.68
-12.84
-15.79
-18.51
-21.05
-23.52
-25.89
-27.98
-29.49
-30.22
-30.22
-30.03
-30.41
-32.15
-35.56
-40.21
-45.01
-48.46
-49.19
-46.29
-39.62
-29.79
-18
-5.62
6.08
16.3
24.75
31.63
37.29
41.99
45.75
48.41
49.78
49.88
48.94
47.36
45.55
43.76
42.16
40.87
40.13
40.16
41.06
42.64
44.36
45.51
45.5
44.08
41.47
38.23
34.94
32.03
29.6
27.45
25.33
23
20.38
17.43
14.2
10.68
6.99
3.43
0.36
-1.8
-2.93
-3.27
-3.53
-4.57
-7.2
-11.67
-17.67
-24.31
-30.38
-34.6
-35.9
-33.69
-27.99
-19.52
-9.43
0.92
10.36
18.23
24.32
28.79
31.83
33.45
33.45
31.63
28.08
23.35
18.38
14.16
11.38
10.23
10.39
11.25
12.14
12.56
12.16
10.85
8.64
5.75
2.59
-0.37
-2.66
-4.09
-4.75
-5.14
-5.83
-7.3
-9.68
-12.75
-16.12
-19.29
-22.02
-24.36
-26.68
-29.48
-33.15
-37.81
-43.2
-48.76
-53.73
-57.36
-59.03
-58.32
-55.03
-49.22
-41.21
-31.63
-21.26
-10.94
-1.42
6.81
13.54
18.72
22.33
24.3
24.66
23.51
21.19
18.34
15.68
13.92
13.45
14.37
16.35
18.82
20.97
22.01
21.4
18.98
15.17
10.7
6.4
2.8
0.04
-2.1
-3.97
-5.83
-7.78
-9.78
-11.84
-14.01
-16.47
-19.25
-22.24
-25.16
-27.91
-30.6
-33.55
-37.16
-41.56
-46.47
-51.1
-54.44
-55.56
-53.95
-49.62
-42.9
-34.27
-24.12
-12.62
-0.01
13.28
26.38
38.08
47.07
52.38
53.74
51.64
47.18
41.63
36.08
31.2
27.37
24.72
23.35
23.34
24.65
26.96
29.61
31.8
32.78
32.2
30.13
26.98
23.28
19.46
15.78
12.36
9.24
6.44
4
1.83
-0.16
-2.18
-4.42
-6.97
-9.84
-12.91
-15.95
-18.71
-20.94
-22.55
-23.69
-24.76
-26.27
-28.59
-31.76
-35.36
-38.51
-40.28
-39.96
-37.25
-32.34
-25.71
-17.94
-9.53
-0.89
7.52
15.07
21.13
25.23
27.27
27.64
27.02
26.15
25.56
25.4
25.52
25.71
25.84
25.98
26.22
26.65
27.2
27.73
28.05
28.06
27.76
27.22
26.49
25.59
24.44
22.93
20.96
18.52
15.75
12.93
10.41
8.53
7.47
7.16
7.3
7.41
7.03
5.89
3.96
1.47
-1.18
-3.58
-5.43
-6.76
-7.92
-9.57
-12.37
-16.81
-22.84
-29.83
-36.74
-42.37
-45.68
-46.04
-43.28
-37.6
-29.51
-19.74
-9.11
1.48
11.14
19.19
25.21
29.04
30.75
30.58
29
26.68
24.43
23
22.87
24.05
26.15
28.55
30.69
32.27
33.35
34.04
34.42
34.37
33.65
32.07
29.65
26.66
23.51
20.55
17.98
15.85
14
12.12
9.87
6.97
3.36
-0.73
-4.89
-8.54
-11.27
-12.96
-13.94
-14.92
-16.65
-19.66
-23.96
-29.07
-34.17
-38.32
-40.81
-41.26
-39.58
-35.88
-30.47
-23.79
-16.47
-9.3
-3.04
1.73
4.83
6.42
6.82
6.28
4.84
2.48
-0.73
-4.46
-8.1
-10.99
-12.69
-13.1
-12.48
-11.2
-9.66
-8.05
-6.48
-5.05
-3.9
-3.17
-2.94
-3.17
-3.67
-4.25
-4.78
-5.37
-6.26
-7.79
-10.19
-13.41
-17.11
-20.78
-24.02
-26.77
-29.39
-32.33
-35.87
-39.82
-43.58
-46.39
-47.71
-47.39
-45.7
-42.97
-39.31
-34.57
-28.56
-21.29
-13.19
-4.94
2.75
9.45
15.09
19.8
23.74
26.99
29.54
31.25
32.05
31.91
30.91
29.27
27.21
25.02
22.95
21.13
19.57
18.13
16.64
15.04
13.41
11.95
10.89
10.3
10.01
9.71
9.01
7.57
5.2
1.99
-1.79
-5.67
-9.17
-12
-14.01
-15.34
-16.29
-17.19
-18.34
-19.85
-21.61
-23.37
-24.89
-25.99
-26.73
-27.34
-28.11
-29.3
-30.94
-32.81
-34.42
-35.28
-34.96
-33.17
-29.77
-24.68
-17.96
-9.86
-0.92
8.1
16.33
23.08
28.08
31.38
33.31
34.29
34.66
34.6
34.25
33.7
32.97
32.09
31.08
30.04
29.2
28.83
29.08
29.87
30.83
31.36
30.97
29.48
27.13
24.45
22.03
20.18
18.87
17.77
16.48
14.75
12.55
10.17
7.95
6.23
5.2
4.87
5.07
5.54
5.95
5.95
5.26
3.71
1.38
-1.49
-4.46
-7.13
-9.28
-11.02
-12.67
-14.64
-17.27
-20.64
-24.77
-29.54
-34.88
-40.63
-46.45
-51.69
-55.47
-56.83
-55.08
-50.07
-42.27
-32.58
-22.14
-12.03
-2.98
4.69
11.02
16.28
20.77
24.55
27.49
29.4
30.23
30.19
29.76
29.44
29.56
30.11
30.93
31.78
32.62
33.51
34.46
35.38
35.92
35.79
34.85
33.3
31.49
29.76
28.2
26.77
25.37
24.08
23.06
22.48
22.33
22.33
22.06
21.15
19.53
17.43
15.27
13.4
11.99
10.93
9.83
8.27
5.89
2.47
-2.06
-7.61
-13.92
-20.67
-27.45
-33.73
-38.92
-42.48
-44.02
-43.33
-40.41
-35.38
-28.48
-20.04
-10.71
-1.56
5.91
10.18
10.38
6.8
0.86
-5.4
-10.18
-12.64
-13.02
-12.35
-11.75
-11.82
-12.48
-13.28
-13.84
-14.18
-14.78
-16.26
-18.94
-22.58
-26.36
-29.18
-30.09
-28.74
-25.65
-21.97
-18.99
-17.68
-18.21
-20.08
-22.47
-24.64
-26.31
-27.65
-29.06
-30.78
-32.74
-34.58
-35.9
-36.54
-36.79
-37.33
-39.04
-42.58
-48.25
-55.66
-63.83
-71.38
-76.7
-78.14
-74.1
-63.23
-44.93
-19.87
9.52
39.32
64.82
81.94
88.56
85.19
74.64
60.94
47.88
37.77
31.23
27.58
25.55
24.02
22.24
19.78
16.5
12.51
8.12
3.98
0.94
-0.04
1.59
5.8
11.77
18.06
23.1
25.63
25.15
22.07
17.55
12.97
9.41
7.11
5.44
3.18
-0.83
-7.03
-14.88
-23.14
-30.27
-35.21
-37.59
-37.73
-36.4
-34.41
-32.52
-31.33
-31.27
-32.46
-34.62
-36.96
-38.33
-37.58
-33.87
-26.94
-17.16
-5.39
7.22
19.42
30.09
38.33
43.62
45.91
45.7
43.87
41.49
39.45
38.18
37.49
36.58
34.32
29.86
23.03
14.67
6.49
0.34
-2.4
-1.48
2.29
7.45
12.61
16.81
19.79
21.68
22.64
22.75
22.03
20.62
18.97
17.75
17.48
18.36
20.12
22
23.02
22.28
19.27
14.21
7.94
1.74
-3.02
-5.31
-4.89
-2.34
0.9
3.01
2.37
-1.93
-9.75
-19.79
-30.01
-38.17
-42.44
-41.91
-36.75
-28.04
-17.39
-6.49
3.37
11.38
17.25
21.12
23.35
24.38
24.7
24.66
24.5
24.18
23.46
22.05
19.93
17.46
15.35
14.3
14.73
16.52
19.14
21.88
24.17
25.76
26.61
26.7
25.94
24.21
21.46
17.84
13.65
9.26
4.95
0.82
-3.15
-6.96
-10.6
-13.92
-16.81
-19.28
-21.53
-23.96
-27.12
-31.42
-36.83
-42.8
-48.14
-51.55
-51.97
-49.11
-43.58
-36.62
-29.59
-23.47
-18.55
-14.47
-10.53
-6.08
-0.79
5.21
11.39
16.91
20.77
22.11
20.42
15.81
9.05
1.39
-5.77
-11.19
-14.12
-14.46
-12.62
-9.4
-5.72
-2.4
-0.04
1.13
1.23
0.61
-0.28
-1.03
-1.44
-1.51
-1.45
-1.72
-2.81
-5.18
-9.06
-14.2
-19.88
-25.07
-28.82
-30.58
-30.45
-29.2
-27.86
-27.36
-28.22
-30.51
-34.01
-38.19
-42.32
-45.44
-46.49
-44.54
-39.27
-31.16
-21.37
-11.28
-1.88
6.34
13.47
19.7
25.08
29.4
32.39
33.98
34.47
34.33
33.97
33.51
32.83
31.8
30.41
28.85
27.46
26.41
25.62
24.8
23.6
21.8
19.47
16.95
14.65
12.77
11.14
9.31
6.85
3.61
-0.11
-3.84
-7.08
-9.72
-12.06
-14.6
-17.65
-21.21
-24.89
-28.17
-30.72
-32.51
-33.79
-34.92
-36.13
-37.48
-38.97
-40.63
-42.56
-44.79
-47.03
-48.69
-48.91
-46.87
-42.13
-34.81
-25.4
-14.66
-3.25
8.37
19.82
30.68
40.38
48.14
53.29
55.57
55.19
52.82
49.4
45.85
42.87
40.92
40.12
40.29
41.08
41.97
42.49
42.43
41.99
41.69
42.07
43.27
44.9
46.12
46.09
44.47
41.52
37.95
34.45
31.31
28.31
24.99
20.99
16.44
11.89
8.1
5.58
4.4
3.97
3.28
1.21
-3.07
-9.89
-18.8
-28.7
-38.02
-45.08
-48.56
-47.81
-43.09
-35.46
-26.44
-17.56
-9.86
-3.77
0.85
4.3
6.91
8.75
9.79
10.14
10.06
9.92
9.88
9.84
9.44
8.44
6.98
5.58
5
5.7
7.47
9.45
10.5
9.72
6.91
2.67
-2.07
-6.48
-10.26
-13.64
-17.07
-20.8
-24.76
-28.56
-31.69
-33.86
-35.08
-35.61
-35.83
-36.05
-36.6
-37.82
-39.96
-43.06
-46.81
-50.39
-52.72
-52.77
-49.9
-44.14
-36.21
-27.19
-18.16
-9.82
-2.35
4.42
10.75
16.62
21.66
25.37
27.33
27.42
25.96
23.58
20.91
18.43
16.39
14.84
13.77
13.18
13.03
13.27
13.76
14.23
14.36
13.9
12.62
10.44
7.48
4.01
0.45
-2.74
-5.27
-7.05
-8.28
-9.35
-10.77
-12.79
-15.42
-18.35
-21.18
-23.56
-25.48
-27.26
-29.42
-32.36
-36.16
-40.53
-44.93
-48.83
-51.78
-53.36
-53.1
-50.43
-44.83
-36.21
-25.21
-13.09
-1.37
8.76
16.85
23.21
28.54
33.32
37.59
40.94
42.97
43.58
43.08
41.97
40.62
39.08
37.09
34.39
31
27.33
23.99
21.47
19.97
19.25
18.92
18.48
17.59
16.14
14.19
11.9
9.48
7.15
5
3.06
1.31
-0.29
-1.73
-2.93
-3.82
-4.48
-5.27
-6.73
-9.42
-13.58
-18.99
-24.92
-30.46
-34.82
-37.71
-39.43
-40.8
-42.72
-45.88
-50.56
-56.48
-62.88
-68.58
-72.28
-72.74
-69.12
-61.27
-49.83
-36.18
-22.04
-9.15
1.19
8.29
12.27
13.9
14.56
15.85
19.17
25.38
34.4
45.32
56.69
67.12
75.64
81.89
85.93
87.88
87.69
85.13
80.09
72.98
64.77
56.78
50.21
45.64
42.87
41.18
39.79
38.28
36.75
35.57
34.98
34.79
34.46
33.42
31.54
29.28
27.46
26.83
27.52
28.88
29.7
28.86
25.77
20.68
14.53
8.41
3.15
-0.98
-4.19
-6.8
-9.02
-10.97
-12.71
-14.64
-17.48
-22
-28.71
-37.38
-46.86
-55.31
-60.85
-62.16
-58.9
-51.75
-42.04
-31.31
-20.83
-11.42
-3.45
3
8.01
11.68
13.99
14.84
14.01
11.31
6.84
1.08
-5.01
-10.32
-13.87
-15.24
-14.59
-12.49
-9.54
-6.19
-2.7
0.68
3.58
5.56
6.28
5.85
4.82
3.93
3.68
4
4.34
4
2.59
0.3
-2.21
-4.25
-5.52
-6.32
-7.42
-9.47
-12.62
-16.54
-20.61
-24.38
-27.92
-31.74
-36.4
-42.12
-48.38
-54.06
-57.83
-58.73
-56.37
-51.06
-43.43
-34.06
-23.39
-11.7
0.63
12.88
24.06
33.12
39.29
42.39
42.81
41.29
38.65
35.39
31.75
27.82
23.76
19.9
16.73
14.78
14.27
15.06
16.67
18.45
19.89
20.76
21.05
20.92
20.56
20.05
19.44
18.71
17.81
16.62
14.96
12.58
9.39
5.5
1.3
-2.63
-5.83
-8.1
-9.63
-10.84
-12.16
-13.89
-16.13
-18.78
-21.64
-24.42
-26.86
-28.66
-29.67
-30.01
-30.06
-30.47
-31.78
-34.18
-37.38
-40.53
-42.54
-42.42
-39.47
-33.45
-24.6
-13.55
-1.17
11.58
23.84
34.95
44.42
51.98
57.46
60.75
61.83
60.86
58.21
54.48
50.25
46.03
42.16
38.91
36.43
34.77
33.84
33.35
32.98
32.48
31.95
31.74
32.22
33.39
34.81
35.69
35.31
33.5
30.72
27.86
25.6
24.07
22.68
20.65
17.43
13.22
8.8
5.05
2.44
0.69
-0.95
-3.15
-6.08
-9.24
-11.8
-13.31
-14.09
-15.19
-17.9
-22.98
-30.17
-38.15
-45.03
-49
-49.02
-45.1
-38.11
-29.36
-20.09
-11.14
-2.92
4.33
10.27
14.28
15.63
13.93
9.52
3.63
-1.97
-5.68
-6.74
-5.54
-3.31
-1.49
-1.01
-1.95
-3.67
-5.29
-6.18
-6.3
-6.04
-5.93
-6.28
-7.12
-8.28
-9.61
-11.09
-12.76
-14.59
-16.31
-17.49
-17.81
-17.38
-16.76
-16.8
-18.22
-21.12
-24.91
-28.46
-30.86
-31.96
-32.56
-34.07
-37.72
-43.76
-51.15
-57.9
-61.84
-61.67
-57.39
-50.15
-41.55
-32.79
-24.07
-14.83
-4.66
6.25
16.84
25.87
32.67
37.64
41.49
44.17
44
38.4
26.24
10.05
-4.29
-10.69
-6.89
3.55
13.3
16.24
11.79
5.27
3.57
9.66
19.87
26.5
23.74
12.52
0.05
-5.49
-1.26
7.86
13.05
8.32
-5.03
-19.16
-25.58
-21.12
-10.17
-1.25
-1.23
-10.68
-24.11
-34.03
-36.18
-31.9
-26.59
-25.64
-30.79
-39.59
-47.56
-51.46
-51.16
-48.97
-47.33
-46.73
-45.21
-39.87
-29.06
-13.68
3.31
18.46
29.57
36.46
40.48
43.28
45.83
48.21
50
50.84
50.66
49.55
47.54
44.56
40.66
36.23
32.13
29.32
28.37
29.13
30.84
32.54
33.56
33.69
33.18
32.29
31.19
29.91
28.43
26.89
25.4
24.01
22.54
20.72
18.34
15.44
12.32
9.28
6.48
3.75
0.87
-2.23
-5.24
-7.59
-8.81
-8.93
-8.67
-9.2
-11.75
-17.06
-25.01
-34.63
-44.22
-51.87
-55.83
-55
-49.23
-39.37
-27.09
-14.36
-2.83
6.62
13.96
19.74
24.53
28.57
31.6
33.14
32.91
31.05
28.26
25.36
23.02
21.51
20.76
20.62
21.08
22.23
24.1
26.47
28.81
30.44
30.82
29.74
27.5
24.61
21.6
18.77
16.19
13.77
11.45
9.26
7.21
5.24
3.09
0.42
-2.94
-6.83
-10.78
-14.23
-16.88
-19.05
-21.63
-25.77
-32.26
-41.17
-51.69
-62.33
-71.4
-77.48
-79.68
-77.67
-71.63
-62.05
-49.72
-35.72
-21.28
-7.66
4.02
13
19.04
22.25
22.99
21.71
18.79
14.7
10
5.32
1.39
-1.19
-2.2
-1.78
-0.44
1.29
3.02
4.56
5.93
7.12
7.97
8.19
7.49
5.77
3.38
0.96
-0.82
-1.72
-2.16
-3.12
-5.47
-9.49
-14.55
-19.52
-23.38
-25.85
-27.46
-29.17
-31.72
-35.23
-39.23
-43.21
-46.86
-50.28
-53.6
-56.57
-58.5
-58.45
-55.73
-50.19
-42.21
-32.56
-22.04
-11.39
-1.07
8.55
17.27
24.97
31.6
37.14
41.54
44.73
46.59
47.08
46.3
44.53
42.17
39.62
37.2
35.07
33.2
31.45
29.65
27.71
25.71
23.87
22.35
21.2
20.19
18.89
16.84
13.81
9.97
5.87
2.31
-0.17
-1.52
-2.18
-2.93
-4.5
-7.23
-11.03
-15.53
-20.34
-25.18
-29.88
-34.33
-38.31
-41.59
-44.1
-46.07
-47.99
-50.49
-53.97
-58.3
-62.64
-65.64
-65.68
-61.5
-52.59
-39.45
-23.52
-6.77
8.92
22.26
32.72
40.49
46.13
50.12
52.63
53.67
53.26
51.7
49.64
47.79
46.67
46.21
45.96
45.26
43.78
41.7
39.68
38.48
38.56
39.91
41.95
43.87
44.97
44.84
43.43
40.96
37.76
34.14
30.4
26.76
23.47
20.76
18.72
17.47
16.89
16.71
16.46
15.69
14
11.27
7.73
3.81
0.05
-3.3
-6.4
-9.88
-14.63
-21.35
-30.17
-40.33
-50.39
-58.42
-62.72
-62.21
-56.8
-47.32
-35.18
-21.97
-8.98
2.88
13.13
21.49
27.59
31.03
31.45
28.85
23.83
17.52
11.28
6.35
3.41
2.58
3.54
5.76
8.73
11.9
14.72
16.57
16.88
15.36
12.09
7.6
2.58
-2.17
-6.11
-8.94
-10.65
-11.54
-12.09
-12.93
-14.6
-17.35
-21.02
-25.11
-28.83
-31.46
-32.55
-32.13
-30.87
-29.87
-30.49
-33.81
-40.26
-49.22
-59.11
-67.77
-73.02
-73.33
-68.19
-58.12
-44.44
-28.86
-13.06
1.61
14.18
24.25
31.77
36.97
40.23
41.91
42.29
41.57
39.98
37.82
35.43
33.05
30.73
28.36
25.79
22.97
20.04
17.39
15.35
14.09
13.52
13.29
13.04
12.55
11.79
10.79
9.6
8.17
6.39
4.25
1.87
-0.52
-2.66
-4.28
-5.22
-5.52
-5.43
-5.4
-6
-7.75
-10.96
-15.66
-21.64
-28.56
-36.08
-43.77
-50.97
-56.68
-59.88
-59.66
-55.75
-48.56
-39
-28.17
-17.02
-6.29
3.6
12.1
18.84
23.67
26.73
28.38
28.99
28.76
27.69
25.85
23.46
21.03
19.15
18.15
18.04
18.57
19.51
20.89
22.93
25.84
29.37
32.76
34.99
35.27
33.41
29.97
25.93
22.08
18.76
15.62
11.84
6.51
-0.74
-9.53
-18.69
-26.47
-31.13
-31.57
-27.79
-20.98
-13.2
-6.62
-2.86
-2.38
-4.36
-7.14
-8.88
-8.19
-4.58
1.54
9.14
16.94
23.81
28.97
32.18
33.73
34.2
34.22
34.25
34.4
34.49
34.13
33
31.05
28.44
25.34
21.56
16.35
8.67
-2.28
-16.44
-32.42
-47.66
-59.13
-64.22
-61.63
-51.68
-36.16
-17.66
1.26
18.52
32.66
42.85
48.63
49.75
46.17
38.07
25.89
10.46
-7.03
-25.13
-42.3
-57.21
-69.18
-78.17
-84.62
-88.85
-90.5
-88.27
-80.41
-65.51
-43.62
-16.78
11.09
35.2
51.34
57.16
52.84
40.82
24.98
9.42
-2.51
-8.82
-8.98
-3.79
4.96
14.84
23.31
28.42
29.35
26.68
22.23
18.3
16.77
18.33
22.27
26.8
29.74
29.31
24.62
15.94
4.52
-7.63
-18.33
-25.73
-28.86
-27.95
-24.32
-19.97
-16.79
-15.94
-17.43
-20.34
-23.21
-24.92
-25.17
-24.57
-24.34
-25.72
-29.43
-35.34
-42.56
-49.63
-54.88
-56.71
-53.96
-46.2
-33.87
-18.31
-1.51
14.38
27.53
36.78
41.84
43.16
41.75
38.79
35.26
31.6
27.71
23.08
17.23
10.17
2.77
-3.26
-5.64
-2.33
7.79
24.15
44.4
64.61
80.3
87.56
84.15
70.1
47.54
20.08
-8.18
-33.54
-53.05
-64.77
-67.83
-62.65
-51.07
-36.19
-21.63
-10.52
-4.47
-3.22
-4.94
-7.21
-8.07
-6.79
-4.03
-1.37
-0.67
-3.34
-9.79
-19.13
-29.31
-37.52
-40.99
-37.91
-28.15
-13.37
3.44
18.97
30.55
36.86
37.99
34.95
29.03
21.43
13.04
4.66
-2.86
-8.59
-11.8
-12.34
-10.78
-8.19
-5.68
-3.82
-2.57
-1.4
0.01
1.57
2.68
2.61
0.94
-2.04
-5.32
-7.73
-8.41
-7.2
-4.58
-1.26
2.27
5.95
9.95
14.32
18.77
22.65
25.18
25.69
23.89
19.76
13.48
5.29
-4.31
-14.48
-23.95
-31.33
-35.51
-35.88
-32.47
-25.67
-16.18
-4.85
7.35
19.44
30.44
39.7
46.88
51.94
55.09
56.54
56.57
55.62
54.29
53.22
52.85
53.09
53.36
52.89
51.17
48.13
44.19
39.93
35.71
31.65
27.62
23.54
19.61
16.16
13.43
11.24
8.94
5.7
0.92
-5.29
-12
-17.79
-21.48
-22.56
-21.54
-19.6
-18.2
-18.45
-20.91
-25.55
-32.04
-39.92
-48.64
-57.45
-65.46
-71.69
-75.32
-76.02
-73.94
-69.56
-63.48
-56.18
-47.94
-39
-29.66
-20.32
-11.41
-3.21
4.13
10.48
15.59
18.99
20.19
19.07
16.04
12.1
8.51
6.26
5.73
6.53
7.8
8.72
8.96
8.73
8.7
9.43
11.08
13.19
14.82
14.98
13.06
9.21
4.19
-0.83
-4.87
-7.42
-8.56
-8.77
-8.71
-8.98
-10.04
-12.26
-15.95
-21.16
-27.53
-34.21
-40.04
-44.01
-45.55
-44.76
-42.35
-39.27
-36.47
-34.65
-34.16
-35.11
-37.17
-39.59
-41.28
-41.06
-38.03
-32.03
-23.65
-14
-4.35
4.54
12.41
19.35
25.4
30.39
33.84
35.38
34.95
32.98
30.15
27.1
24.13
21.25
18.34
15.4
12.69
10.56
9.19
8.44
7.89
7.1
5.97
4.8
4.12
4.38
5.69
7.67
9.67
10.91
10.8
9.15
6.31
3.1
0.62
-0.1
1.32
4.48
8.13
10.77
11.39
10.03
7.68
5.62
4.63
4.51
4.19
2.35
-1.79
-8.17
-16
-24.17
-31.62
-37.5
-41.13
-42.01
-39.83
-34.66
-26.97
-17.64
-7.56
2.46
11.85
20.25
27.45
33.35
38.02
41.66
44.36
46.13
46.79
46.18
44.44
42.2
40.49
40.22
41.78
44.73
48.05
50.58
51.52
50.63
48.14
44.48
40.07
35.23
30.2
25.19
20.37
15.86
11.66
7.71
3.91
0.15
-3.63
-7.42
-10.97
-13.78
-15.21
-14.86
-12.96
-10.63
-9.45
-10.86
-15.38
-22.38
-30.4
-37.84
-43.62
-47.34
-49.02
-48.7
-46.14
-41
-33.26
-23.43
-12.56
-1.89
7.5
14.97
20.27
23.37
24.36
23.49
21.23
18.26
15.38
13.24
12.17
12.03
12.38
12.49
11.72
9.68
6.28
1.74
-3.43
-8.56
-13
-16.28
-18.14
-18.59
-17.83
-16.22
-14.33
-12.87
-12.57
-13.99
-17.29
-21.94
-27.01
-31.48
-34.74
-36.9
-38.74
-41.29
-45.36
-51.13
-58.01
-64.94
-70.72
-74.28
-74.85
-72.01
-65.76
-56.48
-44.89
-31.95
-18.58
-5.47
7.03
18.74
29.33
38.2
44.48
47.37
46.42
41.97
35.07
27.32
20.27
15.09
12.23
11.39
11.71
12.09
11.58
9.8
7.06
4.23
2.42
2.39
4.31
7.62
11.38
14.62
16.62
16.94
15.33
11.63
5.81
-1.76
-10.22
-18.2
-24.28
-27.5
-27.68
-25.62
-22.86
-21.16
-21.92
-25.74
-32.22
-40.02
-47.22
-51.86
-52.54
-48.71
-40.87
-30.26
-18.51
-7.19
2.64
10.61
16.94
22.21
27.05
31.78
36.36
40.37
43.28
44.7
44.52
42.87
40.05
36.26
31.65
26.41
21
16.27
13.2
12.5
14.14
17.24
20.33
21.86
20.95
17.57
12.58
7.19
2.49
-0.83
-2.61
-3.15
-3
-2.69
-2.67
-3.08
-3.82
-4.65
-5.42
-6.22
-7.44
-9.53
-12.8
-17.24
-22.45
-27.82
-32.65
-36.24
-38.08
-37.81
-35.25
-30.39
-23.45
-14.69
-4.4
6.96
18.74
29.93
39.39
46.11
49.62
50.15
48.68
46.4
44.25
42.72
41.74
41.08
40.62
40.46
40.73
41.34
41.82
41.51
39.93
37.14
33.75
30.58
28.14
26.29
24.34
21.4
17.03
11.51
5.66
0.34
-4.01
-7.45
-10.28
-12.63
-14.21
-14.53
-13.54
-12.01
-11.53
-13.98
-20.46
-30.58
-42.33
-52.8
-59.18
-59.83
-54.68
-45.13
-33.37
-21.51
-10.99
-2.43
4.21
9.22
12.85
15.22
16.35
16.31
15.37
13.93
12.42
11.21
10.49
10.26
10.49
11.21
12.45
14.29
16.56
18.79
20.28
20.3
18.24
13.92
7.73
0.39
-7.17
-14.18
-20.17
-25.06
-29.12
-32.67
-36.03
-39.33
-42.49
-45.21
-47.08
-47.8
-47.32
-46.03
-44.68
-44.09
-44.84
-46.87
-49.44
-51.35
-51.33
-48.49
-42.65
-34.4
-24.75
-14.82
-5.49
2.85
10.24
16.98
23.42
29.73
35.87
41.43
45.78
48.15
48.02
45.3
40.48
34.59
28.84
24.27
21.4
20.19
20.25
21.04
22.1
23.16
24.04
24.58
24.54
23.63
21.75
18.98
15.76
12.65
10.1
8.16
6.42
4.15
0.69
-4.15
-9.9
-15.7
-20.54
-23.82
-25.49
-25.93
-25.73
-25.47
-25.59
-26.44
-28.32
-31.38
-35.68
-40.94
-46.48
-51.29
-54.14
-53.81
-49.47
-40.88
-28.6
-13.95
1.35
15.56
27.39
36.35
42.62
46.8
49.52
51.2
51.9
51.5
49.92
47.2
43.67
39.81
36.05
32.68
29.88
27.77
26.54
26.36
27.33
29.23
31.5
33.33
33.94
32.84
30.06
26.1
21.88
18.28
16.03
15.36
16.11
17.66
19.12
19.66
18.65
15.99
12.01
7.41
2.91
-0.98
-4.05
-6.3
-7.73
-8.39
-8.4
-8.19
-8.52
-10.29
-14.14
-20.06
-27.18
-34.08
-39.29
-41.77
-41.26
-38.19
-33.26
-27.2
-20.49
-13.45
-6.34
0.43
6.44
11.29
14.79
17.08
18.45
19.16
19.23
18.44
16.5
13.32
9.22
4.93
1.32
-0.91
-1.58
-0.98
0.18
1.19
1.52
1.02
-0.18
-1.71
-3.22
-4.42
-5.17
-5.6
-5.95
-6.58
-7.7
-9.42
-11.62
-14.07
-16.41
-18.33
-19.67
-20.42
-20.89
-21.55
-22.9
-25.2
-28.37
-31.95
-35.36
-38.13
-40.2
-41.93
-43.85
-46.27
-49.09
-51.78
-53.57
-53.73
-51.77
-47.53
-41.1
-32.8
-23.07
-12.51
-1.86
8.13
16.86
23.93
29.19
32.68
34.49
34.7
33.53
31.43
29.07
27.2
26.36
26.72
27.98
29.5
30.57
30.7
29.76
27.91
25.43
22.62
19.62
16.57
13.54
10.74
8.41
6.69
5.4
4.17
2.49
0.06
-2.91
-5.87
-8.06
-9
-8.7
-7.67
-6.59
-6
-6.09
-6.74
-7.82
-9.37
-11.63
-14.86
-19.01
-23.67
-28.11
-31.56
-33.5
-33.88
-33.12
-31.92
-31.08
-31.25
-32.88
-36.25
-41.31
-47.6
-54.19
-59.69
-62.54
-61.52
-56
-46.18
-33.04
-18.06
-2.87
11.09
22.79
31.72
37.82
41.4
43.03
43.3
42.73
41.68
40.41
39.16
38.05
37.08
36.1
34.84
33.15
31.05
28.84
26.92
25.64
25.11
25.28
26.06
27.38
29.26
31.68
34.32
36.6
37.79
37.39
35.41
32.5
29.64
27.69
26.97
27.19
27.56
27.25
25.73
23.05
19.67
16.22
13.25
10.96
9.22
7.67
5.86
3.45
0.37
-3.22
-6.87
-10.09
-12.63
-14.66
-16.79
-19.79
-24.16
-29.87
-36.21
-42.08
-46.39
-48.45
-48.17
-45.83
-41.82
-36.31
-29.48
-21.58
-13.14
-4.96
2.24
8.13
12.83
16.61
19.68
21.85
22.76
22.11
20.12
17.5
15.21
14.08
14.52
16.5
19.64
23.4
27.13
30.08
31.63
31.38
29.43
26.37
23.04
20.13
17.97
16.48
15.46
14.73
14.19
13.69
12.85
11.06
7.7
2.48
-4.36
-12.07
-19.67
-26.27
-31.26
-34.39
-35.71
-35.45
-34.02
-32.07
-30.48
-30.07
-31.46
-34.77
-39.61
-45.11
-50.18
-53.8
-55.19
-54.04
-50.5
-45.13
-38.72
-32.09
-25.88
-20.31
-15.32
-10.67
-6.3
-2.34
0.99
3.74
6.25
9.2
13.1
17.92
22.99
27.28
30.03
31.05
30.79
29.98
29.11
28.14
26.71
24.53
21.62
18.5
15.82
13.98
12.88
12.04
10.92
9.35
7.56
6.05
5.17
4.91
4.84
4.37
3.13
1.02
-1.72
-4.91
-8.65
-13.33
-19.24
-26.17
-33.34
-39.56
-43.9
-46.2
-47.18
-48.21
-50.54
-54.77
-60.45
-66.28
-70.47
-71.34
-67.92
-60.1
-48.65
-35.04
-21
-8.08
2.71
11.1
17.4
22.28
26.35
29.93
32.9
34.88
35.5
34.69
32.78
30.39
28.18
26.61
25.76
25.46
25.47
25.63
25.92
26.32
26.77
27.09
27.1
26.65
25.77
24.61
23.31
21.96
20.48
18.66
16.28
13.25
9.63
5.67
1.71
-1.96
-5.11
-7.64
-9.64
-11.31
-13.03
-15.3
-18.54
-22.9
-28.11
-33.5
-38.18
-41.44
-42.98
-42.96
-41.94
-40.62
-39.61
-39.49
-40.71
-43.53
-47.8
-52.74
-56.96
-58.67
-56.41
-49.47
-38.24
-23.98
-8.34
7.19
21.51
34.02
44.39
52.42
57.95
60.99
61.82
60.99
59.22
57.2
55.4
53.95
52.66
51.16
49.12
46.51
43.62
41.02
39.28
38.74
39.26
40.28
41.18
41.46
41.05
40.08
38.82
37.3
35.31
32.66
29.36
25.71
22.17
19.23
17.08
15.69
14.83
14.22
13.53
12.36
10.3
7.03
2.67
-2.18
-6.54
-9.51
-10.83
-11.14
-11.82
-14.23
-19.17
-26.46
-35.17
-43.96
-51.56
-56.97
-59.45
-58.52
-53.83
-45.49
-34.22
-21.38
-8.69
2.37
10.98
17.18
21.67
25.31
28.64
31.63
33.84
34.74
34.08
32.07
29.4
26.83
24.86
23.59
22.76
22.04
21.27
20.63
20.51
21.27
22.84
24.64
25.83
25.66
23.91
20.96
17.63
14.71
12.58
11.11
9.72
7.79
4.84
0.85
-3.86
-8.85
-13.73
-18.31
-22.65
-26.98
-31.63
-37.14
-44.15
-53.31
-64.98
-78.88
-93.8
-107.74
-118.3
-123.42
-121.98
-114.04
-100.67
-83.46
-64.03
-43.76
-23.76
-5.12
11.12
23.99
32.88
37.74
39.03
37.59
34.35
30.25
26
22.13
19
16.76
15.39
14.64
14.26
14.12
14.29
15.04
16.67
19.2
22.34
25.46
27.86
28.96
28.54
26.72
23.91
20.61
17.12
13.53
9.77
5.75
1.47
-2.93
-7.34
-11.71
-16.16
-20.95
-26.28
-32.23
-38.6
-44.99
-50.97
-56.33
-61.07
-65.4
-69.68
-74.09
-78.55
-82.52
-85.1
-85.15
-81.58
-73.65
-61.29
-45.27
-26.93
-7.97
10.12
26.36
40.24
51.58
60.21
65.89
68.43
67.89
64.78
60.05
54.82
50.04
46.33
43.98
43.13
43.81
45.83
48.62
51.37
53.21
53.52
52.27
49.89
47.03
44.15
41.34
38.31
34.74
30.6
26.22
22.23
19.12
16.98
15.47
13.9
11.63
8.34
4.07
-0.86
-6.04
-11.22
-16.3
-21.21
-25.91
-30.33
-34.46
-38.4
-42.33
-46.39
-50.52
-54.52
-58.07
-60.97
-63.29
-65.31
-67.29
-69.19
-70.47
-70.13
-67.02
-60.31
-49.82
-36.13
-20.4
-3.96
12.05
26.98
40.58
52.83
63.71
73.05
80.7
86.56
90.69
93.32
94.65
94.83
93.97
92.19
89.73
86.96
84.46
82.8
82.46
83.49
85.27
86.43
85.16
79.8
69.67
55.45
39.12
23.21
9.96
0.67
-4.48
-6.23
-5.75
-4.25
-2.71
-1.84
-2.09
-3.77
-7.06
-12.07
-18.64
-26.18
-33.58
-39.55
-43.06
-43.91
-43.1
-42.48
-43.95
-48.61
-56.3
-65.73
-75.13
-82.8
-87.52
-88.55
-85.51
-78.26
-66.98
-52.31
-35.29
-17.33
0.08
15.6
28.14
37.02
42.01
43.34
41.7
38.04
33.31
28.23
23.22
18.44
14.09
10.52
8.11
7.08
7.24
7.9
8.2
7.45
5.45
2.6
-0.4
-2.95
-4.9
-6.58
-8.47
-10.82
-13.4
-15.6
-16.7
-16.37
-14.87
-12.98
-11.63
-11.59
-13.21
-16.56
-21.51
-27.82
-35.14
-43
-50.85
-58.19
-64.81
-70.64
-75.66
-79.52
-81.5
-80.54
-75.78
-66.79
-53.97
-38.34
-21.33
-4.36
11.39
25.17
36.56
45.47
52
56.29
58.37
58.25
56.08
52.31
47.87
43.81
40.95
39.46
38.83
38.1
36.53
33.87
30.4
26.77
23.5
20.76
18.43
16.31
14.34
12.72
11.58
10.83
9.99
8.42
5.67
1.77
-2.78
-7.23
-10.98
-13.98
-16.63
-19.58
-23.37
-28.05
-33.22
-38.31
-42.84
-46.74
-50.28
-53.91
-58.06
-62.9
-68.26
-73.68
-78.39
-81.36
-81.45
-77.66
-69.4
-56.66
-40.23
-21.52
-2.25
15.87
31.54
44.1
53.55
60.39
65.25
68.74
71.16
72.47
72.38
70.5
66.61
60.84
53.77
46.36
39.83
35.21
33.11
33.5
35.63
38.34
40.48
41.24
40.34
38.01
34.71
30.96
27.17
23.68
20.77
18.6
17.2
16.32
15.51
14.31
12.51
10.28
7.97
5.85
3.72
0.91
-3.46
-9.92
-18.19
-27.14
-35.13
-40.68
-43.1
-42.83
-41.25
-40.24
-41.53
-45.94
-53.15
-61.66
-69.23
-73.6
-73.15
-67.33
-56.64
-42.3
-25.77
-8.52
8.13
22.93
34.87
43.47
48.93
52.11
54.08
55.53
56.5
56.49
55.09
52.44
49.44
47.27
46.72
47.73
49.47
50.85
51.18
50.41
48.92
47.06
44.82
41.76
37.42
31.68
25.03
18.44
12.85
8.75
5.94
3.64
1
-2.41
-6.31
-9.85
-12.15
-12.83
-12.27
-11.47
-11.71
-13.94
-18.61
-25.71
-34.89
-45.6
-56.91
-67.46
-75.52
-79.43
-78.14
-71.64
-61
-47.95
-34.26
-21.19
-9.32
1.28
10.65
18.61
24.63
28
28.25
25.44
20.32
14.18
8.5
4.49
2.74
3.09
4.85
7.21
9.48
11.36
12.81
13.9
14.57
14.57
13.49
10.97
6.93
1.67
-4.16
-9.71
-14.18
-17.09
-18.45
-18.8
-19.04
-20.08
-22.49
-26.25
-30.8
-35.27
-38.91
-41.42
-43.04
-44.45
-46.37
-49.37
-53.57
-58.62
-63.79
-68.04
-70.31
-69.71
-65.76
-58.49
-48.46
-36.53
-23.6
-10.31
2.88
15.61
27.44
37.68
45.58
50.59
52.63
52.1
49.71
46.13
41.79
36.93
31.87
27.02
22.94
20.02
18.3
17.36
16.65
15.78
14.75
13.89
13.51
13.62
13.76
13.25
11.53
8.51
4.68
0.84
-2.36
-4.67
-6.34
-7.89
-9.78
-12.19
-14.97
-17.8
-20.36
-22.58
-24.48
-26.16
-27.77
-29.56
-31.92
-35.39
-40.42
-47.04
-54.61
-61.7
-66.46
-67.1
-62.46
-52.35
-37.55
-19.55
-0.12
19.02
36.46
51.22
62.65
70.51
74.94
76.52
76.16
74.9
73.6
72.61
71.76
70.45
68.1
64.5
59.93
55.03
50.42
46.42
42.93
39.62
36.27
32.97
30.13
28.08
26.92
26.31
25.68
24.52
22.66
20.35
18.09
16.39
15.46
15.07
14.71
13.79
11.89
8.9
5.12
1.08
-2.7
-5.88
-8.38
-10.37
-12.2
-14.43
-17.78
-22.99
-30.58
-40.42
-51.61
-62.44
-70.78
-74.79
-73.39
-66.62
-55.48
-41.53
-26.45
-11.61
2.11
14.28
24.69
33.18
39.44
42.94
43.17
39.97
33.86
26.03
18.1
11.58
7.37
5.59
5.69
6.79
8.16
9.41
10.48
11.41
12.1
12.35
11.84
10.44
8.16
5.24
2
-1.39
-4.83
-8.26
-11.68
-15.02
-18.36
-21.85
-25.67
-29.83
-34.06
-37.7
-40.02
-40.62
-39.84
-38.79
-38.96
-41.47
-46.55
-53.39
-60.43
-65.87
-68.27
-66.71
-60.84
-50.83
-37.35
-21.58
-5.11
10.44
23.73
34.12
41.78
47.34
51.38
54.1
55.18
54.1
50.7
45.49
39.71
34.91
32.34
32.43
34.72
38.24
41.82
44.59
45.94
45.54
43.27
39.36
34.47
29.54
25.34
21.83
17.95
11.57
0.04
-18.91
-46.41
-81.63
-121.69
-161.76
-196.31
-220.47
-231.33
-228.56
-214.06
-191.1
-163.55
-135.22
-109.56
-89.51
-77.02
-72.62
-75.51
-83.73
-94.96
-106.68
-116.26
-120.66
-116.8
-102.57
-77.99
-45.52
-8.98
28.3
64.57
98.86
129.23
151.3
159
147.84
118.54
78.62
40.27
15.44
10.91
26.43
56.84
96.14
140.76
189.95
243.67
299.98
354.4
402
440.35
471.59
501.98
539.14
588.08
648.37
713.32
771.73
811.56
823.69
804.79
758.29
692.83
619.05
546.26
480.06
422.14
371.71
327.54
289.02
256.13
228.56
204.76
182.16
158.02
130.72
100.35
68.65
38.04
10.61
-12.8
-32.74
-50.61
-67.88
-85.31
