43.16
40.94
38.09
35.31
32.9
30.79
28.63
26.05
22.87
19.27
15.72
12.7
10.52
9.11
8.17
7.3
6.28
5.11
4
3.19
2.71
2.43
2.08
1.48
0.59
-0.45
-1.46
-2.37
-3.24
-4.3
-5.78
-7.74
-10.06
-12.48
-14.73
-16.69
-18.42
-20.09
-21.93
-24.09
-26.62
-29.42
-32.33
-35.2
-37.92
-40.58
-43.35
-46.55
-50.39
-54.94
-60.01
-65.15
-69.85
-73.59
-76.14
-77.58
-78.4
-79.44
-81.58
-85.39
-90.67
-96.2
-99.85
-99.19
-92.34
-78.74
-59.42
-36.66
-13.21
8.55
27.09
41.79
52.68
60.1
64.47
66.31
66.22
64.9
63.03
61.15
59.51
58.14
56.91
55.68
54.35
53.03
52
51.66
52.33
54.12
56.8
59.75
62.21
63.49
63.19
61.24
57.79
53.13
47.69
42.05
36.98
33.31
31.62
31.95
33.74
36.02
37.83
38.64
38.48
37.82
37.24
37.17
37.73
38.77
40
41.11
41.84
42.01
41.58
40.7
39.58
38.38
37.05
35.25
32.49
28.3
22.52
15.42
7.61
-0.11
-7.03
-12.72
-17.27
-21.16
-25.21
-30.27
-36.95
-45.37
-55.13
-65.41
-75.23
-83.81
-90.77
-96.31
-101.2
-106.55
-113.28
-121.56
-130.31
-137.21
-139.3
-134.06
-120.48
-99.59
-74.09
-47.42
-22.55
-1.26
15.9
29.13
38.84
45.24
48.46
48.78
46.8
43.44
39.74
36.55
34.36
33.15
32.53
31.89
30.79
29.16
27.5
26.72
27.69
30.79
35.61
41.02
45.6
48.24
48.51
46.7
43.49
39.6
35.51
31.4
27.31
23.32
19.62
16.43
13.9
12.01
10.58
9.32
7.99
6.41
4.55
2.53
0.58
-0.99
-1.95
-2.26
-2.11
-1.83
-1.77
-2.12
-2.87
-3.91
-5.15
-6.7
-8.85
-11.94
-16.16
-21.34
-26.94
-32.23
-36.57
-39.72
-41.93
-43.96
-46.76
-51.12
-57.35
-65.17
-73.83
-82.34
-89.9
-96.01
-100.66
-104.17
-107.17
-110.46
-114.9
-121.05
-128.78
-136.84
-142.8
-143.67
-136.82
-121.1
-97.4
-68.47
-37.93
-9.07
15.92
36.14
51.55
62.44
69.16
72.2
72.45
71.11
69.51
68.6
68.69
69.41
70.06
69.93
68.55
65.9
62.34
58.56
55.49
54.08
54.94
58.08
62.78
67.75
71.58
73.27
72.5
69.65
65.56
61.07
56.73
52.72
48.95
45.25
41.57
38.02
34.8
32.07
29.85
27.95
26.1
24.09
21.88
19.7
17.93
16.88
16.71
17.27
18.16
18.92
19.15
18.61
17.3
15.33
12.9
10.14
7.17
4.06
0.93
-2.07
-4.72
-6.89
-8.6
-10.09
-11.78
-14.11
-17.32
-21.34
-25.72
-29.87
-33.26
-35.79
-37.81
-40.1
-43.52
-48.67
-55.52
-63.47
-71.53
-78.73
-84.46
-88.68
-91.76
-94.39
-97.38
-101.48
-107.14
-114.17
-121.43
-126.81
-127.67
-121.64
-107.62
-86.25
-59.81
-31.43
-4.13
19.91
39.47
54.06
63.64
68.44
69.1
66.74
62.88
59.03
56.27
54.98
54.75
54.7
53.79
51.26
46.92
41.24
35.37
30.82
28.98
30.64
35.51
42.27
48.98
53.73
55.31
53.54
49.23
43.69
38.29
33.96
31.04
29.34
28.41
27.76
27.06
26.16
25.08
23.88
22.6
21.27
19.92
18.63
17.59
16.99
16.98
17.56
18.52
19.54
20.28
20.48
20.05
19.07
17.69
16.06
14.29
12.41
10.41
8.27
5.92
3.29
0.36
-2.82
-6.11
-9.31
-12.26
-14.97
-17.63
-20.64
-24.46
-29.39
-35.47
-42.35
-49.44
-55.9
-60.94
-64.04
-65.2
-65.06
-64.81
-65.86
-69.26
-75.1
-82.18
-88.15
-90.09
-85.52
-73.21
-53.66
-28.91
-1.89
24.42
47.71
66.63
80.85
90.71
96.95
100.5
102.2
102.82
102.93
102.89
102.92
103.08
103.33
103.59
103.82
104.07
104.58
105.56
107.07
108.86
110.35
110.85
109.78
106.93
102.46
96.77
90.2
82.91
74.81
65.73
55.62
44.65
33.2
21.78
10.89
0.87
-8.12
-16.04
-22.96
-28.84
-33.53
-36.83
-38.76
-39.65
-40.3
-41.74
-44.89
-50.25
-57.6
-66.07
-74.27
-80.75
-84.41
-85.03
-83.38
-81.02
-79.79
-81.05
-85.21
-91.63
-99
-105.94
-111.56
-115.67
-118.73
-121.63
-125.46
-131.14
-139
-148.2
-156.55
-160.75
-157.44
-144.49
-122.06
-92.63
-60.15
-28.66
-1.03
21.44
38.58
50.79
58.52
62.27
62.82
61.44
59.59
58.48
58.56
59.36
59.79
58.71
55.44
50.08
43.46
36.82
31.48
28.45
28.19
30.49
34.5
38.96
42.58
44.39
43.97
41.59
37.9
33.76
29.84
26.5
23.79
21.56
19.6
17.8
16.12
14.57
13.13
11.79
10.52
9.35
8.31
7.48
6.92
6.69
6.83
7.37
8.25
9.31
10.24
10.65
10.16
8.58
5.97
2.69
-0.82
-4.13
-7.02
-9.47
-11.74
-14.22
-17.34
-21.44
-26.53
-32.28
-38.09
-43.29
-47.56
-51.17
-54.93
-59.85
-66.64
-75.3
-85.14
-95.05
-103.97
-111.23
-116.72
-120.79
-124.23
-128.06
-133.3
-140.51
-149.14
-157.28
-161.81
-159.3
-147.26
-125.21
-94.95
-60.02
-24.46
8.29
35.93
57.37
72.34
81.16
84.62
84.08
81.28
78.09
75.94
75.42
76.26
77.57
78.27
77.52
74.98
70.9
66.08
61.7
58.99
58.86
61.54
66.43
72.27
77.55
81.02
82.06
80.74
77.68
73.66
69.32
64.99
60.72
56.34
51.76
47.03
42.38
38.11
34.5
31.59
29.25
27.25
25.41
23.72
22.34
21.46
21.22
21.56
22.26
22.95
23.27
22.95
21.9
20.12
17.63
14.5
10.81
6.8
2.85
-0.56
-3.06
-4.62
-5.68
-7.07
-9.71
-14.22
-20.61
-28.2
-35.9
-42.55
-47.43
-50.53
-52.63
-54.98
-58.87
-65.11
-73.72
-83.91
-94.42
-103.94
-111.56
-117
-120.64
-123.42
-126.6
-131.37
-138.38
-147.21
-156.13
-162.2
-162.06
-152.99
-133.94
-106.01
-72.21
-36.53
-2.89
25.78
47.88
63.11
72.09
75.94
76.06
73.88
70.74
67.74
65.73
65.13
65.87
67.38
68.73
68.98
67.58
64.69
61.22
58.56
58.02
60.21
64.8
70.6
76.05
79.78
81.1
80.06
77.29
73.61
69.71
65.95
62.37
58.8
55.09
51.23
47.36
43.72
40.46
37.61
35.07
32.73
30.57
28.75
27.45
26.79
26.7
26.92
27.09
26.89
26.16
24.95
23.47
21.93
20.48
19.08
17.52
15.49
12.69
9.01
4.64
0.02
-4.31
-7.98
-10.95
-13.59
-16.46
-20.06
-24.65
-30.11
-36.04
-41.92
-47.18
-51.36
-54.17
-55.58
-56.1
-56.7
-58.62
-62.81
-69.29
-76.66
-82.23
-82.71
-75.34
-58.94
-34.38
-4.38
27.31
56.98
81.77
100.09
111.57
116.73
116.54
112.1
104.43
94.44
83.1
71.36
60.17
50.28
41.96
35.03
28.98
23.43
18.46
14.77
13.42
15.23
20.25
27.51
35.31
41.78
45.47
45.75
42.81
37.47
30.81
23.88
17.48
12.06
7.66
4.06
0.93
-2.04
-4.93
-7.67
-10.07
-12
-13.46
-14.58
-15.56
-16.57
-17.72
-19
-20.33
-21.65
-22.94
-24.34
-26.14
-28.7
-32.33
-37.14
-42.92
-49.14
-55.13
-60.32
-64.57
-68.21
-72.02
-76.89
-83.41
-91.62
-100.97
-110.51
-119.21
-126.35
-131.61
-135.23
-137.99
-141.1
-145.83
-152.94
-162
-171.06
-176.8
-175.45
-164.06
-141.69
-109.81
-71.89
-32.39
4.56
35.94
60.21
77.03
86.95
91.1
90.97
88.28
84.74
81.77
80.29
80.43
81.64
82.84
82.85
80.86
76.85
71.69
66.88
64.09
64.43
67.98
73.77
80.07
85.04
87.38
86.63
83.13
77.82
71.75
65.83
60.58
56.13
52.27
48.64
44.94
41
36.91
32.83
28.97
25.48
22.44
19.85
17.73
16.13
15.08
14.58
14.51
14.66
14.75
14.43
13.45
11.65
9.01
5.71
2.08
-1.51
-4.76
-7.62
-10.33
-13.28
-16.9
-21.43
-26.77
-32.47
-37.92
-42.66
-46.63
-50.29
-54.45
-59.92
-67.14
-75.95
-85.68
-95.32
-103.94
-110.91
-116.13
-119.96
-123.22
-126.95
-132.13
-139.11
-147.2
-154.36
-157.53
-153.45
-139.77
-116.03
-84.01
-47.26
-10.13
23.44
50.74
70.6
83.16
89.45
90.98
89.41
86.36
83.19
80.87
79.83
79.92
80.52
80.69
79.58
76.73
72.41
67.56
63.62
61.95
63.3
67.43
73.06
78.39
81.74
82.12
79.5
74.63
68.62
62.42
56.59
51.24
46.21
41.29
36.42
31.73
27.44
23.7
20.5
17.65
14.87
11.99
9.04
6.21
3.78
1.95
0.83
0.31
0.15
0.04
-0.36
-1.36
-3.15
-5.68
-8.68
-11.69
-14.3
-16.32
-17.99
-19.87
-22.61
-26.63
-31.86
-37.78
-43.62
-48.76
-53.05
-56.91
-61.07
-66.27
-72.83
-80.52
-88.67
-96.32
-102.57
-106.78
-108.73
-108.76
-107.87
-107.6
-109.54
-114.63
-122.32
-130.22
-134.51
-131.15
-117.45
-93.18
-60.84
-24.75
10.4
40.81
64.35
80.55
90.06
94.13
94.22
91.78
88.22
84.74
82.08
80.47
79.58
78.78
77.39
75.09
72.02
68.89
66.73
66.58
69.07
74.12
80.79
87.61
92.97
95.67
95.33
92.41
87.89
82.94
78.42
74.71
71.7
69.04
66.36
63.46
60.33
57.06
53.75
50.44
47.21
44.19
41.65
39.89
39.11
39.28
40.05
40.82
40.94
39.96
37.76
34.65
31.13
27.65
24.34
20.8
16.19
9.48
-0.11
-12.76
-27.9
-44.33
-60.57
-75.22
-87.35
-96.57
-103.13
-107.86
-112.03
-117.16
-124.38
-133.85
-144.21
-152.6
-155.44
-149.71
-134.21
-110.19
-80.94
-50.62
-22.87
0.15
17.87
30.77
39.67
45.14
47.46
46.89
43.99
39.72
35.28
31.69
29.45
28.42
27.95
27.28
26.08
24.62
23.75
24.44
27.24
31.91
37.46
42.49
45.79
46.77
45.55
42.81
39.36
35.9
32.77
30.06
27.62
25.26
22.85
20.37
17.88
15.48
13.17
10.86
8.4
5.68
2.71
-0.31
-3.03
-5.15
-6.57
-7.53
-8.52
-10.12
-12.78
-16.64
-21.5
-26.89
-32.17
-36.86
-40.78
-44.24
-47.87
-52.5
-58.71
-66.6
-75.72
-85.16
-93.9
-101.11
-106.41
-109.95
-112.48
-115.18
-119.33
-125.77
-134.23
-142.95
-148.9
-148.57
-139.19
-119.88
-91.97
-58.62
-23.72
9.15
37.44
59.67
75.31
84.47
87.85
86.79
83.1
78.8
75.53
74.18
74.66
76.12
77.32
77.13
74.93
70.83
65.65
60.73
57.52
57.09
59.73
64.75
70.68
75.82
78.79
78.97
76.5
72.13
66.78
61.23
55.92
50.97
46.38
42.07
38.07
34.39
30.99
27.79
24.67
21.56
18.5
15.62
13.1
11.18
9.95
9.47
9.64
10.25
10.91
11.12
10.4
8.44
5.3
1.35
-2.82
-6.63
-9.87
-12.65
-15.43
-18.72
-22.82
-27.64
-32.78
-37.7
-41.97
-45.63
-49.08
-53.05
-58.19
-64.8
-72.66
-81.12
-89.25
-96.2
-101.51
-105.15
-107.72
-110.18
-113.76
-119.32
-126.88
-135.19
-141.73
-143.29
-136.98
-121.38
-97.1
-66.7
-33.89
-2.4
24.89
46.41
61.77
71.34
75.93
76.64
74.78
71.78
68.97
67.25
66.89
67.49
68.18
68.02
66.38
63.22
59.09
55.04
52.15
51.26
52.61
55.7
59.54
62.85
64.56
64.02
61.29
56.91
51.71
46.49
41.78
37.74
34.21
30.88
27.45
23.76
19.88
16
12.41
9.33
6.93
5.19
3.99
3.17
2.6
2.24
2.18
2.51
3.24
4.21
5.06
5.32
4.56
2.53
-0.73
-4.89
-9.41
-13.73
-17.44
-20.45
-23
-25.57
-28.73
-32.9
-38.23
-44.51
-51.23
-57.68
-63.18
-67.26
-69.88
-71.48
-72.92
-75.22
-79.1
-84.49
-90.26
-94.35
-94.25
-87.86
-74.28
-54.17
-29.71
-3.84
20.51
41.15
56.95
67.78
74.21
77.16
77.73
76.99
75.96
75.4
75.59
76.23
76.49
75.45
72.58
68.27
63.84
61.18
61.87
66.32
73.47
81.04
86.62
88.74
87.63
84.98
82.91
82.71
84.12
85.51
84.77
80.44
72.13
60.38
46.26
31.4
18.49
11.44
14.55
30.33
57.47
90.17
119.98
139.3
144.71
138.11
124.89
110.48
97.28
83.9
66.82
43.07
12.29
-23.15
-59.4
-92.93
-121.47
-144.06
-160.51
-170.99
-176
-176.44
-173.89
-170.31
-167.69
-167.26
-169.12
-172.01
-173.75
-171.94
-164.82
-151.91
-134.12
-113.43
-92.21
-72.52
-55.59
-41.75
-30.59
-21.38
-13.42
-6.24
0.45
6.82
12.93
18.67
23.69
27.47
29.57
29.95
29.28
28.77
29.74
33.03
38.53
45.13
51.18
55.09
55.95
53.76
49.36
43.98
38.85
34.72
31.85
29.98
28.61
27.22
25.39
22.86
19.49
15.25
10.36
5.18
0.36
-3.51
-6
-7.15
-7.47
-7.74
-8.75
-10.97
-14.35
-18.42
-22.58
-26.4
-29.86
-33.43
-37.82
-43.64
-51.14
-59.97
-69.36
-78.41
-86.28
-92.51
-97.09
-100.43
-103.38
-106.99
-112.11
-118.88
-126.19
-131.63
-132.09
-124.88
-108.84
-85
-56.25
-26.25
1.67
25.38
44.07
57.76
66.89
72.03
73.96
73.73
72.65
71.94
72.4
74.14
76.59
78.68
79.37
77.96
74.47
69.65
64.88
61.61
60.9
62.91
66.83
71.21
74.53
75.75
74.64
71.68
67.7
63.53
59.67
56.28
53.23
50.29
47.26
44.08
40.86
37.77
35.01
32.69
30.81
29.26
27.91
26.74
25.8
25.28
25.3
25.81
26.59
27.19
27.18
26.32
24.63
22.42
20.11
17.98
16.03
13.98
11.42
8.1
4.11
-0.09
-3.86
-6.66
-8.36
-9.41
-10.65
-13
-17.02
-22.59
-28.92
-34.92
-39.63
-42.75
-44.76
-46.72
-49.82
-54.97
-62.4
-71.8
-82.35
-92.92
-102.27
-109.16
-112.79
-113.32
-112.17
-111.79
-114.7
-122.1
-132.73
-142.81
-147.21
-141.48
-123.72
-95.43
-60.77
-24.99
7.38
33.6
52.77
65.27
72.11
74.47
73.66
71.17
68.52
67.01
67.32
69.3
72.03
74.14
74.35
72
67.41
61.84
57.12
54.89
56
60.11
65.9
71.59
75.61
77.15
76.28
73.7
70.41
67.3
64.94
63.42
62.43
61.4
59.75
57.18
53.73
49.77
45.81
42.26
39.36
37.21
35.82
35.18
35.23
35.81
36.66
37.48
38.02
38.19
38.05
37.77
37.51
37.35
37.22
36.88
35.94
33.98
30.71
26.03
20.18
13.6
6.77
0.06
-6.43
-12.87
-19.58
-26.8
-34.49
-42.26
-49.54
-55.85
-61.18
-66.02
-71.29
-77.93
-86.4
-96.41
-107.06
-117.17
-125.77
-132.41
-137.2
-140.73
-143.9
-147.73
-153.07
-160.1
-167.86
-174.01
-175.2
-168.21
-151.2
-124.65
-91.36
-55.54
-21.23
8.69
32.95
51.41
64.36
72.03
74.64
72.78
67.66
61.09
55.04
51.01
49.63
50.45
52.25
53.52
53.11
50.67
46.94
43.5
42.15
44.12
49.42
56.79
64.12
69.26
70.82
68.57
63.35
56.64
49.92
44.22
39.88
36.69
34.14
31.76
29.3
26.77
24.26
21.84
19.41
16.9
14.34
11.99
10.22
9.39
9.63
10.77
12.49
14.38
16.16
17.56
18.37
18.28
17
14.38
10.61
6.16
1.65
-2.43
-5.95
-9.12
-12.41
-16.25
-20.83
-26.04
-31.51
-36.79
-41.55
-45.74
-49.62
-53.69
-58.49
-64.4
-71.47
-79.37
-87.6
-95.62
-103.01
-109.58
-115.3
-120.24
-124.68
-129.16
-134.33
-140.58
-147.5
-153.46
-155.83
-151.7
-138.97
-117.28
-88.18
-54.63
-20.04
12.52
40.73
62.94
78.16
86
86.96
82.56
75.14
67.3
61.14
57.76
57.06
58.03
59.14
58.89
56.39
51.66
45.75
40.55
38.07
39.72
45.65
54.59
64.27
72.28
76.85
77.44
74.61
69.73
64.26
59.4
55.73
53.28
51.69
50.41
48.97
47.04
44.54
41.59
38.46
35.56
33.33
32.15
32.19
33.32
35.16
37.14
38.78
39.81
40.28
40.48
40.7
41.08
41.43
41.38
40.51
38.61
35.76
32.37
28.94
25.98
23.71
22.07
20.67
18.93
16.27
12.42
7.58
2.39
-2.35
-6.1
-8.95
-11.61
-15.15
-20.44
-27.66
-36.22
-45.04
-53
-59.41
-64.23
-68.03
-71.92
-77.33
-85.7
-97.95
-113.76
-131.1
-146.27
-154.8
-152.9
-138.9
-113.97
-81.69
-46.8
-13.72
14.52
36.46
51.8
60.8
63.96
61.91
55.66
46.64
36.57
27.06
19.3
13.73
10.07
7.53
5.24
2.75
0.35
-0.87
0.55
5.75
14.87
26.68
38.91
48.92
54.7
55.46
51.74
45.05
37.18
29.63
23.25
18.27
14.42
11.27
8.41
5.56
2.63
-0.35
-3.23
-5.78
-7.67
-8.6
-8.31
-6.8
-4.31
-1.35
1.39
3.27
3.85
3.03
1.07
-1.53
-4.32
-7.06
-9.84
-13.06
-17.19
-22.49
-28.83
-35.63
-42.14
-47.78
-52.5
-56.89
-61.97
-68.8
-77.95
-89.2
-101.6
-113.82
-124.63
-133.28
-139.64
-144.19
-147.92
-152.05
-157.69
-165.27
-174.01
-181.65
-184.75
-179.66
-163.82
-136.84
-100.77
-59.5
-17.53
21.21
53.97
79.21
96.24
105.02
106.21
101.33
92.78
83.36
75.6
71.02
69.79
70.81
72.25
72.3
69.83
64.81
58.35
52.35
48.9
49.47
54.41
62.67
72.17
80.47
85.62
86.71
83.97
78.48
71.7
64.87
58.8
53.68
49.3
45.21
41.07
36.71
32.23
27.84
23.75
20.03
16.67
13.68
11.17
9.38
8.61
8.98
10.39
12.35
14.23
15.39
15.42
14.19
11.96
9.14
6.28
3.82
1.97
0.65
-0.55
-2.2
-4.79
-8.49
-12.99
-17.53
-21.21
-23.44
-24.14
-23.89
-23.63
-24.3
-26.44
-30.01
-34.43
-38.83
-42.5
-45.15
-47.11
-49.23
-52.56
-57.94
-65.6
-75.1
-85.35
-94.99
-102.75
-107.89
-110.49
-111.62
-113.11
-116.98
-124.49
-135.23
-146.66
-154.45
-153.8
-141.15
-115.61
-79.3
-36.76
6.59
45.89
77.78
100.67
114.46
120.13
119.42
114.51
107.71
101.01
95.77
92.53
90.99
90.4
89.81
88.51
86.37
83.96
82.59
83.87
89.11
98.54
111.07
124.41
135.87
143.36
146.08
144.66
140.72
136.08
132.11
129.46
127.99
127.18
126.38
125.08
122.97
119.98
116.17
111.71
106.85
101.85
96.87
91.88
86.54
80.3
72.59
63.04
51.66
38.92
25.53
12.36
0.14
-10.58
-19.5
-26.6
-32.12
-36.63
-40.84
-45.54
-51.32
-58.42
-66.59
-75.13
-83.14
-89.75
-94.56
-97.81
-100.46
-103.85
-109.25
-117.35
-127.98
-140.26
-152.85
-164.49
-174.27
-181.8
-187.29
-191.56
-196
-202.08
-210.56
-220.6
-229.25
-232.02
-224.27
-203.14
-168.91
-125.09
-77.18
-30.79
9.96
42.95
67.59
84.06
92.79
94.51
90.62
83.32
75.26
68.87
65.63
65.68
67.96
70.64
71.8
70.1
65.35
58.69
52.3
48.69
49.67
55.55
64.92
75.1
83.18
87.03
85.96
80.68
72.88
64.48
57.04
51.35
47.4
44.63
42.23
39.54
36.27
32.57
28.78
25.27
22.29
19.92
18.25
17.39
17.43
18.36
19.95
21.74
23.15
23.75
23.37
22.18
20.54
18.78
17.02
15.11
12.77
9.73
5.96
1.68
-2.66
-6.66
-10.06
-12.96
-15.74
-18.98
-23.23
-28.82
-35.62
-43.06
-50.3
-56.52
-61.34
-65.13
-68.88
-73.86
-81.1
-90.91
-102.71
-115.25
-127.02
-136.71
-143.65
-147.96
-150.62
-153.31
-157.84
-165.34
-175.34
-185.37
-191.27
-188.46
-173.46
-145.26
-105.68
-58.87
-9.96
36.12
75.46
105.4
124.63
133.08
132.03
124.07
112.59
101.07
92.23
87.35
86.19
87.25
88.42
87.7
83.98
77.39
69.36
62.27
58.6
59.95
66.41
76.32
86.86
95.02
98.65
97.05
91
82.23
72.66
63.81
56.36
50.24
44.92
39.82
34.62
29.4
24.45
20
16.08
12.45
8.84
5.2
1.81
-0.85
-2.31
-2.45
-1.58
-0.43
0.12
-0.69
-3.32
-7.76
-13.63
-20.2
-26.69
-32.38
-36.87
-40.19
-42.79
-45.39
-48.67
-52.97
-58.14
-63.67
-68.99
-73.86
-78.58
-83.83
-90.25
-97.99
-106.51
-114.69
-121.29
-125.37
-126.61
-125.43
-122.95
-120.86
-120.99
-124.67
-131.93
-140.78
-147.36
-146.86
-135.26
-110.85
-75.1
-32.16
12.5
53.74
87.88
112.99
128.64
135.44
134.74
128.48
119.04
108.9
100.09
93.78
90.04
88.07
86.65
84.74
81.98
78.88
76.71
77.05
81.22
89.55
101.14
113.94
125.38
133.16
136.03
134.04
128.3
120.56
112.43
105.11
99.16
94.6
91.13
88.3
85.66
82.83
79.67
76.3
73.09
70.6
69.28
69.35
70.63
72.67
74.92
76.9
78.28
78.85
78.34
76.34
72.34
65.87
56.69
44.94
31.07
15.68
-0.65
-17.46
-34.43
-51.21
-67.66
-83.84
-100.21
-117.43
-135.9
-155.1
-173.06
-186.45
-191.49
-185.35
-167.31
-139.26
-105.07
-69.33
-35.97
-7.47
15.16
31.89
43.04
48.92
49.83
46.27
39.2
30.04
20.58
12.46
6.83
3.95
3.25
3.63
4.12
4.45
5.24
7.63
12.58
20.13
29.15
37.66
43.58
45.51
43.15
37.26
29.15
20.31
11.98
4.96
-0.5
-4.57
-7.87
-11.11
-14.96
-19.82
-25.73
-32.45
-39.53
-46.36
-52.19
-56.27
-58.13
-57.88
-56.34
-54.78
-54.41
-55.79
-58.71
-62.41
-66.34
-70.6
-76.06
-83.77
-94.29
-107.18
-121.04
-134.1
-144.8
-152.37
-156.91
-159.39
-161.46
-164.94
-171.15
-179.89
-188.94
-194.14
-190.72
-175.06
-146.29
-106.82
-61.47
-15.76
25.73
60.15
86.25
103.77
112.94
114.62
110.43
102.95
95.1
89.42
87.15
88.04
90.53
92.49
92.03
88.14
81.1
72.48
64.69
60.23
60.69
66.19
75.18
85.1
93.26
97.84
98.31
95.31
90.17
84.24
78.55
73.62
69.48
65.83
62.28
58.51
54.47
50.32
46.36
42.83
39.78
37.06
34.46
31.89
29.49
27.55
26.38
26.1
26.55
27.31
27.87
27.83
27.01
25.49
23.43
20.98
18.12
14.8
11.02
6.97
3.01
-0.47
-3.21
-5.34
-7.28
-9.69
-13.19
-18.08
-24.24
-31.1
-37.87
-43.73
-48.31
-51.83
-55.15
-59.48
-65.81
-74.56
-85.29
-96.94
-108.11
-117.63
-124.78
-129.47
-132.29
-134.47
-137.67
-143.35
-151.91
-161.93
-170.01
-171.57
-162.56
-141.12
-108.44
-68.43
-26.3
13.13
46.45
71.91
88.97
97.9
99.55
95.68
88.77
81.73
76.98
75.72
77.63
81.19
84.4
85.49
83.58
78.81
72.37
66.13
62.11
61.81
65.63
72.61
80.7
87.52
91.16
90.8
86.84
80.41
72.94
65.53
58.78
52.83
47.52
42.59
37.84
33.23
28.82
24.8
21.32
18.44
16.11
14.2
12.6
11.3
10.42
10.09
10.37
11.05
11.7
11.76
10.67
8.18
4.36
-0.36
-5.38
-10.21
-14.59
-18.58
-22.42
-26.31
-30.22
-33.88
-36.87
-38.91
-40.03
-40.68
-41.59
-43.53
-46.97
-51.85
-57.56
-63.08
-67.36
-69.79
-70.5
-70.42
-70.95
-73.41
-78.42
-85.67
-93.96
-101.63
-107.15
-109.52
-108.67
-105.48
-101.74
-99.63
-101
-106.38
-114.24
-121.01
-122.03
-113.19
-92.6
-61.4
-23.35
16.45
53.17
83.31
105.02
117.92
122.7
120.83
114.45
106.01
97.88
91.72
88.1
86.53
85.83
84.74
82.35
78.47
73.59
68.86
65.77
65.72
69.48
76.74
86
94.89
101.01
102.76
99.85
93.25
84.71
75.95
68.15
61.76
56.61
52.32
48.52
45.04
41.82
38.92
36.43
34.5
33.29
33.01
33.83
35.81
38.96
43.24
48.62
55.06
62.44
70.39
78.25
85.28
90.77
94.41
96.41
97.31
97.8
98.29
98.68
98.36
96.43
92.04
84.71
74.52
62.02
48.05
33.35
18.27
2.6
-14.23
-32.87
-53.55
-75.78
-98.38
-119.78
-138.52
-153.55
-164.44
-171.36
-175.04
-176.9
-178.86
-182.94
-190.27
-200.12
-209.38
-213.18
-206.65
-186.95
-154.73
-114.1
-71.12
-31.5
0.97
25.04
41.28
50.85
54.75
53.62
48.16
39.56
29.64
20.4
13.48
9.67
8.7
9.47
10.52
10.65
9.4
7.38
6.02
6.99
11.45
19.29
29.15
38.81
46.08
49.56
49.02
45.26
39.72
33.86
28.75
24.86
22.08
19.95
17.96
15.72
13.15
10.38
7.6
4.9
2.3
-0.24
-2.67
-4.81
-6.45
-7.5
-8.08
-8.48
-9
-9.81
-10.92
-12.31
-14.03
-16.29
-19.41
-23.69
-29.16
-35.55
-42.32
-48.82
-54.56
-59.46
-64.02
-69.07
-75.49
-83.77
-93.73
-104.57
-115.2
-124.58
-132.04
-137.42
-141.05
-143.85
-147.22
-152.62
-160.82
-171.11
-180.81
-185.72
-181.5
-165.22
-136.64
-98.37
-54.94
-11.33
28.23
60.86
84.96
99.94
106.23
105.25
99.47
91.91
85.34
81.58
81.02
82.83
85.41
87.1
86.62
83.52
78.25
72.15
67.15
65.2
67.58
74.3
83.96
94.13
102.22
106.38
105.97
101.65
94.83
87.08
79.6
72.95
67.11
61.77
56.57
51.35
46.26
41.56
37.51
34.1
31.13
28.31
25.5
22.85
20.7
19.49
19.44
20.4
21.92
23.28
23.79
22.92
20.46
16.57
11.7
6.46
1.43
-3.04
-6.97
-10.67
-14.72
-19.61
-25.57
-32.36
-39.42
-46.06
-51.85
-56.92
-61.92
-67.77
-75.2
-84.43
-95.04
-106.12
-116.63
-125.69
-132.84
-138.11
-142.04
-145.72
-150.48
-157.32
-166.11
-175.08
-180.82
-179.21
-166.79
-142.15
-106.5
-63.39
-17.63
26.04
63.72
92.83
112.06
121.32
121.77
115.69
106.21
96.54
89.27
85.62
85.36
87.03
88.68
88.49
85.49
79.84
72.83
66.49
62.95
63.69
68.9
77.35
86.78
94.58
98.71
98.25
93.49
85.72
76.61
67.65
59.71
53.03
47.26
41.91
36.56
31.09
25.62
20.27
15.07
9.9
4.77
-0.13
-4.3
-7.18
-8.43
-8.16
-7
-5.85
-5.62
-6.84
-9.61
-13.66
-18.5
-23.68
-28.9
-34.06
-39.09
-43.97
-48.55
-52.57
-55.84
-58.36
-60.57
-63.35
-67.79
-74.77
-84.64
-96.88
-110.26
-123.14
-133.86
-141.29
-144.99
-145.49
-144.2
-143.27
-144.85
-150.19
-158.71
-167.56
-172.11
-167.39
-149.9
-119.05
-77.54
-30.52
16.07
57.07
89.17
111.07
123.19
127.02
124.69
118.65
111.3
104.64
99.9
97.29
96.06
94.9
92.51
88.17
82.14
75.67
70.63
68.91
71.73
79.13
89.84
101.61
111.87
118.52
120.45
117.82
111.79
104.07
96.31
89.68
84.72
81.34
79.03
77.05
74.64
71.22
66.56
60.89
54.9
49.63
46.1
45
46.39
49.62
53.58
57.11
59.43
60.38
60.44
60.42
60.99
62.25
63.71
64.44
63.49
60.27
54.66
47.02
37.92
28.06
18.04
8.26
-1.38
-11.74
-24.37
-41.18
-63.39
-90.6
-120.08
-147.13
-166.31
-173.22
-166.02
-145.95
-116.86
-83.73
-51.28
-22.87
-0.23
16.21
26.78
32.15
33.14
30.73
26.13
20.57
15.11
10.42
6.55
3.14
-0.36
-4.17
-7.87
-10.34
-10.08
-5.9
2.48
14.01
26.55
37.5
44.65
46.92
44.58
39.02
31.97
24.89
18.45
12.53
6.53
-0.13
-7.6
-15.5
-23.15
-29.96
-35.7
-40.65
-45.33
-50.17
-55.31
-60.45
-65.01
-68.36
-70.16
-70.5
-70.12
-70.23
-72.18
-77.07
-85.31
-96.45
-109.34
-122.52
-134.6
-144.59
-152.07
-157.28
-161.32
-165.9
-172.79
-182.79
-194.73
-205.1
-208.94
-201.41
-179.79
-144.6
-99.44
-49.62
-0.52
43.59
79.83
106.39
122.33
127.78
124.19
114.57
102.81
92.71
86.8
85.68
88.21
92.14
95.01
95.01
91.52
85.22
77.91
71.99
69.6
71.88
78.45
87.51
96.43
102.81
105.11
103.05
97.46
89.72
81.28
73.19
65.96
59.61
53.81
48.19
42.49
36.68
30.88
25.23
19.75
14.39
9.16
4.3
0.22
-2.68
-4.25
-4.92
-5.5
-6.94
-9.89
-14.43
-20.08
-26.17
-32.18
-38.07
-44.28
-51.44
-60.05
-70.24
-81.65
-93.62
-105.29
-115.86
-124.7
-131.46
-136.27
-139.96
-143.93
-149.8
-158.56
-169.63
-180.43
-186.79
-184.19
-169.47
-142.06
-104.25
-60.31
-15.17
26.9
62.83
90.77
109.83
120.01
122.19
118.35
111.22
103.69
98.01
95.18
94.82
95.5
95.33
92.69
86.81
78.14
68.34
59.85
55.01
55.19
60.16
68.07
76.16
81.79
83.26
80.31
73.84
65.32
56.17
47.37
39.37
32.25
25.93
20.28
15.26
10.82
6.95
3.57
0.53
-2.33
-5.15
-7.91
-10.43
-12.4
-13.51
-13.57
-12.63
-10.94
-8.86
-6.7
-4.81
-3.56
-3.41
-4.86
-8.23
-13.4
-19.74
-26.21
-31.79
-35.89
-38.71
-41.11
-44.32
-49.41
-56.82
-66.24
-76.67
-86.7
-94.91
-100.25
-102.46
-102.31
-101.64
-102.83
-107.81
-116.91
-128
-136.8
-138.11
-127.73
-104.21
-69.41
-27.86
14.81
53.56
85.06
107.88
122.12
128.8
129.39
125.64
119.44
112.57
106.4
101.55
97.82
94.47
90.68
86.08
81.17
77.21
75.84
78.41
85.38
96.01
108.59
120.92
130.98
137.49
140.1
139.23
135.87
131.2
126.21
121.61
117.72
114.51
111.58
108.37
104.13
98.24
90.32
80.32
68.59
55.78
42.64
29.76
17.37
5.21
-7.32
-20.92
-36.05
-52.62
-69.89
-86.67
-101.67
-113.87
-122.87
-128.94
-133.01
-136.5
-141.08
-148.33
-159.07
-172.68
-186.6
-196.62
-198.08
-187.56
-164.41
-131.13
-92.6
-54.25
-20.37
6.79
26.94
40.83
49.42
53.5
53.77
51.18
47
42.71
39.54
38.08
38.11
38.76
38.84
37.43
34.41
30.63
27.73
27.48
31.03
38.17
47.41
56.37
62.75
65.13
63.39
58.55
52.2
45.83
40.37
36.02
32.49
29.28
26.07
22.79
19.56
16.49
13.49
10.33
6.69
2.43
-2.28
-6.91
-10.79
-13.35
-14.46
-14.46
-14.21
-14.72
-16.86
-21.01
-26.88
-33.67
-40.36
-46.26
-51.29
-56.11
-61.78
-69.29
-79.12
-90.87
-103.51
-115.68
-126.19
-134.33
-140.02
-143.84
-146.88
-150.71
-156.77
-165.73
-176.62
-186.5
-190.99
-185.63
-167.67
-137.21
-97.36
-53.06
-9.53
29.21
60.85
84.51
100.25
108.64
110.79
108.48
104.08
99.95
97.78
98.13
100.27
102.68
103.63
101.86
97.02
89.86
82
75.46
72.07
72.71
77.02
83.45
89.84
94.15
95.12
92.63
87.44
80.84
74
67.71
62.13
57.03
52.01
46.85
41.6
36.58
32.15
28.5
25.54
22.91
20.29
17.55
14.84
12.53
10.88
9.96
9.54
9.23
8.73
7.9
6.8
5.46
3.8
1.53
-1.76
-6.37
-12.37
-19.42
-26.91
-34.12
-40.46
-45.74
-50.28
-54.85
-60.45
-67.86
-77.32
-88.4
-100.07
-111.1
-120.39
-127.35
-131.97
-134.93
-137.48
-141.21
-147.51
-156.7
-167.41
-176.37
-179.19
-171.81
-152.1
-120.87
-81.61
-39.38
0.84
35.36
62.25
81.01
92.13
96.57
95.76
91.55
86.06
81.31
78.64
78.38
79.79
81.39
81.56
79.15
74.04
67.18
60.46
55.99
55.39
59.08
66.01
73.99
80.45
83.32
81.72
76.1
67.88
58.89
50.72
44.34
40
37.26
35.31
33.23
30.33
26.37
21.62
16.74
12.39
9.04
6.76
5.33
4.44
3.87
3.64
3.83
4.55
5.71
7.05
8.16
8.52
7.7
5.34
1.39
-3.87
-9.86
-15.87
-21.3
-25.94
-30.13
-34.54
-39.9
-46.7
-54.9
-64
-73.15
-81.47
-88.2
-92.98
-95.91
-97.74
-99.65
-102.93
-108.28
-115.14
-121.42
-123.89
-119.26
-105.36
-82.16
-51.83
-18.08
15.04
44.17
67.3
83.8
94.05
99.05
100
98.09
94.45
90
85.45
81.23
77.48
74.13
70.98
68
65.46
64.1
64.82
68.42
75.06
84.05
93.93
102.89
109.34
112.35
111.94
108.83
104.16
99.11
94.56
90.94
88.16
85.78
83.2
80
76.02
71.47
66.78
62.32
58.23
54.21
49.64
43.73
35.93
26.08
14.65
2.52
-9.26
-19.93
-29.31
-37.85
-46.38
-55.68
-66.14
-77.53
-89.16
-100.17
-109.87
-117.9
-124.32
-129.65
-134.77
-140.83
-148.81
-158.81
-169.47
-177.89
-180.26
-173.25
-155.53
-128.47
-95.8
-62.27
-32
-7.31
11.3
24.57
33.5
38.84
41.09
40.85
39.11
37.15
36.15
36.72
38.67
41.06
42.67
42.57
40.52
37.21
34.02
32.57
34.02
38.61
45.47
52.9
58.95
62.13
61.83
58.45
53.16
47.37
42.28
38.52
36.06
34.37
32.75
30.57
27.6
23.94
19.96
16.07
12.57
9.6
7.17
5.26
3.82
2.8
2.12
1.61
1.08
0.34
-0.74
-2.26
-4.27
-6.86
-10.23
-14.55
-19.89
-26.03
-32.48
-38.66
-44.13
-48.87
-53.37
-58.46
-64.92
-73.15
-82.91
-93.44
-103.71
-112.73
-119.85
-124.9
-128.28
-131.02
-134.55
-140.26
-148.58
-158.39
-166.68
-169.33
-162.43
-143.88
-114.29
-76.88
-36.39
2.35
35.67
61.47
79.13
89.12
92.67
91.56
87.91
83.84
81.06
80.4
81.74
84.13
86.27
86.91
85.28
81.33
75.81
70.12
65.89
64.47
66.4
71.08
77
82.17
84.9
84.38
80.85
75.4
69.41
63.95
59.51
55.86
52.41
48.53
43.94
38.8
33.6
28.92
25.16
22.35
20.26
18.55
16.97
15.43
14.04
12.95
12.2
11.67
11.12
10.28
8.96
7.11
4.76
1.92
-1.53
-5.75
-10.9
-16.92
-23.48
-30.04
-35.98
-40.9
-44.83
-48.27
-52.06
-57.02
-63.73
-72.18
-81.83
-91.76
-101
-108.72
-114.56
-118.62
-121.56
-124.46
-128.62
-135.08
-143.96
-153.94
-162.17
-164.9
-158.69
-141.61
-114.17
-79.2
-40.99
-4
28.22
53.62
71.53
82.34
87.16
87.48
85.1
81.8
79.02
77.6
77.6
78.43
79.08
78.51
76.06
71.75
66.33
61.15
57.75
57.28
59.98
64.99
70.62
74.88
76.27
74.28
69.44
62.95
56.12
49.86
44.49
39.83
35.44
30.97
26.26
21.39
16.51
11.67
6.84
1.94
-3.01
-7.82
-12.11
-15.49
-17.79
-19.14
-20.09
-21.31
-23.34
-26.36
-30.09
-33.98
-37.5
-40.51
-43.32
-46.64
-51.18
-57.4
-65.25
-74.17
-83.23
-91.42
-97.92
-102.29
-104.69
-105.89
-107.18
-110
-115.16
-122.24
-129.18
-132.65
-129.12
-116.24
-93.86
-64.23
-31.23
0.94
28.99
51.14
67.08
77.44
83.22
85.48
85.23
83.47
81.07
78.71
76.69
74.96
73.19
71.02
68.26
65.1
62.07
59.96
59.56
61.31
65.04
69.93
74.71
78.05
79.03
77.37
73.51
68.34
62.9
58.02
54.09
51.01
48.35
45.63
42.56
39.16
35.73
32.62
30.06
28.03
26.3
24.61
22.77
20.87
19.16
17.97
17.49
17.61
17.91
17.77
16.54
13.82
9.62
4.39
-1.1
-6.03
-9.77
-12.16
-13.52
-14.62
-16.51
-20.16
-26.07
-33.9
-42.32
-49.19
-52.1
-49.18
-39.73
-24.61
-5.94
13.52
31.08
44.77
53.62
57.52
57.01
52.94
46.35
38.38
30.17
22.74
16.84
12.77
10.36
9.09
8.38
7.86
7.58
8
9.7
13.06
17.94
23.62
28.94
32.71
34
32.45
28.38
22.65
16.39
10.68
6.2
3.06
0.87
-1.05
-3.41
-6.57
-10.54
-14.94
-19.25
-23.05
-26.18
-28.74
-30.99
-33.29
-35.82
-38.67
-41.73
-44.79
-47.66
-50.29
-52.95
-56.14
-60.47
-66.35
-73.85
-82.47
-91.39
-99.72
-106.77
-112.28
-116.36
-119.51
-122.52
-126.39
-131.96
-139.35
-147.41
-153.55
-154.34
-146.64
-128.95
-102.2
-69.56
-35.27
-3.29
23.8
45.05
60.7
71.5
78.26
81.76
82.85
82.6
82.08
82.05
82.71
83.59
83.82
82.51
79.16
73.94
67.71
61.77
57.47
55.74
56.79
59.97
64.03
67.54
69.37
69.03
66.69
63.06
59.04
55.39
52.44
50.1
48.02
45.72
42.92
39.68
36.32
33.29
30.89
29.13
27.79
26.55
25.25
23.99
23.1
22.81
23.13
23.73
24.12
23.91
22.99
21.56
19.95
18.45
17.03
15.45
13.33
10.4
6.64
2.36
-1.88
-5.45
-7.91
-9.3
-10.14
-11.32
-13.75
-17.93
-23.75
-30.48
-37.07
-42.67
-46.94
-50.21
-53.26
-57.04
-62.21
-69.09
-77.56
-87.17
-97.16
-106.49
-113.96
-118.61
-120.31
-120.16
-120.39
-123.42
-130.45
-140.31
-149.38
-152.72
-146.06
-127.64
-98.86
-63.75
-27.31
6.04
33.36
53.32
65.82
71.6
72.02
68.91
64.42
60.55
58.73
59.42
62.14
65.67
68.43
69
66.58
61.4
54.73
48.53
44.79
44.76
48.36
54.25
60.36
64.74
66.28
64.92
61.5
57.14
52.77
48.82
45.23
41.67
37.88
33.87
29.91
26.39
23.6
21.51
19.85
18.25
16.43
14.43
12.56
11.2
10.64
10.84
11.49
12.07
12.12
11.37
9.84
7.76
5.38
2.94
0.5
-1.98
-4.54
-7.18
-9.82
-12.37
-14.73
-16.96
-19.2
-21.73
-24.88
-28.8
-33.4
-38.27
-42.85
-46.6
-49.32
-51.29
-53.18
-55.85
-59.92
-65.56
-72.39
-79.63
-86.33
-91.69
-95.23
-96.93
-97.33
-97.5
-98.89
-102.79
-109.62
-118.29
-126.05
-129.14
-124.03
-108.83
-84.14
-52.95
-19.58
11.72
37.84
57.27
69.9
76.59
78.59
77.39
74.46
71.19
68.61
67.23
67
67.4
67.73
67.42
66.28
64.54
62.87
62.18
63.3
66.65
72.02
78.46
84.53
88.77
90.13
88.27
83.62
77.25
70.43
64.31
59.55
56.23
53.96
52.17
50.38
48.41
46.3
44.33
42.7
41.56
40.97
40.96
41.59
42.89
44.8
47.02
49.11
50.57
51.07
50.56
49.37
47.99
46.93
46.46
46.35
45.98
44.42
40.88
34.95
26.77
16.98
6.34
-4.6
-15.87
-27.9
-41.25
-56.12
-72.02
-87.87
-102.33
-114.37
-123.55
-130.12
-134.78
-138.39
-141.9
-146.34
-152.66
-161.36
-171.86
-181.92
-187.89
-185.7
-172.44
-147.81
-114.46
-77.22
-41.33
-10.78
12.66
29.17
40.02
46.58
49.73
49.96
47.73
43.78
39.18
35.11
32.44
31.46
31.77
32.39
32.31
30.95
28.56
26.31
25.77
28.15
33.66
41.23
48.9
54.64
57.13
56.19
52.72
48.04
43.41
39.53
36.52
34.05
31.69
29.13
26.31
23.39
20.55
17.94
15.52
13.17
10.76
8.33
6.06
4.27
3.19
2.82
2.93
3.06
2.79
1.81
0.08
-2.23
-4.94
-7.84
-10.94
-14.37
-18.28
-22.75
-27.61
-32.41
-36.5
-39.29
-40.52
-40.52
-40.25
-41.05
-44.16
-50.21
-59.01
-69.57
-80.56
-90.76
-99.39
-106.25
-111.6
-116.03
-120.47
-126.04
-133.66
-143.43
-153.97
-162.24
-164.19
-156.12
-136.37
-106.15
-69.37
-31.19
3.64
32.12
53.28
67.64
76.33
80.53
81.35
80.01
77.92
76.45
76.47
78.11
80.62
82.78
83.38
81.72
77.87
72.7
67.66
64.31
63.88
66.73
72.2
78.72
84.36
87.55
87.49
84.43
79.34
73.44
67.72
62.64
58.2
54.07
49.97
45.79
41.68
37.89
34.63
31.96
29.7
27.58
25.36
22.98
20.55
18.38
16.78
15.94
15.8
16.05
16.19
15.65
14
11.08
7.09
2.48
-2.18
-6.47
-10.25
-13.75
-17.44
-21.81
-27.05
-33.01
-39.18
-44.95
-49.9
-54.08
-57.97
-62.35
-67.96
-75.17
-83.82
-93.27
-102.59
-110.85
-117.44
-122.2
-125.63
-128.77
-132.99
-139.44
-148.39
-158.67
-167.58
-171.45
-166.72
-151.31
-125.39
-91.55
-53.98
-17.23
14.99
40.53
58.8
70.42
76.61
78.81
78.45
76.81
74.96
73.65
73.22
73.59
74.29
74.66
74.11
72.38
69.75
67.05
65.4
65.82
68.77
73.88
80.02
85.66
89.44
90.52
88.87
85.05
79.99
74.6
69.56
65.17
61.42
58.05
54.73
51.19
47.36
43.34
39.39
35.79
32.75
30.43
28.85
27.94
27.56
27.47
27.4
27.12
26.49
25.52
24.39
23.28
22.3
21.36
20.12
18.11
14.96
10.58
5.32
-0.03
-4.56
-7.71
-9.53
-10.83
-12.74
-16.29
-21.84
-28.89
-36.32
-42.85
-47.53
-50.12
-51.14
-51.7
-53.19
-56.8
-63.01
-71.19
-79.48
-85.12
-85.21
-77.69
-62.03
-39.51
-12.83
14.57
39.4
59.15
72.43
78.98
79.52
75.38
68.15
59.38
50.31
41.78
34.32
28.18
23.38
19.8
17.13
15.06
13.49
12.66
13.07
15.35
19.79
26.1
33.29
39.92
44.55
46.21
44.71
40.61
35.01
29.17
24.08
20.25
17.64
15.75
13.93
11.61
8.54
4.9
1.1
-2.38
-5.26
-7.64
-9.85
-12.23
-14.9
-17.59
-19.75
-20.89
-20.92
-20.32
-19.98
-20.91
-23.75
-28.57
-34.78
-41.39
-47.38
-52.07
-55.42
-58.07
-61.15
-65.82
-72.85
-82.25
-93.26
-104.59
-114.89
-123.18
-129.07
-132.91
-135.63
-138.67
-143.53
-151.13
-161.08
-171.19
-177.77
-176.6
-164.53
-140.74
-107.25
-68.23
-28.55
7.61
37.64
60.5
76.23
85.48
89.23
88.91
86.28
83.29
81.49
81.64
83.5
86.05
87.92
87.99
85.78
81.61
76.56
72.06
69.59
70.04
73.48
78.99
84.97
89.6
91.5
90.2
86.16
80.58
74.78
69.7
65.55
61.88
57.94
53.19
47.66
41.89
36.65
32.42
29.18
26.47
23.7
20.58
17.26
14.3
12.29
11.54
11.91
12.8
13.45
13.18
11.69
9.04
5.61
1.87
-1.85
-5.54
-9.47
-14
-19.39
-25.48
-31.8
-37.73
-42.85
-47.28
-51.67
-56.97
-63.97
-72.9
-83.27
-94.08
-104.16
-112.56
-118.85
-123.18
-126.3
-129.39
-133.84
-140.7
-150
-160.23
-168.25
-170.06
-162.04
-142.44
-112.15
-74.56
-34.49
3.28
35.12
59.13
74.97
83.43
85.98
84.46
80.82
76.91
74.14
73.22
74.08
75.98
77.82
78.56
77.57
74.9
71.3
68.04
66.41
67.34
70.96
76.48
82.46
87.26
89.59
88.84
85.17
79.32
72.35
65.22
58.62
52.84
47.83
43.38
39.27
35.36
31.55
27.77
23.96
20.05
16.13
12.43
9.28
6.97
5.58
4.91
4.54
4.03
3.06
1.49
-0.7
-3.53
-7.06
-11.39
-16.59
-22.57
-29.03
-35.45
-41.2
-45.75
-48.96
-51.26
-53.59
-57.14
-62.79
-70.71
-80.22
-90.02
-98.78
-105.59
-110.22
-113.1
-115.06
-117.14
-120.51
-126.16
-134.37
-144.12
-152.72
-156.25
-150.81
-134.09
-106.61
-71.66
-34.26
0.58
29.36
50.58
64.47
72.22
75.35
75.35
73.72
71.9
71.1
71.95
74.28
77.16
79.3
79.55
77.4
73.27
68.4
64.5
63.18
65.34
70.8
78.28
85.81
91.36
93.57
92.09
87.62
81.53
75.35
70.19
66.48
63.95
61.9
59.57
56.43
52.37
47.72
43.03
38.81
35.36
32.68
30.52
28.61
26.74
24.87
23.09
21.5
20.05
18.58
16.87
14.78
12.31
9.63
6.97
4.46
2.08
-0.33
-3.05
-6.38
-10.52
-15.6
-21.52
-28
-34.57
-40.64
-45.67
-49.4
-51.97
-54.04
-56.6
-60.65
-66.68
-74.2
-81.62
-86.49
-86.25
-79.06
-64.49
-43.72
-19.22
5.95
28.88
47.4
60.32
67.42
69.17
66.54
60.69
52.85
44.19
35.76
28.47
22.95
19.42
17.65
16.97
16.58
15.99
15.28
15.14
16.44
19.8
25.07
31.3
37.03
40.78
41.66
39.6
35.24
29.66
23.95
18.9
14.82
11.59
8.92
6.53
4.33
2.35
0.69
-0.71
-2.03
-3.56
-5.54
-8
-10.77
-13.58
-16.11
-18.12
-19.55
-20.5
-21.23
-22.16
-23.75
-26.42
-30.33
-35.27
-40.72
-45.96
-50.42
-53.85
-56.59
-59.36
-63.11
-68.5
-75.75
-84.42
-93.66
-102.46
-109.96
-115.75
-119.94
-123.18
-126.58
-131.46
-138.75
-148.38
-158.69
-166.47
-167.85
-159.56
-140.27
-111.3
-76.16
-39.37
-5.03
24.12
46.94
63.39
74.04
79.75
81.63
81.1
79.84
79.38
80.67
83.77
87.84
91.43
93.05
91.72
87.39
81.05
74.41
69.31
67.06
67.98
71.31
75.59
79.21
81.01
80.56
78.06
74.13
69.46
64.6
59.89
55.49
51.39
47.56
43.95
40.56
37.39
34.49
31.85
29.4
27.08
24.83
22.71
20.88
19.55
18.88
18.9
19.42
20.11
20.54
20.35
19.33
17.53
15.12
12.36
9.42
6.39
3.25
0.02
-3.2
-6.19
-8.77
-10.9
-12.79
-14.93
-17.87
-22.02
-27.35
-33.45
-39.57
-44.97
-49.32
-52.79
-56.13
-60.3
-66.1
-73.8
-83.07
-93.02
-102.54
-110.63
-116.65
-120.62
-123.24
-125.85
-130.07
-137.04
-146.6
-156.76
-163.96
-164.02
-153.75
-132.25
-101.38
-65.25
-28.73
3.96
30.18
49.03
60.98
67.22
69.26
68.73
67.16
65.84
65.48
66.24
67.72
69.36
70.58
70.98
70.35
68.64
66.08
63.19
60.77
59.78
60.86
63.96
68.27
72.41
74.9
74.79
71.82
66.53
59.89
52.98
46.69
41.57
37.82
35.32
33.76
32.67
31.61
30.22
28.33
26.06
23.66
21.56
20.09
19.5
19.8
20.78
22.06
23.14
23.59
23.12
21.67
19.45
16.81
14.09
11.52
9.11
6.72
4.1
1.03
-2.54
-6.47
-10.47
-14.17
-17.39
-20.12
-22.67
-25.45
-28.92
-33.36
-38.81
-45.01
-51.5
-57.72
-63.14
-67.49
-70.9
-73.95
-77.59
-82.82
-90.16
-99.13
-108.09
-114.44
-115.3
-108.53
-93.51
-71.46
-45.07
-17.73
7.5
28.5
44.37
55.25
61.87
65.16
66.01
65.23
63.5
61.43
59.49
57.93
56.85
56.17
55.84
55.88
56.54
58.2
61.24
65.9
72.02
78.99
85.8
91.35
94.76
95.71
94.48
91.87
88.83
86.06
83.81
81.77
79.36
75.97
71.3
65.45
58.89
52.23
45.91
40.14
34.72
29.34
23.57
17.22
10.29
3.02
-4.13
-10.67
-16.1
-20.16
-22.93
-24.98
-27.27
-30.8
-36.17
-43.22
-51.03
-58.35
-64.21
-68.51
-72.06
-76.18
-82.01
-89.99
-99.66
-109.99
-119.82
-128.3
-135.07
-140.26
-144.45
-148.61
-153.92
-161.2
-170.24
-179.25
-185
-183.7
-172.45
-150.56
-120.02
-84.87
-49.76
-18.47
6.97
26.22
40.03
49.44
55.39
58.68
60.14
60.75
61.55
63.37
66.52
70.66
74.84
77.82
78.57
76.71
72.8
68.27
64.94
64.29
66.8
71.7
77.25
81.41
82.7
80.65
75.85
69.52
62.99
57.2
52.56
48.97
46.08
43.47
40.86
38.1
35.23
32.36
29.61
27.07
24.79
22.76
20.97
19.45
18.24
17.38
16.93
16.8
16.81
16.69
16.14
14.93
12.95
10.23
6.84
2.93
-1.31
-5.54
-9.41
-12.64
-15.22
-17.58
-20.35
-24.11
-28.97
-34.51
-39.96
-44.67
-48.56
-52.17
-56.49
-62.32
-69.97
-79.04
-88.68
-97.95
-106.11
-112.83
-118.15
-122.56
-126.92
-132.31
-139.57
-148.67
-158.21
-165.33
-166.5
-158.58
-140.18
-112.24
-77.87
-41.34
-6.8
22.68
45.55
61.5
71.16
75.62
76.33
74.91
72.98
71.91
72.47
74.73
78
81.14
82.95
82.65
80.27
76.58
73.02
70.99
71.41
74.29
78.76
83.39
86.79
88.03
86.84
83.6
78.97
73.69
68.37
63.33
58.66
54.22
49.88
45.52
41.21
37.13
33.49
30.39
27.78
25.46
23.23
21.08
19.13
17.68
16.96
16.96
17.39
17.7
17.32
15.82
13.15
9.55
5.51
1.46
-2.35
-5.91
-9.45
-13.23
-17.41
-21.92
-26.52
-30.9
-34.86
-38.5
-42.28
-46.9
-52.97
-60.74
-69.83
-79.4
-88.37
-95.88
-101.6
-105.73
-109.01
-112.41
-117.02
-123.69
-132.65
-143.03
-152.64
-158.27
-156.51
-145.04
-123.52
-93.95
-60.09
-26.22
4.05
28.51
46.41
58.11
64.56
66.98
66.71
65.08
63.32
62.33
62.58
63.99
66.02
67.8
68.48
67.53
65.03
61.73
58.78
57.4
58.25
61.23
65.39
69.31
71.65
71.49
68.66
63.61
57.25
50.66
44.73
39.99
36.47
33.84
31.54
29.12
26.3
23.08
19.62
16.2
13.1
10.59
8.93
8.22
8.36
8.98
9.51
9.42
8.39
6.45
3.88
1.1
-1.6
-4.13
-6.6
-9.22
-12.12
-15.27
-18.47
-21.45
-23.99
-26.14
-28.16
-30.53
-33.78
-38.22
-43.83
-50.2
-56.67
-62.62
-67.68
-71.82
-75.28
-78.5
-82.04
-86.47
-92.21
-99.11
-106.1
-111.12
-111.54
-105.05
-90.64
-69.18
-43.23
-16.22
8.65
29.24
44.75
55.39
61.9
65.14
65.85
64.73
62.42
59.5
56.43
53.49
50.8
48.37
46.22
44.47
43.41
43.46
45.02
48.24
52.88
58.2
63.15
66.65
67.94
66.79
63.56
59.01
54.05
49.46
45.73
42.96
40.92
39.18
37.23
34.67
31.39
27.62
23.87
20.84
19.12
19.07
20.57
23.06
25.63
27.3
27.37
25.73
22.88
19.79
17.54
16.81
17.67
19.45
20.89
20.55
17.21
10.23
-0.11
-12.6
-25.34
-36.34
-44.2
-48.76
-51.38
-54.52
-60.79
-71.77
-87.05
-104.01
-118.53
-126.32
-124.46
-112.39
-91.96
-66.62
-40.16
-15.6
5.24
21.68
33.63
41.2
44.62
44.36
41.35
36.84
32.25
28.68
26.67
26.11
26.42
26.89
26.99
26.65
26.34
26.89
29.11
33.41
39.42
45.96
51.4
54.11
53.13
48.43
40.96
32.17
23.53
16.07
10.18
5.77
2.44
-0.13
-2.13
-3.63
-4.73
-5.63
-6.55
-7.72
-9.11
-10.56
-11.79
-12.62
-13.14
-13.71
-14.91
-17.33
-21.3
-26.67
-32.86
-39.08
-44.71
-49.61
-54.25
-59.47
-66.02
-74.19
-83.59
-93.33
-102.34
-109.75
-115.19
-118.87
-121.56
-124.48
-128.96
-135.89
-145.05
-154.62
-161.34
-161.37
-151.67
-131.35
-102.06
-67.58
-32.44
-0.54
25.8
45.92
60.25
69.72
75.35
78.19
79.44
80.36
81.97
84.76
88.41
91.98
94.26
94.21
91.38
86.07
79.26
72.43
67.1
64.39
64.61
67.17
70.79
73.96
75.52
74.95
72.49
68.78
64.55
60.35
56.41
52.75
49.22
45.73
42.25
38.89
35.77
33
30.6
28.46
26.4
24.29
22.16
20.23
18.84
18.29
18.62
19.63
20.85
21.75
21.92
21.22
19.73
17.66
15.22
12.54
9.67
6.6
3.37
0.13
-2.88
-5.42
-7.38
-8.89
-10.36
-12.35
-15.42
-19.81
-25.31
-31.23
-36.74
-41.19
-44.41
-46.87
-49.53
-53.39
-59.15
-66.97
-76.45
-86.73
-96.68
-105.1
-111.06
-114.29
-115.53
-116.52
-119.46
-125.98
-136.02
-147.25
-155.52
-156.31
-146.43
-125.39
-95.58
-61.28
-27.15
3.18
27.69
45.86
58.07
65.18
68.29
68.73
68.04
67.65
68.56
70.95
74.25
77.32
78.97
78.35
75.29
70.37
64.76
59.92
57.07
56.83
58.94
62.39
65.75
67.74
67.61
65.27
61.28
56.39
51.35
46.63
42.36
38.45
34.68
30.89
27.07
23.42
20.23
17.82
16.35
15.76
15.8
16.13
16.44
16.53
16.35
15.9
15.28
14.55
13.77
12.96
12.13
11.23
10.19
8.94
7.44
5.75
4.05
2.53
1.33
0.4
-0.53
-1.84
-3.88
-6.82
-10.58
-14.87
-19.33
-23.67
-27.77
-31.69
-35.61
-39.73
-44.22
-49.16
-54.52
-60.11
-65.61
-70.61
-74.75
-77.92
-80.51
-83.38
-87.56
-93.73
-101.5
-109.14
-113.87
-112.73
-103.73
-86.7
-63.39
-36.86
-10.52
12.92
31.9
45.99
55.6
61.5
64.63
65.86
65.97
65.56
65.04
64.56
64.15
63.76
63.31
62.79
62.24
61.81
61.85
62.86
65.3
69.41
74.89
80.94
86.42
90.21
91.64
90.72
88.11
84.81
81.83
79.8
78.84
78.66
78.76
78.71
78.33
77.73
77.1
76.63
76.3
75.88
75.05
73.48
70.97
67.38
62.6
56.45
48.75
39.4
28.49
16.34
3.44
-9.63
-22.32
-34.05
-44.3
-52.61
-58.82
-63.27
-66.8
-70.61
-75.84
-83.11
-92.28
-102.49
-112.53
-121.22
-127.8
-132.16
-134.84
-137.03
-140.31
-146.12
-155.01
-165.94
-175.98
-180.96
-176.8
-161.26
-134.98
-101.44
-65.71
-32.63
-5.37
15.08
29.31
38.52
43.78
45.77
45.12
42.71
39.74
37.36
36.35
36.79
38.15
39.63
40.5
40.34
39.22
37.65
36.45
36.56
38.63
42.74
48.28
53.97
58.42
60.56
60.05
57.34
53.35
48.97
44.72
40.7
36.67
32.45
28.09
23.86
20.12
17.08
14.68
12.69
10.84
8.96
7.14
5.58
4.52
4.07
4.11
4.28
4.12
3.19
1.31
-1.35
-4.33
-7.14
-9.44
-11.34
-13.35
-16.17
-20.33
-25.98
-32.66
-39.56
-45.78
-50.78
-54.6
-57.9
-61.71
-67.03
-74.41
-83.69
-94.1
-104.5
-113.75
-121.04
-126.13
-129.4
-131.87
-135.02
-140.32
-148.46
-158.67
-168.33
-173.44
-169.9
-155.09
-129.04
-94.57
-56.27
-19
13.56
39.5
58.44
70.95
77.94
80.54
80.16
78.51
77.27
77.69
80.15
84.01
88.03
90.74
91.1
88.84
84.52
79.42
75.09
72.94
73.65
77.02
81.96
86.87
90.2
90.95
88.94
84.72
79.29
73.68
68.68
64.58
61.31
58.48
55.65
52.57
49.3
46.18
43.62
41.92
41.04
40.65
40.29
39.7
38.97
38.54
38.95
40.42
42.73
45.18
46.92
47.33
46.19
43.73
40.33
36.41
32.31
28.44
25.3
23.23
21.95
20.15
15.5
5.23
-12.86
-39.46
-73.35
-111.66
-150.7
-186.79
-216.98
-239.25
-252.54
-256.81
-253.07
-243.58
-231.53
-220.29
-212.23
-207.58
-204.08
-197.63
-183.95
-160.31
-126.75
-86.19
-43.28
-2.78
31.83
58.84
78.16
90.53
97.1
99.13
98.09
95.64
93.34
92.26
92.68
94.1
95.44
95.6
93.9
90.33
85.62
80.98
77.73
76.86
78.66
82.52
87.1
90.75
92.09
90.48
86.17
80.1
73.47
67.19
61.67
56.8
52.19
47.48
42.58
37.67
33.05
29
25.6
22.72
20.15
17.7
15.3
13.03
10.99
9.3
7.97
6.87
5.86
4.69
3.21
1.22
-1.39
-4.74
-8.9
-13.84
-19.39
-25.11
-30.45
-34.81
-37.87
-39.81
-41.36
-43.64
-47.71
-54.22
-63.07
-73.45
-84.09
-93.62
-100.99
-105.7
-108.01
-108.95
-110.15
-113.35
-119.64
-128.61
-137.99
-144.01
-142.57
-130.83
-108.39
-77.64
-42.91
-9.05
20.09
42.48
57.94
67.5
72.67
74.94
75.52
75.38
75.26
75.62
76.58
77.86
78.85
78.84
77.31
74.18
69.99
65.78
62.85
62.22
64.24
68.37
73.31
77.5
79.63
79.15
76.3
71.94
67.14
62.8
59.35
56.8
54.88
53.19
51.44
49.49
47.32
45.01
42.66
40.37
38.22
36.28
34.51
32.81
31.01
29
26.81
24.64
22.77
21.34
20.27
19.1
17.24
14.15
9.64
4.01
-2.06
-7.71
-12.31
-15.67
-18.14
-20.46
-23.42
-27.6
-33.13
-39.71
-46.7
-53.31
-58.91
-63.1
-65.97
-68.11
-70.55
-74.47
-80.65
-88.93
-97.83
-104.75
-106.67
-101.26
-87.76
-67.42
-43.07
-18.15
4.28
22.31
35.32
43.67
48.23
49.88
49.35
47.09
43.5
38.97
34.06
29.43
25.72
23.27
22
21.51
21.3
21.2
21.53
22.98
26.09
30.86
36.52
41.72
45.15
45.96
44.17
40.52
36.12
32.03
28.91
26.92
25.76
24.9
23.8
22.12
19.8
17.04
14.12
11.34
8.82
6.58
4.64
2.98
1.64
0.62
-0.12
-0.64
-0.98
-1.2
-1.47
-2.04
-3.3
-5.65
-9.28
-14.09
-19.63
-25.22
-30.26
-34.44
-37.89
-41.22
-45.26
-50.75
-58.02
-66.82
-76.38
-85.66
-93.75
-100.12
-104.79
-108.27
-111.43
-115.33
-120.89
-128.48
-137.44
-145.78
-150.39
-148
-136.38
-115.3
-86.87
-54.75
-22.92
5.5
28.77
46.45
58.84
66.55
70.36
71.26
70.48
69.33
68.88
69.66
71.57
74
76.05
76.84
75.79
72.9
68.89
65.05
62.83
63.23
66.36
71.25
76.24
79.63
80.32
78.16
73.77
68.22
62.51
57.3
52.84
49.09
45.85
42.88
39.97
36.88
33.48
29.68
25.52
21.16
16.94
13.22
10.36
8.59
7.91
8.14
8.93
9.84
10.47
10.56
10
8.86
7.3
5.5
3.59
1.67
-0.23
-2.08
-3.92
-5.87
-8.14
-10.98
-14.61
-19.11
-24.35
-29.93
-35.27
-39.77
-43.1
-45.37
-47.2
-49.52
-53.16
-58.52
-65.38
-73.03
-80.56
-87.18
-92.42
-96.19
-98.83
-101.09
-104.02
-108.74
-115.7
-124.11
-131.62
-134.7
-129.87
-115.09
-90.69
-59.4
-25.41
7.03
34.85
56.55
72.07
82.16
87.82
90.11
90.06
88.71
87.03
85.71
85
84.63
84
82.43
79.51
75.4
70.84
67.07
65.36
66.5
70.49
76.34
82.4
86.85
88.33
86.36
81.43
74.78
67.89
62.03
57.86
55.4
54.11
53.19
51.99
50.17
47.85
45.47
43.61
42.71
42.93
44.13
45.98
48.05
50.02
51.71
53.03
53.94
54.39
54.26
53.39
51.64
48.91
45.17
40.43
34.66
27.8
19.67
10.06
-1.13
-13.72
-27.07
-40.21
-52.01
-61.6
-68.72
-73.9
-78.36
-83.55
-90.69
-100.23
-111.75
-124.1
-135.83
-145.66
-152.89
-157.55
-160.4
-162.77
-166.22
-172.04
-180.56
-190.51
-198.89
-201.54
-194.53
-175.7
-145.71
-107.94
-67.3
-28.51
5.2
32.5
53.38
68.3
77.6
81.58
80.86
76.72
70.98
65.51
61.65
59.86
59.73
60.25
60.25
58.87
55.91
52.07
48.85
47.96
50.67
57.03
65.68
74.24
80.22
81.97
79.18
72.91
64.92
56.99
50.31
45.26
41.54
38.59
35.86
33.09
30.28
27.51
24.86
22.31
19.8
17.37
15.13
13.38
12.37
12.26
13.02
14.41
16
17.23
17.58
16.61
14.22
10.66
6.51
2.41
-1.2
-4.29
-7.32
-10.94
-15.72
-21.84
-28.96
-36.38
-43.34
-49.33
-54.39
-59.1
-64.36
-71.02
-79.49
-89.61
-100.67
-111.72
-121.77
-130.12
-136.44
-140.92
-144.4
-148.25
-153.96
-162.4
-172.96
-183.07
-188.62
-185.24
-169.84
-141.98
-104.02
-60.34
-15.95
24.91
59.29
85.59
103.19
112.25
113.71
109.38
101.79
93.57
86.89
82.77
81.04
80.58
79.86
77.56
73.01
66.43
58.89
52.13
47.92
47.48
50.97
57.25
64.31
69.88
72.28
70.91
66.31
59.76
52.72
46.31
41.04
36.91
33.53
30.51
27.63
24.89
22.41
20.23
18.32
16.46
14.48
12.39
10.4
8.95
8.47
9.23
11.23
14.16
17.48
20.59
22.88
23.92
23.44
21.5
18.43
14.76
11.07
7.71
4.69
1.66
-1.94
-6.56
-12.35
-18.94
-25.64
-31.67
-36.56
-40.41
-43.78
-47.48
-52.16
-58.06
-64.95
-72.28
-79.37
-85.67
-90.8
-94.58
-97.18
-99.23
-101.85
-106.37
-113.66
-123.28
-133.05
-139.31
-137.9
-125.84
-102.47
-69.89
-32.25
5.65
39.75
67.55
88.16
101.91
109.61
112.28
111.03
107.07
101.73
96.23
91.5
87.91
85.38
83.48
81.8
80.28
79.34
79.79
82.56
88.25
96.75
107.12
117.62
126.33
131.67
132.86
130.08
124.32
116.93
109.22
102.08
95.79
90
83.93
76.58
67.26
55.81
42.8
29.4
17
6.84
-0.44
-4.91
-7.3
-8.65
-10.01
-12.1
-15.2
-19.15
-23.48
-27.73
-31.69
-35.53
-39.77
-44.99
-51.53
-59.22
-67.42
-75.2
-81.8
-87.05
-91.55
-96.43
-102.96
-111.89
-123.15
-135.87
-148.7
-160.33
-169.84
-176.97
-182.04
-186.06
-190.54
-197.13
-206.77
-218.78
-230.3
-236.56
-232.34
-213.9
-180.7
-135.79
-84.8
-34.06
11.38
48.59
76.7
96.04
107.44
111.89
110.74
105.85
99.44
93.65
89.89
88.54
88.96
89.82
89.62
87.28
82.5
76.07
69.7
65.51
65.29
69.66
77.76
87.41
95.92
101.12
101.98
98.86
93.06
86.21
79.63
73.94
69.02
64.2
58.54
51.13
41.52
29.84
16.85
3.78
-8.07
-17.55
-23.98
-27.14
-27.22
-24.67
-20.09
-14.24
-8.06
-2.54
1.43
3.3
2.98
0.83
-2.57
-6.67
-11.15
-15.92
-21.03
-26.43
-31.88
-37.01
-41.54
-45.55
-49.6
-54.6
-61.41
-70.49
-81.66
-94.05
-106.51
-117.83
-127.22
-134.36
-139.53
-143.58
-147.88
-153.95
-162.74
-173.82
-184.83
-191.69
-189.69
-175.22
-147.22
-107.76
-61.4
-13.69
30.41
67.53
95.97
115.34
126.01
128.98
125.9
119.04
111.05
104.26
100.12
98.72
98.99
99.17
97.49
92.95
85.61
76.69
68.18
62.19
60.26
62.73
68.57
75.65
81.47
83.96
82.17
76.42
68.08
58.96
50.62
43.91
38.8
34.65
30.53
25.8
20.3
14.4
8.77
4.05
0.64
-1.4
-2.18
-2.06
-1.41
-0.7
-0.35
-0.69
-1.83
-3.58
-5.61
-7.55
-9.25
-10.87
-12.76
-15.31
-18.62
-22.45
-26.24
-29.55
-32.29
-34.94
-38.46
-43.82
-51.55
-61.4
-72.36
-83.01
-92
-98.48
-102.28
-103.97
-104.76
-106.28
-110
-116.6
-125.18
-133.05
-136.19
-130.45
-113.19
-84.3
-46.55
-4.65
36.15
71.51
98.83
117.38
127.83
131.59
130.36
125.78
119.33
112.27
105.57
99.76
94.92
90.67
86.41
81.65
76.42
71.39
67.83
67.07
69.96
76.31
84.83
93.41
99.81
102.38
100.56
95.01
87.24
79.13
72.21
67.31
64.35
62.51
60.71
58.03
54.13
49.3
44.38
40.35
37.99
37.51
38.49
39.97
40.84
40.14
37.49
33.17
27.96
22.72
17.88
13.12
7.4
-0.62
-11.96
-26.74
-44.07
-62.34
-79.68
-94.61
-106.41
-115.23
-122.04
-128.43
-136.21
-146.76
-160.24
-174.98
-187.44
-193.1
-188.04
-170.5
-141.71
-105.58
-67.19
-31.13
-0.34
24.15
42.59
55.62
63.76
67.36
66.9
63.33
58.05
52.67
48.47
46.01
45
44.48
43.27
40.63
36.7
32.58
29.96
30.37
34.35
41.13
48.8
55.08
58.19
57.53
53.72
48.2
42.59
37.95
34.59
32.09
29.72
26.92
23.49
19.76
16.22
13.28
10.96
8.9
6.54
3.49
-0.22
-4.15
-7.63
-10.07
-11.33
-11.72
-11.99
-12.99
-15.46
-19.68
-25.46
-32.14
-38.87
-44.92
-50.01
-54.51
-59.29
-65.39
-73.53
-83.77
-95.44
-107.4
-118.38
-127.42
-134.13
-138.73
-142.07
-145.53
-150.72
-158.66
-169.08
-179.77
-186.7
-185.25
-171.81
-145.36
-108.07
-64.58
-20.4
19.82
53.22
78.82
96.85
108.04
113.34
114
111.68
108.32
105.65
104.65
105.26
106.49
106.96
105.39
101.19
94.7
87.1
80.06
75.18
73.55
75.27
79.46
84.53
88.71
90.65
89.66
85.89
80.12
73.38
66.71
60.8
55.91
51.8
48
44.03
39.71
35.2
30.88
27.14
24.1
21.72
19.74
18
16.5
15.34
14.66
14.47
14.63
14.85
14.82
14.24
12.84
10.43
6.89
2.3
-3.05
-8.65
-13.9
-18.35
-21.86
-24.71
-27.52
-31.02
-35.72
-41.78
-48.84
-56.2
-63.06
-68.84
-73.47
-77.46
-81.74
-87.27
-94.7
-104.01
-114.57
-125.32
-135.02
-142.67
-147.66
-150.07
-150.75
-151.32
-153.68
-159.16
-167.52
-176.36
-181.43
-177.93
-162.38
-134.07
-95.62
-52.01
-8.88
29.16
59.54
81.63
96.09
104.08
106.92
106.11
103.33
100.37
98.68
98.88
100.61
102.7
103.72
102.59
99.07
93.9
88.48
84.42
83
84.64
88.75
93.87
98.19
100.19
99.12
95.22
89.45
83.05
77.02
71.9
67.68
64.02
60.53
56.93
53.15
49.29
45.58
42.24
39.4
37.11
35.32
33.91
32.75
31.79
31.04
30.61
30.56
30.84
31.21
31.25
30.53
28.76
25.97
22.54
19.12
16.33
14.55
13.7
13.26
12.46
10.56
7.12
2.23
-3.51
-9.17
-13.88
-17.22
-19.48
-21.68
-25.36
-32.05
-42.6
-56.63
-72.28
-86.52
-95.88
-97.53
-90.23
-74.8
-53.89
-31.16
-10.19
6.57
18.13
24.89
28.03
28.86
28.33
26.9
24.71
21.83
18.49
15.1
12.13
9.91
8.52
7.85
7.78
8.42
10.12
13.38
18.49
25.18
32.52
39.09
43.4
44.46
42.19
37.38
31.4
25.68
21.15
18.05
15.91
13.91
11.22
7.33
2.23
-3.71
-9.84
-15.49
-20.16
-23.65
-26.06
-27.75
-29.21
-30.94
-33.36
-36.65
-40.74
-45.29
-49.98
-54.67
-59.56
-65.19
-72.13
-80.61
-90.35
-100.59
-110.31
-118.7
-125.34
-130.37
-134.42
-138.49
-143.76
-151.19
-160.87
-171.43
-179.82
-181.98
-174.14
-154.36
-123.53
-85.18
-44.31
-5.76
27.15
53
71.91
84.78
92.69
96.71
98
97.9
97.71
98.39
100.2
102.6
104.46
104.54
101.99
96.75
89.71
82.45
76.74
73.86
74.13
76.79
80.29
82.96
83.5
81.5
77.35
71.95
66.3
61.17
56.85
53.24
49.94
46.55
42.78
38.62
34.27
30.06
26.23
22.86
19.91
17.35
15.19
13.52
12.36
11.58
10.94
10.06
8.69
6.72
4.28
1.49
-1.59
-5.05
-9.15
-14.09
-19.89
-26.29
-32.72
-38.53
-43.25
-46.87
-49.88
-53.18
-57.74
-64.2
-72.56
-82.2
-92.09
-101.11
-108.47
-113.86
-117.51
-120.15
-122.92
-127.13
-133.8
-142.97
-153.15
-161.21
-163.16
-155.39
-136.16
-106.37
-69.38
-29.89
7.57
39.73
64.99
83.05
94.31
99.51
99.67
96.2
90.97
85.89
82.46
81.27
81.84
82.91
82.93
80.78
76.2
69.97
63.59
58.87
57.14
58.86
63.33
69
73.96
76.64
76.27
72.96
67.57
61.2
54.77
48.84
43.53
38.69
34.13
29.77
25.63
21.82
18.37
15.21
12.12
8.83
5.14
1.05
-3.22
-7.27
-10.63
-12.99
-14.29
-14.81
-15.18
-16.1
-18.18
-21.65
-26.27
-31.41
-36.28
-40.33
-43.51
-46.29
-49.48
-53.84
-59.75
-67.03
-75.05
-82.91
-89.75
-94.93
-98.17
-99.66
-100.19
-101.01
-103.45
-108.24
-114.74
-120.69
-122.76
-117.63
-103.45
-80.64
-51.81
-20.77
8.73
34.13
54.26
69.06
79.02
84.76
86.97
86.46
84.22
81.3
78.54
76.34
74.65
73.07
71.09
68.38
64.97
61.31
58.21
56.57
57.01
59.49
63.26
67.02
69.46
69.75
67.76
64.06
59.48
54.74
50.17
45.79
41.43
37.08
32.82
28.81
25.03
21.25
17.14
12.5
7.46
2.5
-1.72
-4.73
-6.48
-7.4
-8.23
-9.73
-12.38
-16.22
-20.99
-26.17
-31.23
-35.67
-39.18
-41.67
-43.36
-44.84
-46.96
-50.42
-55.36
-60.9
-65.12
-65.52
-59.9
-47.21
-28.03
-4.36
21.1
45.73
67.43
84.65
96.12
100.79
98.06
88.23
72.83
54.5
36.35
21.12
10.54
5.15
4.54
7.88
14.15
22.27
30.99
39
45.03
48.25
48.43
46
41.76
36.67
31.37
26.13
20.87
15.38
9.46
3.14
-3.38
-9.83
-16
-22.01
-28.25
-35.28
-43.55
-53.1
-63.41
-73.54
-82.47
-89.53
-94.61
-98.12
-100.86
-103.72
-107.5
-112.71
-119.32
-126.45
-132.26
-134.22
-129.83
-117.67
-98.09
-73.25
-46.39
-20.75
1.43
19.25
32.83
42.76
49.57
53.63
55.31
55.22
54.28
53.46
53.49
54.45
55.84
56.74
56.27
54.07
50.52
46.68
43.91
43.29
45.09
48.69
52.67
55.44
55.76
53.18
48.08
41.46
34.54
28.29
23.23
19.35
16.22
13.26
9.87
5.65
0.45
-5.56
-11.93
-18.05
-23.34
-27.49
-30.6
-33.19
-35.97
-39.6
-44.4
-50.32
-57
-63.86
-70.37
-76.07
-80.74
-84.49
-87.91
-91.91
-97.4
-104.71
-112.96
-120.01
-122.86
-118.73
-106.19
-85.76
-59.83
-31.74
-4.68
19.15
38.76
54.05
65.32
72.93
77.31
79.06
79.09
78.45
78.02
78.23
78.87
79.25
78.52
76.13
72.09
67.11
62.33
58.99
57.89
59.07
61.77
64.68
66.49
66.33
64.06
60.24
55.79
51.6
48.15
45.47
43.19
40.85
38.12
34.97
31.63
28.46
25.76
23.69
22.15
20.94
19.83
18.65
17.38
16.05
14.73
13.48
12.3
11.12
9.81
8.22
6.16
3.57
0.46
-2.92
-6.17
-8.85
-10.66
-11.66
-12.29
-13.24
-15.19
-18.54
-23.2
-28.59
-33.96
-38.63
-42.32
-45.21
-47.86
-50.98
-55.1
-60.49
-67.04
-74.41
-82.06
-89.35
-95.67
-100.58
-104.13
-107
-110.41
-115.58
-123
-131.71
-139.22
-142.15
-137.44
-123.65
-101.49
-73.67
-43.84
-15.46
9.06
28.53
42.76
52.2
57.59
59.95
60.47
60.42
60.83
62.27
64.72
67.61
70.11
71.34
70.74
68.23
64.33
60.02
56.53
54.91
55.59
58.24
61.78
64.85
66.28
65.52
62.78
58.79
54.49
50.57
47.32
44.67
42.32
40.02
37.62
35.17
32.78
30.55
28.53
26.7
25.03
23.48
22.03
20.68
19.42
18.21
17.01
15.72
14.29
12.73
11.14
9.65
8.28
6.89
5.08
2.49
-1.11
-5.52
-10.2
-14.51
-17.93
-20.44
-22.4
-24.44
-27.1
-30.64
-34.96
-39.67
-44.29
-48.39
-51.67
-54.06
-55.83
-57.56
-60.04
-63.9
-69.17
-75.07
-79.98
-81.89
-79.01
-70.43
-56.45
-38.46
-18.48
1.44
19.68
35.37
48.18
58.17
65.55
70.46
73.09
73.7
72.8
70.98
68.88
66.95
65.37
64.09
63
62.1
61.54
61.62
62.6
64.51
67.06
69.58
71.22
71.14
68.77
63.97
57.12
49.06
40.88
33.56
27.76
23.58
20.57
17.95
14.81
10.55
5
-1.47
-8.03
-13.76
-17.97
-20.53
-21.92
-23.06
-24.94
-28.21
-32.94
-38.66
-44.64
-50.3
-55.55
-60.72
-66.46
-73.26
-81.21
-89.9
-98.63
-106.71
-113.73
-119.62
-124.61
-129.15
-133.98
-139.92
-147.61
-156.87
-166.16
-172.47
-172.12
-162.11
-141.55
-112.29
-78.36
-44.55
-14.71
9.16
26.93
39.55
48.16
53.62
56.61
57.82
58.17
58.67
60.03
62.42
65.43
68.21
69.82
69.54
67.18
63.27
58.95
55.66
54.54
56
59.41
63.4
66.38
67.21
65.58
62.03
57.57
53.16
49.39
46.33
43.7
41.18
38.54
35.84
33.2
30.74
28.41
25.99
23.24
20.09
16.73
13.62
11.2
9.72
9.07
8.8
8.41
7.53
6.04
4.07
1.77
-0.77
-3.67
-7.09
-11.2
-15.99
-21.28
-26.76
-32.09
-37.02
-41.47
-45.6
-49.78
-54.49
-60.21
-67.11
-75.04
-83.42
-91.55
-98.72
-104.54
-108.95
-112.43
-115.77
-120
-125.94
-133.7
-142.28
-149.4
-152.04
-147.3
-133.51
-110.95
-81.75
-49.31
-17.16
11.78
35.7
53.79
66.06
73.15
76.26
77.03
77.17
78.05
80.21
83.27
86.2
87.77
87.08
83.93
78.86
73.02
67.81
64.51
63.83
65.73
69.39
73.49
76.62
77.8
76.69
73.65
69.44
64.86
60.55
56.72
53.28
49.88
46.16
41.93
37.34
32.78
28.78
25.73
23.62
22.16
20.88
19.42
17.72
16.03
14.71
14.06
14.11
14.55
14.88
14.56
13.31
11.08
8.14
4.87
1.62
-1.47
-4.47
-7.59
-11.08
-15.03
-19.31
-23.64
-27.71
-31.44
-35.1
-39.22
-44.44
-51.16
-59.32
-68.38
-77.55
-86.05
-93.37
-99.34
-104.09
-108.03
-111.78
-116.2
-122.04
-129.52
-137.76
-144.61
-147.04
-142.16
-128.4
-106.18
-77.94
-47.21
-17.52
8.56
29.67
45.54
56.47
63.02
65.97
66.25
65.1
63.73
63.08
63.55
64.85
66.2
66.61
65.39
62.46
58.43
54.49
51.94
51.74
54.05
58.23
62.95
66.76
68.54
67.84
64.96
60.75
56.17
51.96
48.45
45.53
42.85
39.99
36.69
32.9
28.8
24.74
21.11
18.27
16.4
15.53
15.45
15.82
16.26
16.44
16.23
15.69
15.02
14.48
14.11
13.77
13.04
11.47
8.72
4.8
0.09
-4.76
-9.07
-12.44
-14.93
-17.11
-19.78
-23.72
-29.3
-36.33
-44.14
-51.83
-58.6
-64.04
-68.21
-71.62
-75.02
-79.25
-84.95
-92.24
-100.39
-107.71
-111.74
-109.97
-100.68
-83.67
-60.5
-34.01
-7.41
16.7
36.92
52.99
65.3
74.32
80.25
83.07
82.88
80.18
75.99
71.56
67.95
65.68
64.59
64.12
63.71
63.21
63.03
63.89
66.38
70.55
75.68
80.55
83.85
84.67
82.77
78.52
72.68
66.05
59.24
52.61
46.35
40.55
35.25
30.44
26.01
21.76
17.46
12.97
8.32
3.7
-0.6
-4.4
-7.62
-10.39
-12.91
-15.36
-17.84
-20.37
-23.06
-26.06
-29.64
-33.95
-39.01
-44.52
-50.03
-55.02
-59.28
-62.97
-66.65
-71.04
-76.75
-83.98
-92.44
-101.53
-110.51
-118.76
-125.93
-131.95
-137.13
-142.12
-147.93
-155.41
-164.71
-174.55
-182.05
-183.39
-175.06
-155.44
-125.53
-88.83
-50.1
-13.77
17.19
41.6
59.64
72.07
79.72
83.37
83.89
82.41
80.23
78.57
78.12
78.85
80.06
80.66
79.71
76.88
72.72
68.48
65.66
65.37
67.83
72.2
76.94
80.33
81.19
79.14
74.66
68.77
62.57
56.94
52.24
48.43
45.2
42.21
39.22
36.16
33.02
29.78
26.42
22.88
19.28
15.92
13.2
11.48
10.86
11.1
11.65
11.93
11.47
10.07
7.83
5.04
2.02
-1.01
-4.01
-7.14
-10.64
-14.71
-19.4
-24.5
-29.67
-34.5
-38.84
-42.84
-47.02
-52.01
-58.31
-66.05
-74.95
-84.35
-93.43
-101.43
-107.83
-112.51
-115.88
-118.94
-123.09
-129.52
-138.56
-148.95
-157.86
-161.48
-156.31
-140.47
-114.53
-81.36
-45.15
-10.14
20.43
44.76
62.37
73.64
79.49
81.14
80.04
77.76
75.65
74.64
75.03
76.44
78.02
78.73
77.77
74.94
70.8
66.55
63.65
63.2
65.47
69.69
74.37
77.86
78.97
77.39
73.56
68.43
62.97
57.88
53.48
49.69
46.29
42.96
39.5
35.85
32.12
28.53
25.28
22.46
20.02
17.83
15.79
13.9
12.33
11.29
10.94
11.23
11.86
12.38
12.3
11.25
9.13
6.13
2.66
-0.81
-3.89
-6.47
-8.76
-11.17
-14.13
-17.87
-22.28
-26.98
-31.51
-35.65
-39.5
-43.52
-48.26
-54.08
-60.95
-68.41
-75.78
-82.39
-87.83
-92
-95.17
-97.94
-101.11
-105.6
-111.99
-120.11
-128.56
-134.68
-135.17
-127.1
-109.14
-82.26
-49.56
-15.26
16.6
43.24
63.55
77.74
86.71
91.5
93.04
92.13
89.59
86.31
83.06
80.31
78.11
76.13
73.85
70.98
67.63
64.47
62.54
62.78
65.68
70.93
77.43
83.64
88.05
89.69
88.43
84.86
80.06
75.2
71.13
68.27
66.5
65.38
64.32
62.77
60.45
57.29
53.6
49.83
46.59
44.39
43.54
44
45.37
47.12
48.63
49.48
49.49
48.71
47.21
44.93
41.58
36.64
29.56
20.1
8.57
-4.16
-16.84
-28.36
-38.19
-46.58
-54.52
-63.14
-73.3
-85.09
-97.89
-110.64
-122.24
-131.95
-139.52
-145.21
-149.8
-154.47
-160.48
-168.58
-178.26
-187.34
-192.17
-188.76
-174.25
-148.28
-113.27
-73.62
-34.19
1.17
30.37
52.9
69.1
79.49
84.47
84.47
80.26
73.16
64.86
57.06
50.94
46.84
44.23
42.01
39.15
35.29
31.07
27.91
27.48
30.76
37.52
46.25
54.68
60.71
63.08
61.7
57.44
51.6
45.42
39.7
34.78
30.69
27.31
24.5
22.15
20.11
18.16
16.03
13.52
10.58
7.46
4.58
2.46
1.49
1.75
3.04
4.88
6.61
7.65
7.47
5.88
3.01
-0.64
-4.41
-7.7
-10.33
-12.61
-15.23
-18.94
-24.15
-30.7
-37.87
-44.74
-50.61
-55.32
-59.4
-63.81
-69.56
-77.27
-86.95
-97.94
-109.19
-119.63
-128.41
-135.16
-140.04
-143.7
-147.28
-152.1
-159.2
-168.53
-178.41
-185.47
-185.52
-174.89
-151.93
-117.79
-76.03
-31.49
11.17
48.51
78.6
100.63
114.55
120.87
120.71
115.94
108.9
101.93
96.64
93.58
92.16
91.08
88.96
84.92
79.02
72.17
65.92
61.91
61.24
64.12
69.64
76.2
81.89
85.23
85.47
82.73
77.74
71.55
65.09
59.01
53.51
48.47
43.63
38.81
34.12
29.92
26.63
24.47
23.25
22.47
21.48
19.89
17.76
15.7
14.5
14.75
16.45
18.9
20.95
21.45
19.71
15.8
10.47
4.82
-0.14
-3.88
-6.44
-8.25
-9.96
-12.09
-14.95
-18.54
-22.66
-26.97
-31.08
-34.78
-38
-40.94
-43.95
-47.39
-51.48
-56.2
-61.29
-66.44
-71.53
-76.72
-82.42
-89.05
-96.77
-105.36
-114.17
-122.38
-129.2
-134.12
-137.06
-138.49
-139.48
-141.42
-145.53
-151.98
-159.33
-164.33
-162.76
-150.85
-126.87
-92.03
-50.15
-6.44
34.15
68.16
93.95
111.4
121.26
124.64
122.91
117.68
110.76
103.87
98.25
94.35
91.86
89.86
87.39
83.86
79.37
74.77
71.33
70.32
72.43
77.36
83.84
90
93.99
94.61
91.7
86.07
79.13
72.33
66.7
62.63
59.9
57.93
56.11
53.98
51.36
48.31
45.01
41.72
38.76
36.44
35.07
34.88
35.94
38.14
41.23
44.9
48.84
52.8
56.47
59.5
61.5
62.2
61.62
60.2
58.73
58.11
58.85
60.73
62.62
62.8
59.49
51.63
39.39
24.22
8.36
-5.97
-17.51
-26.37
-33.94
-42.16
-52.7
-66.2
-82.09
-98.88
-114.67
-127.83
-137.4
-143.37
-146.67
-149.09
-152.69
-159.03
-168.21
-178.25
-185.33
-184.94
-173.61
-150.41
-117.47
-79.21
-40.72
-6.12
22.37
44.19
59.8
69.8
74.56
74.39
69.98
62.56
53.85
45.63
39.18
35.01
32.75
31.44
30.06
28.02
25.58
23.69
23.64
26.33
31.71
38.68
45.39
50.04
51.47
49.62
45.33
40
35.02
31.37
29.37
28.72
28.61
28
26.04
22.32
17.06
11
5.05
-0.01
-3.82
-6.35
-7.89
-8.76
-9.21
-9.41
-9.42
-9.34
-9.25
-9.34
-9.86
-11.13
-13.49
-17.14
-22.09
-27.97
-34.33
-40.58
-46.37
-51.71
-56.99
-62.8
-69.77
-78.27
-88.27
-99.37
-110.82
-121.74
-131.34
-139.13
-145.09
-149.78
-154.32
-159.93
-167.29
-175.71
-182.76
-184.72
-177.79
-159.66
-130.55
-93.33
-52.37
-12.07
24.4
55.4
80.31
98.83
110.53
115.25
113.61
107.46
99.58
92.86
89.32
89.5
92.44
96.21
98.72
98.44
94.87
88.69
81.52
75.38
71.95
72.02
75.13
79.79
84.04
86.23
85.49
81.93
76.41
70
63.66
57.96
53.06
48.89
45.25
42.01
39.02
36.19
33.36
30.42
27.29
24.04
20.86
18.04
15.9
14.61
14.26
14.7
15.62
16.56
16.98
16.39
14.44
11.11
6.74
1.95
-2.61
-6.49
-9.65
-12.43
-15.42
-19.19
-23.97
-29.57
-35.46
-40.95
-45.58
-49.33
-52.77
-56.82
-62.43
-70.11
-79.73
-90.49
-101.26
-110.93
-118.78
-124.64
-128.8
-132.04
-135.5
-140.45
-147.78
-157.34
-167.32
-174.27
-174.05
-163.18
-140.43
-107.39
-68.04
-27.38
10.12
41.53
65.58
82.15
91.74
95.17
93.64
88.82
82.7
77.17
73.49
72
72.16
72.85
72.87
71.35
68.07
63.47
58.64
54.88
53.26
54.22
57.29
61.27
64.66
66.3
65.69
63.15
59.48
55.57
52.11
49.41
47.41
45.84
44.31
42.49
40.15
37.26
33.95
30.54
27.41
24.93
23.31
22.54
22.43
22.6
22.67
22.37
21.6
20.5
19.37
18.51
18.08
17.94
17.64
16.56
14.16
10.18
4.85
-1.2
-7.11
-12.09
-15.73
-18.2
-20.1
-22.32
-25.65
-30.54
-36.91
-44.22
-51.62
-58.24
-63.41
-66.95
-69.33
-71.62
-75.24
-81.34
-90.11
-100.24
-108.93
-112.63
-108.12
-93.83
-70.37
-40.46
-7.94
23.4
50.71
72.55
88.65
99.5
105.85
108.48
108.15
105.6
101.72
97.33
93.25
89.96
87.72
86.52
86.24
86.91
88.68
91.85
96.57
102.57
109.05
114.7
118.04
117.81
113.36
104.76
92.87
79.05
64.9
51.78
40.48
31.05
22.84
14.92
6.55
-2.45
-11.59
-19.97
-26.77
-31.65
-34.86
-37.16
-39.45
-42.42
-46.29
-50.83
-55.43
-59.49
-62.7
-65.32
-68.23
-72.59
-79.36
-88.75
-100.07
-111.89
-122.61
-131.07
-136.85
-140.5
-143.19
-146.43
-151.51
-158.98
-168.04
-176.35
-180.44
-176.65
-162.65
-138.47
-106.75
-71.82
-38.1
-8.67
15.34
34.33
49.25
60.71
68.78
73.31
74.51
73.3
71.13
69.52
69.55
71.46
74.56
77.58
79.15
78.32
75.06
70.33
65.71
62.79
62.5
64.71
68.27
71.62
73.33
72.71
69.86
65.52
60.6
55.88
51.75
48.17
44.78
41.12
36.89
32.1
27.07
22.28
18.11
14.73
12
9.62
7.31
4.89
2.39
0.03
-1.87
-3.04
-3.43
-3.32
-3.34
-4.38
-7.26
-12.4
-19.62
-28.03
-36.33
-43.26
-48.16
-51.21
-53.44
-56.27
-60.91
-67.91
-76.94
-87.06
-96.99
-105.65
-112.38
-117.06
-120.13
-122.46
-125.38
-130.21
-137.77
-147.61
-157.57
-164.02
-162.89
-151.11
-127.91
-95.27
-57.18
-18.38
17.04
46.46
68.74
83.88
92.5
95.71
95.07
92.46
89.73
88.19
88.18
89.07
89.65
88.68
85.46
80.11
73.49
66.92
61.75
59.04
59.11
61.46
64.81
67.58
68.41
66.7
62.74
57.47
52.05
47.24
43.24
39.57
35.48
30.41
24.34
17.99
12.51
9.06
8.17
9.45
11.7
13.28
12.94
10.22
5.8
1.14
-2.1
-2.74
-0.58
3.63
8.47
12.51
14.68
14.6
12.47
8.89
4.61
0.36
-3.35
-6.26
-8.44
-10.25
-12.16
-14.59
-17.66
-21.28
-25.23
-29.42
-34.01
-39.27
-45.4
-52.26
-59.37
-66.08
-71.77
-76.15
-79.29
-81.7
-84.25
-88.01
-93.78
-101.6
-110.24
-117.18
-119.18
-113.36
-98.37
-74.95
-45.73
-14.27
16.01
42.67
64.36
80.6
91.33
96.77
97.48
94.48
89.3
83.65
78.94
75.94
74.65
74.42
74.36
73.71
72.15
69.96
67.96
67.2
68.59
72.45
78.28
84.85
90.56
94.05
94.62
92.41
88.25
83.24
78.36
74.19
70.95
68.59
66.95
65.9
65.22
64.56
63.41
61.27
57.82
53.15
47.72
42.2
37.13
32.6
28.08
22.65
15.33
5.49
-6.69
-20.21
-33.45
-44.72
-52.89
-57.91
-60.87
-63.63
-68.13
-75.51
-85.8
-97.94
-110.3
-121.37
-130.1
-136.18
-139.87
-142.1
-144.3
-148.24
-155.32
-165.62
-177.15
-185.87
-186.85
-176.23
-153.01
-119.72
-81.54
-44.28
-12.37
12.18
29.6
41.25
48.58
52.6
54.03
53.71
52.75
52.38
53.43
56.01
59.49
62.74
64.56
64.14
61.36
56.88
52.19
49.06
49.08
52.83
59.59
67.46
74.04
77.34
76.43
71.69
64.45
56.49
49.4
44.18
41.04
39.49
38.67
37.67
35.92
33.27
29.96
26.39
22.94
19.84
17.23
15.21
13.91
13.36
13.44
13.78
13.95
13.62
12.69
11.35
9.84
8.33
6.75
4.85
2.38
-0.7
-4.23
-7.87
-11.3
-14.39
-17.26
-20.25
-23.67
-27.74
-32.42
-37.46
-42.51
-47.21
-51.47
-55.55
-60.07
-65.76
-73.17
-82.31
-92.57
-102.85
-111.92
-118.91
-123.59
-126.49
-128.85
-132.27
-138.18
-147.17
-158.31
-168.94
-175.14
-172.79
-159.15
-133.88
-99.41
-60.19
-21.2
13.41
41.19
61.41
74.63
82.06
85.16
85.54
84.77
84.3
85.13
87.51
90.92
94.27
96.26
95.88
92.74
87.28
80.72
74.75
71.01
70.51
73.24
78.1
83.25
86.8
87.43
84.84
79.65
73.11
66.51
60.76
56.14
52.39
48.93
45.15
40.77
35.86
30.86
26.37
22.83
20.39
18.85
17.79
16.74
15.39
13.71
11.97
10.57
9.85
9.83
10.09
9.85
8.29
4.89
-0.29
-6.61
-13.06
-18.64
-22.67
-25.05
-26.19
-26.93
-28.18
-30.71
-34.83
-40.26
-46.22
-51.75
-56.16
-59.36
-61.95
-64.99
-69.48
-75.89
-83.97
-92.9
-101.55
-109
-114.69
-118.6
-121.23
-123.53
-126.68
-131.55
-138.15
-145.03
-149.25
-147.17
-135.69
-113.63
-82.44
-45.92
-8.91
24.22
50.74
69.83
82.14
89.01
91.79
91.7
89.81
87.17
84.81
83.44
83.29
84.01
84.82
84.78
83.33
80.5
77.06
74.23
73.27
74.94
79.11
84.68
89.96
93.26
93.51
90.57
85.19
78.64
72.21
66.83
62.83
59.99
57.81
55.68
53.21
50.29
47.01
43.64
40.39
37.49
35.1
33.43
32.64
32.75
33.54
34.48
34.95
34.5
33.16
31.39
29.88
29.14
29.1
29.18
28.59
26.78
23.79
20.21
16.85
14.25
12.32
10.33
7.23
2.16
-5.23
-14.65
-25.4
-36.66
-47.86
-58.76
-69.56
-80.75
-93.01
-106.91
-122.58
-139.26
-155.02
-166.97
-171.91
-167.37
-152.63
-129.14
-100.11
-69.54
-40.93
-16.43
3.3
18.62
30.2
38.41
43.18
44.4
42.29
37.74
32.12
26.88
23.04
20.85
19.82
19.12
18.16
16.97
16.28
17.16
20.47
26.3
33.78
41.37
47.33
50.37
50.02
46.68
41.45
35.64
30.32
26.08
22.91
20.4
18.03
15.45
12.58
9.65
6.98
4.74
2.87
1.12
-0.77
-2.89
-5.07
-7.02
-8.51
-9.57
-10.61
-12.23
-15.06
-19.37
-24.92
-31.02
-36.83
-41.75
-45.72
-49.41
-53.83
-60.02
-68.43
-78.76
-90.02
-100.96
-110.5
-118.04
-123.56
-127.53
-130.89
-134.9
-140.86
-149.48
-160.19
-170.68
-177.19
-175.6
-162.94
-138.69
-105.14
-66.57
-27.81
7.21
36.2
58.45
74.24
84.32
89.64
91.37
91.01
90.1
89.96
91.18
93.56
96.19
97.9
97.7
95.18
90.66
85.1
79.85
76.22
75.05
76.42
79.59
83.28
86.09
86.95
85.45
81.82
76.8
71.22
65.8
60.89
56.58
52.68
48.98
45.31
41.65
38.07
34.68
31.47
28.35
25.23
22.13
19.26
16.94
15.46
14.87
14.9
15.01
14.6
13.26
10.87
7.65
3.97
0.22
-3.38
-6.88
-10.49
-14.52
-19.19
-24.46
-30.08
-35.54
-40.36
-44.31
-47.67
-51.21
-55.88
-62.47
-71.15
-81.4
-92.14
-102.11
-110.32
-116.38
-120.61
-123.95
-127.75
-133.26
-141.09
-150.65
-159.82
-165.21
-163.07
-150.59
-127.07
-94.4
-56.57
-18.46
15.62
42.85
62.32
74.58
81.13
83.78
84.3
84.21
84.6
85.98
88.16
90.39
91.69
91.17
88.5
83.97
78.5
73.33
69.71
68.48
69.84
73.11
76.9
79.51
79.46
76.16
70.01
62.32
54.66
48.27
43.67
40.47
37.86
34.95
31.3
26.97
22.46
18.45
15.46
13.73
13.11
13.13
13.11
12.49
11.02
8.87
6.62
4.93
4.28
4.65
5.57
6.27
6.07
4.62
2.02
-1.21
-4.48
-7.22
-9.24
-10.68
-11.94
-13.48
-15.59
-18.26
-21.21
-24.12
-26.83
-29.5
-32.53
-36.38
-41.32
-47.29
-53.9
-60.59
-66.78
-72.01
-76.03
-78.9
-81.15
-83.75
-87.86
-94.21
-102.34
-110.33
-115.05
-113.21
-102.61
-83.15
-56.96
-27.64
0.97
25.87
45.52
59.73
69.15
74.83
77.87
79.21
79.69
79.88
80.06
80.2
80.07
79.42
78.19
76.6
75.14
74.43
75.12
77.65
82.08
87.97
94.36
99.96
103.48
104.06
101.58
96.68
90.5
84.21
78.53
73.49
68.49
62.72
55.62
47.19
38.03
29.06
21.15
14.79
10.02
6.53
3.87
1.63
-0.44
-2.49
-4.58
-6.83
-9.39
-12.5
-16.4
-21.31
-27.29
-34.22
-41.69
-49.1
-55.9
-61.79
-66.93
-71.88
-77.39
-84.08
-92.17
-101.32
-110.86
-119.95
-127.86
-134.19
-138.89
-142.43
-145.74
-150.1
-156.52
-165.05
-174.15
-180.69
-180.78
-171.26
-150.97
-121.44
-86.34
-50.12
-16.58
12
34.88
52.22
64.48
72.09
75.6
75.96
74.55
72.9
72.25
73.09
75.09
77.28
78.47
77.8
75.04
70.76
66.14
62.65
61.49
63.14
67.2
72.5
77.42
80.45
80.56
77.53
71.92
64.89
57.82
51.88
47.66
45.02
43.28
41.5
38.96
35.36
30.85
25.87
20.98
16.66
13.35
11.35
10.73
11.3
12.52
13.65
13.88
12.7
10.07
6.42
2.5
-1.03
-3.85
-6.19
-8.67
-11.97
-16.51
-22.18
-28.38
-34.27
-39.19
-43.02
-46.35
-50.22
-55.68
-63.31
-72.89
-83.45
-93.63
-102.23
-108.62
-112.95
-116.15
-119.59
-124.78
-132.69
-143.22
-154.77
-164.29
-167.91
-162.17
-145.29
-118.01
-83.48
-46.18
-10.59
20.1
44.36
62.08
73.9
80.73
83.52
83.32
81.37
78.99
77.26
76.77
77.4
78.47
79.01
78.2
75.73
71.96
67.89
64.8
63.77
65.22
68.7
73.03
76.71
78.51
77.83
74.84
70.28
65.06
59.93
55.3
51.22
47.56
44.12
40.86
37.87
35.28
33.11
31.21
29.31
27.14
24.64
22
19.64
17.99
17.32
17.62
18.57
19.65
20.29
20.01
18.53
15.79
12.05
7.81
3.68
0.14
-2.64
-4.93
-7.36
-10.63
-15.17
-20.91
-27.31
-33.62
-39.28
-44.22
-48.92
-54.1
-60.4
-68.03
-76.69
-85.75
-94.53
-102.5
-109.39
-115.14
-119.91
-124.21
-128.92
-135.04
-143.19
-152.9
-162.18
-167.79
-166.17
-154.81
-133.27
-103.54
-69.33
-34.84
-3.62
22.17
41.76
55.35
63.67
67.66
68.44
67.25
65.4
64
63.74
64.7
66.33
67.71
67.87
66.29
63.23
59.69
57.12
56.82
59.39
64.38
70.47
75.96
79.37
79.96
77.84
73.82
68.96
64.19
60.04
56.61
53.66
50.8
47.71
44.28
40.6
36.94
33.63
30.93
28.94
27.55
26.51
25.47
24.17
22.5
20.54
18.49
16.53
14.63
12.6
10.18
7.17
3.59
-0.36
-4.39
-8.27
-11.98
-15.7
-19.74
-24.37
-29.74
-35.73
-42.01
-48.09
-53.48
-57.92
-61.45
-64.49
-67.76
-72.07
-77.89
-85.06
-92.52
-98.4
-100.42
-96.53
-85.64
-68.04
-45.39
-20.25
4.64
27.03
45.58
59.86
70.14
76.98
80.96
82.56
82.25
80.56
78.08
75.41
72.92
70.74
68.76
66.85
65.09
63.81
63.43
64.22
65.98
67.95
69.07
68.27
64.93
59.13
51.61
43.52
36.07
30.12
25.89
22.94
20.28
16.82
11.8
5.08
-2.74
-10.61
-17.45
-22.56
-25.86
-27.9
-29.55
-31.64
-34.65
-38.58
-43.01
-47.44
-51.52
-55.29
-59.23
-64
-70.16
-77.91
-86.89
-96.4
-105.59
-113.73
-120.39
-125.55
-129.6
-133.33
-137.9
-144.33
-152.97
-162.78
-171.11
-174.23
-168.57
-152.21
-125.81
-92.51
-56.83
-23.09
5.8
28.74
45.98
58.34
66.66
71.66
74.13
75.07
75.63
76.74
78.76
81.39
83.78
84.92
84.08
81.09
76.47
71.29
66.84
64.24
64.04
66.04
69.33
72.56
74.44
74.1
71.39
66.8
61.23
55.62
50.63
46.53
43.13
40.07
37.01
33.84
30.68
27.79
25.31
23.26
21.43
19.6
17.68
15.79
14.21
13.19
12.8
12.84
12.85
12.37
11.02
8.77
5.82
2.56
-0.64
-3.59
-6.41
-9.37
-12.81
-16.93
-21.63
-26.54
-31.17
-35.08
-38.16
-40.74
-43.53
-47.41
-53.02
-60.51
-69.38
-78.71
-87.37
-94.51
-99.79
-103.47
-106.28
-109.27
-113.52
-119.81
-128.18
-137.48
-145.37
-148.69
-144.42
-130.8
-108.16
-78.87
-46.6
-15.15
12.66
35.35
52.67
65.07
73.25
78.02
80.27
81.01
81.23
81.68
82.63
83.82
84.65
84.39
82.59
79.2
74.74
70.09
66.34
64.36
64.48
66.36
69
71.2
71.91
70.64
67.52
63.19
58.44
53.93
49.99
46.59
43.52
40.53
37.47
34.38
31.38
28.63
26.13
23.82
21.48
19.03
16.51
14.16
12.35
11.33
11.14
11.47
11.83
11.67
10.64
8.7
6.09
3.16
0.23
-2.56
-5.27
-8.07
-11.17
-14.68
-18.52
-22.5
-26.3
-29.74
-32.81
-35.83
-39.34
-43.87
-49.68
-56.57
-63.97
-71.06
-77.14
-81.86
-85.35
-88.17
-91.26
-95.62
-101.98
-110.43
-119.95
-128.46
-133.14
-131.28
-121.22
-103
-78.44
-50.57
-22.7
2.48
23.27
39.04
49.96
56.66
60.06
61.25
61.34
61.31
61.82
63.03
64.62
65.95
66.3
65.14
62.42
58.61
54.66
51.7
50.64
51.74
54.51
57.79
60.25
60.81
59.04
55.21
50.07
44.52
39.21
34.48
30.34
26.67
23.35
20.34
17.72
15.55
13.83
12.43
11.12
9.64
7.88
5.86
3.79
1.96
0.62
-0.1
-0.3
-0.23
-0.2
-0.54
-1.47
-3.1
-5.37
-8.11
-11.03
-13.86
-16.35
-18.42
-20.14
-21.81
-23.84
-26.61
-30.35
-35.05
-40.42
-45.98
-51.21
-55.64
-59.05
-61.55
-63.64
-66.15
-69.94
-75.47
-82.31
-88.96
-93.13
-92.38
-85.1
-71.13
-51.91
-29.92
-7.89
12.02
28.57
41.42
50.88
57.46
61.7
64.06
64.95
64.72
63.72
62.24
60.56
58.87
57.31
55.93
54.77
53.93
53.66
54.27
55.99
58.8
62.32
65.82
68.49
69.67
69.02
66.67
63.02
58.63
54.02
49.62
45.71
42.4
39.67
37.28
34.85
31.93
28.15
23.45
18.08
12.56
7.4
2.85
-1.33
-5.79
-11.33
-18.53
-27.41
-37.43
-47.6
-56.87
-64.45
-70.08
-74.05
-77.13
-80.35
-84.75
-90.95
-98.84
-107.3
-114.22
-117.11
-113.81
-103.39
-86.55
-65.43
-42.93
-21.7
-3.5
10.97
21.87
29.71
34.97
37.98
39.06
38.57
37.1
35.34
33.97
33.37
33.55
34.1
34.42
34.1
33.11
31.93
31.3
31.94
34.07
37.27
40.59
42.93
43.49
42.05
39.04
35.25
31.5
28.32
25.83
23.78
21.79
19.63
17.22
14.75
12.45
10.48
8.84
7.39
5.95
4.33
2.49
0.49
-1.48
-3.17
-4.42
-5.2
-5.72
-6.34
-7.56
-9.74
-13.01
-17.16
-21.73
-26.19
-30.14
-33.53
-36.73
-40.4
-45.18
-51.4
-58.95
-67.17
-75.2
-82.26
-87.93
-92.22
-95.62
-98.87
-102.9
-108.56
-116.21
-125.37
-134.38
-140.5
-140.7
-132.72
-116.01
-92.12
-64.15
-35.65
-9.54
12.57
30.27
43.9
53.96
60.92
65.34
67.97
69.76
71.57
73.83
76.42
78.73
79.98
79.57
77.36
73.74
69.53
65.7
63.17
62.45
63.54
65.89
68.6
70.68
71.37
70.3
67.58
63.65
59.16
54.73
50.82
47.57
44.87
42.39
39.88
37.23
34.55
32.07
29.93
28.13
26.51
24.94
23.4
22.07
21.24
21.09
21.6
22.47
23.28
23.62
23.22
22.04
20.2
17.93
15.48
13.14
11.15
9.61
8.47
7.48
6.27
4.55
2.23
-0.51
-3.32
-5.87
-8.07
-10.15
-12.55
-15.69
-19.71
-24.36
-29.13
-33.48
-37.14
-40.28
-43.43
-47.27
-52.34
-58.8
-66.38
-74.44
-82.22
-88.99
-94.28
-98.03
-100.7
-103.27
-107.06
-113.17
-121.85
-131.93
-140.75
-144.85
-141.09
-127.95
-106.1
-78.22
-47.97
-18.85
6.63
27.26
42.74
53.38
59.76
62.69
63.26
62.71
62.11
62.11
62.75
63.55
63.79
62.79
60.26
56.35
51.7
47.27
44.04
42.75
43.52
45.83
48.66
50.9
51.74
50.95
48.8
45.88
42.76
39.8
37.14
34.78
32.75
31.17
30.18
29.87
30.15
30.76
31.38
31.69
31.54
30.91
29.94
28.83
27.8
27.03
26.58
26.38
26.24
25.95
25.29
24.13
22.42
20.21
17.58
14.7
11.75
8.98
6.66
4.92
3.73
2.84
1.83
0.25
-2.26
-5.75
-10.02
-14.61
-19
-22.85
-26.11
-29.08
-32.29
-36.32
-41.55
-48
-55.31
-62.82
-69.82
-75.74
-80.4
-84.03
-87.27
-90.96
-95.79
-101.86
-108.42
-113.77
-115.66
-111.89
-101.15
-83.5
-60.41
-34.36
-8.09
16.02
36.39
52.29
63.63
70.8
74.45
75.41
74.65
73.04
71.33
70.03
69.39
69.43
70.08
71.27
73.03
75.51
78.96
83.58
89.35
95.87
102.32
107.64
110.78
111.09
108.51
103.57
97.19
90.24
83.23
76.19
68.74
60.43
51.08
40.96
30.73
21.18
12.94
6.37
1.52
-1.78
-3.79
-4.89
-5.51
-6.2
-7.44
-9.57
-12.61
-16.3
-20.19
-23.87
-27.18
-30.33
-33.83
-38.25
-43.95
-50.84
-58.34
-65.51
-71.41
-75.5
-77.94
-79.64
-81.97
-86.24
-93.27
-102.95
-114.41
-126.29
-137.24
-146.35
-153.3
-158.42
-162.58
-166.98
-172.84
-180.77
-190.12
-198.55
-202.27
-197.15
-180.38
-151.73
-114.01
-72.15
-31.5
3.86
31.91
52.52
66.63
75.36
79.69
80.53
79.05
76.64
74.69
74.09
74.98
76.74
78.25
78.44
76.62
72.84
67.93
63.29
60.5
60.67
64.03
69.74
76.19
81.62
84.72
84.93
82.42
77.82
71.92
65.43
58.94
52.88
47.51
42.95
39.2
36.16
33.7
31.65
29.84
28.09
26.27
24.41
22.65
21.27
20.48
20.36
20.78
21.43
21.98
22.1
21.58
20.36
18.46
16.05
13.34
10.57
7.87
5.28
2.71
0.02
-2.85
-5.85
-8.82
-11.63
-14.34
-17.23
-20.73
-25.22
-30.73
-36.89
-43.04
-48.54
-53.17
-57.32
-61.95
-68.06
-76.34
-86.66
-98.21
-109.7
-119.85
-127.76
-133.18
-136.57
-139.02
-142.08
-147.37
-155.88
-167.24
-179.19
-187.83
-188.57
-177.74
-154.01
-119.05
-77.05
-33.3
7.32
41.51
67.74
85.89
96.68
101.29
101.24
98.38
94.64
91.6
90.1
90
90.36
89.91
87.55
82.87
76.3
69.06
62.77
59.03
58.76
61.87
67.19
72.91
77.23
78.93
77.74
74.16
69.14
63.56
58
52.65
47.48
42.4
37.39
32.62
28.36
24.97
22.64
21.31
20.62
19.98
18.86
17.01
14.62
12.15
10.21
9.21
9.25
10.1
11.3
12.32
12.77
12.48
11.51
10.11
8.49
6.81
5.03
2.93
0.29
-3.03
-6.96
-11.18
-15.31
-18.98
-22.16
-25.15
-28.57
-33.16
-39.41
-47.35
-56.42
-65.67
-74.04
-80.75
-85.53
-88.68
-91.03
-93.77
-98.17
-105.16
-114.73
-125.48
-134.55
-138.22
-132.99
-116.89
-90.33
-56.11
-18.59
17.59
48.76
72.84
89.33
98.88
102.7
102.18
98.68
93.42
87.47
81.62
76.33
71.66
67.39
63.21
59.01
55.08
52.17
51.31
53.44
58.95
67.34
77.17
86.4
93.1
96.06
95.23
91.61
86.76
82.17
78.63
76.18
74.2
71.97
69.09
65.69
62.34
59.72
58.31
58.18
59.01
60.21
61.3
62.06
62.63
63.34
64.41
65.68
66.44
65.64
62.17
55.29
44.86
31.35
15.63
-1.37
-18.82
-36.18
-53.06
-69.13
-84.08
-97.62
-109.6
-120.04
-129.12
-137.06
-144.06
-150.33
-156.25
-162.62
-170.51
-180.84
-193.44
-206.32
-215.64
-216.64
-205.37
-180.46
-143.99
-100.76
-56.68
-16.65
16.63
42.71
62.37
76.5
85.5
89.31
88.17
83.02
75.62
68.04
61.92
57.99
55.85
54.31
52.01
48.06
42.54
36.55
31.88
30.26
32.64
38.73
47.04
55.39
61.69
64.54
63.58
59.43
53.33
46.68
40.57
35.6
31.76
28.64
25.72
22.59
19.1
15.31
11.39
7.52
3.86
0.54
-2.31
-4.61
-6.38
-7.7
-8.76
-9.72
-10.67
-11.64
-12.67
-13.97
-15.93
-19.07
-23.76
-30.03
-37.34
-44.77
-51.34
-56.56
-60.76
-65.06
-70.94
-79.47
-90.84
-104.21
-118.09
-130.87
-141.42
-149.27
-154.74
-158.78
-162.93
-168.93
-178.07
-190.25
-203.23
-212.62
-213.09
-200.16
-172.06
-130.65
-80.8
-28.77
19.74
60.86
92.84
115.43
129.19
135.03
134.28
128.88
121.3
114.07
109.05
106.87
106.82
107.22
106.17
102.37
95.67
87.16
78.8
72.76
70.63
72.85
78.56
85.89
92.56
96.71
97.34
94.54
89.19
82.56
75.79
69.58
64.11
59.15
54.32
49.33
44.19
39.18
34.7
31.02
28.16
25.82
23.61
21.26
18.77
16.45
14.7
13.8
13.75
14.18
14.47
13.96
12.09
8.59
3.62
-2.25
-8.27
-13.65
-18.05
-21.63
-25.05
-29.19
-34.65
-41.45
-49.01
-56.45
-63.05
-68.74
-74.12
-80.29
-88.25
-98.45
-110.52
-123.41
-135.76
-146.32
-154.34
-159.65
-162.76
-164.8
-167.37
-172.02
-179.44
-188.62
-196.44
-198.34
-189.67
-167.61
-132.49
-87.86
-39.39
7.05
47.02
78.27
100.47
114.43
121.42
122.78
120.04
114.96
109.5
105.27
103.15
103
103.72
103.76
101.78
97.27
90.81
83.95
78.68
76.67
78.67
84.2
91.68
98.97
104.08
105.8
103.9
99.06
92.5
85.47
78.95
73.45
69.05
65.54
62.56
59.71
56.67
53.28
49.55
45.68
41.98
38.74
36.12
34.07
32.41
30.95
29.64
28.59
27.95
27.73
27.68
27.3
25.98
23.25
18.98
13.43
7.18
0.9
-4.86
-9.92
-14.42
-18.81
-23.58
-29.13
-35.52
-42.5
-49.54
-55.98
-61.26
-65.2
-68.12
-70.89
-74.75
-80.75
-89.26
-99.34
-108.63
-113.76
-111.33
-99.11
-76.98
-47.15
-13.58
19.26
47.54
69.01
83.09
90.44
92.23
89.58
83.27
73.94
62.38
49.76
37.54
27.17
19.5
14.57
11.66
9.81
8.39
7.53
8.03
10.87
16.52
24.44
33.14
40.61
45.08
45.6
42.33
36.28
28.91
21.59
15.22
10.2
6.43
3.57
1.23
-0.97
-3.38
-6.35
-10.16
-14.92
-20.41
-26.04
-31.04
-34.68
-36.71
-37.39
-37.53
-38.14
-39.98
-43.29
-47.71
-52.57
-57.22
-61.5
-65.79
-70.86
-77.45
-85.92
-95.98
-106.88
-117.62
-127.3
-135.38
-141.71
-146.57
-150.81
-155.63
-162.25
-171.13
-181.21
-189.59
-192.01
-184.28
-163.89
-131.21
-89.53
-43.94
0.34
39.37
70.95
94.44
110.04
118.41
120.54
118.03
112.98
107.71
104.12
103.08
104.2
106.05
106.75
104.77
99.54
91.8
83.39
76.64
73.49
74.76
79.7
86.35
92.16
95.07
94.15
89.86
83.63
77.12
71.48
66.95
62.97
58.58
53.03
46.2
38.64
31.38
25.36
21.1
18.48
16.91
15.64
14.14
12.35
10.6
9.42
9.2
9.93
11.16
12.11
11.95
10.15
6.73
2.09
-3
-7.88
-12.08
-15.56
-18.66
-21.89
-25.77
-30.54
-36.07
-41.84
-47.2
-51.68
-55.33
-58.73
-62.83
-68.56
-76.32
-85.88
-96.35
-106.51
-115.27
-121.99
-126.67
-129.97
-133.11
-137.54
-144.44
-153.92
-164.48
-172.92
-174.99
-166.8
-146.32
-114.28
-74.12
-30.85
10.55
46.35
74.58
94.8
107.44
113.42
113.98
110.73
105.61
100.58
97.09
95.7
95.93
96.52
96
93.3
88.17
81.39
74.48
69.22
66.98
68.23
72.23
77.34
81.61
83.51
82.39
78.59
73.07
66.92
60.98
55.56
50.57
45.76
40.97
36.29
32.04
28.61
26.2
24.65
23.47
22.02
19.81
16.72
13.12
9.77
7.5
6.91
8.06
10.3
12.49
13.28
11.61
7.16
0.49
-7.15
-14.21
-19.51
-22.63
-24.03
-24.81
-26.28
-29.44
-34.67
-41.62
-49.35
-56.7
-62.78
-67.29
-70.61
-73.61
-77.23
-82.05
-88.13
-95.03
-102.13
-108.85
-114.84
-120
-124.39
-128.31
-132.3
-137.08
-143.18
-150.32
-156.93
-160.09
-156.28
-142.68
-118.44
-85.27
-47.01
-8.36
26.53
55.09
76.49
91.13
99.94
103.96
104.25
101.98
98.53
95.18
92.84
91.68
91.19
90.42
88.48
85.06
80.6
76.25
73.46
73.34
76.2
81.27
86.97
91.39
93.06
91.42
86.94
80.81
74.37
68.64
63.99
60.23
56.82
53.25
49.23
44.84
40.36
36.15
32.39
29.07
26.06
23.23
20.6
18.3
16.51
15.28
14.43
13.63
12.5
10.85
8.7
6.23
3.7
1.2
-1.27
-3.85
-6.65
-9.67
-12.85
-16.16
-19.68
-23.71
-28.56
-34.36
-40.9
-47.63
-53.84
-58.82
-61.94
-62.59
-60.03
-53.42
-42.12
-26.02
-5.97
16.33
38.66
58.9
75.53
87.84
95.69
99.17
98.39
93.36
84.29
71.81
57.14
41.9
27.69
15.61
5.99
-1.45
-7.18
-11.34
-13.52
-13.01
-9.35
-2.93
4.81
11.7
15.55
14.83
9.17
-0.55
-12.3
-23.37
-30.94
-32.95
-28.76
-19.54
-8
2.64
9.76
12.28
10.83
7.04
2.59
-1.58
-5.53
-9.86
-15.07
-21.14
-27.51
-33.42
-38.41
-42.59
-46.64
-51.56
-58.18
-66.79
-76.98
-87.88
-98.45
-107.96
-116.08
-122.92
-128.72
-133.88
-138.87
-144.41
-151.19
-159.36
-167.91
-174.31
-175.01
-166.65
-147.55
-118.64
-83.33
-46.3
-11.92
16.95
39.29
55.43
66.35
73.08
76.64
78.09
78.63
79.36
81.01
83.72
86.91
89.63
90.84
89.81
86.5
81.57
76.28
72.07
70.04
70.48
72.77
75.61
77.53
77.47
75.09
70.78
65.4
59.87
54.87
50.71
47.26
44.15
40.91
37.29
33.31
29.29
25.64
22.71
20.6
19.16
18.09
17.15
16.26
15.43
14.8
14.46
14.4
14.53
14.64
14.47
13.77
12.31
9.97
6.78
2.97
-1.02
-4.7
-7.72
-10.07
-12.06
-14.34
-17.49
-21.82
-27.13
-32.78
-37.97
-42.15
-45.3
-48
-51.18
-55.75
-62.12
-70.09
-78.95
-87.75
-95.67
-102.24
-107.4
-111.49
-115.15
-119.3
-124.93
-132.58
-141.76
-150.54
-155.66
-153.55
-141.59
-119.29
-88.75
-53.91
-19.19
11.85
37.23
56.47
69.93
78.35
82.57
83.64
82.86
81.69
81.34
82.35
84.51
86.96
88.59
88.4
85.84
81
74.76
68.57
64.1
62.63
64.49
68.83
73.87
77.58
78.47
76.16
71.3
65.23
59.3
54.34
50.46
47.24
44.06
40.53
36.62
32.68
29.18
26.44
24.49
23.07
21.86
20.62
19.42
18.52
18.25
18.78
20.01
21.54
22.76
23.11
22.19
20.02
16.95
13.6
10.59
8.3
6.71
5.43
3.93
1.8
-1.04
-4.3
-7.49
-10.14
-12.06
-13.47
-14.9
-17.01
-20.26
-24.71
-29.95
-35.26
-39.91
-43.55
-46.35
-49.04
-52.54
-57.64
-64.64
-73.27
-82.81
-92.29
-100.74
-107.45
-112.13
-115.12
-117.46
-120.75
-126.54
-135.48
-146.49
-156.64
-161.74
-157.83
-142.84
-117.49
-85.08
-50.31
-17.68
9.8
30.84
45.5
54.51
58.85
59.65
58.32
56.43
55.39
56.06
58.45
61.82
65.08
67.16
67.34
65.48
62.01
57.93
54.54
53.08
54.23
57.74
62.47
66.75
69
68.29
64.57
58.65
51.78
45.36
40.58
38.15
38.21
40.3
43.5
46.68
48.9
49.58
48.7
46.64
43.95
41.19
38.73
36.75
35.28
34.25
33.55
33.02
32.44
31.61
30.4
28.83
27.13
25.65
24.72
24.48
24.76
25.11
24.95
23.83
21.59
18.49
15.03
11.77
9.06
6.87
4.9
2.63
-0.33
-4.11
-8.48
-12.96
-17.02
-20.32
-22.94
-25.27
-27.96
-31.61
-36.52
-42.59
-49.35
-56.13
-62.26
-67.34
-71.27
-74.39
-77.45
-81.39
-86.98
-94.29
-102.3
-108.84
-111.13
-106.7
-94.36
-74.7
-49.94
-23.18
2.64
25.39
44.05
58.43
68.81
75.56
79.12
80.07
79.15
77.32
75.43
74.07
73.29
72.64
71.43
69
65.18
60.35
55.49
51.73
49.88
50.09
51.74
53.67
54.62
53.66
50.42
45.1
38.34
30.96
23.77
17.38
12.11
7.95
4.6
1.66
-1.15
-3.92
-6.49
-8.64
-10.28
-11.49
-12.53
-13.67
-15.06
-16.62
-18.12
-19.29
-19.97
-20.23
-20.38
-20.97
-22.59
-25.72
-30.59
-36.96
-44.13
-51.14
-57.1
-61.54
-64.7
-67.44
-70.91
-76.02
-83.08
-91.62
-100.65
-109.06
-116.01
-121.15
-124.69
-127.33
-130.13
-134.27
-140.71
-149.5
-159.26
-167.07
-169.08
-161.91
-143.95
-116.19
-82.01
-45.96
-12.19
16.57
39.29
56.13
67.74
74.82
78.17
78.84
78.24
77.82
78.58
80.67
83.46
85.8
86.53
84.96
81.1
75.7
70.06
65.69
63.83
65.05
68.93
74.19
79.1
82.06
82.17
79.43
74.61
68.84
63.19
58.32
54.37
51.08
47.96
44.61
40.91
37
33.25
29.92
27.08
24.6
22.29
20.11
18.23
16.94
16.45
16.66
17.18
17.44
16.89
15.25
12.54
9.02
5.13
1.2
-2.56
-6.17
-9.87
-14
-18.82
-24.37
-30.35
-36.22
-41.43
-45.71
-49.32
-53.02
-57.78
-64.37
-72.93
-82.95
-93.37
-103.1
-111.35
-117.85
-122.86
-127.05
-131.42
-137.06
-144.77
-154.54
-165.06
-173.51
-176.26
-169.96
-152.93
-125.93
-92.08
-55.76
-21.19
8.58
32.1
49.15
60.21
66.05
67.7
66.52
64.2
62.46
62.59
65.12
69.62
74.95
79.65
82.49
82.89
81.11
78.25
75.81
75.16
76.95
80.89
85.81
90.11
92.48
92.21
89.44
84.91
79.59
74.29
69.5
65.32
61.59
58.06
54.56
51.09
47.77
44.77
42.23
40.11
38.24
36.35
34.24
31.9
29.45
27.14
25.14
23.52
22.08
20.48
18.34
15.45
11.83
7.78
3.72
0
-3.29
-6.45
-10.02
-14.53
-20.32
-27.35
-35.27
-43.54
-51.61
-59.01
-65.4
-70.61
-74.82
-78.57
-82.75
-88.21
-95.15
-102.69
-108.69
-110.31
-104.95
-91.24
-69.73
-42.71
-13.47
14.74
39.55
59.83
75.5
87.04
95.08
100.12
102.6
103
101.91
99.98
97.7
95.28
92.62
89.5
85.78
81.57
77.29
73.47
70.5
68.45
66.92
65.2
62.53
58.38
52.69
45.88
38.65
31.73
25.52
19.94
14.51
8.64
1.95
-5.46
-13.01
-19.88
-25.48
-29.69
-33.01
-36.29
-40.28
-45.23
-50.75
-56.01
-60.22
-63.04
-64.91
-66.84
-70.07
-75.54
-83.46
-93.34
-104.08
-114.47
-123.46
-130.48
-135.54
-139.23
-142.74
-147.54
-154.85
-164.81
-175.88
-184.67
-186.87
-178.75
-158.81
-128.52
-91.96
-54.27
-19.83
8.82
31.14
47.77
59.61
67.31
71.33
72.39
71.74
70.97
71.52
74.06
78.29
82.97
86.47
87.35
85
79.88
73.49
67.8
64.57
64.69
67.81
72.5
76.82
79.13
78.58
75.32
70.24
64.49
59.02
54.26
50.14
46.28
42.31
38.12
33.87
29.82
26.15
22.78
19.44
15.88
12.08
8.29
4.93
2.32
0.67
-0.22
-0.73
-1.46
-3.02
-5.91
-10.33
-16.01
-22.32
-28.41
-33.65
-37.91
-41.76
-46.21
-52.31
-60.6
-70.85
-82.13
-93.18
-102.86
-110.48
-115.97
-119.89
-123.25
-127.36
-133.37
-141.71
-151.47
-160.26
-164.52
-160.64
-146.3
-121.43
-88.45
-51.42
-14.75
18.07
45.04
65.54
79.88
88.73
93.02
93.88
92.73
91.05
90.09
90.4
91.76
93.28
93.73
92.07
87.89
81.63
74.57
68.45
64.89
64.79
67.99
73.17
78.44
81.91
82.39
79.67
74.52
68.22
61.97
56.52
52
48.07
44.22
40.14
35.83
31.56
27.66
24.32
21.5
18.96
16.43
13.73
10.87
8
5.37
3.23
1.71
0.72
-0.1
-1.29
-3.45
-7.03
-12.11
-18.38
-25.17
-31.7
-37.35
-41.92
-45.72
-49.52
-54.25
-60.6
-68.76
-78.27
-88.24
-97.68
-105.76
-112.07
-116.66
-119.98
-122.91
-126.59
-131.98
-139.24
-147.13
-152.9
-152.97
-144.25
-125.51
-98.09
-65.5
-32.14
-1.82
23.22
42.39
56.14
65.32
70.72
73.14
73.6
73.29
73.38
74.57
76.82
79.4
81.23
81.34
79.31
75.45
70.72
66.47
63.95
63.93
66.41
70.52
74.92
78.18
79.35
78.14
74.99
70.72
66.25
62.19
58.76
55.83
53.08
50.25
47.22
44.1
41.05
38.25
35.72
33.35
30.99
28.51
25.9
23.31
21.01
19.2
17.97
17.19
16.59
15.79
14.44
12.34
9.55
6.32
3.06
0.12
-2.35
-4.54
-6.88
-9.92
-14.07
-19.47
-25.86
-32.71
-39.36
-45.26
-50.16
-54.17
-57.77
-61.67
-66.6
-72.94
-80.34
-87.53
-92.45
-92.74
-86.52
-73.13
-53.39
-29.48
-4.2
19.79
40.65
57.54
70.45
79.8
86.04
89.47
90.25
88.5
84.54
78.83
71.95
64.46
56.8
49.28
42.17
35.92
31.1
28.38
28.19
30.53
34.77
39.73
44.01
46.31
45.85
42.47
36.72
29.62
22.31
15.73
10.3
5.92
2.06
-1.86
-6.19
-10.9
-15.67
-20.06
-23.81
-27.02
-30.04
-33.29
-37.02
-41.12
-45.12
-48.49
-50.87
-52.36
-53.66
-55.87
-60.15
-67.26
-77.19
-89.12
-101.71
-113.54
-123.49
-131.02
-136.15
-139.46
-142
-145.1
-150.02
-157.25
-165.77
-172.82
-174.49
-167.02
-148.48
-119.71
-84.2
-46.81
-12
17.37
40.4
57.47
69.44
77.02
80.82
81.73
81.05
80.32
80.77
82.8
85.83
88.59
89.71
88.31
84.4
78.83
73
68.4
66.1
66.46
68.98
72.55
75.74
77.34
76.66
73.73
69.16
63.85
58.65
54.15
50.5
47.45
44.56
41.4
37.75
33.73
29.64
25.85
22.61
19.92
17.63
15.55
13.54
11.56
9.72
8.1
6.78
5.73
4.84
3.87
2.47
0.28
-3.04
-7.62
-13.35
-19.76
-26.25
-32.19
-37.23
-41.48
-45.5
-50.17
-56.28
-64.16
-73.54
-83.58
-93.17
-101.34
-107.52
-111.71
-114.47
-116.84
-120.16
-125.6
-133.55
-142.96
-151.18
-154.5
-149.42
-134.06
-108.99
-77.16
-42.81
-9.98
18.48
41.29
58.3
69.95
76.86
79.81
79.89
78.5
77.06
76.57
77.3
78.74
79.89
79.68
77.43
73.14
67.55
61.92
57.62
55.77
56.7
59.92
64.17
67.9
69.77
69.08
65.92
61.03
55.45
50.07
45.43
41.61
38.37
35.35
32.29
29.1
25.88
22.78
19.94
17.45
15.34
13.64
12.36
11.53
11.13
11.12
11.41
11.79
12.02
11.83
11
9.49
7.43
5
2.4
-0.38
-3.46
-7
-10.98
-15.13
-18.93
-21.88
-23.76
-24.87
-25.97
-28.02
-31.73
-37.29
-44.22
-51.59
-58.3
-63.52
-66.97
-69.03
-70.69
-73.3
-78.09
-85.6
-95.23
-105.04
-112.09
-113.24
-106.19
-90.32
-66.99
-39.12
-10.33
16.1
37.91
54.14
64.96
71.24
74.13
74.67
73.72
71.92
69.7
67.4
65.24
63.35
61.79
60.56
59.73
59.59
60.6
63.3
68.04
74.68
82.43
90
95.95
99.23
99.53
97.33
93.68
89.72
86.25
83.48
81.11
78.54
75.19
70.65
64.79
57.75
49.87
41.58
33.4
25.77
18.9
12.74
6.94
1.01
-5.52
-12.78
-20.54
-28.27
-35.29
-41.18
-45.94
-50.12
-54.67
-60.6
-68.6
-78.77
-90.54
-102.85
-114.52
-124.52
-132.3
-137.87
-141.81
-145.25
-149.7
-156.57
-166.39
-178.11
-188.76
-194.05
-189.76
-173.39
-145.43
-109.3
-70.16
-32.99
-1.15
24.13
43.19
56.94
66.08
71
72.18
70.59
67.78
65.46
64.82
66.13
68.54
70.56
70.69
68.13
63.16
57.14
52.1
49.91
51.59
56.79
63.92
70.67
74.98
75.69
72.87
67.66
61.57
55.95
51.46
48.05
45.17
42.19
38.75
34.86
30.81
26.97
23.61
20.73
18.15
15.6
12.96
10.29
7.78
5.71
4.18
3.19
2.48
1.68
0.39
-1.75
-4.99
-9.48
-15.09
-21.53
-28.25
-34.7
-40.54
-45.9
-51.33
-57.61
-65.32
-74.52
-84.71
-94.98
-104.42
-112.44
-118.87
-123.93
-128.25
-132.72
-138.38
-146.05
-155.64
-165.65
-173.03
-173.81
-164.41
-143.04
-110.53
-70.24
-26.99
14.4
50.19
78.24
97.87
109.46
114.08
113.35
109.28
104.02
99.43
96.61
95.59
95.44
94.66
91.88
86.48
78.93
70.66
63.66
59.77
59.95
63.96
70.34
76.92
81.56
82.73
79.98
73.84
65.56
56.57
48
40.48
34
28.22
22.66
17.09
11.58
6.42
1.92
-1.8
-4.88
-7.65
-10.34
-12.94
-15.14
-16.45
-16.58
-15.62
-14.18
-13.18
-13.61
-16.05
-20.55
-26.56
-33.22
-39.61
-45.12
-49.69
-53.69
-57.81
-62.72
-68.74
-75.78
-83.33
-90.71
-97.3
-102.69
-106.7
-109.47
-111.54
-113.92
-117.86
-124.26
-132.9
-141.77
-147.3
-145.43
-133.2
-110.06
-78.12
-41.29
-3.71
31.55
62.85
89.52
111.1
126.94
136.42
139.64
137.71
132.64
126.53
120.73
115.49
110.15
103.85
96.24
87.92
80.15
74.48
72.04
73.14
77.14
82.67
88.12
92.07
93.7
92.84
89.9
85.55
80.53
75.39
70.45
65.76
61.2
56.67
52.11
47.68
43.65
40.21
37.38
34.95
32.59
30.11
27.63
25.62
24.58
24.68
25.42
25.75
24.43
20.64
14.27
5.91
-3.57
-13.5
-23.72
-34.57
-46.59
-60.29
-75.99
-93.76
-113.17
-132.99
-150.88
-163.49
-167.29
-159.72
-140.43
-111.6
-77.38
-42.47
-10.7
15.82
36.63
52.21
63.17
69.79
72.07
70.13
64.57
56.49
47.26
38.16
29.95
22.88
16.75
11.36
6.88
3.96
3.57
6.43
12.53
20.76
29.14
35.51
38.32
37.11
32.61
26.18
19.22
12.6
6.55
0.86
-4.7
-10.16
-15.19
-19.4
-22.6
-25.03
-27.35
-30.4
-34.79
-40.56
-47.13
-53.41
-58.3
-61.14
-62.08
-62.24
-63.43
-67.52
-75.75
-88.18
-103.6
-119.94
-134.98
-147.05
-155.49
-160.69
-163.96
-167.12
-171.97
-179.48
-189.08
-198.19
-202.63
-197.8
-180.45
-150.09
-109.38
-63.19
-16.93
25.14
60.49
88.19
108.14
120.55
125.92
125.36
120.82
114.74
109.42
106.2
105.12
105.04
104.35
101.64
96.41
89.16
81.26
74.48
70.31
69.51
71.76
75.8
79.84
82.27
82.13
79.39
74.81
69.47
64.29
59.72
55.62
51.54
47.07
42.13
37.03
32.31
28.37
25.3
22.83
20.5
17.91
14.98
12.03
9.55
8.07
7.81
8.56
9.7
10.43
10.02
8.15
4.97
1.02
-3.12
-7.11
-11.04
-15.35
-20.54
-26.81
-33.86
-41.01
-47.43
-52.56
-56.43
-59.71
-63.48
-68.88
-76.62
-86.66
-98.24
-110.02
-120.54
-128.65
-133.91
-136.71
-138.34
-140.69
-145.71
-154.56
-166.69
-179.35
-187.93
-187.16
-173.06
-144.53
-104.04
-56.85
-9.28
33.23
67.35
92.07
108.04
116.72
119.69
118.61
115.17
111.06
107.66
105.68
104.96
104.57
103.25
99.88
94.13
86.61
78.77
72.52
69.48
70.35
74.57
80.38
85.54
88.13
87.27
83.28
77.32
70.81
64.75
59.52
54.9
50.45
45.77
40.79
35.72
30.97
26.91
23.72
21.4
19.71
18.39
17.17
15.89
14.47
12.92
11.32
9.8
8.52
7.55
6.85
6.11
4.85
2.49
-1.43
-7.03
-14.06
-21.87
-29.66
-36.6
-42.12
-46.08
-48.89
-51.51
-55.15
-60.93
-69.37
-80.19
-92.38
-104.59
-115.57
-124.62
-131.6
-136.89
-141.21
-145.5
-150.81
-157.87
-166.57
-175.37
-181.2
-180.13
-168.74
-145.57
-112.02
-72.02
-30.75
7.02
38.2
61.71
77.96
88.04
93.06
94.04
92.08
88.49
84.8
82.3
81.68
82.7
84.35
85.27
84.37
81.41
77.09
72.87
70.33
70.5
73.43
78.15
83.06
86.59
87.77
86.4
82.99
78.34
73.21
68.13
63.4
59.17
55.53
52.48
49.88
47.44
44.76
41.53
37.65
33.31
28.94
25.05
21.97
19.8
18.34
17.18
15.84
13.97
11.46
8.49
5.43
2.73
0.62
-0.98
-2.55
-4.78
-8.29
-13.31
-19.58
-26.4
-32.87
-38.17
-41.87
-44.03
-45.22
-46.49
-49.06
-53.95
-61.44
-70.61
-79.2
-84.1
-82.28
-71.89
-52.97
-27.51
1.29
30.1
56.29
78.44
96.17
109.72
119.42
125.42
127.74
126.5
122.13
115.45
107.52
99.26
91.27
83.68
76.39
69.37
62.92
57.62
54.02
52.19
51.53
50.89
49.08
45.42
39.96
33.31
26.29
19.48
13.07
6.93
0.79
-5.45
-11.64
-17.46
-22.57
-26.82
-30.39
-33.81
-37.71
-42.62
-48.66
-55.38
-61.88
-67.13
-70.41
-71.76
-72.09
-72.86
-75.6
-81.21
-89.65
-99.94
-110.59
-120.2
-127.94
-133.68
-137.92
-141.65
-146.09
-152.3
-160.69
-170.37
-178.8
-182.19
-176.62
-159.65
-131.6
-95.66
-56.8
-19.96
11.48
36.25
54.71
67.85
76.49
81.09
82.14
80.49
77.46
74.49
72.66
72.34
73.09
73.95
73.82
71.96
68.32
63.63
59.23
56.55
56.55
59.25
63.75
68.49
71.94
73.16
71.99
68.98
64.86
60.26
55.4
50.29
44.85
39.21
33.71
28.79
24.83
21.92
19.85
18.27
16.78
15.17
13.43
11.74
10.37
9.56
9.44
9.96
10.85
11.72
12.15
11.93
11.02
9.56
7.76
5.73
3.4
0.62
-2.67
-6.3
-9.87
-12.88
-15.05
-16.52
-17.87
-19.88
-23.19
-27.97
-33.82
-39.93
-45.45
-49.86
-53.21
-56.11
-59.55
-64.47
-71.44
-80.42
-90.75
-101.39
-111.23
-119.37
-125.35
-129.22
-131.66
-134.02
-138.01
-145.07
-155.4
-167.16
-176.38
-178.03
-167.88
-144.27
-109.08
-67.09
-24.22
14.47
46.04
69.71
86.11
96.3
101.31
102.21
100.38
97.53
95.29
94.68
95.67
97.31
98.16
96.92
92.98
86.68
79.24
72.39
67.85
66.7
68.93
73.42
78.32
81.76
82.55
80.49
76.25
70.96
65.62
60.78
56.51
52.54
48.57
44.46
40.29
36.36
33.05
30.62
29.04
28.02
27.09
25.84
24.15
22.24
20.61
19.76
19.94
21.02
22.52
23.7
23.93
22.81
20.33
16.85
12.93
9.18
6.02
3.62
1.82
0.28
-1.37
-3.36
-5.74
-8.36
-11
-13.58
-16.13
-18.95
-22.35
-26.51
-31.34
-36.42
-41.2
-45.24
-48.51
-51.48
-55.01
-59.99
-66.93
-75.7
-85.56
-95.42
-104.22
-111.27
-116.41
-120
-122.88
-126.28
-131.47
-139.32
-149.62
-160.53
-168.69
-169.99
-161
-140.28
-109.17
-71.42
-31.92
4.74
35.41
58.72
74.67
84.1
88.22
88.38
86.1
82.95
80.32
79.07
79.33
80.54
81.65
81.56
79.58
75.69
70.7
66.02
63.17
63.23
66.32
71.54
77.22
81.6
83.35
82.04
78.06
72.34
65.95
59.72
54.1
49.18
44.9
41.14
37.88
35.17
33.03
31.34
29.83
28.12
25.93
23.27
20.42
17.89
16.19
15.54
15.82
16.51
16.93
16.41
14.6
11.53
7.55
3.24
-0.9
-4.61
-8
-11.41
-15.24
-19.66
-24.5
-29.36
-33.83
-37.82
-41.62
-45.87
-51.23
-58
-65.96
-74.4
-82.49
-89.58
-95.47
-100.34
-104.63
-108.9
-113.69
-119.59
-126.94
-135.5
-143.93
-149.78
-149.9
-141.58
-123.67
-97.29
-65.54
-32.53
-2.01
23.55
43.13
56.87
65.42
69.59
70.24
68.35
65.12
61.79
59.35
58.28
58.35
58.77
58.5
56.78
53.51
49.45
46.02
44.65
46.26
50.62
56.45
61.85
65.06
65.11
62.05
56.78
50.57
44.58
39.45
35.32
32.01
29.21
26.68
24.38
22.31
20.43
18.6
16.56
14.14
11.35
8.43
5.84
4.02
3.2
3.25
3.73
4
3.53
2
-0.51
-3.65
-6.95
-10.04
-12.84
-15.55
-18.57
-22.26
-26.78
-32.04
-37.72
-43.35
-48.52
-52.9
-56.38
-59.12
-61.62
-64.57
-68.64
-74.01
-79.96
-84.73
-85.99
-81.57
-70.35
-52.79
-30.79
-7.11
15.59
35.27
50.88
62.2
69.47
73.2
73.97
72.45
69.39
65.58
61.73
58.24
55.21
52.44
49.61
46.5
43.28
40.48
38.87
39.11
41.39
45.26
49.68
53.42
55.42
55.15
52.75
48.88
44.49
40.45
37.38
35.4
34.29
33.53
32.6
31.24
29.46
27.58
26.03
25.12
24.87
25.01
25.11
24.77
23.89
22.64
21.41
20.56
20.19
20.1
19.77
18.51
15.61
10.59
3.21
-6.17
-16.55
-26.24
-33.13
-35.3
-31.6
-22.18
-8.39
7.58
23.51
37.65
49.05
57.35
62.36
63.96
62.1
57.17
49.93
41.44
32.6
23.9
15.63
8.1
1.84
-2.59
-5
-5.73
-5.42
-4.37
-2.29
1.62
7.75
15.46
22.9
27.75
28.38
24.73
18.29
11.17
5.08
0.63
-2.45
-4.79
-6.8
-8.51
-9.81
-10.74
-11.7
-13.21
-15.8
-19.65
-24.58
-30
-35.08
-38.92
-40.85
-40.73
-39.06
-36.91
-35.65
-36.43
-39.77
-45.38
-52.21
-58.88
-64.27
-67.91
-70.25
-72.43
-75.79
-81.27
-88.94
-98.13
-107.65
-116.42
-123.84
-129.88
-134.88
-139.39
-144.09
-149.63
-156.46
-164.25
-171.28
-174.42
-169.94
-155.04
-129.43
-95.83
-59.14
-24.55
4.36
26.5
42.75
54.66
63.28
68.87
71.39
71.32
69.83
68.48
68.39
69.72
71.7
73.02
72.5
69.48
64.14
57.43
50.8
45.8
43.58
44.49
47.91
52.47
56.58
59.03
59.36
57.83
55.2
52.25
49.55
47.33
45.46
43.71
41.84
39.72
37.3
34.69
32.02
29.47
27.17
25.28
23.95
23.28
23.22
23.57
24
24.17
23.92
23.3
22.56
22.01
21.83
21.99
22.18
21.97
20.92
18.81
15.77
12.27
8.95
6.36
4.75
3.91
3.25
2.08
-0.09
-3.37
-7.5
-12.04
-16.63
-21.07
-25.41
-29.74
-34.12
-38.51
-42.87
-47.36
-52.33
-58.21
-65.19
-73.08
-81.25
-88.93
-95.69
-101.54
-106.95
-112.24
-117.21
-121.12
-123.2
-123.41
-122.83
-123.16
-125.37
-128.68
-130.25
-126.37
-114.18
-93.2
-65.6
-35.15
-5.63
20.39
41.76
58.12
69.17
74.47
73.87
68.22
59.62
50.99
45.06
43.41
45.98
51.26
57.05
61.44
63.47
63.45
62.63
62.56
64.32
68.08
73.02
77.77
80.94
81.69
79.9
76.1
71.2
66.11
61.45
57.47
54.06
50.92
47.78
44.49
41.11
37.82
34.83
32.26
30.15
28.39
26.94
25.77
24.97
24.66
24.87
25.51
26.32
26.96
27.13
26.73
25.87
24.8
23.78
22.93
22.26
21.64
20.94
20.1
19.07
17.8
16.28
14.56
12.85
11.53
10.94
11.12
11.71
11.9
10.83
7.93
3.19
-2.85
-9.4
-15.78
-21.7
-27.23
-32.8
-38.97
-46.43
-55.86
-67.6
-81.22
-95
-106.09
-111.15
-107.62
-94.78
-74.19
-49.09
-23.24
0.35
19.99
35.19
46.07
52.73
55.09
53.16
47.36
38.78
29.08
20.08
13.22
9.26
7.96
8.38
9.25
9.6
9.25
8.99
10.18
14.03
20.88
29.88
39.18
46.71
50.86
51.02
47.64
41.86
34.99
28.12
21.9
16.53
11.99
8.16
4.97
2.29
-0.06
-2.38
-5.12
-8.63
-13.09
-18.29
-23.68
-28.49
-32.01
-33.89
-34.23
-33.65
-33.02
-33.27
-35.06
-38.69
-44.01
-50.45
-57.2
-63.37
-68.35
-72.06
-75.16
-78.82
-84.34
-92.51
-103.18
-115.27
-127.18
-137.48
-145.44
-151.2
-155.55
-159.61
-164.56
-171.33
-180.27
-190.56
-199.81
-204.18
-199.52
-182.94
-154.29
-116.54
-74.79
-34.45
0.65
28.83
50.25
65.73
75.98
81.5
83.06
82.11
80.6
80.31
82.08
85.52
89.31
91.85
91.98
89.3
84.29
78.08
72.23
68.35
67.71
70.75
76.87
84.5
91.55
96.25
97.61
95.73
91.47
86.04
80.48
75.38
70.88
66.89
63.34
60.29
57.91
56.32
55.41
54.74
53.7
51.74
48.67
44.84
41.06
38.31
37.34
38.32
40.72
43.49
45.42
45.58
43.62
39.81
34.95
30.06
25.96
23.05
21.18
19.74
17.92
15.08
10.98
5.9
0.45
-4.72
-9.25
-13.21
-17.08
-21.47
-26.83
-33.21
-40.21
-47.14
-53.38
-58.73
-63.68
-69.25
-76.59
-86.42
-98.65
-112.32
-125.93
-138.02
-147.6
-154.48
-159.34
-163.61
-169.13
-177.56
-189.51
-203.59
-216.2
-222.16
-216.33
-195.74
-160.92
-115.93
-66.87
-19.75
21.28
54.4
79.51
97.22
108.1
112.71
112.07
107.93
102.58
98.12
95.8
95.66
96.7
97.43
96.47
93.06
87.23
79.93
72.79
67.75
66.41
69.49
76.42
85.47
94.23
100.41
102.56
100.23
94.06
85.3
75.42
65.77
57.37
50.88
46.46
43.89
42.42
40.95
38.25
33.41
26.25
17.52
8.76
1.71
-2.35
-3.17
-1.61
0.75
2.34
2.23
0.43
-2.29
-4.94
-6.83
-7.91
-8.71
-10
-12.37
-15.96
-20.52
-25.61
-30.93
-36.49
-42.61
-49.62
-57.6
-66.23
-74.89
-82.96
-90.17
-96.84
-103.84
-112.25
-122.99
-136.5
-152.58
-170.4
-188.69
-205.91
-220.67
-232.23
-240.95
-248.53
-257.65
-270.88
-289.12
-310.7
-331.32
-345.1
-346.79
-333.66
-306.78
-270.72
-232.19
-197.91
-172.83
-158.95
-155.09
-157.59
-161.51
-162.11
-156.08
-142.24
-121.39
-95.65
-67.4
-38.6
-10.58
15.78
39.68
60.28
76.91
89.48
98.64
105.85
112.82
120.9
130.95
143.43
158.66
176.96
198.28
221.55
244.27
262.84
273.49
273.65
263
243.47
218.48
191.75
166.31
144.29
127.05
115.57
110.41
111.44
117.61
127
137.33
146.69
153.98
159.02
162.43
165.37
169.13
174.68
182.27
191.11
199.44
205.07
206.26
202.48
194.69
184.84
174.83
165.74
157.47
149.12
139.77
129.06
117.34
105.28
93.32
81.36
68.77
54.78
38.89
21.17
2.31
-16.52
-33.97
-48.69
-59.48
-65.37
-65.66
-60.06
-48.86
-33.08
-14.44
4.93
22.98
38.1
49.49
57.14
61.57
63.65
64.22
64.04
63.58
63.05
62.43
61.59
60.46
59.21
58.2
57.82
58.33
59.63
61.41
63.29
64.98
66.41
67.58
68.45
68.87
68.57
67.26
64.82
61.31
56.96
52.07
46.9
41.66
36.46
31.37
26.5
21.93
17.79
14.19
11.14
8.56
6.25
3.96
1.52
-1.17
-4.09
-7.12
-10.15
-13.08
-15.87
-18.49
-20.95
-23.21
-25.26
-27.14
-28.95
-30.84
-32.89
-35.1
-37.41
-39.72
-41.98
-44.27
-46.69
-49.32
-52.17
-55.11
-57.97
-60.65
-63.16
-65.65
-68.37
-71.52
-75.22
-79.41
-83.76
-87.67
-90.3
-90.7
-88.1
-82.12
-72.96
-61.39
-48.53
-35.53
-23.33
-12.56
-3.5
3.73
9.15
12.84
15.01
15.94
16.03
15.68
15.24
14.99
15.18
15.94
17.36
19.41
21.96
24.75
27.53
30.04
32.04
33.38
33.92
33.63
32.62
31.13
29.52
28.12
27.15
26.66
26.51
26.47
26.35
26.09
25.77
25.62
25.92
26.92
28.8
31.65
35.41
39.96
45.14
50.74
56.51
62.13
67.22
71.4
74.49
76.53
77.88
79.03
80.44
82.42
85.04
88.26
92.07
96.6
102.01
108.37
115.44
122.65
129.28
134.65
138.21
139.57
138.36
134.26
127.1
117.11
105.05
92.08
79.27
67.1
55.1
42.12
26.81
8.28
-13.47
-37.69
-63.26
-89.15
-114.59
-138.98
