1626261930.00
64.000000
-0.00
-0.00
-0.00
-0.00
-0.00
-0.00
-0.00
-0.00
-0.00
-0.00
0.00
0.01
0.01
-0.00
-0.03
-0.05
-0.05
0.00
0.13
0.36
0.66
1.01
1.37
1.72
2.06
2.40
2.79
3.24
3.80
4.42
5.06
5.66
6.20
6.68
7.15
7.68
8.31
9.14
10.09
11.04
11.88
12.56
13.14
13.76
14.65
15.96
17.91
20.32
22.90
25.38
27.58
29.57
31.68
34.32
37.81
42.54
48.15
54.10
59.83
64.97
69.58
74.14
79.35
85.71
93.76
103.00
112.62
121.72
129.76
136.75
143.32
150.78
157.82
166.67
177.92
191.66
206.70
220.17
227.75
224.81
207.97
176.32
132.22
79.47
22.40
-35.73
-93.35
-150.15
-206.25
-261.36
-314.69
-364.83
-410.91
-452.22
-488.12
-517.66
-539.35
-551.39
-552.04
-540.35
-516.23
-481.03
-436.89
-386.32
-331.74
-275.17
-218.18
-162.09
-108.18
-57.66
-11.81
28.40
62.54
90.75
113.62
131.95
146.37
157.17
164.39
167.89
167.82
164.72
159.49
153.14
146.48
139.92
133.35
126.42
118.62
109.49
98.73
86.38
73.21
60.95
52.08
49.09
53.29
63.95
78.35
92.65
103.34
108.41
107.82
102.91
95.52
87.26
78.90
70.73
63.00
56.06
50.26
45.72
42.22
39.23
36.19
32.58
28.27
23.52
18.84
14.82
11.87
10.02
8.96
8.17
7.16
5.76
4.07
2.33
0.86
-0.18
-0.79
-1.12
-1.41
-1.93
-2.80
-3.92
-4.85
-5.00
-3.90
-1.52
1.51
4.16
5.37
4.67
2.33
-0.74
-3.52
-5.37
-6.23
-6.47
-6.56
-6.73
-6.91
-6.84
-6.36
-5.47
-4.32
-3.08
-1.83
-0.60
0.65
1.89
3.01
3.85
4.27
4.17
3.46
2.13
0.27
-1.85
-3.83
-5.26
-5.83
-5.49
-4.45
-3.09
-1.78
-0.69
0.18
0.96
1.74
2.56
3.34
4.05
4.66
5.24
5.87
6.59
7.37
8.15
8.91
9.60
10.12
10.33
10.05
9.15
7.63
5.66
3.34
0.85
-1.71
-4.25
-6.67
-8.82
-10.54
-11.70
-12.30
-12.46
-12.39
-12.27
-12.16
-12.02
-11.74
-11.30
-10.80
-10.38
-10.20
-10.19
-10.14
-9.74
-8.72
-6.99
-4.64
-1.94
0.79
3.24
5.16
6.38
6.86
6.66
5.96
4.97
3.87
2.75
1.63
0.56
-0.38
-1.06
-1.35
-1.25
-0.86
-0.37
0.11
0.52
0.91
1.28
1.60
1.80
1.83
1.73
1.60
1.51
1.46
1.35
1.09
0.67
0.26
0.03
0.07
0.32
0.62
0.85
0.93
0.83
0.52
-0.03
-0.85
-1.91
-3.06
-4.10
-4.88
-5.43
-5.94
-6.62
-7.54
-8.61
-9.62
-10.41
-10.99
-11.47
-12.02
-12.76
-13.74
-14.96
-16.46
-18.23
-20.12
-21.84
-22.99
-23.18
-22.15
-19.82
-16.29
-11.74
-6.45
-0.77
4.86
10.01
14.34
17.64
19.89
21.15
21.52
21.11
20.11
18.84
17.71
17.08
17.08
17.54
18.11
18.40
18.20
17.52
16.55
15.56
14.77
14.34
14.33
14.61
14.92
14.90
14.27
12.92
11.03
8.97
7.30
6.57
7.23
9.43
12.80
16.30
18.39
17.47
12.57
3.89
-7.18
-18.51
-28.12
-34.89
-38.76
-40.46
-40.92
-40.67
-39.75
-37.85
-34.69
-30.23
-24.80
-18.97
-13.36
-8.53
-4.86
-2.52
-1.52
-1.70
-2.77
-4.32
-5.79
-6.54
-5.98
-3.74
0.20
5.47
11.47
17.46
22.72
26.66
28.94
29.51
28.68
26.99
25.12
23.62
22.76
22.48
22.53
22.65
22.69
22.63
22.53
22.42
22.35
22.37
22.55
22.88
23.17
23.07
22.24
20.53
18.16
15.55
13.14
11.14
9.47
7.86
6.03
3.84
1.35
-1.31
-3.97
-6.52
-8.95
-11.28
-13.57
-15.88
-18.23
-20.62
-23.02
-25.44
-27.90
-30.42
-32.99
-35.52
-37.91
-40.13
-42.25
-44.43
-46.67
-48.67
-49.77
-49.12
-46.02
-40.20
-31.93
-21.95
-11.25
-0.85
8.35
15.69
20.85
23.84
24.99
24.85
23.97
22.80
21.59
20.43
19.30
18.11
16.79
15.29
13.68
12.11
10.80
9.92
9.56
9.66
10.08
10.66
11.25
11.70
11.84
11.54
10.73
9.54
8.24
7.21
6.68
6.69
7.03
7.35
7.31
6.61
5.12
2.86
0.08
-2.73
-5.01
-6.29
-6.49
-5.96
-5.40
-5.54
-6.89
-9.50
-13.06
-17.07
-21.05
-24.70
-27.85
-30.41
-32.34
-33.62
-34.35
-34.75
-35.17
-35.91
-37.15
-38.80
-40.48
-41.69
-41.87
-40.65
-37.90
-33.72
-28.40
-22.29
-15.76
-9.12
-2.66
3.37
8.75
13.33
16.99
19.67
21.41
22.25
22.30
21.67
20.45
18.77
16.77
14.66
12.71
11.13
10.10
9.63
9.63
9.91
10.27
10.52
10.55
10.34
9.96
9.55
9.27
9.28
9.65
10.34
11.18
11.96
12.53
12.84
13.00
13.26
13.80
14.66
15.60
16.23
16.17
15.25
13.61
11.65
9.71
7.99
6.39
4.69
2.72
0.51
-1.75
-3.82
-5.53
-6.85
-7.83
-8.55
-9.11
-9.67
-10.41
-11.53
-13.12
-15.15
-17.50
-20.00
-22.47
-24.67
-26.26
-26.76
-25.71
-22.82
-18.15
-12.16
-5.49
1.12
7.12
12.16
16.01
18.56
19.73
19.58
18.40
16.67
14.90
13.52
12.66
12.21
11.93
11.63
11.28
10.98
10.85
10.88
10.94
10.86
10.59
10.23
9.98
10.00
10.29
10.63
10.74
10.40
9.61
8.58
7.65
7.07
6.91
7.01
7.09
6.89
6.31
5.43
4.47
3.64
3.05
2.65
2.31
1.86
1.24
0.46
-0.41
-1.36
-2.42
-3.63
-4.98
-6.42
-7.85
-9.28
-10.81
-12.61
-14.75
-17.14
-19.48
-21.37
-22.40
-22.32
-20.97
-18.28
-14.22
-8.92
-2.74
3.71
9.65
14.36
17.44
18.90
19.06
18.41
17.41
16.35
15.31
14.22
12.98
11.54
10.02
8.69
7.87
7.71
8.10
8.71
9.11
9.05
8.54
7.82
7.18
6.78
6.55
6.31
5.86
5.18
4.37
3.59
2.96
2.45
1.94
1.35
0.69
0.09
-0.32
-0.46
-0.40
-0.33
-0.47
-0.89
-1.54
-2.22
-2.80
-3.27
-3.75
-4.43
-5.35
-6.44
-7.49
-8.39
-9.22
-10.18
-11.51
-13.26
-15.28
-17.26
-18.96
-20.34
-21.65
-23.24
-25.35
-27.87
-30.33
-31.98
-32.11
-30.31
-26.58
-21.31
-15.13
-8.67
-2.51
2.92
7.32
10.55
12.60
13.65
13.97
13.85
13.46
12.90
12.13
11.15
9.98
8.75
7.58
6.59
5.83
5.37
5.24
5.44
5.95
6.64
7.37
8.04
8.60
9.07
9.51
9.94
10.35
10.70
10.94
11.02
10.94
10.70
10.35
9.91
9.42
8.87
8.22
7.44
6.52
5.49
4.43
3.42
2.46
1.50
0.49
-0.58
-1.63
-2.52
-3.16
-3.60
-3.99
-4.58
-5.59
-7.05
-8.87
-10.84
-12.73
-14.40
-15.84
-17.05
-18.13
-19.13
-20.15
-21.32
-22.80
-24.72
-27.11
-29.82
-32.43
-34.36
-34.91
-33.52
-29.95
-24.40
-17.46
-9.99
-2.85
3.30
8.10
11.47
13.53
14.55
14.81
14.59
14.15
13.63
13.10
12.54
11.94
11.32
10.77
10.42
10.39
10.70
11.27
12.01
12.78
13.50
14.12
14.55
14.73
14.62
14.23
13.60
12.84
12.04
11.26
10.50
9.76
8.99
8.19
7.34
6.41
5.40
4.31
3.14
1.94
0.75
-0.41
-1.52
-2.54
-3.41
-4.08
-4.60
-5.11
-5.87
-7.10
-8.86
-10.96
-13.11
-15.00
-16.50
-17.66
-18.59
-19.35
-19.94
-20.35
-20.73
-21.45
-22.93
-25.34
-28.39
-31.31
-33.13
-33.05
-30.76
-26.47
-20.74
-14.16
-7.25
-0.41
5.98
11.49
15.74
18.53
19.96
20.38
20.23
19.83
19.28
18.54
17.54
16.35
15.21
14.38
14.01
14.04
14.27
14.43
14.35
13.97
13.30
12.35
11.21
9.98
8.83
7.94
7.38
7.06
6.75
6.20
5.33
4.23
3.15
2.28
1.66
1.16
0.58
-0.19
-1.05
-1.82
-2.34
-2.64
-2.92
-3.45
-4.40
-5.78
-7.37
-8.94
-10.29
-11.34
-12.15
-12.85
-13.59
-14.49
-15.65
-17.08
-18.66
-20.09
-20.93
-20.75
-19.28
-16.47
-12.50
-7.66
-2.24
3.48
9.27
14.80
19.71
23.55
25.88
26.50
25.44
23.10
20.12
17.20
14.87
13.32
12.44
11.91
11.51
11.21
11.16
11.47
12.09
12.78
13.18
13.11
12.56
11.72
10.77
9.79
8.74
7.52
6.13
4.63
3.13
1.70
0.34
-1.03
-2.47
-4.01
-5.64
-7.26
-8.74
-9.94
-10.81
-11.49
-12.24
-13.35
-14.91
-16.75
-18.51
-19.84
-20.67
-21.26
-22.05
-23.41
-25.39
-27.64
-29.55
-30.38
-29.56
-26.74
-21.88
-15.28
-7.55
0.48
7.94
14.14
18.70
21.58
23.06
23.48
23.18
22.43
21.38
20.14
18.78
17.41
16.15
15.13
14.49
14.27
14.48
14.98
15.59
16.07
16.26
16.08
15.61
14.99
14.33
13.65
12.87
11.85
10.54
8.99
7.41
6.04
5.04
4.38
3.91
3.42
2.73
1.79
0.66
-0.51
-1.62
-2.60
-3.50
-4.42
-5.48
-6.76
-8.24
-9.85
-11.48
-13.05
-14.49
-15.79
-16.99
-18.17
-19.47
-21.07
-23.11
-25.61
-28.35
-30.83
-32.35
-32.22
-29.96
-25.50
-19.24
-11.92
-4.40
2.57
8.51
13.22
16.72
19.14
20.61
21.24
21.17
20.56
19.58
18.40
17.10
15.72
14.31
13.03
12.08
11.62
11.69
12.12
12.63
12.97
13.05
12.91
12.67
12.39
11.99
11.40
10.56
9.52
8.42
7.39
6.47
5.64
4.88
4.12
3.37
2.59
1.73
0.74
-0.36
-1.47
-2.45
-3.17
-3.71
-4.26
-5.10
-6.40
-8.11
-9.97
-11.64
-12.87
-13.58
-13.92
-14.20
-14.77
-15.98
-18.12
-21.31
-25.34
-29.67
-33.36
-35.37
-34.84
-31.38
-25.20
-17.00
-7.74
1.64
10.34
17.70
23.27
26.76
28.16
27.78
26.14
23.86
21.51
19.44
17.83
16.72
16.03
15.53
14.78
13.18
10.14
5.42
-0.65
-7.03
-12.30
-15.08
-14.63
-11.17
-5.73
0.20
5.32
8.97
11.16
12.37
13.17
13.91
14.65
15.32
15.88
16.41
16.82
16.60
14.71
9.89
1.23
-11.12
-25.74
-40.22
-52.01
-59.31
-61.67
-59.90
-55.60
-50.36
-45.34
-41.07
-37.63
-34.93
-32.72
-30.67
-28.28
-24.88
-19.84
-12.75
-3.68
6.78
17.61
27.60
35.64
41.04
43.71
44.07
42.93
41.02
38.85
36.51
33.82
30.58
26.78
22.72
18.92
15.85
13.80
12.76
12.46
12.57
12.78
12.90
12.85
12.63
12.23
11.61
10.71
9.47
7.87
5.98
3.93
1.87
-0.15
-2.11
-4.12
-6.26
-8.52
-10.82
-12.95
-14.75
-16.16
-17.19
-18.01
-18.76
-19.57
-20.52
-21.66
-23.06
-24.80
-26.93
-29.42
-32.03
-34.31
-35.68
-35.56
-33.60
-29.74
-24.27
-17.70
-10.60
-3.56
2.97
8.63
13.14
16.35
18.26
19.02
18.93
18.33
17.49
16.60
15.70
14.79
13.91
13.13
12.55
12.23
12.17
12.29
12.46
12.55
12.49
12.26
11.84
11.23
10.43
9.47
8.42
7.42
6.54
5.79
5.06
4.15
2.91
1.28
-0.65
-2.65
-4.48
-5.97
-7.07
-7.85
-8.43
-8.95
-9.55
-10.32
-11.31
-12.61
-14.27
-16.33
-18.83
-21.75
-24.94
-28.06
-30.56
-31.80
-31.21
-28.55
-23.98
-18.01
-11.30
-4.49
1.92
7.59
12.28
15.84
18.22
19.51
19.94
19.81
19.41
18.92
18.44
18.01
17.66
17.42
17.30
17.25
17.23
17.15
16.91
16.44
15.67
14.59
13.24
11.76
10.33
9.10
8.14
7.39
6.70
5.90
4.90
3.68
2.36
1.13
0.16
-0.47
-0.78
-0.93
-1.13
-1.54
-2.21
-3.12
-4.21
-5.48
-6.96
-8.70
-10.69
-12.85
-15.09
-17.37
-19.75
-22.31
-25.04
-27.70
-29.89
-31.08
-30.85
-28.96
-25.38
-20.23
-13.82
-6.60
0.83
7.77
13.56
17.78
20.33
21.42
21.39
20.63
19.44
18.03
16.53
15.03
13.58
12.24
11.09
10.22
9.71
9.54
9.56
9.61
9.51
9.21
8.79
8.36
7.98
7.60
7.12
6.45
5.56
4.50
3.30
2.04
0.79
-0.27
-0.87
-0.81
-0.05
1.16
2.38
3.12
3.02
2.03
0.32
-1.76
-3.92
-5.94
-7.72
-9.25
-10.58
-11.83
-13.14
-14.71
-16.60
-18.76
-20.90
-22.55
-23.20
-22.44
-20.09
-16.22
-11.08
-5.11
1.17
7.27
12.72
17.18
20.50
22.63
23.66
23.73
23.01
21.75
20.19
18.54
16.94
15.48
14.21
13.18
12.49
12.20
12.27
12.48
12.55
12.17
11.24
9.85
8.26
6.75
5.51
4.57
3.84
3.15
2.38
1.42
0.24
-1.15
-2.67
-4.28
-5.96
-7.72
-9.58
-11.49
-13.39
-15.20
-16.86
-18.35
-19.69
-20.89
-22.05
-23.33
-24.93
-27.03
-29.61
-32.38
-34.76
-36.04
-35.58
-33.10
-28.69
-22.77
-15.96
-8.92
-2.24
3.57
8.16
11.36
13.29
14.38
15.30
16.71
19.06
22.33
25.99
29.25
31.30
31.74
30.66
28.52
25.95
23.43
21.14
19.07
17.16
15.43
13.98
12.89
12.12
11.49
10.74
9.67
8.24
6.58
4.95
3.60
2.67
2.14
1.81
1.41
0.71
-0.38
-1.79
-3.31
-4.71
-5.86
-6.81
-7.72
-8.82
-10.28
-12.18
-14.46
-16.97
-19.48
-21.79
-23.72
-25.20
-26.36
-27.47
-28.87
-30.80
-33.19
-35.63
-37.45
-37.95
-36.63
-33.37
-28.37
-22.09
-15.03
-7.71
-0.61
5.84
11.25
15.42
18.29
20.02
20.84
21.01
20.73
20.14
19.37
18.55
17.80
17.16
16.62
16.15
15.73
15.37
15.08
14.84
14.60
14.29
13.90
13.42
12.91
12.41
11.88
11.26
10.48
9.54
8.50
7.48
6.54
5.70
4.83
3.81
2.54
1.07
-0.48
-1.88
-2.93
-3.55
-3.81
-3.88
-3.98
-4.31
-4.96
-5.95
-7.21
-8.65
-10.19
-11.79
-13.44
-15.08
-16.66
-18.13
-19.56
-21.10
-23.00
-25.39
-28.12
-30.71
-32.46
-32.65
-30.85
-27.07
-21.69
-15.31
-8.57
-1.97
4.07
9.27
13.42
16.42
18.29
19.19
19.37
19.09
18.54
17.82
17.00
16.12
15.24
14.43
13.73
13.17
12.73
12.42
12.24
12.18
12.14
12.00
11.60
10.90
9.96
8.97
8.13
7.48
6.90
6.22
5.27
4.05
2.69
1.33
0.02
-1.21
-2.34
-3.26
-3.80
-3.90
-3.67
-3.46
-3.64
-4.38
-5.54
-6.76
-7.73
-8.36
-8.85
-9.50
-10.48
-11.73
-13.00
-14.14
-15.21
-16.43
-18.01
-19.96
-21.91
-23.31
-23.52
-22.13
-18.99
-14.30
-8.46
-1.99
4.58
10.74
16.08
20.29
23.19
24.76
25.15
24.61
23.45
21.93
20.23
18.45
16.67
14.99
13.59
12.61
12.13
12.08
12.32
12.64
12.91
13.06
13.05
12.83
12.27
11.27
9.80
7.97
5.99
4.10
2.52
1.35
0.55
-0.02
-0.61
-1.45
-2.65
-4.22
-5.98
-7.71
-9.23
-10.54
-11.78
-13.16
-14.81
-16.66
-18.51
-20.09
-21.24
-21.95
-22.40
-22.86
-23.62
-24.97
-27.05
-29.83
-32.97
-35.89
-37.80
-37.97
-35.96
-31.75
-25.75
-18.58
-10.91
-3.34
3.69
9.89
15.09
19.27
22.49
24.81
26.23
26.71
26.23
24.90
23.01
20.95
19.05
17.47
16.25
15.35
14.81
14.71
15.13
16.00
17.10
18.10
18.71
18.75
18.19
17.09
15.56
13.76
11.89
10.20
8.89
8.04
7.55
7.21
6.82
6.22
5.39
4.39
3.30
2.17
0.91
-0.59
-2.39
-4.45
-6.57
-8.46
-9.94
-10.95
-11.71
-12.52
-13.63
-15.14
-16.93
-18.77
-20.44
-21.83
-22.97
-23.97
-25.02
-26.34
-28.16
-30.58
-33.50
-36.54
-39.04
-40.27
-39.65
-36.93
-32.23
-26.00
-18.83
-11.29
-3.87
3.00
8.96
13.73
17.12
19.10
19.77
19.40
18.29
16.76
15.08
13.42
11.88
10.50
9.28
8.19
7.20
6.24
5.28
4.32
3.39
2.56
1.91
1.48
1.32
1.40
1.73
2.36
3.35
4.80
6.73
9.11
11.78
14.51
17.06
19.24
20.93
22.05
22.51
22.24
21.22
19.53
17.41
15.13
12.88
10.77
8.73
6.70
4.65
2.61
0.63
-1.31
-3.30
-5.45
-7.77
-10.17
-12.45
-14.49
-16.27
-17.90
-19.57
-21.42
-23.48
-25.66
-27.72
-29.32
-30.03
-29.46
-27.36
-23.72
-18.78
-12.91
-6.55
-0.09
6.09
11.67
16.34
19.84
22.05
22.99
22.85
21.88
20.38
18.64
16.92
15.45
14.45
14.03
14.20
14.78
15.56
16.25
16.66
16.70
16.42
15.93
15.35
14.72
13.99
13.06
11.86
10.42
8.89
7.43
6.21
5.26
4.46
3.69
2.82
1.82
0.75
-0.28
-1.18
-1.93
-2.52
-3.03
-3.55
-4.16
-4.93
-5.89
-7.00
-8.18
-9.34
-10.39
-11.34
-12.26
-13.28
-14.48
-15.88
-17.40
-18.99
-20.59
-22.11
-23.35
-23.93
-23.35
-21.16
-17.20
-11.67
-5.11
1.76
8.27
13.97
18.62
22.15
24.54
25.77
25.86
24.94
23.25
21.17
19.10
17.35
16.06
15.19
14.55
13.97
13.30
12.54
11.76
11.03
10.36
9.73
9.06
8.30
7.41
6.41
5.33
4.19
3.04
1.89
0.70
-0.60
-2.08
-3.75
-5.52
-7.24
-8.76
-10.00
-11.06
-12.10
-13.29
-14.71
-16.30
-17.94
-19.51
-20.94
-22.23
-23.40
-24.53
-25.71
-27.14
-28.99
-31.32
-33.93
-36.31
-37.79
-37.69
-35.56
-31.31
-25.23
-17.88
-9.92
-2.05
5.16
11.34
16.31
20.05
22.64
24.19
24.81
24.59
23.70
22.37
20.89
19.53
18.44
17.63
17.06
16.67
16.46
16.42
16.47
16.45
16.17
15.48
14.42
13.16
11.92
10.85
9.95
9.10
8.16
7.05
5.81
4.56
3.40
2.32
1.26
0.09
-1.24
-2.70
-4.17
-5.59
-6.95
-8.31
-9.78
-11.36
-12.99
-14.54
-15.89
-17.01
-18.03
-19.14
-20.54
-22.41
-24.77
-27.51
-30.35
-32.83
-34.40
-34.51
-32.77
-29.07
-23.59
-16.78
-9.23
-1.53
5.82
12.40
17.87
21.99
24.62
25.78
25.72
24.85
23.65
22.50
21.56
20.78
20.01
19.13
18.20
17.38
16.91
16.84
17.04
17.24
17.23
16.89
16.31
15.62
14.92
14.18
13.25
12.06
10.63
9.15
7.82
6.77
5.96
5.19
4.24
2.97
1.44
-0.18
-1.68
-2.97
-4.09
-5.22
-6.54
-8.16
-10.00
-11.92
-13.76
-15.44
-16.97
-18.42
-19.80
-21.10
-22.35
-23.64
-25.14
-27.04
-29.40
-32.00
-34.37
-35.87
-35.93
-34.20
-30.65
-25.56
-19.37
-12.57
-5.65
0.99
6.99
12.03
15.90
18.46
19.76
19.95
19.35
18.27
17.03
15.87
14.96
14.38
14.17
14.34
14.83
15.56
16.33
16.96
17.29
17.26
16.92
16.36
15.68
14.91
14.08
13.19
12.29
11.42
10.62
9.85
9.02
8.05
6.87
5.53
4.13
2.80
1.56
0.35
-0.96
-2.50
-4.30
-6.33
-8.46
-10.56
-12.56
-14.41
-16.14
-17.86
-19.69
-21.78
-24.25
-27.09
-30.07
-32.75
-34.49
-34.68
-32.89
-29.05
-23.40
-16.44
-8.75
-0.90
6.55
13.10
18.31
21.92
23.88
24.39
23.82
22.60
21.11
19.60
18.23
17.06
16.10
15.38
14.87
14.52
14.27
14.05
13.78
13.43
13.00
12.49
11.93
11.38
10.84
10.29
9.64
8.80
7.73
6.44
5.04
3.67
2.39
1.17
-0.08
-1.47
-3.04
-4.75
-6.50
-8.22
-9.90
-11.51
-13.02
-14.39
-15.57
-16.62
-17.66
-18.83
-20.18
-21.66
-23.16
-24.64
-26.23
-28.12
-30.40
-32.86
-34.93
-35.87
-34.99
-31.98
-26.93
-20.30
-12.70
-4.80
2.83
9.72
15.53
20.05
23.25
25.20
26.03
25.95
25.16
23.92
22.53
21.26
20.32
19.73
19.40
19.18
18.96
18.73
18.53
18.39
18.24
18.00
17.57
16.93
16.12
15.23
14.31
13.37
12.40
11.37
10.29
9.15
7.96
6.73
5.48
4.25
3.07
1.95
0.83
-0.33
-1.57
-2.93
-4.37
-5.92
-7.61
-9.48
-11.53
-13.66
-15.70
-17.54
-19.12
-20.54
-21.92
-23.39
-25.04
-26.91
-29.05
-31.41
-33.79
-35.80
-36.86
-36.39
-33.99
-29.58
-23.47
-16.19
-8.34
-0.52
6.79
13.17
18.33
22.05
24.25
25.02
24.61
23.36
21.65
19.82
18.09
16.55
15.21
14.03
13.00
12.14
11.53
11.18
11.06
11.01
10.81
10.29
9.42
8.31
7.13
6.07
5.18
4.44
3.80
3.23
2.76
2.44
2.27
2.11
1.75
1.00
-0.22
-1.79
-3.51
-5.17
-6.70
-8.15
-9.62
-11.11
-12.53
-13.68
-14.42
-14.73
-14.80
-14.92
-15.39
-16.42
-17.99
-19.87
-21.70
-23.02
-23.39
-22.49
-20.16
-16.44
-11.56
-5.87
0.23
6.32
12.07
17.20
21.50
24.76
26.76
27.34
26.49
24.45
21.69
18.79
16.26
14.41
13.30
12.80
12.76
13.03
13.47
13.94
14.26
14.26
13.88
13.12
12.08
10.83
9.38
7.75
5.98
4.19
2.49
0.97
-0.39
-1.65
-2.83
-3.86
-4.65
-5.18
-5.63
-6.31
-7.52
-9.35
-11.64
-14.08
-16.37
-18.34
-20.03
-21.57
-23.07
-24.61
-26.26
-28.13
-30.36
-33.05
-36.04
-38.92
-40.98
-41.46
-39.74
-35.59
-29.21
-21.21
-12.43
-3.73
4.17
10.85
16.20
20.29
23.27
25.27
26.34
26.51
25.89
24.67
23.15
21.62
20.32
19.33
18.65
18.21
17.96
17.83
17.77
17.68
17.41
16.86
16.00
14.92
13.76
12.69
11.76
10.94
10.08
9.03
7.69
6.07
4.29
2.53
0.95
-0.31
-1.22
-1.81
-2.20
-2.54
-2.97
-3.59
-4.41
-5.38
-6.41
-7.46
-8.55
-9.77
-11.24
-12.96
-14.84
-16.70
-18.40
-19.90
-21.29
-22.75
-24.48
-26.59
-29.10
-31.88
-34.65
-36.97
-38.32
-38.14
-35.98
-31.73
-25.62
-18.22
-10.27
-2.49
4.55
10.55
15.41
19.19
22.00
23.93
25.04
25.40
25.10
24.32
23.24
22.09
21.03
20.16
19.47
18.92
18.48
18.14
17.91
17.75
17.61
17.38
17.00
16.45
15.76
15.02
14.29
13.55
12.78
11.94
11.02
10.09
9.22
8.43
7.65
6.77
5.71
4.50
3.28
2.22
1.36
0.62
-0.22
-1.32
-2.72
-4.33
-5.98
-7.56
-9.06
-10.55
-12.08
-13.63
-15.16
-16.63
-18.06
-19.49
-20.91
-22.25
-23.45
-24.59
-25.88
-27.64
-30.06
-32.99
-35.89
-37.97
-38.41
-36.70
-32.72
-26.80
-19.49
-11.43
-3.20
4.64
11.64
17.39
21.67
24.45
25.87
26.21
25.82
24.98
23.89
22.68
21.44
20.27
19.25
18.48
18.05
17.96
18.14
18.40
18.48
18.11
17.14
15.54
13.49
11.27
9.20
7.46
6.11
5.02
4.05
3.12
2.23
1.45
0.88
0.51
0.25
-0.05
-0.55
-1.32
-2.34
-3.47
-4.54
-5.41
-6.02
-6.43
-6.78
-7.30
-8.17
-9.45
-11.04
-12.67
-14.05
-15.00
-15.50
-15.69
-15.79
-16.00
-16.52
-17.49
-19.00
-21.03
-23.29
-25.23
-26.10
-25.22
-22.25
-17.34
-11.09
-4.25
2.49
8.70
14.21
18.96
22.83
25.64
27.19
27.47
26.67
25.21
23.49
21.83
20.30
18.85
17.40
16.02
14.87
14.14
13.91
14.03
14.22
14.20
13.78
12.97
11.87
10.63
9.31
7.95
6.56
5.18
3.85
2.63
1.56
0.64
-0.16
-0.88
-1.60
-2.41
-3.39
-4.57
-5.92
-7.36
-8.78
-10.13
-11.40
-12.67
-14.02
-15.46
-16.95
-18.38
-19.66
-20.74
-21.64
-22.43
-23.24
-24.21
-25.56
-27.46
-30.00
-33.02
-36.09
-38.55
-39.69
-38.97
-36.19
-31.47
-25.19
-17.84
-9.96
-2.06
5.35
11.84
17.16
21.21
24.08
25.95
26.94
27.15
26.66
25.60
24.22
22.77
21.43
20.32
19.41
18.72
18.29
18.15
18.30
18.59
18.79
18.66
18.07
17.06
15.80
14.47
13.19
12.00
10.94
10.02
9.27
8.67
8.11
7.46
6.57
5.44
4.20
3.02
2.00
1.13
0.28
-0.72
-1.91
-3.21
-4.49
-5.67
-6.76
-7.84
-9.03
-10.35
-11.78
-13.29
-14.86
-16.52
-18.28
-20.08
-21.81
-23.33
-24.64
-25.87
-27.29
-29.18
-31.61
-34.41
-37.10
-39.06
-39.67
-38.54
-35.51
-30.64
-24.18
-16.46
-7.94
0.78
8.99
16.03
21.48
25.21
27.40
28.39
28.52
28.01
27.03
25.72
24.22
22.69
21.24
19.98
18.94
18.18
17.74
17.60
17.70
17.85
17.87
17.58
16.93
15.95
14.75
13.50
12.31
11.26
10.32
9.44
8.51
7.48
6.34
5.17
4.06
3.14
2.43
1.91
1.51
1.15
0.75
0.23
-0.50
-1.53
-2.90
-4.51
-6.18
-7.71
-8.91
-9.76
-10.39
-11.03
-11.85
-12.94
-14.24
-15.66
-17.15
-18.73
-20.43
-22.26
-24.14
-26.00
-27.79
-29.64
-31.74
-34.16
-36.77
-39.07
-40.38
-40.01
-37.53
-32.90
-26.47
-18.89
-10.85
-2.94
4.48
11.23
17.23
22.36
26.39
29.12
30.47
30.61
29.95
28.89
27.74
26.54
25.18
23.63
22.06
20.84
20.34
20.62
21.35
21.87
21.57
20.13
17.72
14.87
12.11
9.84
8.09
6.66
5.30
3.84
2.34
0.99
0.01
-0.53
-0.72
-0.77
-0.90
-1.23
-1.75
-2.33
-2.83
-3.26
-3.72
-4.41
-5.47
-6.86
-8.41
-9.86
-11.00
-11.80
-12.39
-12.97
-13.70
-14.61
-15.69
-16.84
-18.08
-19.43
-20.85
-22.18
-23.00
-22.77
-20.99
-17.40
-12.14
-5.72
1.15
7.75
13.58
18.39
22.12
24.83
26.53
27.24
27.02
26.02
24.52
22.79
21.06
19.38
17.70
15.96
14.14
12.38
10.83
9.66
8.93
8.54
8.28
7.88
7.13
5.95
4.42
2.76
1.22
-0.01
-0.86
-1.36
-1.61
-1.74
-1.82
-1.94
-2.20
-2.71
-3.52
-4.61
-5.87
-7.21
-8.55
-9.93
-11.40
-13.00
-14.63
-16.17
-17.44
-18.38
-19.04
-19.64
-20.46
-21.85
-24.04
-27.06
-30.68
-34.31
-37.13
-38.26
-37.05
-33.30
-27.30
-19.78
-11.62
-3.66
3.53
9.70
14.81
18.96
22.20
24.48
25.73
25.92
25.18
23.81
22.20
20.72
19.58
18.77
18.14
17.51
16.81
16.05
15.35
14.81
14.47
14.26
14.08
13.81
13.38
12.77
11.98
11.07
10.09
9.17
8.42
7.86
7.43
7.01
6.47
5.73
4.80
3.76
2.67
1.57
0.43
-0.77
-2.02
-3.29
-4.54
-5.75
-7.00
-8.37
-9.94
-11.70
-13.51
-15.20
-16.63
-17.78
-18.79
-19.89
-21.37
-23.42
-26.08
-29.15
-32.20
-34.62
-35.75
-34.99
-32.01
-26.88
-20.00
-12.12
-4.00
3.67
10.46
16.17
20.75
24.19
26.49
27.59
27.53
26.49
24.78
22.80
20.88
19.26
18.02
17.13
16.53
16.16
15.95
15.81
15.60
15.22
14.60
13.73
12.67
11.52
10.36
9.26
8.25
7.34
6.50
5.70
4.84
3.87
2.76
1.54
0.31
-0.83
-1.79
-2.53
-3.07
-3.45
-3.77
-4.11
-4.52
-5.04
-5.65
-6.30
-6.98
-7.67
-8.39
-9.18
-10.02
-10.87
-11.68
-12.44
-13.18
-13.95
-14.82
-15.87
-17.15
-18.76
-20.79
-23.27
-26.03
-28.70
-30.64
-31.16
-29.71
-26.10
-20.61
-13.83
-6.52
0.67
7.27
12.99
17.69
21.23
23.57
24.72
24.84
24.19
23.07
21.70
20.18
18.57
16.94
15.45
14.33
13.72
13.62
13.83
14.08
14.12
13.89
13.44
12.91
12.37
11.81
11.16
10.38
9.54
8.77
8.19
7.83
7.58
7.24
6.68
5.86
4.94
4.09
3.47
3.05
2.69
2.21
1.49
0.56
-0.45
-1.38
-2.17
-2.89
-3.72
-4.77
-6.06
-7.47
-8.80
-9.92
-10.82
-11.64
-12.61
-13.90
-15.54
-17.41
-19.31
-21.06
-22.61
-24.06
-25.61
-27.43
-29.63
-32.23
-35.15
-38.18
-40.96
-42.98
-43.61
-42.23
-38.50
-32.47
-24.65
-15.87
-7.04
1.13
8.21
14.09
18.76
22.30
24.75
26.18
26.69
26.46
25.70
24.61
23.40
22.23
21.25
20.54
20.14
19.96
19.84
19.61
19.17
18.58
18.00
17.60
17.43
17.36
17.17
16.63
15.68
14.49
13.29
12.32
11.64
11.12
10.55
9.79
8.87
7.94
7.18
6.64
6.25
5.84
5.25
4.42
3.43
2.35
1.27
0.22
-0.83
-1.95
-3.18
-4.56
-6.03
-7.49
-8.79
-9.81
-10.56
-11.16
-11.90
-13.02
-14.65
-16.69
-18.89
-20.95
-22.70
-24.14
-25.42
-26.72
-28.23
-30.03
-32.20
-34.70
-37.41
-40.00
-41.88
-42.32
-40.67
-36.58
-30.22
-22.24
-13.55
-5.01
2.74
9.38
14.80
18.99
21.91
23.54
23.96
23.37
22.13
20.63
19.15
17.89
16.90
16.19
15.75
15.52
15.40
15.28
15.08
14.79
14.46
14.13
13.80
13.40
12.85
12.13
11.30
10.46
9.71
9.02
8.27
7.36
6.27
5.11
4.06
3.25
2.68
2.27
1.88
1.41
0.88
0.31
-0.26
-0.83
-1.44
-2.14
-2.92
-3.79
-4.77
-5.92
-7.26
-8.76
-10.31
-11.68
-12.72
-13.38
-13.81
-14.31
-15.26
-16.91
-19.38
-22.49
-25.87
-28.88
-30.82
-30.99
-28.94
-24.61
-18.39
-11.00
-3.27
4.01
10.36
15.55
19.53
22.38
24.15
24.94
24.86
24.10
22.93
21.59
20.25
18.97
17.78
16.66
15.69
14.95
14.53
14.45
14.58
14.76
14.79
14.58
14.09
13.37
12.41
11.25
9.93
8.53
7.18
5.98
4.95
4.00
3.00
1.86
0.58
-0.75
-2.03
-3.19
-4.29
-5.40
-6.61
-7.92
-9.28
-10.63
-11.93
-13.21
-14.56
-16.02
-17.59
-19.19
-20.68
-21.98
-23.11
-24.23
-25.60
-27.46
-29.90
-32.77
-35.68
-38.05
-39.30
-38.95
-36.72
-32.53
-26.57
-19.21
-11.03
-2.68
5.21
12.14
17.86
22.30
25.55
27.69
28.78
28.87
28.11
26.76
25.18
23.70
22.53
21.69
21.08
20.56
20.08
19.66
19.37
19.23
19.16
19.02
18.65
17.99
17.06
15.98
14.89
13.88
12.99
12.18
11.39
10.55
9.63
8.65
7.64
6.64
5.69
4.79
3.93
3.03
2.01
0.82
-0.57
-2.12
-3.73
-5.28
-6.68
-7.89
-9.00
-10.14
-11.45
-13.03
-14.86
-16.82
-18.73
-20.42
-21.83
-23.00
-24.09
-25.31
-26.86
-28.83
-31.22
-33.86
-36.43
-38.41
-39.19
-38.17
-34.96
-29.53
-22.23
-13.75
-4.92
3.51
11.00
17.22
22.06
25.51
27.65
28.64
28.67
28.02
26.99
25.82
24.65
23.51
22.38
21.23
20.10
19.07
18.27
17.76
17.53
17.48
17.42
17.20
16.68
15.80
14.60
13.20
11.79
10.54
9.53
8.74
8.05
7.26
6.24
4.95
3.46
1.88
0.34
-1.10
-2.44
-3.69
-4.82
-5.82
-6.67
-7.42
-8.19
-9.13
-10.35
-11.87
-13.60
-15.39
-17.08
-18.56
-19.80
-20.79
-21.59
-22.29
-23.03
-24.02
-25.46
-27.46
-29.89
-32.40
-34.40
-35.27
-34.47
-31.78
-27.26
-21.24
-14.25
-6.81
0.55
7.36
13.18
17.55
20.14
20.80
19.72
17.49
15.01
13.22
12.81
13.98
16.39
19.31
21.98
23.82
24.72
24.85
24.54
24.02
23.36
22.49
21.33
19.94
18.43
16.99
15.72
14.63
13.61
12.54
11.31
9.88
8.24
6.42
4.46
2.45
0.48
-1.35
-3.01
-4.56
-6.14
-7.89
-9.87
-12.02
-14.22
-16.36
-18.35
-20.18
-21.94
-23.71
-25.65
-27.88
-30.50
-33.49
-36.65
-39.52
-41.51
-42.00
-40.54
-36.99
-31.57
-24.71
-17.00
-9.00
-1.20
5.98
12.27
17.42
21.35
24.02
25.51
25.96
25.57
24.58
23.26
21.83
20.50
19.38
18.56
18.04
17.80
17.78
17.88
18.01
18.03
17.81
17.26
16.31
14.99
13.41
11.76
10.25
9.03
8.15
7.54
7.04
6.49
5.78
4.88
3.81
2.60
1.28
-0.10
-1.53
-2.96
-4.39
-5.87
-7.52
-9.45
-11.70
-14.14
-16.53
-18.62
-20.26
-21.50
-22.54
-23.68
-25.21
-27.26
-29.84
-32.77
-35.69
-38.07
-39.26
-38.68
-35.94
-31.01
-24.30
-16.53
-8.48
-0.78
6.16
12.19
17.29
21.41
24.43
26.23
26.79
26.24
24.91
23.21
21.52
20.10
19.00
18.17
17.51
17.00
16.66
16.54
16.62
16.84
17.00
16.98
16.67
16.11
15.39
14.63
13.85
13.09
12.29
11.46
10.62
9.78
8.93
8.04
7.05
5.90
4.58
3.10
1.53
-0.04
-1.55
-2.92
-4.18
-5.42
-6.75
-8.32
-10.19
-12.30
-14.50
-16.59
-18.44
-20.03
-21.53
-23.12
-25.02
-27.30
-29.89
-32.52
-34.76
-36.05
-35.85
-33.77
-29.66
-23.77
-16.66
-9.08
-1.76
4.78
10.25
14.57
17.76
19.89
21.04
21.39
21.20
20.77
20.29
19.80
19.16
18.15
16.71
15.01
13.40
12.27
11.78
11.76
11.83
11.58
10.83
9.70
8.50
7.50
6.76
6.14
5.41
4.45
3.32
2.18
1.19
0.36
-0.39
-1.20
-2.13
-3.16
-4.27
-5.46
-6.83
-8.44
-10.26
-12.11
-13.71
-14.81
-15.33
-15.38
-15.25
-15.30
-15.83
-16.98
-18.68
-20.67
-22.44
-23.42
-23.02
-20.87
-16.92
-11.46
-5.01
1.79
8.47
14.77
20.65
26.12
31.03
35.00
37.48
38.09
36.80
34.13
30.99
28.38
27.09
27.46
29.34
32.05
34.51
35.31
33.07
26.95
17.12
4.92
-7.42
-17.56
-23.91
-26.14
-25.05
-22.04
-18.42
-14.96
-11.89
-9.21
-6.98
-5.49
-5.12
-6.11
-8.35
-11.41
-14.64
-17.47
-19.63
-21.21
-22.58
-24.15
-26.21
-28.75
-31.59
-34.43
-37.01
-39.13
-40.54
-40.94
-39.97
-37.34
-32.96
-27.01
-19.89
-12.14
-4.32
3.12
9.81
15.49
19.94
23.06
24.86
25.48
25.23
24.45
23.43
22.31
21.08
19.68
18.16
16.72
15.72
15.42
15.88
16.84
17.79
18.27
17.99
16.98
15.48
13.85
12.38
11.24
10.46
9.98
9.66
9.30
8.70
7.68
6.21
4.35
2.27
0.16
-1.87
-3.77
-5.59
-7.38
-9.18
-10.97
-12.68
-14.29
-15.78
-17.25
-18.80
-20.57
-22.69
-25.24
-28.21
-31.34
-34.19
-36.14
-36.55
-34.98
-31.27
-25.64
-18.61
-10.84
-3.01
4.34
10.82
16.23
20.52
23.70
25.84
27.01
27.28
26.79
25.75
24.43
23.09
21.92
20.99
20.27
19.69
19.22
18.88
18.68
18.59
18.49
18.24
17.72
16.91
15.88
14.73
13.57
12.42
11.26
10.06
8.80
7.50
6.25
5.11
4.11
3.21
2.34
1.40
0.32
-0.87
-2.13
-3.34
-4.45
-5.45
-6.44
-7.55
-8.86
-10.35
-11.93
-13.42
-14.75
-15.92
-17.02
-18.18
-19.46
-20.92
-22.61
-24.61
-26.96
-29.62
-32.26
-34.30
-35.03
-33.82
-30.38
-24.89
-17.89
-10.15
-2.42
4.71
10.91
16.04
20.07
22.97
24.74
25.37
24.95
23.68
21.90
20.03
18.41
17.25
16.53
16.10
15.76
15.36
14.86
14.29
13.67
13.01
12.23
11.30
10.23
9.12
8.08
7.23
6.53
5.87
5.07
4.06
2.81
1.45
0.12
-1.13
-2.31
-3.52
-4.77
-6.01
-7.13
-8.03
-8.69
-9.17
-9.57
-9.97
-10.44
-10.99
-11.64
-12.41
-13.28
-14.21
-15.13
-16.02
-16.95
-18.03
-19.32
-20.71
-21.86
-22.24
-21.33
-18.78
-14.56
-8.96
-2.49
4.26
10.77
16.61
21.47
25.13
27.44
28.37
28.05
26.78
24.97
22.98
21.08
19.32
17.67
16.06
14.50
13.12
12.10
11.47
11.07
10.49
9.23
6.86
3.22
-1.42
-6.47
-11.19
-14.94
-17.37
-18.54
-18.88
-18.96
-19.30
-20.21
-21.68
-23.45
-25.16
-26.54
-27.52
-28.22
-28.90
-29.78
-30.93
-32.25
-33.52
-34.50
-35.07
-35.34
-35.58
-36.18
-37.45
-39.51
-42.11
-44.68
-46.43
-46.61
-44.69
-40.53
-34.36
-26.64
-17.93
-8.71
0.65
9.82
18.45
26.22
32.76
37.86
41.42
43.58
44.61
44.85
44.62
44.10
43.35
42.36
41.10
39.65
38.13
36.68
35.35
34.05
32.68
31.16
29.50
27.84
26.30
24.89
23.47
21.83
19.83
17.51
15.09
12.89
11.11
9.74
8.58
7.35
5.90
4.24
2.51
0.87
-0.60
-1.94
-3.27
-4.73
-6.46
-8.57
-11.21
-14.50
-18.42
-22.68
-26.68
-29.55
-30.41
-28.61
-24.06
-17.22
-9.02
-0.52
7.34
13.97
19.11
22.74
24.94
25.83
25.59
24.44
22.74
20.86
19.16
17.80
16.76
15.90
15.04
14.18
13.56
13.56
14.49
16.39
18.87
21.15
22.41
22.13
20.27
17.37
14.22
11.51
9.54
8.07
6.52
4.31
1.20
-2.60
-6.49
-9.83
-12.21
-13.70
-14.68
-15.68
-17.14
-19.27
-22.13
-25.77
-30.30
-35.70
-41.54
-46.85
-50.34
-50.91
-48.32
-43.25
-36.92
-30.25
-23.33
-15.51
-6.15
4.46
14.80
22.69
26.46
26.14
23.52
21.30
21.58
24.64
28.83
31.49
30.38
24.82
15.92
5.88
-3.11
-9.83
-14.32
-17.51
-20.32
-23.02
-25.02
-25.28
-23.15
-18.96
-13.97
-9.90
-8.00
-8.57
-10.93
-13.84
-16.20
-17.51
-17.95
-18.23
-19.15
-21.35
-25.04
-29.99
-35.56
-40.82
-44.77
-46.52
-45.41
-41.08
-33.45
-22.84
-10.04
3.56
16.28
26.58
33.61
37.55
39.40
40.37
41.31
42.27
42.64
41.58
38.58
33.67
27.48
20.98
15.20
10.98
8.81
8.61
9.71
10.94
11.06
9.35
5.94
1.75
-1.97
-4.44
-5.82
-7.07
-9.46
-13.75
-19.80
-26.69
-33.25
-38.71
-42.97
-46.34
-48.96
-50.44
-49.84
-46.16
-38.94
-28.61
-16.28
-3.31
9.17
20.38
29.74
36.63
40.46
41.01
38.83
35.30
32.14
30.56
30.65
31.34
30.99
28.37
23.33
16.95
11.00
7.01
5.63
6.41
8.15
9.59
10.07
9.69
9.16
9.19
10.05
11.44
12.63
12.88
11.79
9.34
5.77
1.39
-3.57
-8.89
-14.36
-19.79
-25.23
-30.95
-37.26
-44.17
-50.99
-56.36
-58.62
-56.47
-49.52
-38.43
-24.64
-9.87
4.42
17.27
28.30
37.54
45.17
51.40
56.23
59.44
60.62
59.40
55.64
49.56
41.78
33.01
23.93
15.16
7.41
1.64
-1.02
0.35
5.88
14.66
24.79
34.13
41.11
45.23
47.00
47.30
46.66
44.93
41.54
36.12
29.05
21.44
14.71
9.94
7.35
6.38
6.14
5.83
5.06
3.72
1.77
-0.87
-4.09
-7.34
-9.50
-9.21
-5.42
2.03
12.27
23.85
35.47
46.59
57.47
68.68
80.36
91.66
100.86
105.98
105.50
98.82
86.31
69.05
48.65
27.00
5.97
-12.80
-28.47
-41.16
-51.88
-61.97
-72.35
-83.00
-92.90
-100.59
-104.80
-105.20
-102.45
-97.97
-93.23
-89.23
-86.19
-83.65
-80.80
-76.80
-71.07
-63.45
-54.25
-44.17
-34.16
-25.27
-18.40
-14.10
-12.48
-13.13
-15.32
-18.18
-20.96
-23.18
-24.54
-24.65
-22.87
-18.32
-10.18
1.77
16.57
31.94
44.65
51.56
50.82
42.68
29.65
15.46
3.70
-3.55
-6.33
-6.57
-7.05
-10.23
-17.23
-27.49
-39.02
-49.22
-55.71
-57.10
-53.21
-44.78
-33.08
-19.36
-4.77
9.44
21.81
30.75
35.14
34.90
31.19
25.92
20.77
16.45
12.71
9.06
5.64
3.52
4.24
8.74
16.65
26.28
35.40
42.33
46.47
48.23
48.29
46.87
43.45
37.16
27.44
14.53
-0.32
-15.31
-28.67
-39.06
-45.72
-48.43
-47.38
-43.01
-36.12
-27.72
-18.96
-10.78
-3.78
1.67
5.25
6.37
4.31
-1.43
-10.66
-22.29
-34.53
-45.57
-54.29
-60.43
-64.44
-66.84
-67.76
-66.79
-63.30
-56.67
-46.57
-32.92
-15.82
4.37
26.74
49.50
69.92
84.90
91.93
90.21
81.04
67.30
52.06
37.18
22.72
7.38
-10.28
-30.68
-52.72
-74.20
-92.72
-106.53
-114.94
-118.10
-116.82
-112.10
-104.97
-96.24
-86.28
-74.85
-61.24
-44.70
-24.94
-2.56
20.88
43.06
61.30
73.08
76.57
71.32
58.71
41.85
24.73
10.92
2.28
-1.35
-1.47
0.42
3.82
9.32
17.79
29.11
41.76
53.36
61.96
67.04
69.70
71.68
74.08
76.65
78.03
76.78
72.35
65.39
57.27
49.32
42.32
36.46
31.77
28.26
25.86
24.09
22.13
19.19
15.19
11.09
8.32
7.86
9.32
10.87
10.01
4.79
-5.33
-19.29
-35.10
-50.65
-64.15
-74.23
-79.62
-79.16
-72.12
-58.73
-40.37
-19.52
0.86
18.20
30.85
38.35
41.40
41.33
39.66
37.65
36.00
34.84
33.89
32.65
30.61
27.43
22.96
17.16
10.11
1.92
-7.17
-16.69
-25.72
-32.82
-36.15
-34.01
-25.52
-11.30
6.41
24.29
38.89
47.65
49.50
44.84
34.95
21.44
5.98
-9.69
-23.62
-33.89
-39.08
-38.70
-33.27
-24.04
-12.36
0.69
14.43
28.28
41.57
53.32
62.39
67.62
68.18
63.77
54.91
42.95
29.72
17.10
6.31
-2.42
-9.52
-15.61
-20.97
-25.58
-29.41
-32.68
-35.82
-39.17
-42.62
-45.60
-47.54
-48.25
-47.87
-46.54
-43.96
-39.54
-33.16
-26.07
-21.07
-21.64
-30.15
-46.24
-66.20
-83.83
-92.63
-88.31
-70.42
-42.47
-10.26
20.83
48.02
71.58
93.46
114.88
134.79
150.19
158.29
158.70
154.24
149.37
147.63
149.65
153.10
154.44
151.15
142.74
130.42
115.97
100.64
85.17
70.26
56.93
46.21
38.33
31.95
24.22
11.74
-8.05
-35.72
-69.43
-105.43
-139.26
-166.97
-185.96
-195.12
-194.48
-184.59
-166.26
-140.65
-109.60
-76.04
-43.74
-16.78
1.30
8.39
4.51
-7.94
-24.76
-41.56
-55.82
-68.35
-82.89
-103.76
-133.00
-168.25
-203.35
-230.89
-245.80
-247.71
-240.75
-231.28
-224.77
-223.67
-226.91
-231.12
-232.27
-227.01
-213.31
-190.47
-159.04
-120.65
-77.76
-33.43
9.17
47.19
78.73
103.36
122.25
137.65
152.06
167.20
183.50
200.13
215.53
228.07
236.54
240.26
238.98
232.80
222.33
208.61
192.78
175.70
157.47
137.60
115.63
91.67
66.79
42.60
20.70
2.31
-11.87
-21.49
-26.63
-28.03
-27.19
-26.03
-26.19
-28.49
-32.78
-38.43
-45.00
-52.62
-61.77
-72.71
-85.10
-98.02
-110.25
-120.42
-126.83
-127.30
-119.49
-101.79
-74.47
-40.10
-3.03
32.15
62.07
85.25
101.64
111.50
114.59
110.13
97.66
78.00
53.59
28.01
4.75
-13.96
-27.62
-37.33
-44.87
-51.72
-58.36
-64.37
-68.89
-71.35
-71.82
-70.95
-69.37
-67.36
-64.70
-60.88
-55.50
-48.64
-41.23
-35.03
-32.24
-34.44
-41.39
-50.18
-55.46
-51.24
-33.49
-2.33
37.40
77.80
111.06
132.42
141.29
140.20
132.32
119.47
101.71
78.47
50.15
18.83
-12.40
-40.76
-64.95
-85.19
-102.25
-116.32
-126.45
-130.95
-128.42
-118.92
-104.37
-87.97
-72.85
-60.79
-51.30
-42.33
-31.50
-17.69
-1.79
13.95
27.57
39.13
51.27
68.31
94.11
129.97
173.70
220.45
264.70
302.29
331.43
352.36
366.17
373.72
375.28
371.10
362.02
349.69
336.00
322.09
307.64
291.01
269.91
242.62
208.62
168.64
124.21
77.07
28.89
-18.79
-64.67
-107.82
-148.09
-186.29
-224.15
-263.76
-307.22
-356.07
-410.69
-469.61
-528.65
-581.13
-618.97
-635.07
-625.77
-592.13
-539.33
-474.31
-403.10
-329.26
-254.34
-179.60
-107.82
-43.63
7.72
42.54
60.47
64.72
60.99
55.56
53.75
58.71
70.94
88.60
108.45
127.19
142.81
155.21
165.83
176.35
187.27
197.21
203.58
203.81
196.79
183.50
166.62
149.46
134.88
124.86
120.69
123.43
134.00
152.57
177.70
205.73
230.85
246.22
245.90
226.58
188.63
135.93
74.67
11.54
-47.93
-100.22
-143.87
-178.80
-205.56
-224.91
-237.62
-244.62
-247.04
-245.85
-241.62
-234.31
-223.46
-208.80
-190.70
-170.45
-150.06
-131.73
-117.18
-107.21
-101.39
-98.35
-96.02
-91.98
-83.84
-69.51
-47.78
-18.83
15.43
51.59
85.39
112.84
131.29
139.96
139.85
132.85
120.67
104.10
83.37
59.17
33.61
10.32
-6.67
-14.69
-13.57
-5.82
4.67
14.44
21.84
27.35
32.53
38.53
45.21
51.20
54.86
55.17
51.99
45.72
36.85
26.05
14.75
5.77
3.01
10.09
28.50
56.37
88.96
120.48
146.26
163.83
172.50
171.94
161.25
139.51
107.28
67.75
26.57
-10.10
-37.85
-55.37
-64.13
-66.86
-66.00
-63.03
-58.64
-53.50
-48.66
-45.42
-45.04
-48.35
-55.77
-67.02
-80.94
-95.19
-106.33
-110.59
-104.85
-87.64
-59.33
-21.77
22.19
68.85
113.68
151.83
179.05
193.26
195.34
188.57
176.69
161.79
143.45
119.76
89.64
54.78
19.86
-9.08
-27.49
-34.33
-32.48
-27.21
-23.55
-24.16
-28.52
-33.52
-35.20
-30.67
-19.72
-5.68
5.03
4.73
-12.36
-46.93
-92.97
-139.03
-172.22
-183.26
-170.05
-138.12
-97.90
-60.45
-33.88
-21.67
-23.16
-34.93
-51.98
-68.92
-81.27
-86.99
-87.72
-88.40
-94.86
-110.46
-133.58
-158.03
-176.18
-183.24
-179.72
-170.81
-162.76
-159.09
-158.79
-157.74
-152.08
-141.14
-128.18
-118.28
-114.77
-116.74
-118.84
-113.55
-94.59
-59.60
-11.12
44.66
100.19
148.98
187.00
212.97
227.50
232.00
227.66
215.10
194.66
167.11
134.19
98.76
64.30
34.08
10.25
-6.61
-17.52
-24.39
-29.20
-33.17
-36.51
-38.73
-39.56
-39.63
-40.57
-44.19
-51.15
-59.94
-67.01
-67.87
-59.03
-39.48
-11.15
21.89
54.83
83.48
105.07
118.31
123.16
120.58
112.25
100.25
86.58
72.63
58.90
45.01
30.06
13.34
-5.13
-24.33
-42.45
-57.48
-67.85
-72.79
-72.58
-68.27
-61.43
-53.76
-46.71
-41.10
-36.94
-33.46
-29.23
-22.64
-12.29
2.55
21.64
43.72
66.99
89.60
110.15
127.85
142.35
153.20
159.61
160.56
155.28
143.91
127.78
109.16
90.46
73.49
59.04
47.02
36.96
28.44
21.27
15.49
11.27
8.88
8.66
10.83
15.25
21.19
27.40
32.57
35.85
37.09
36.75
35.27
32.58
28.02
20.83
10.87
-0.74
-11.75
-19.54
-22.13
-18.97
-11.10
-0.47
10.95
21.95
32.29
42.12
51.29
58.87
63.29
63.10
57.89
48.75
37.85
27.55
19.28
13.15
8.30
3.75
-0.79
-4.74
-7.24
-7.93
-7.44
-7.17
-8.52
-12.16
-17.75
-24.20
-30.29
-35.20
-38.64
-40.66
-41.43
-41.12
-39.96
-38.20
-36.03
-33.44
-30.19
-25.98
-20.80
-15.04
-9.39
-4.39
-0.06
4.11
8.71
13.87
19.05
23.25
25.55
25.67
24.00
21.24
17.87
13.92
9.03
2.92
-4.32
-12.14
-19.83
-26.96
-33.58
-40.25
-47.64
-56.15
-65.40
-74.17
-80.56
-82.55
-78.75
-68.92
-54.07
-36.09
-17.21
0.71
16.35
29.03
38.34
44.04
46.02
44.48
40.07
33.95
27.50
21.87
17.76
15.27
14.13
13.95
14.37
15.10
15.87
16.44
16.65
16.47
16.01
15.41
14.74
13.96
13.09
12.27
11.82
12.01
12.90
14.11
14.95
14.70
12.84
9.21
4.10
-1.82
-7.41
-11.24
-11.97
-8.85
-2.22
6.51
15.32
22.37
26.59
27.87
26.75
23.87
19.63
14.15
7.49
-0.05
-7.88
-15.25
-21.55
-26.56
-30.48
-33.80
-37.01
-40.30
-43.44
-45.91
-47.17
-46.78
-44.57
-40.56
-34.81
-27.43
-18.57
-8.55
1.99
12.19
21.01
27.51
31.08
31.62
29.56
25.76
21.21
16.84
13.25
10.69
9.12
8.33
8.03
7.95
7.85
7.69
7.53
7.54
7.90
8.64
9.63
10.64
11.48
12.03
12.20
11.87
10.87
9.12
6.77
4.27
2.22
1.19
1.41
2.74
4.69
6.61
7.87
7.95
6.53
3.55
-0.70
-5.61
-10.35
-14.13
-16.54
-17.72
-18.39
-19.47
-21.60
-24.82
-28.55
-31.96
-34.43
-35.91
-36.93
-38.29
-40.69
-44.45
-49.41
-55.01
-60.38
-64.45
-66.10
-64.36
-58.63
-48.92
-35.94
-20.98
-5.65
8.50
20.29
29.11
34.94
38.23
39.61
39.61
38.55
36.59
33.94
30.99
28.33
26.53
25.86
26.22
27.21
28.36
29.30
29.85
29.96
29.61
28.78
27.48
25.71
23.53
21.04
18.47
16.18
14.61
14.07
14.48
15.31
15.79
15.36
13.92
11.83
9.66
7.76
6.10
4.41
2.50
0.35
-1.80
-3.74
-5.44
-7.06
-8.79
-10.64
-12.46
-14.02
-15.25
-16.38
-17.78
-19.79
-22.56
-25.97
-29.73
-33.48
-36.88
-39.60
-41.47
-42.52
-43.17
-44.19
-46.45
-50.54
-56.27
-62.53
-67.56
-69.45
-66.88
-59.39
-47.41
-31.95
-14.27
4.28
22.25
38.12
50.51
58.50
61.97
61.56
58.44
53.80
48.55
43.15
37.82
32.67
27.91
23.79
20.57
18.48
17.61
17.96
19.30
21.21
23.12
24.49
24.99
24.57
23.43
21.89
20.27
18.86
17.91
17.58
17.94
18.75
19.57
19.84
19.21
17.70
15.69
13.66
11.88
10.28
8.60
6.67
4.57
2.64
1.19
0.23
-0.55
-1.63
-3.40
-5.95
-9.03
-12.20
-14.98
-17.05
-18.34
-19.04
-19.62
-20.68
-22.75
-26.07
-30.36
-34.95
-38.95
-41.69
-43.03
-43.39
-43.63
-44.71
-47.33
-51.70
-57.43
-63.52
-68.53
-70.89
-69.21
-62.59
-50.87
-34.74
-15.71
4.19
22.82
38.33
49.63
56.39
59.01
58.33
55.36
51.12
46.52
42.35
39.13
37.10
36.06
35.60
35.23
34.71
34.11
33.68
33.55
33.61
33.51
32.84
31.35
29.01
26.00
22.58
19.09
15.80
13.00
10.81
9.15
7.78
6.35
4.67
2.78
0.90
-0.73
-2.04
-3.20
-4.43
-5.79
-7.12
-8.14
-8.68
-8.84
-8.94
-9.32
-10.15
-11.35
-12.71
-14.05
-15.33
-16.58
-17.88
-19.21
-20.60
-22.07
-23.76
-25.80
-28.12
-30.44
-32.32
-33.46
-33.87
-33.98
-34.45
-35.90
-38.73
-42.94
-48.09
-53.35
-57.46
-58.96
-56.56
-49.48
-37.89
-22.85
-6.04
10.76
26.07
38.90
48.65
54.97
57.74
57.13
53.79
48.77
43.29
38.38
34.61
32.08
30.58
29.91
29.91
30.58
31.94
33.93
36.34
38.89
41.11
42.44
42.28
40.17
36.12
30.72
25.12
20.68
18.47
18.93
21.71
25.89
30.35
34.14
36.64
37.67
37.46
36.60
35.81
35.67
36.11
36.31
34.82
30.10
21.19
8.08
-8.42
-27.14
-46.88
-66.48
-84.78
-100.43
-112.12
-119.03
-121.20
-119.65
-116.11
-112.49
-110.55
-111.56
-116.19
-124.43
-135.44
-147.48
-158.19
-164.86
-164.97
-156.70
-139.28
-113.25
-80.66
-44.85
-10.00
19.85
41.98
55.66
62.25
64.36
64.60
64.59
64.77
64.92
64.86
64.95
65.83
67.84
70.46
72.39
72.24
69.33
64.11
57.95
52.31
48.05
45.16
43.15
41.59
40.50
40.17
40.82
42.20
43.63
44.35
44.02
42.90
41.72
41.38
42.60
45.66
50.32
55.77
60.75
63.84
63.88
60.41
53.88
45.52
36.94
29.54
24.16
20.92
19.21
17.88
15.51
10.69
2.58
-8.73
-22.09
-35.63
-47.50
-56.57
-62.66
-66.32
-68.07
-67.90
-65.14
-58.88
-48.56
-34.34
-17.18
1.34
19.38
35.09
46.74
52.98
53.04
47.10
36.20
22.04
6.43
-9.06
-23.25
-35.17
-43.95
-48.97
-50.23
-48.61
-45.75
-43.46
-43.00
-44.65
-47.97
-52.23
-56.87
-61.46
-65.42
-67.74
-67.28
-63.47
-56.94
-49.51
-43.46
-40.53
-41.19
-44.83
-50.40
-57.19
-65.06
-73.98
-83.48
-92.29
-98.57
-100.44
-96.64
-86.78
-71.35
-51.54
-29.00
-5.46
17.64
39.45
59.77
78.65
95.84
110.30
120.28
123.93
120.37
110.40
96.50
82.08
70.15
62.19
57.80
55.17
52.31
48.07
42.70
37.47
33.80
32.37
32.75
33.73
34.00
32.68
29.50
24.48
17.74
9.40
-0.12
-9.92
-18.72
-25.43
-29.69
-32.20
-34.33
-37.39
-41.88
-47.18
-51.79
-53.94
-52.19
-45.79
-34.88
-20.39
-3.92
12.46
26.76
37.43
43.80
46.13
45.33
42.51
38.63
34.30
29.93
25.94
22.72
20.64
19.76
19.77
20.00
19.63
18.01
14.85
10.37
5.14
-0.09
-4.70
-8.54
-11.96
-15.73
-20.66
-27.09
-34.58
-42.03
-48.06
-51.74
-52.98
-52.57
-51.71
-51.44
-52.17
-53.59
-54.88
-55.02
-52.90
-47.40
-37.46
-22.32
-2.01
22.18
47.63
70.90
88.74
99.22
102.22
99.30
92.74
84.57
75.98
67.26
58.34
49.38
40.93
33.71
28.21
24.34
21.52
19.08
16.68
14.48
12.98
12.56
13.29
14.84
16.68
18.23
19.04
18.85
17.57
15.45
12.98
10.83
9.55
9.36
9.97
10.80
11.20
10.81
9.60
7.82
5.88
4.15
2.99
2.64
3.19
4.48
6.01
7.01
6.62
4.21
-0.42
-6.93
-14.53
-22.21
-29.05
-34.45
-38.27
-40.66
-41.93
-42.28
-41.86
-40.79
-39.37
-38.07
-37.38
-37.63
-38.78
-40.60
-42.84
-45.35
-48.09
-51.00
-53.95
-56.83
-59.70
-62.80
-66.35
-70.10
-73.09
-73.74
-70.37
-61.89
-48.27
-30.59
-10.67
9.50
28.28
44.60
57.93
68.15
75.33
79.64
81.22
80.23
76.86
71.47
64.59
56.90
49.10
41.77
35.32
30.03
26.13
23.83
23.23
24.08
25.69
27.09
27.27
25.62
22.02
16.85
10.68
4.14
-2.21
-7.86
-12.33
-15.24
-16.43
-16.10
-14.74
-12.91
-11.04
-9.31
-7.72
-6.28
-5.10
-4.39
-4.36
-5.03
-6.29
-7.99
-10.13
-12.84
-16.29
-20.55
-25.39
-30.30
-34.64
-37.91
-40.04
-41.44
-42.85
-45.07
-48.66
-53.65
-59.50
-65.18
-69.35
-70.64
-67.95
-60.74
-49.24
-34.47
-18.04
-1.75
12.86
24.80
33.82
40.14
44.19
46.32
46.71
45.49
42.95
39.62
36.20
33.36
31.47
30.53
30.28
30.34
30.38
30.20
29.73
29.02
28.19
27.38
26.73
26.29
25.90
25.24
23.97
21.92
19.20
16.24
13.64
11.94
11.36
11.79
12.83
14.02
14.84
14.82
13.46
10.27
4.97
-2.35
-11.10
-20.23
-28.54
-35.02
-39.18
-41.11
-41.36
-40.75
-40.16
-40.40
-42.12
-45.71
-51.20
-58.15
-65.74
-72.81
-78.12
-80.60
-79.52
-74.64
-66.20
-54.82
-41.30
-26.38
-10.68
5.26
20.76
34.89
46.48
54.49
58.35
58.19
54.71
48.98
42.08
34.99
28.56
23.47
20.15
18.65
18.63
19.40
20.27
20.73
20.55
19.68
18.08
15.65
12.35
8.32
3.90
-0.39
-4.11
-7.02
-9.09
-10.49
-11.46
-12.21
-12.85
-13.39
-13.81
-14.06
-14.25
-14.60
-15.43
-17.05
-19.59
-23.07
-27.32
-32.07
-36.92
-41.23
-44.09
-44.54
-41.81
-35.65
-26.52
-15.41
-3.51
8.03
18.36
26.87
33.21
37.28
39.24
39.51
38.62
37.03
35.09
32.96
30.81
28.79
27.09
25.80
24.80
23.87
22.77
21.48
20.08
18.71
17.31
15.71
13.66
11.07
8.09
5.02
2.08
-0.66
-3.26
-5.79
-8.23
-10.48
-12.45
-14.12
-15.59
-17.00
-18.51
-20.30
-22.64
-25.80
-29.91
-34.77
-39.69
-43.49
-44.84
-42.61
-36.33
-26.28
-13.56
0.30
13.68
25.25
34.21
40.36
43.98
45.58
45.64
44.51
42.42
39.58
36.30
33.03
30.16
27.96
26.51
25.65
25.16
24.80
24.43
23.96
23.35
22.57
21.58
20.39
19.08
17.83
16.88
16.48
16.73
17.53
18.53
19.29
19.45
18.90
17.85
16.68
15.71
14.99
14.32
13.36
11.85
9.80
7.44
5.09
2.92
0.92
-1.06
-3.11
-5.16
-7.05
-8.67
-10.05
-11.43
-13.10
-15.27
-17.92
-20.90
-23.96
-26.93
-29.81
-32.68
-35.62
-38.63
-41.63
-44.46
-47.05
-49.47
-51.98
-55.01
-58.98
-64.09
-70.01
-75.78
-79.93
-80.86
-77.35
-68.90
-55.96
-39.69
-21.73
-3.81
12.55
26.28
36.86
44.25
48.80
50.99
51.36
50.36
48.45
46.05
43.54
41.15
38.86
36.47
33.84
31.07
28.57
26.86
26.30
26.83
27.94
28.93
29.19
28.49
26.98
25.05
23.13
21.58
20.58
20.16
20.23
20.60
20.95
20.91
20.18
18.66
16.48
13.99
11.64
9.84
8.87
8.73
9.24
9.94
10.33
9.88
8.28
5.50
1.89
-1.95
-5.40
-8.01
-9.79
-11.17
-12.81
-15.32
-18.91
-23.28
-27.79
-31.66
-34.41
-36.05
-37.11
-38.54
-41.35
-46.33
-53.70
-62.90
-72.62
-80.89
-85.50
-84.47
-76.66
-62.15
-42.45
-20.30
1.00
18.42
30.12
35.84
36.79
35.00
32.41
30.20
28.63
27.33
25.83
23.93
21.76
19.65
17.86
16.47
15.39
14.56
13.95
13.66
13.75
14.18
14.74
15.12
15.03
14.24
12.73
10.63
8.26
5.98
4.15
3.02
2.62
2.77
3.11
3.13
2.40
0.74
-1.66
-4.33
-6.73
-8.55
-9.82
-10.90
-12.20
-13.93
-15.98
-18.08
-20.00
-21.71
-23.35
-25.16
-27.23
-29.47
-31.67
-33.65
-35.32
-36.74
-38.03
-39.33
-40.79
-42.61
-44.88
-47.51
-49.96
-51.29
-50.40
-46.41
-39.02
-28.59
-15.92
-1.92
12.64
27.07
40.58
52.12
60.53
64.97
65.29
62.24
57.12
51.26
45.55
40.31
35.56
31.38
28.01
25.80
25.02
25.57
27.03
28.77
30.12
30.55
29.81
27.91
25.15
21.96
18.82
16.06
13.81
12.00
10.39
8.77
7.00
5.06
3.03
0.99
-0.96
-2.77
-4.45
-6.10
-7.89
-9.95
-12.30
-14.77
-17.11
-19.07
-20.57
-21.73
-22.82
-24.08
-25.66
-27.50
-29.44
-31.26
-32.87
-34.30
-35.73
-37.41
-39.54
-42.29
-45.67
-49.64
-53.93
-58.04
-61.22
-62.46
-60.75
-55.28
-45.75
-32.60
-17.01
-0.67
14.60
27.32
36.66
42.54
45.47
46.25
45.73
44.50
42.89
40.95
38.68
36.09
33.31
30.62
28.27
26.48
25.23
24.38
23.71
23.04
22.32
21.59
20.87
20.05
18.97
17.47
15.50
13.13
10.57
8.04
5.71
3.69
1.97
0.44
-1.12
-3.01
-5.46
-8.45
-11.57
-14.09
-15.19
-14.30
-11.39
-7.02
-2.08
2.53
6.26
8.99
10.86
12.01
12.39
11.86
10.28
7.72
4.45
0.76
-3.12
-7.13
-11.26
-15.43
-19.43
-23.05
-26.13
-28.79
-31.48
-34.78
-39.27
-45.23
-52.47
-60.20
-67.11
-71.54
-71.89
-67.08
-56.97
-42.47
-25.35
-7.67
8.71
22.52
33.12
40.36
44.43
45.67
44.67
42.19
39.18
36.55
34.96
34.57
35.04
35.61
35.47
34.07
31.35
27.85
24.51
22.31
21.82
22.93
24.74
26.02
25.68
23.32
19.41
15.02
11.31
9.06
8.42
8.97
10.09
11.21
11.98
12.18
11.67
10.30
8.00
4.84
1.10
-2.93
-6.99
-10.99
-14.89
-18.55
-21.63
-23.72
-24.48
-23.87
-22.23
-20.13
-18.18
-16.86
-16.43
-16.93
-18.32
-20.51
-23.36
-26.71
-30.33
-34.04
-37.80
-41.71
-45.93
-50.44
-54.83
-58.27
-59.65
-57.93
-52.54
-43.56
-31.72
-18.18
-4.20
9.13
20.94
30.62
37.83
42.47
44.73
45.00
43.74
41.37
38.23
34.61
30.78
26.99
23.54
20.64
18.47
17.17
16.86
17.64
19.56
22.55
26.34
30.50
34.44
37.64
39.75
40.63
40.34
39.04
36.85
33.91
30.37
26.49
22.58
18.86
15.31
11.69
7.63
3.00
-2.02
-6.92
-11.16
-14.41
-16.67
-18.16
-19.06
-19.54
-19.75
-20.06
-20.98
-23.04
-26.51
-31.22
-36.68
-42.26
-47.57
-52.58
-57.56
-62.85
-68.50
-74.08
-78.61
-80.80
-79.40
-73.59
-63.21
-48.84
-31.59
-12.87
5.86
23.21
37.91
48.96
55.80
58.51
57.84
55.01
51.38
48.00
45.39
43.48
41.86
40.11
38.04
35.72
33.38
31.30
29.63
28.48
27.83
27.61
27.54
27.18
26.06
23.82
20.42
16.14
11.47
6.92
2.87
-0.52
-3.16
-5.02
-6.03
-6.18
-5.57
-4.47
-3.21
-2.16
-1.64
-1.98
-3.39
-6.01
-9.74
-14.31
-19.20
-23.86
-27.74
-30.44
-31.85
-32.14
-31.77
-31.38
-31.65
-33.07
-35.86
-39.90
-44.73
-49.67
-53.71
-55.62
-54.10
-48.09
-37.24
-22.30
-5.05
12.15
27.15
38.68
46.58
51.54
54.51
56.15
56.67
55.98
54.01
50.92
47.16
43.24
39.61
36.51
33.96
31.78
29.62
27.11
23.95
20.12
15.81
11.37
7.07
3.08
-0.54
-3.71
-6.30
-8.12
-9.14
-9.46
-9.39
-9.15
-8.93
-8.78
-8.78
-9.06
-9.71
-10.73
-11.95
-13.24
-14.65
-16.46
-19.03
-22.44
-26.40
-30.22
-33.28
-35.32
-36.64
-37.88
-39.63
-42.10
-45.08
-48.09
-50.75
-52.81
-54.07
-54.13
-52.33
-47.92
-40.35
-29.62
-16.39
-1.87
12.44
25.16
35.23
42.18
46.09
47.48
47.14
45.90
44.44
43.21
42.41
41.99
41.73
41.30
40.44
38.97
36.88
34.26
31.22
27.80
24.04
20.02
15.88
11.81
7.99
4.52
1.45
-1.23
-3.55
-5.60
-7.55
-9.63
-11.98
-14.55
-17.08
-19.21
-20.77
-21.85
-22.79
-23.90
-25.26
-26.65
-27.68
-28.09
-27.88
-27.32
-26.80
-26.71
-27.34
-28.81
-31.13
-34.11
-37.29
-40.00
-41.37
-40.54
-36.89
-30.20
-20.74
-9.25
3.23
15.57
26.71
35.90
42.72
47.15
49.37
49.73
48.54
46.18
43.07
39.73
36.75
34.57
33.37
32.96
32.90
32.74
32.27
31.56
30.84
30.19
29.41
28.02
25.51
21.71
16.90
11.74
7.00
3.20
0.44
-1.60
-3.49
-5.75
-8.62
-12.04
-15.69
-19.28
-22.70
-26.12
-29.98
-34.76
-40.83
-48.26
-56.69
-65.33
-72.95
-78.03
-79.09
-75.05
-65.76
-52.23
-36.53
-21.09
-7.91
2.16
9.49
15.20
20.36
25.49
30.41
34.70
38.05
40.56
42.51
44.08
45.10
45.19
44.14
42.19
40.07
38.61
38.25
38.78
39.32
38.83
36.53
32.30
26.61
20.39
14.60
10.07
7.27
6.25
6.64
7.71
8.59
8.44
6.79
3.62
-0.63
-5.40
-10.25
-15.04
-19.88
-24.91
-29.99
-34.69
-38.43
-40.74
-41.49
-40.95
-39.62
-38.13
-37.07
-36.98
-38.26
-41.09
-45.17
-49.61
-52.95
-53.53
-50.11
-42.32
-30.81
-16.92
-2.19
12.18
25.34
36.70
45.70
51.82
54.81
54.98
53.20
50.58
47.98
45.75
43.73
41.60
39.27
36.96
35.15
34.20
34.17
34.82
35.70
36.30
36.12
34.72
31.75
27.12
21.09
14.23
7.27
0.84
-4.66
-9.05
-12.30
-14.44
-15.53
-15.67
-15.04
-13.89
-12.49
-11.10
-10.03
-9.60
-10.20
-12.08
-15.33
-19.66
-24.47
-28.93
-32.24
-33.77
-33.24
-30.70
-26.51
-21.29
-15.77
-10.72
-6.76
-4.28
-3.40
-4.08
-6.24
-9.80
-14.72
-20.91
-28.06
-35.59
-42.60
-47.95
-50.48
-49.31
-44.09
-35.18
-23.60
-10.76
1.88
13.12
22.17
28.72
32.77
34.50
34.24
32.36
29.35
25.70
21.83
18.03
14.55
11.63
9.53
8.48
8.51
9.40
10.62
11.60
11.92
11.50
10.62
9.76
9.38
9.71
10.65
11.88
13.00
13.73
14.05
14.17
14.42
15.09
16.29
17.82
19.32
20.35
20.61
20.01
18.76
17.24
15.93
15.20
15.29
16.19
17.69
19.41
20.94
21.89
22.08
21.57
20.63
19.69
19.15
19.16
19.56
19.92
19.70
18.49
16.16
12.87
8.90
4.51
-0.20
-5.34
-11.04
-17.51
-24.95
-33.59
-43.66
-55.20
-67.91
-81.03
-93.52
-104.34
-112.77
-118.52
-121.56
-121.83
-119.07
-112.88
-103.09
-89.97
-74.40
-57.58
-40.71
-24.65
-9.93
3.19
14.51
23.87
31.20
36.68
40.81
44.23
47.58
51.20
55.01
58.50
60.94
61.68
60.46
57.57
53.78
50.00
46.88
44.53
42.59
40.55
38.07
35.14
32.02
28.91
25.76
22.30
18.22
13.40
7.97
2.20
-3.67
-9.50
-15.21
-20.61
-25.34
-28.89
-30.91
-31.38
-30.79
-29.93
-29.59
-30.27
-31.94
-34.21
-36.52
-38.45
-39.94
-41.32
-43.09
-45.66
-49.06
-52.84
-56.07
-57.59
-56.36
-51.73
-43.63
-32.65
-19.82
-6.39
6.45
17.79
27.05
34.07
38.99
42.12
43.86
44.48
44.12
42.79
40.55
37.65
34.56
31.87
30.07
29.35
29.54
30.23
30.97
31.48
31.72
31.72
31.52
31.02
29.99
28.25
25.76
22.68
19.31
15.95
12.80
9.87
7.04
4.14
1.00
-2.47
-6.28
-10.34
-14.43
-18.30
-21.70
-24.47
-26.59
-28.17
-29.35
-30.19
-30.71
-30.86
-30.67
-30.28
-29.93
-29.91
-30.48
-31.85
-34.14
-37.38
-41.41
-45.78
-49.62
-51.80
-51.14
-46.88
-38.91
-27.84
-14.84
-1.22
11.82
23.43
33.09
40.54
45.69
48.61
49.50
48.71
46.77
44.18
41.40
38.73
36.34
34.26
32.47
30.96
29.70
28.68
27.86
27.21
26.67
26.15
25.53
24.65
23.38
21.69
19.64
17.40
15.20
13.19
11.44
9.88
8.38
6.85
5.25
3.55
1.76
-0.14
-2.12
-4.13
-6.09
-7.91
-9.60
-11.28
-13.16
-15.42
-18.12
-21.11
-24.11
-26.78
-28.90
-30.53
-31.94
-33.62
-36.03
-39.46
-43.85
-48.84
-53.71
-57.53
-59.28
-58.00
-53.06
-44.37
-32.57
-18.91
-4.99
7.70
18.22
26.29
32.20
36.44
39.36
41.05
41.44
40.50
38.45
35.78
33.11
30.96
29.62
29.08
29.14
29.49
29.84
29.94
29.57
28.53
26.67
24.03
20.79
17.33
14.12
11.54
9.76
8.67
7.90
6.97
5.44
3.03
-0.29
-4.37
-8.84
-13.31
-17.42
-20.94
-23.84
-26.29
-28.59
-31.00
-33.67
-36.59
-39.64
-42.70
-45.69
-48.62
-51.51
-54.34
-57.01
-59.42
-61.41
-62.78
-63.15
-62.02
-58.79
-52.92
-44.21
-32.94
-19.81
-5.81
7.99
20.63
31.34
39.70
45.66
49.55
51.90
53.27
53.98
54.01
53.16
51.30
48.60
45.55
42.78
40.69
39.31
38.34
37.32
36.00
34.38
32.70
31.24
30.08
29.11
28.07
26.70
24.85
22.55
19.93
17.21
14.53
11.99
9.52
7.00
4.30
1.38
-1.67
-4.65
-7.34
-9.64
-11.67
-13.73
-16.20
-19.40
-23.52
-28.55
-34.27
-40.26
-45.88
-50.31
-52.75
-52.53
-49.29
-43.07
-34.27
-23.59
-11.96
-0.37
10.27
19.18
25.90
30.27
32.35
32.37
30.67
27.73
24.19
20.90
18.77
18.51
20.34
23.79
27.83
31.20
32.93
32.60
30.44
27.12
23.33
19.52
15.78
11.97
7.97
3.91
0.15
-2.84
-4.72
-5.44
-5.18
-4.29
-3.15
-2.16
-1.71
-2.18
-3.91
-6.98
-11.27
-16.38
-21.78
-27.04
-31.93
-36.53
-41.05
-45.64
-50.12
-53.92
-56.18
-56.10
-53.31
-48.01
-40.88
-32.76
-24.27
-15.61
-6.67
2.69
12.29
21.50
29.37
34.89
37.42
36.94
34.16
30.27
26.61
24.13
23.11
23.23
23.79
24.20
24.22
24.01
23.81
23.73
23.52
22.82
21.37
19.24
16.79
14.42
12.24
9.99
7.18
3.43
-1.25
-6.33
-10.96
-14.32
-15.93
-15.86
-14.68
-13.19
-12.24
-12.46
-14.21
-17.63
-22.52
-28.38
-34.39
-39.35
-41.97
-41.12
-36.19
-27.31
-15.32
-1.64
12.13
24.55
34.55
41.53
45.31
46.10
44.36
40.79
36.19
31.33
26.86
23.11
20.15
17.80
15.78
13.89
12.01
10.21
8.72
7.74
7.38
7.52
7.77
7.57
6.37
3.93
0.47
-3.41
-6.95
-9.57
-11.17
-12.08
-12.95
-14.38
-16.60
-19.41
-22.31
-24.75
-26.48
-27.61
-28.63
-30.16
-32.70
-36.44
-41.22
-46.48
-51.46
-55.29
-57.20
-56.53
-52.91
-46.30
-37.07
-25.92
-13.81
-1.68
9.64
19.45
27.23
32.54
35.15
35.13
33.01
29.67
26.11
23.17
21.28
20.48
20.55
21.19
22.13
23.16
24.07
24.58
24.41
23.31
21.18
18.07
14.27
10.13
6.07
2.40
-0.82
-3.69
-6.47
-9.32
-12.21
-14.95
-17.30
-19.14
-20.60
-22.08
-24.07
-26.97
-30.88
-35.55
-40.34
-44.29
-46.35
-45.59
-41.45
-33.88
-23.47
-11.28
1.39
13.28
23.44
31.36
36.90
40.22
41.63
41.47
40.13
37.98
35.41
32.75
30.26
28.10
26.34
24.97
23.93
23.09
22.28
21.35
20.22
18.93
17.58
16.21
14.78
13.07
10.88
8.06
4.72
1.09
-2.53
-5.92
-9.02
-11.86
-14.52
-17.08
-19.66
-22.48
-25.81
-29.85
-34.52
-39.34
-43.45
-45.73
-45.19
-41.22
-33.82
-23.60
-11.66
0.63
11.93
21.19
27.88
32.01
33.99
34.39
33.67
32.07
29.68
26.64
23.29
20.12
17.62
16.03
15.27
14.99
14.83
14.55
14.12
13.63
13.07
12.33
11.17
9.41
7.07
4.40
1.76
-0.60
-2.61
-4.46
-6.44
-8.78
-11.48
-14.31
-16.94
-19.13
-20.86
-22.39
-24.11
-26.36
-29.33
-32.96
-36.96
-40.84
-43.90
-45.31
-44.22
-40.07
-32.82
-23.03
-11.73
-0.13
10.71
20.04
27.46
32.76
35.88
36.88
36.01
33.69
30.51
27.12
24.07
21.77
20.43
20.05
20.45
21.25
22.00
22.32
22.00
21.09
19.76
18.18
16.43
14.51
12.37
9.99
7.39
4.64
1.74
-1.25
-4.24
-7.10
-9.71
-12.06
-14.28
-16.60
-19.18
-21.96
-24.72
-27.14
-29.06
-30.57
-31.92
-33.38
-35.14
-37.36
-40.16
-43.55
-47.27
-50.62
-52.47
-51.61
-47.18
-39.03
-27.80
-14.64
-0.88
12.24
23.67
32.61
38.57
41.49
41.81
40.28
37.78
34.99
32.28
29.78
27.52
25.56
23.99
22.94
22.50
22.69
23.39
24.36
25.18
25.38
24.61
22.84
20.34
17.58
14.95
12.59
10.42
8.27
6.11
4.01
2.08
0.29
-1.56
-3.72
-6.27
-9.08
-11.81
-14.18
-16.09
-17.74
-19.49
-21.66
-24.30
-27.15
-29.79
-31.91
-33.57
-35.21
-37.43
-40.66
-44.88
-49.57
-53.83
-56.66
-57.19
-54.85
-49.39
-40.89
-29.82
-17.04
-3.76
8.74
19.36
27.47
32.93
35.92
36.76
35.76
33.21
29.55
25.40
21.46
18.32
16.28
15.29
15.07
15.31
15.74
16.25
16.75
17.12
17.17
16.76
15.84
14.44
12.69
10.72
8.65
6.63
4.82
3.31
2.01
0.66
-1.05
-3.28
-5.91
-8.51
-10.64
-12.04
-12.85
-13.48
-14.43
-16.02
-18.29
-21.03
-23.95
-26.78
-29.35
-31.65
-33.85
-36.22
-38.97
-41.97
-44.65
-46.05
-45.12
-41.21
-34.25
-24.83
-13.87
-2.36
8.88
19.11
27.68
34.06
37.95
39.42
38.91
37.01
34.30
31.21
28.05
25.17
22.92
21.51
20.87
20.69
20.57
20.28
19.92
19.67
19.63
19.61
19.20
18.02
16.01
13.40
10.56
7.78
5.14
2.58
0.05
-2.42
-4.79
-7.05
-9.36
-11.91
-14.83
-18.00
-21.12
-23.85
-26.01
-27.67
-29.16
-30.92
-33.34
-36.64
-40.82
-45.59
-50.36
-54.30
-56.43
-55.76
-51.60
-43.72
-32.54
-19.09
-4.78
8.91
20.78
30.13
36.73
40.67
42.26
41.88
40.01
37.21
34.11
31.26
29.00
27.36
26.18
25.23
24.43
23.81
23.52
23.61
23.92
24.13
23.90
22.98
21.36
19.18
16.71
14.22
11.90
9.86
8.07
6.44
4.76
2.86
0.70
-1.62
-3.89
-5.98
-7.90
-9.86
-12.09
-14.74
-17.67
-20.59
-23.19
-25.34
-27.24
-29.30
-31.95
-35.50
-39.97
-45.17
-50.67
-55.89
-60.01
-62.04
-60.90
-55.73
-46.17
-32.64
-16.29
1.14
17.76
32.02
42.94
50.27
54.32
55.80
55.49
54.08
52.14
50.08
48.18
46.64
45.51
44.78
44.36
44.14
43.94
43.54
42.61
40.73
37.47
32.66
26.49
19.59
12.95
7.65
4.49
3.73
4.98
7.31
9.64
11.09
11.28
10.43
9.15
8.16
7.97
8.60
9.50
9.66
7.89
3.30
-4.29
-14.09
-24.47
-33.47
-39.53
-42.06
-41.57
-39.33
-36.76
-34.86
-33.94
-33.67
-33.43
-32.65
-31.09
-28.89
-26.50
-24.45
-23.23
-23.17
-24.51
-27.34
-31.50
-36.36
-40.66
-42.74
-40.94
-34.36
-23.26
-9.15
5.72
19.23
30.01
37.67
42.59
45.37
46.52
46.30
44.96
42.90
40.65
38.74
37.43
36.65
36.07
35.35
34.36
33.17
31.99
30.94
29.97
28.97
27.95
27.08
26.49
25.97
24.90
22.34
17.58
10.55
1.97
-6.96
-15.13
-21.98
-27.52
-32.02
-35.49
-37.47
-37.26
-34.43
-29.26
-22.83
-16.60
-11.83
-9.14
-8.35
-8.83
-9.91
-11.16
-12.45
-13.84
-15.35
-16.90
-18.36
-19.64
-20.81
-22.01
-23.42
-25.08
-26.93
-28.88
-30.88
-33.06
-35.60
-38.55
-41.66
-44.21
-45.20
-43.59
-38.78
-30.80
-20.32
-8.43
3.74
15.17
25.15
33.28
39.43
43.66
46.08
46.73
45.44
42.06
36.59
29.52
21.80
14.63
9.04
5.52
3.97
3.97
5.09
7.09
9.93
13.51
17.51
21.38
24.49
26.35
26.76
25.82
23.84
21.28
18.57
16.10
14.08
12.51
11.18
9.80
8.13
6.14
3.96
1.82
-0.15
-1.98
-3.82
-5.82
-8.00
-10.32
-12.68
-15.04
-17.44
-19.89
-22.35
-24.69
-26.75
-28.47
-29.94
-31.44
-33.30
-35.83
-39.26
-43.58
-48.55
-53.52
-57.54
-59.45
-58.17
-53.12
-44.38
-32.74
-19.52
-6.18
5.98
16.14
23.94
29.49
33.15
35.38
36.61
37.17
37.24
36.92
36.21
35.15
33.81
32.37
31.05
30.04
29.40
29.03
28.71
28.18
27.34
26.27
25.17
24.25
23.58
23.08
22.53
21.71
20.47
18.83
16.88
14.73
12.48
10.18
7.84
5.51
3.23
1.09
-0.85
-2.49
-3.82
-4.89
-5.82
-6.85
-8.21
-10.05
-12.32
-14.84
-17.35
-19.65
-21.69
-23.59
-25.51
-27.55
-29.70
-31.80
-33.69
-35.30
-36.63
-37.83
-39.14
-40.87
-43.31
-46.67
-50.90
-55.63
-60.08
-63.24
-63.99
-61.46
-55.20
-45.39
-32.82
-18.73
-4.56
8.42
19.33
27.79
33.86
37.89
40.23
41.19
40.97
39.83
38.14
36.40
35.12
34.64
34.99
35.87
36.81
37.33
37.17
36.28
34.77
32.78
30.44
27.84
25.06
22.22
19.47
16.97
14.78
12.91
11.27
9.78
8.36
6.96
5.53
4.06
2.55
1.08
-0.25
-1.33
-2.17
-2.86
-3.62
-4.69
-6.22
-8.22
-10.52
-12.86
-15.04
-17.01
-18.92
-20.99
-23.35
-25.90
-28.34
-30.41
-32.04
-33.46
-35.08
-37.20
-39.85
-42.86
-46.04
-49.39
-53.05
-57.11
-61.15
-64.17
-64.81
-61.90
-55.05
-44.86
-32.74
-20.31
-8.88
0.81
8.50
14.23
18.19
20.81
22.82
25.22
28.98
34.62
41.83
49.59
56.53
61.51
64.06
64.46
63.40
61.63
59.61
57.45
55.08
52.42
49.53
46.54
43.51
40.36
36.91
33.05
28.79
24.42
20.35
16.92
14.28
12.28
10.60
8.85
6.77
4.28
1.50
-1.32
-3.79
-5.43
-5.85
-4.84
-2.59
0.31
3.07
4.85
5.09
3.54
0.26
-4.47
-10.25
-16.63
-23.19
-29.61
-35.71
-41.48
-46.88
-51.69
-55.29
-56.72
-55.02
-49.70
-41.01
-29.97
-17.98
-6.38
3.89
12.38
18.95
23.58
26.26
26.98
25.88
23.34
19.93
16.32
13.08
10.61
9.10
8.64
9.21
10.78
13.21
16.27
19.59
22.75
25.34
27.07
27.81
27.55
26.41
24.57
22.31
19.91
17.72
15.97
14.84
14.26
14.01
13.78
13.22
12.05
10.20
7.70
4.77
1.62
-1.59
-4.78
-7.93
-10.99
-13.98
-16.78
-19.31
-21.40
-22.69
-22.83
-21.65
-19.61
-17.93
-18.20
-21.81
-29.26
-39.90
-52.29
-64.98
-77.05
-88.15
-97.88
-105.25
-108.49
-105.73
-95.98
-80.00
-60.19
-39.68
-21.19
-6.05
5.88
15.61
24.12
31.80
38.33
42.88
44.94
44.55
42.50
40.04
38.36
38.14
39.35
41.36
43.30
44.57
44.95
44.59
43.79
42.67
41.09
38.80
35.64
31.83
27.92
24.60
22.39
21.43
21.48
22.15
23.10
24.21
25.41
26.45
26.70
25.21
21.08
13.93
4.27
-6.58
-16.96
-25.42
-31.27
-34.56
-35.92
-36.11
-35.74
-35.20
-34.65
-34.10
-33.42
-32.31
-30.42
-27.58
-23.99
-20.35
-17.65
-16.88
-18.64
-23.03
-29.60
-37.62
-46.16
-54.12
-60.25
-63.27
-62.13
-56.41
-46.63
-34.18
-20.93
-8.63
1.58
9.31
14.76
18.31
20.21
20.57
19.46
17.19
14.36
11.73
9.99
9.56
10.53
12.74
15.85
19.42
22.94
25.96
28.17
29.54
30.31
30.91
31.76
33.09
34.90
36.96
38.89
40.23
40.53
39.39
36.61
32.19
26.41
19.79
12.91
6.34
0.50
-4.39
-8.35
-11.54
-14.27
-16.93
-19.80
-23.09
-26.86
-30.98
-35.22
-39.25
-42.77
-45.66
-47.98
-50.00
-52.08
-54.50
-57.24
-59.93
-61.89
-62.25
-60.25
-55.46
-47.84
-37.79
-26.01
-13.29
-0.39
12.11
23.70
33.93
42.31
48.41
51.90
52.82
51.58
48.93
45.64
42.57
40.31
39.27
39.71
41.61
44.46
47.17
48.23
46.21
40.54
31.95
22.37
14.17
9.09
7.56
8.63
10.65
12.19
12.63
12.14
11.19
10.04
8.52
6.35
3.49
0.31
-2.57
-4.73
-6.26
-7.64
-9.45
-12.21
-15.91
-20.26
-24.85
-29.35
-33.63
-37.82
-42.17
-46.95
-52.30
-58.02
-63.50
-67.71
-69.41
-67.50
-61.42
-51.25
-37.77
-22.21
-6.00
9.50
23.16
34.24
42.41
47.79
50.81
52.05
52.08
51.34
50.16
48.83
47.65
46.93
46.91
47.61
48.80
50.06
50.96
51.27
50.96
50.19
49.18
48.03
46.68
45.00
42.89
40.45
37.92
35.66
33.97
32.94
32.37
31.81
30.76
28.82
25.80
21.77
16.88
11.30
5.04
-2.00
-9.92
-18.67
-27.94
-37.14
-45.59
-52.80
-58.63
-63.36
-67.65
-72.32
-78.11
-85.46
-94.30
-103.93
-113.04
-119.94
-122.93
-120.82
-113.32
-101.09
-85.65
-68.86
-52.44
-37.62
-25.02
-14.80
-6.88
-1.03
2.99
5.53
7.04
8.03
9.00
10.31
12.12
14.39
16.94
19.59
22.18
24.63
26.96
29.18
31.26
33.05
34.36
35.05
35.08
34.67
34.18
34.01
34.34
35.04
35.62
35.51
34.22
31.61
27.83
23.23
18.23
13.24
8.63
4.73
1.81
-0.00
-0.82
-0.98
-0.92
-1.08
-1.72
-2.96
-4.73
-6.95
-9.47
-12.18
-14.92
-17.60
-20.13
-22.60
-25.19
-28.19
-31.92
-36.52
-41.81
-47.22
-51.75
-54.22
-53.59
-49.34
-41.59
-31.15
-19.25
-7.17
4.01
13.62
21.37
27.19
31.22
33.68
34.86
35.13
34.90
34.59
34.55
35.04
36.18
37.98
40.34
43.09
46.07
49.13
52.11
54.79
56.92
58.23
58.60
58.14
57.21
56.36
55.97
56.08
56.28
55.90
54.36
51.58
48.10
44.94
43.27
43.83
46.68
51.10
55.84
59.49
60.90
59.39
54.84
47.53
37.97
26.77
14.56
1.89
-10.66
-22.57
-33.40
-42.88
-51.00
-57.96
-64.10
-69.82
-75.41
-81.08
-86.84
-92.58
-97.98
-102.54
-105.55
-106.23
-103.90
-98.18
-89.19
-77.53
-64.18
-50.26
-36.81
-24.63
-14.24
-5.89
0.35
4.51
6.79
7.55
7.36
6.91
6.87
7.65
9.29
11.52
13.91
16.13
18.07
19.84
21.59
23.32
24.80
25.69
25.69
24.76
23.16
21.30
19.59
18.17
16.97
15.71
14.17
12.28
10.18
8.10
6.24
4.58
2.93
0.97
-1.54
-4.66
-8.24
-11.97
-15.56
-18.84
-21.80
-24.56
-27.33
-30.27
-33.49
-36.95
-40.53
-43.95
-46.75
-48.20
-47.46
-43.71
-36.56
-26.24
-13.74
-0.55
11.69
21.68
28.75
32.88
34.56
34.45
33.21
31.31
29.11
26.88
24.87
23.31
22.36
22.07
22.31
22.84
23.37
23.72
23.79
23.63
23.30
22.81
22.03
20.73
18.70
15.91
12.57
9.15
6.19
4.09
2.95
2.52
2.31
1.85
0.82
-0.76
-2.63
-4.40
-5.83
-6.88
-7.75
-8.79
-10.32
-12.51
-15.27
-18.34
-21.34
-23.97
-26.08
-27.80
-29.48
-31.55
-34.44
-38.36
-43.28
-48.79
-54.16
-58.37
-60.28
-58.83
-53.37
-43.91
-31.18
-16.53
-1.60
12.09
23.47
32.09
37.98
41.57
43.33
43.70
43.03
41.56
39.60
37.49
35.61
34.24
33.47
33.14
32.95
32.55
31.77
30.63
29.29
27.93
26.61
25.24
23.61
21.49
18.77
15.47
11.83
8.14
4.75
1.91
-0.28
-1.85
-2.94
-3.65
-4.02
-4.05
-3.77
-3.31
-2.94
-2.96
-3.58
-4.82
-6.46
-8.22
-9.88
-11.40
-12.91
-14.60
-16.60
-18.89
-21.30
-23.65
-25.78
-27.69
-29.51
-31.47
-33.84
-36.87
-40.72
-45.37
-50.52
-55.49
-59.23
-60.56
-58.46
-52.43
-42.74
-30.27
-16.34
-2.30
10.79
22.20
31.53
38.56
43.19
45.48
45.71
44.35
42.04
39.43
37.08
35.42
34.69
34.97
36.13
37.85
39.68
41.15
41.97
42.06
41.55
40.63
39.38
37.76
35.65
33.01
29.99
26.90
24.05
21.60
19.43
17.22
14.64
11.52
7.96
4.27
0.81
-2.19
-4.77
-7.16
-9.68
-12.54
-15.75
-19.11
-22.29
-25.03
-27.28
-29.17
-30.97
-33.01
-35.57
-38.86
-42.99
-47.75
-52.65
-56.74
-58.87
-57.95
-53.30
-44.94
-33.57
-20.37
-6.72
6.13
17.17
25.77
31.65
34.88
35.82
35.05
33.25
31.06
28.95
27.20
25.92
25.06
24.50
24.14
23.95
23.96
24.28
24.96
25.94
26.98
27.78
28.08
27.76
26.87
25.59
24.16
22.72
21.33
19.88
18.20
16.10
13.56
10.74
7.93
5.50
3.65
2.34
1.30
0.16
-1.40
-3.48
-5.99
-8.62
-11.02
-12.87
-14.02
-14.56
-14.82
-15.35
-16.72
-19.33
-23.24
-28.08
-33.23
-38.00
-41.97
-45.11
-47.72
-50.39
-53.67
-57.95
-63.13
-68.60
-73.23
-75.63
-74.48
-68.98
-59.08
-45.57
-29.86
-13.61
1.61
14.70
25.08
32.65
37.65
40.45
41.46
41.05
39.61
37.55
35.31
33.34
31.93
31.21
31.05
31.19
31.34
31.33
31.13
30.81
30.43
29.92
29.13
27.89
26.15
24.00
21.70
19.52
17.63
16.02
14.54
12.95
11.12
9.00
6.69
4.34
2.08
-0.00
-1.87
-3.58
-5.23
-6.93
-8.80
-10.86
-13.04
-15.17
-17.13
-18.85
-20.45
-22.12
-24.04
-26.28
-28.77
-31.31
-33.69
-35.78
-37.53
-39.03
-40.51
-42.27
-44.66
-48.00
-52.41
-57.61
-62.93
-67.29
-69.50
-68.50
-63.72
-55.18
-43.57
-30.04
-15.93
-2.50
9.34
19.12
26.73
32.27
35.85
37.58
37.56
36.06
33.51
30.53
27.74
25.64
24.46
24.14
24.42
25.00
25.60
26.06
26.35
26.46
26.39
26.08
25.43
24.36
22.85
20.99
18.97
16.98
15.12
13.34
11.51
9.54
7.43
5.31
3.39
1.83
0.64
-0.30
-1.16
-2.09
-3.20
-4.55
-6.19
-8.17
-10.50
-13.12
-15.89
-18.63
-21.26
-23.87
-26.71
-30.15
-34.43
-39.48
-44.75
-49.27
-51.80
-51.26
-46.99
-39.02
-28.05
-15.25
-1.98
10.55
21.36
29.87
35.86
39.42
40.86
40.60
39.12
36.82
34.13
31.43
29.10
27.40
26.40
25.93
25.69
25.40
24.92
24.35
23.84
23.52
23.27
22.84
21.90
20.23
17.86
15.03
12.11
9.48
7.34
5.62
4.07
2.36
0.24
-2.27
-4.92
-7.38
-9.42
-11.06
-12.61
-14.47
-16.94
-20.09
-23.62
-27.12
-30.19
-32.62
-34.46
-35.99
-37.64
-39.86
-43.01
-47.24
-52.34
-57.62
-61.93
-63.86
-62.13
-56.00
-45.59
-31.87
-16.41
-1.01
12.86
24.28
32.90
38.85
42.43
43.96
43.77
42.26
39.95
37.42
35.24
33.76
33.03
32.83
32.84
32.83
32.76
32.72
32.82
33.05
33.26
33.22
32.71
31.61
29.95
27.82
25.44
23.03
20.76
18.69
16.78
14.89
12.88
10.70
8.43
6.20
4.10
2.15
0.26
-1.72
-3.89
-6.25
-8.69
-11.04
-13.16
-15.04
-16.80
-18.66
-20.79
-23.25
-25.93
-28.60
-31.08
-33.29
-35.40
-37.69
-40.54
-44.27
-49.01
-54.56
-60.30
-65.15
-67.79
-66.97
-61.93
-52.65
-39.95
-25.20
-10.01
4.22
16.45
26.14
33.12
37.53
39.70
40.05
39.06
37.20
34.90
32.56
30.55
29.11
28.31
28.03
28.00
27.95
27.68
27.16
26.47
25.69
24.85
23.86
22.60
20.98
19.02
16.83
14.53
12.24
9.98
7.73
5.49
3.28
1.21
-0.62
-2.20
-3.61
-5.05
-6.71
-8.71
-10.95
-13.21
-15.16
-16.56
-17.33
-17.58
-17.53
-17.52
-17.80
-18.55
-19.79
-21.38
-23.13
-24.83
-26.46
-28.17
-30.29
-33.19
-37.02
-41.54
-45.99
-49.22
-49.97
-47.34
-41.06
-31.65
-20.16
-7.88
4.02
14.76
23.89
31.18
36.46
39.60
40.57
39.63
37.30
34.30
31.33
28.86
27.06
25.86
25.06
24.48
24.07
23.87
23.91
24.22
24.71
25.21
25.48
25.32
24.62
23.40
21.83
20.13
18.53
17.17
16.03
15.00
13.93
12.68
11.16
9.34
7.34
5.35
3.59
2.29
1.49
0.98
0.35
-0.88
-3.02
-6.05
-9.64
-13.25
-16.42
-18.93
-20.77
-22.09
-23.09
-24.10
-25.55
-28.00
-31.85
-37.05
-42.79
-47.61
-49.82
-48.20
-42.45
-33.41
-22.66
-11.94
-2.59
4.78
10.15
13.83
16.09
17.10
16.84
15.40
13.05
10.33
7.92
6.40
6.04
6.71
7.97
9.33
10.39
11.04
11.42
11.80
12.42
13.31
14.32
15.11
15.33
14.80
13.58
11.91
10.16
8.56
7.20
6.00
4.79
3.48
2.01
0.43
-1.26
-3.04
-4.90
-6.81
-8.70
-10.61
-12.61
-14.87
-17.51
-20.54
-23.80
-27.04
-30.11
-32.94
-35.66
-38.46
-41.55
-45.11
-49.22
-53.84
-58.63
-62.96
-65.85
-66.24
-63.29
-56.64
-46.59
-33.96
-19.90
-5.55
8.09
20.28
30.46
38.20
43.31
45.81
46.09
44.77
42.65
40.42
38.49
37.00
35.87
35.03
34.53
34.56
35.27
36.60
38.18
39.44
39.85
39.12
37.32
34.76
31.82
28.83
25.95
23.28
20.86
18.70
16.74
14.86
12.91
10.77
8.48
6.16
3.98
2.05
0.34
-1.27
-2.95
-4.81
-6.93
-9.24
-11.68
-14.16
-16.60
-18.93
-21.08
-22.99
-24.63
-26.10
-27.61
-29.47
-32.12
-35.85
-40.73
-46.43
-52.12
-56.68
-58.89
-57.81
-53.04
-44.84
-34.07
-21.89
-9.48
2.20
12.58
21.34
28.33
33.47
36.66
37.96
37.64
36.25
34.51
33.14
32.60
33.05
34.34
36.19
38.37
40.79
43.42
46.19
48.90
51.23
52.87
53.70
53.92
53.98
54.44
55.71
57.87
60.60
63.22
64.93
65.01
63.01
58.86
52.85
45.47
37.27
28.76
20.30
12.03
3.98
-3.87
-11.51
-18.69
-24.97
-29.82
-32.85
-34.05
-33.93
-33.37
-33.36
-34.71
-37.78
-42.44
-48.21
-54.38
-60.18
-64.82
-67.54
-67.70
-64.84
-58.86
-50.14
-39.42
-27.79
-16.39
-6.25
1.90
7.71
11.17
12.57
12.33
10.91
8.72
6.18
3.69
1.65
0.38
0.06
0.60
1.72
3.03
4.16
4.91
5.25
5.25
4.98
4.44
3.58
2.40
0.96
-0.65
-2.30
-3.94
-5.56
-7.11
-8.53
-9.71
-10.63
-11.35
-12.08
-13.02
-14.30
-15.91
-17.73
-19.62
-21.49
-23.32
-25.11
-26.81
-28.32
-29.54
-30.47
-31.29
-32.33
-33.97
-36.55
-40.24
-45.01
-50.54
-56.21
-61.11
-64.06
-63.87
-59.66
-51.13
-38.78
-23.83
-7.93
7.30
20.55
31.14
38.90
44.00
46.79
47.60
46.81
44.83
42.22
39.57
37.40
36.00
35.31
35.05
34.91
34.73
34.56
34.61
35.00
35.69
36.40
36.72
36.32
35.01
32.88
30.14
27.06
23.82
20.51
17.13
13.71
10.37
7.33
4.80
2.84
1.31
-0.15
-1.89
-4.09
-6.56
-8.88
-10.63
-11.68
-12.36
-13.33
-15.27
-18.49
-22.70
-27.13
-30.82
-33.11
-33.89
-33.62
-33.15
-33.32
-34.76
-37.76
-42.29
-48.07
-54.51
-60.69
-65.41
-67.31
-65.28
-58.77
-48.07
-34.23
-18.82
-3.48
10.44
22.07
31.06
37.45
41.48
43.48
43.80
42.81
40.88
38.40
35.77
33.34
31.38
30.00
29.23
28.98
29.16
29.68
30.44
31.32
32.12
32.56
32.38
31.41
29.68
27.42
24.98
22.68
20.68
18.96
17.36
15.74
14.03
12.26
10.53
8.89
7.32
5.73
4.05
2.24
0.29
-1.72
-3.72
-5.65
-7.44
-9.08
-10.60
-12.16
-13.94
-16.11
-18.65
-21.39
-23.99
-26.21
-27.99
-29.57
-31.34
-33.73
-37.02
-41.23
-46.09
-51.02
-55.17
-57.51
-57.01
-52.99
-45.34
-34.65
-22.08
-9.03
3.24
13.88
22.50
29.02
33.53
36.08
36.76
35.76
33.40
30.21
26.82
23.79
21.54
20.20
19.71
19.84
20.32
20.97
21.66
22.32
22.87
23.16
23.01
22.27
20.89
19.01
16.88
14.81
13.01
11.49
10.14
8.76
7.19
5.40
3.50
1.61
-0.17
-1.84
-3.49
-5.26
-7.29
-9.61
-12.28
-15.25
-18.44
-21.75
-24.97
-27.95
-30.59
-33.00
-35.46
-38.39
-42.19
-46.99
-52.47
-57.85
-62.01
-63.80
-62.36
-57.28
-48.74
-37.40
-24.24
-10.40
3.01
15.00
24.90
32.29
37.12
39.58
40.06
39.03
36.97
34.37
31.66
29.19
27.20
25.75
24.79
24.19
23.83
23.64
23.58
23.66
23.81
23.95
23.92
23.57
22.76
21.43
19.60
17.41
15.05
12.77
10.71
8.92
7.30
5.68
3.89
1.80
-0.63
-3.36
-6.29
-9.24
-12.05
-14.57
-16.84
-18.99
-21.30
-23.96
-26.98
-30.21
-33.40
-36.41
-39.26
-42.14
-45.27
-48.86
-53.04
-57.86
-63.18
-68.55
-73.15
-75.82
-75.39
-71.01
-62.50
-50.44
-35.93
-20.34
-4.95
9.15
21.17
30.55
37.04
40.70
41.86
41.12
39.17
36.69
34.18
32.00
30.32
29.15
28.44
28.09
28.03
28.20
28.59
29.14
29.74
30.22
30.35
29.95
28.97
27.45
25.54
23.45
21.34
19.31
17.37
15.48
13.63
11.82
10.04
8.23
6.29
4.15
1.82
-0.63
-3.06
-5.38
-7.60
-9.80
-12.03
-14.31
-16.64
-19.07
-21.73
-24.76
-28.15
-31.74
-35.16
-38.08
-40.39
-42.30
-44.24
-46.74
-50.20
-54.76
-60.32
-66.46
-72.50
-77.40
-79.90
-78.74
-73.09
-62.85
-48.78
-32.31
-15.14
1.23
15.72
27.75
37.10
43.70
47.60
48.99
48.29
46.16
43.38
40.62
38.30
36.53
35.26
34.44
34.10
34.30
35.01
36.03
37.02
37.65
37.75
37.33
36.55
35.52
34.33
32.96
31.42
29.76
28.09
26.45
24.82
23.08
21.08
18.80
16.32
13.83
11.49
9.35
7.30
5.20
2.97
0.59
-1.83
-4.23
-6.58
-8.96
-11.45
-14.11
-16.88
-19.65
-22.29
-24.70
-26.91
-29.00
-31.12
-33.48
-36.35
-40.04
-44.79
-50.59
-57.02
-63.17
-67.73
-69.31
-66.80
-59.75
-48.48
-33.99
-17.67
-0.99
14.76
28.50
39.44
47.10
51.35
52.46
51.08
48.06
44.29
40.50
37.17
34.60
32.90
32.04
31.83
31.98
32.20
32.29
32.23
32.10
32.05
32.08
32.04
31.68
30.74
29.13
26.96
24.48
21.93
19.44
16.98
14.48
11.91
9.36
6.95
4.78
2.78
0.74
-1.56
-4.21
-7.12
-10.08
-12.91
-15.61
-18.38
-21.47
-25.00
-28.83
-32.63
-36.06
-38.97
-41.51
-44.01
-46.94
-50.65
-55.35
-61.03
-67.43
-73.98
-79.76
-83.52
-83.91
-79.82
-70.70
-56.88
-39.54
-20.47
-1.57
15.57
29.95
41.23
49.49
54.95
57.82
58.33
56.84
54.00
50.66
47.60
45.31
43.85
42.92
42.18
41.43
40.73
40.26
40.15
40.34
40.54
40.38
39.55
37.95
35.68
33.02
30.31
27.83
25.73
23.96
22.32
20.54
18.45
16.02
13.40
10.83
8.50
6.46
4.61
2.75
0.68
-1.64
-4.17
-6.76
-9.28
-11.65
-13.89
-16.07
-18.31
-20.74
-23.46
-26.52
-29.83
-33.19
-36.38
-39.16
-41.51
-43.60
-45.80
-48.57
-52.26
-57.03
-62.78
-69.09
-75.21
-80.04
-82.20
-80.33
-73.50
-61.60
-45.52
-26.97
-8.00
9.61
24.68
36.74
45.73
51.80
55.05
55.70
54.19
51.25
47.85
44.84
42.71
41.54
41.01
40.75
40.49
40.17
39.89
39.73
39.69
39.66
39.51
39.08
38.28
37.02
35.26
32.97
30.22
27.17
24.10
21.27
18.86
16.87
15.12
13.37
11.52
9.56
7.60
5.74
3.98
2.20
0.28
-1.81
-4.01
-6.14
-8.11
-9.95
-11.87
-14.14
-16.92
-20.18
-23.70
-27.15
-30.27
-32.95
-35.23
-37.26
-39.25
-41.38
-43.86
-46.88
-50.67
-55.38
-61.01
-67.16
-72.94
-77.04
-77.92
-74.38
-65.91
-52.95
-36.80
-19.22
-1.96
13.63
26.73
36.92
44.05
48.12
49.39
48.33
45.71
42.34
38.90
35.83
33.35
31.55
30.45
30.06
30.26
30.88
31.66
32.36
32.84
33.02
32.83
32.14
30.81
28.75
26.03
22.91
19.72
16.75
14.16
11.96
10.06
8.37
6.79
5.27
3.74
2.12
0.35
-1.57
-3.60
-5.63
-7.60
-9.52
-11.51
-13.77
-16.42
-19.43
-22.63
-25.71
-28.45
-30.76
-32.77
-34.73
-37.05
-40.10
-44.14
-49.17
-54.77
-60.06
-63.74
-64.46
-61.15
-53.41
-41.61
-26.85
-10.69
5.25
19.54
31.18
39.69
45.09
47.73
48.09
46.67
43.88
40.15
35.94
31.80
28.27
25.75
24.37
24.01
24.39
25.22
26.28
27.42
28.45
29.13
29.16
28.32
26.51
23.83
20.57
17.10
13.80
10.93
8.54
6.51
4.61
2.62
0.44
-1.93
-4.36
-6.71
-8.94
-11.11
-13.37
-15.92
-18.88
-22.24
-25.85
-29.45
-32.83
-35.87
-38.62
-41.23
-43.93
-46.96
-50.55
-54.91
-60.10
-65.97
-71.95
-76.96
-79.61
-78.47
-72.55
-61.64
-46.54
-28.81
-10.45
6.68
21.29
32.81
41.28
47.08
50.59
52.07
51.73
49.93
47.28
44.52
42.29
40.83
39.98
39.33
38.58
37.69
36.96
36.72
37.07
37.75
38.23
37.99
36.75
34.61
31.89
29.00
26.21
23.63
21.21
18.88
16.59
14.31
12.02
9.64
7.09
4.28
1.24
-1.90
-4.92
-7.67
-10.16
-12.54
-15.04
-17.90
-21.19
-24.82
-28.61
-32.35
-35.89
-39.17
-42.23
-45.19
-48.27
-51.75
-55.88
-60.82
-66.51
-72.56
-78.27
-82.63
-84.49
-82.78
-76.73
-66.17
-51.65
-34.44
-16.31
0.86
15.53
26.76
34.17
37.86
38.14
35.62
31.28
26.55
23.13
22.48
25.29
31.13
38.57
45.75
51.07
53.71
53.73
51.84
48.93
45.65
42.35
39.14
36.10
33.44
31.45
30.38
30.26
30.84
31.65
32.19
32.14
31.48
30.39
29.08
27.65
26.08
24.30
22.27
20.09
17.88
15.79
13.89
12.17
10.54
8.86
7.00
4.90
2.60
0.27
-1.88
-3.69
-5.21
-6.61
-8.13
-9.93
-11.94
-14.01
-15.95
-17.76
-19.63
-21.79
-24.41
-27.46
-30.73
-33.94
-36.87
-39.42
-41.69
-43.88
-46.32
-49.34
-53.27
-58.26
-64.16
-70.39
-75.87
-79.15
-78.72
-73.50
-63.18
-48.43
-30.75
-12.13
5.55
20.80
32.84
41.51
47.07
49.96
50.62
49.46
46.94
43.63
40.16
37.13
34.92
33.63
33.08
33.01
33.21
33.57
34.08
34.69
35.21
35.33
34.79
33.46
31.43
28.95
26.38
23.98
21.92
20.22
18.74
17.30
15.73
13.92
11.90
9.76
7.66
5.69
3.88
2.16
0.40
-1.53
-3.72
-6.16
-8.73
-11.22
-13.47
-15.44
-17.26
-19.15
-21.29
-23.71
-26.26
-28.69
-30.79
-32.54
-34.07
-35.68
-37.74
-40.59
-44.51
-49.59
-55.57
-61.73
-66.89
-69.60
-68.50
-62.74
-52.30
-38.05
-21.59
-4.76
10.80
23.96
34.20
41.43
45.82
47.57
46.99
44.54
40.92
36.98
33.48
30.92
29.39
28.72
28.60
28.81
29.27
29.96
30.85
31.82
32.69
33.21
33.21
32.54
31.11
28.93
26.06
22.73
19.21
15.82
12.77
10.13
7.74
5.40
2.88
0.11
-2.86
-5.84
-8.60
-11.05
-13.21
-15.30
-17.62
-20.43
-23.84
-27.72
-31.71
-35.38
-38.42
-40.73
-42.51
-44.22
-46.39
-49.50
-53.80
-59.24
-65.37
-71.31
-75.84
-77.51
-75.03
-67.67
-55.54
-39.70
-21.91
-4.15
11.87
25.06
34.96
41.65
45.48
46.91
46.39
44.43
41.59
38.50
35.74
33.70
32.53
32.14
32.31
32.78
33.39
34.08
34.79
35.43
35.83
35.81
35.19
33.95
32.15
29.95
27.50
24.89
22.13
19.19
16.06
12.79
9.48
6.28
3.30
0.61
-1.82
-4.03
-6.05
-7.93
-9.61
-11.08
-12.34
-13.50
-14.73
-16.25
-18.27
-20.89
-24.07
-27.58
-31.14
-34.47
-37.46
-40.16
-42.85
-45.90
-49.68
-54.39
-59.92
-65.69
-70.64
-73.35
-72.42
-66.94
-56.78
-42.78
-26.47
-9.66
6.07
19.66
30.57
38.65
43.96
46.67
47.11
45.83
43.54
41.01
38.85
37.36
36.52
36.13
35.99
36.01
36.22
36.63
37.17
37.64
37.75
37.28
36.16
34.42
32.24
29.77
27.15
24.54
22.06
19.86
18.00
16.44
15.05
13.64
12.08
10.36
8.54
6.74
5.05
3.46
1.88
0.22
-1.64
-3.74
-6.07
-8.56
-11.08
-13.46
-15.60
-17.46
-19.18
-21.04
-23.33
-26.22
-29.69
-33.50
-37.30
-40.70
-43.49
-45.70
-47.63
-49.82
-52.83
-57.04
-62.43
-68.38
-73.76
-77.10
-76.97
-72.35
-62.97
-49.41
-32.97
-15.36
1.66
16.66
28.72
37.47
43.01
45.75
46.21
44.97
42.66
39.94
37.41
35.57
34.65
34.58
35.09
35.82
36.47
36.90
37.11
37.13
36.99
36.60
35.84
34.64
33.00
31.00
28.83
26.65
24.57
22.57
20.58
18.53
16.35
14.08
11.79
9.56
7.47
5.56
3.88
2.47
1.37
0.49
-0.30
-1.26
-2.56
-4.29
-6.38
-8.68
-11.09
-13.67
-16.53
-19.83
-23.53
-27.41
-31.10
-34.32
-37.01
-39.39
-41.88
-44.86
-48.55
-52.78
-57.10
-60.75
-62.85
-62.52
-59.05
-52.12
-41.88
-29.01
-14.63
-0.06
13.42
24.85
33.65
39.63
42.86
43.62
42.30
39.51
36.01
32.62
30.04
28.65
28.42
29.02
30.02
31.09
32.12
33.14
34.12
34.93
35.31
35.03
34.00
32.26
29.96
27.19
24.02
20.52
16.84
13.20
9.82
6.79
4.07
1.49
-1.07
-3.67
-6.21
-8.61
-10.82
-12.97
-15.27
-17.90
-20.92
-24.25
-27.72
-31.15
-34.45
-37.62
-40.74
-43.94
-47.40
-51.38
-56.10
-61.64
-67.77
-73.74
-78.36
-80.18
-77.96
-71.03
-59.57
-44.56
-27.54
-10.20
5.97
19.89
30.92
38.88
43.95
46.52
47.11
46.29
44.60
42.49
40.36
38.51
37.11
36.23
35.80
35.66
35.62
35.50
35.20
34.69
33.98
33.09
32.02
30.70
29.04
27.03
24.65
22.03
19.31
16.70
14.35
12.38
10.80
9.51
8.29
6.84
4.88
2.29
-0.81
-4.13
-7.29
-10.06
-12.48
-14.77
-17.26
-20.11
-23.23
-26.40
-29.33
-31.89
-34.16
-36.30
-38.53
-41.01
-43.94
-47.54
-52.01
-57.38
-63.21
-68.45
-71.60
-71.10
-65.86
-55.73
-41.58
-25.04
-8.06
7.70
21.13
31.72
39.42
44.43
47.02
47.54
46.43
44.27
41.72
39.37
37.62
36.60
36.16
36.02
35.91
35.73
35.56
35.54
35.74
36.05
36.12
35.61
34.22
31.95
29.06
25.94
22.97
20.35
18.06
15.97
13.93
11.88
9.85
7.92
6.13
4.43
2.72
0.85
-1.28
-3.69
-6.35
-9.12
-11.85
-14.39
-16.64
-18.65
-20.58
-22.69
-25.16
-28.06
-31.20
-34.29
-37.04
-39.27
-41.10
-42.80
-44.80
-47.53
-51.28
-56.12
-61.72
-67.27
-71.52
-72.99
-70.42
-63.17
-51.47
-36.47
-19.88
-3.46
11.36
23.74
33.35
40.28
44.79
47.18
47.73
46.72
44.48
41.43
38.11
35.04
32.69
31.32
30.94
31.32
32.10
32.94
33.61
33.95
33.88
33.28
32.06
30.16
27.69
24.89
22.07
19.49
17.28
15.37
13.54
11.56
9.29
6.75
4.14
1.71
-0.33
-1.93
-3.27
-4.65
-6.33
-8.42
-10.78
-13.09
-15.07
-16.59
-17.80
-18.94
-20.27
-21.85
-23.59
-25.35
-27.03
-28.69
-30.50
-32.63
-35.22
-38.39
-42.24
-46.81
-51.91
-56.96
-60.91
-62.41
-60.26
-53.79
-43.20
-29.46
-14.01
1.70
16.50
29.59
40.44
48.60
53.65
55.32
53.74
49.57
43.96
38.23
33.54
30.49
29.11
28.99
29.54
30.30
31.03
31.65
32.13
32.36
32.16
31.35
29.83
27.62
24.87
21.77
18.49
15.24
12.15
9.35
6.86
4.58
2.29
-0.26
-3.24
-6.61
-10.06
-13.16
-15.59
-17.32
-18.68
-20.25
-22.47
-25.51
-29.10
-32.72
-35.89
-38.40
-40.40
-42.30
-44.59
-47.70
-51.88
-57.20
-63.40
-69.89
-75.60
-79.10
-78.91
-73.94
-63.94
-49.62
-32.54
-14.63
2.24
16.75
28.26
36.75
42.53
46.03
47.59
47.52
46.15
43.98
41.60
39.55
38.18
37.54
37.40
37.46
37.53
37.62
37.86
38.30
38.84
39.09
38.58
36.96
34.16
30.51
26.57
22.94
19.97
17.72
15.88
14.06
11.86
9.13
5.98
2.68
-0.48
-3.29
-5.74
-7.95
-10.17
-12.63
-15.47
-18.66
-22.05
-25.40
-28.48
-31.17
-33.56
-35.89
-38.51
-41.77
-45.94
-51.06
-56.86
-62.69
-67.50
-69.97
-68.88
-63.44
-53.59
-40.15
-24.53
-8.43
6.66
19.72
30.28
38.29
43.91
47.28
48.50
47.75
45.40
42.11
38.69
35.91
34.22
33.65
33.91
34.52
35.14
35.60
35.90
36.07
36.04
35.63
34.58
32.76
30.20
27.16
23.97
20.95
18.28
15.94
13.83
11.82
9.85
7.90
5.98
4.04
1.95
-0.39
-3.06
-5.96
-8.90
-11.67
-14.19
-16.55
-18.99
-21.68
-24.68
-27.82
-30.81
-33.39
-35.53
-37.43
-39.52
-42.23
-45.90
-50.60
-56.10
-61.85
-67.02
-70.53
-71.19
-67.98
-60.35
-48.50
-33.45
-16.80
-0.35
14.34
26.23
34.95
40.61
43.61
44.45
43.61
41.60
38.95
36.22
33.89
32.24
31.35
31.07
31.17
31.46
31.82
32.22
32.63
32.93
32.95
32.47
31.30
29.38
26.79
23.75
20.53
17.43
14.67
12.38
10.57
9.13
7.84
6.43
4.71
2.57
0.07
-2.59
-5.18
-7.53
-9.58
-11.42
-13.18
-14.96
-16.82
-18.70
-20.57
-22.41
-24.26
-26.15
-28.15
-30.34
-32.83
-35.81
-39.51
-44.06
-49.39
-55.06
-60.18
-63.57
-63.95
-60.38
-52.52
-40.85
-26.58
-11.28
3.48
16.48
27.04
34.96
40.29
43.21
43.92
42.71
39.99
36.40
32.65
29.45
27.29
26.42
26.71
27.81
29.24
30.52
31.36
31.66
31.46
30.87
29.90
28.50
26.52
23.94
20.87
17.62
14.55
11.94
9.78
7.86
5.84
3.51
0.88
-1.84
-4.42
-6.80
-9.16
-11.83
-15.07
-18.88
-22.97
-26.85
-30.14
-32.71
-34.78
-36.77
-39.18
-42.38
-46.60
-51.88
-58.02
-64.46
-70.15
-73.67
-73.54
-68.68
-58.88
-44.96
-28.58
-11.69
4.01
17.39
28.02
35.91
41.29
44.38
45.39
44.63
42.58
39.89
37.24
35.17
33.90
33.36
33.30
33.43
33.56
33.70
33.89
34.15
34.34
34.17
33.31
31.59
29.06
26.02
22.87
19.97
17.45
15.28
13.22
11.02
8.45
5.43
2.03
-1.53
-4.96
-8.00
-10.55
-12.75
-14.95
-17.50
-20.55
-23.97
-27.39
-30.39
-32.78
-34.67
-36.45
-38.57
-41.44
-45.28
-50.11
-55.76
-61.72
-67.07
-70.51
-70.61
-66.26
-57.11
-43.81
-27.86
-11.19
4.40
17.71
28.20
35.92
41.15
44.17
45.19
44.50
42.52
39.91
37.38
35.52
34.57
34.40
34.65
34.95
35.06
35.03
34.96
34.94
34.85
34.42
33.37
31.53
28.98
25.97
22.83
19.85
17.15
14.74
12.53
10.41
8.30
6.09
3.70
1.06
-1.79
-4.68
-7.40
-9.75
-11.73
-13.52
-15.45
-17.80
-20.64
-23.80
-26.94
-29.81
-32.34
-34.72
-37.29
-40.41
-44.35
-49.18
-54.77
-60.72
-66.29
-70.40
-71.79
-69.41
-62.74
-52.05
-38.37
-23.21
-8.14
5.65
17.44
26.99
34.26
39.26
41.98
42.52
41.16
38.49
35.30
32.37
30.27
29.21
29.13
29.71
30.64
31.64
32.49
33.00
32.99
32.35
31.04
29.17
26.96
24.60
22.20
19.72
17.07
14.19
11.15
8.10
5.23
2.65
0.39
-1.63
-3.51
-5.37
-7.31
-9.46
-11.86
-14.52
-17.28
-20.01
-22.58
-25.05
-27.64
-30.60
-34.15
-38.32
-42.99
-47.83
-52.25
-55.37
-56.10
-53.39
-46.62
-35.99
-22.50
-7.78
6.47
18.89
28.74
35.79
40.13
41.99
41.71
39.80
37.01
34.19
32.06
30.99
30.83
31.12
31.32
31.15
30.70
30.30
30.29
30.72
31.29
31.42
30.57
28.48
25.31
21.55
17.80
14.58
12.13
10.43
9.22
8.09
6.58
4.29
1.01
-3.25
-8.28
-13.73
-19.28
-24.68
-29.77
-34.44
-38.61
-42.17
-45.05
-47.30
-49.16
-51.15
-53.85
-57.81
-63.19
-69.49
-75.50
-79.44
-79.42
-74.01
-62.81
-46.62
-27.23
-6.91
12.18
28.50
41.21
50.12
55.41
57.48
56.82
54.09
50.09
45.70
41.72
38.70
36.85
36.05
35.99
36.30
36.68
36.95
37.05
37.02
36.93
36.82
36.66
36.26
35.40
33.89
31.68
28.96
26.08
23.45
21.35
19.86
18.83
17.91
16.69
14.80
12.02
8.28
3.77
-1.20
-6.17
-10.70
-14.52
-17.53
-19.89
-21.92
-24.00
-26.44
-29.41
-32.85
-36.50
-40.08
-43.31
-46.11
-48.56
-50.90
-53.47
-56.65
-60.74
-65.79
-71.50
-77.01
-80.99
-81.94
-78.63
-70.54
-58.11
-42.57
-25.57
-8.67
6.92
20.48
31.63
40.17
46.01
49.23
50.07
49.05
46.84
44.14
41.51
39.27
37.52
36.17
35.10
34.20
33.45
32.83
32.35
31.93
31.39
30.57
29.35
27.74
25.88
23.97
22.12
20.32
18.41
16.18
13.55
10.60
7.59
4.82
2.49
0.59
-1.09
-2.79
-4.70
-6.76
-8.78
-10.50
-11.79
-12.73
-13.61
-14.80
-16.59
-19.07
-22.03
-25.11
-27.96
-30.39
-32.47
-34.50
-36.89
-39.97
-43.92
-48.72
-54.06
-59.39
-63.86
-66.37
-65.78
-61.21
-52.40
-39.91
-25.00
-9.35
5.42
18.19
28.45
36.24
41.89
45.67
47.77
48.24
47.23
45.06
42.24
39.38
37.01
35.43
34.65
34.43
34.48
34.53
34.47
34.30
33.99
33.42
32.38
30.61
28.00
24.70
21.05
17.52
14.49
12.06
10.08
8.23
6.16
3.65
0.69
-2.59
-5.91
-9.04
-11.78
-14.16
-16.33
-18.63
-21.39
-24.82
-28.85
-33.17
-37.34
-40.93
-43.79
-46.03
-48.03
-50.32
-53.44
-57.82
-63.58
-70.34
-77.16
-82.54
-84.74
-82.26
-74.37
-61.40
-44.69
-26.17
-7.81
8.84
22.93
34.17
42.66
48.61
52.23
53.67
53.19
51.24
48.42
45.47
43.05
41.54
40.94
40.93
41.06
40.94
40.45
39.70
38.89
38.16
37.42
36.41
34.85
32.56
29.64
26.43
23.33
20.67
18.54
16.77
15.07
13.17
10.94
8.41
5.68
2.91
0.21
-2.39
-4.86
-7.23
-9.56
-11.99
-14.67
-17.75
-21.27
-25.14
-29.16
-33.10
-36.74
-39.96
-42.76
-45.27
-47.79
-50.71
-54.50
-59.47
-65.56
-72.15
-78.02
-81.60
-81.30
-76.02
-65.55
-50.67
-32.97
-14.43
3.12
18.36
30.64
39.93
46.56
50.96
53.49
54.37
53.79
51.95
49.24
46.14
43.23
41.02
39.85
39.81
40.68
42.07
43.43
44.22
44.05
42.76
40.48
37.55
34.48
31.75
29.75
28.51
27.58
25.95
22.34
15.76
6.20
-4.99
-15.30
-21.95
-23.02
-18.28
-9.29
1.27
10.62
16.77
18.86
16.96
11.62
3.59
-6.30
-17.00
-27.36
-36.24
-42.92
-47.29
-49.89
-51.72
-53.83
-57.09
-61.89
-68.00
-74.57
-80.23
-83.35
-82.46
-76.72
-66.16
-51.78
-35.16
-18.03
-1.76
12.78
25.17
35.22
42.70
47.36
49.08
48.10
45.13
41.19
37.36
34.38
32.59
31.85
31.80
32.06
32.31
32.38
32.20
31.74
31.03
30.08
28.91
27.44
25.59
23.29
20.56
17.57
14.57
11.83
9.48
7.49
5.72
4.00
2.24
0.42
-1.46
-3.41
-5.50
-7.76
-10.19
-12.75
-15.33
-17.90
-20.45
-23.09
-26.03
-29.55
-33.90
-39.18
-45.12
-51.01
-55.72
-57.92
-56.48
-50.86
-41.21
-28.46
-13.93
0.89
14.72
26.63
36.08
42.90
47.14
48.97
48.64
46.48
42.97
38.71
34.40
30.71
28.07
26.55
25.91
25.73
25.64
25.48
25.25
25.04
24.77
24.17
22.86
20.53
17.10
12.80
8.11
3.55
-0.44
-3.67
-6.20
-8.32
-10.42
-12.87
-15.92
-19.55
-23.58
-27.65
-31.41
-34.65
-37.41
-39.94
-42.64
-45.96
-50.31
-55.84
-62.38
-69.26
-75.26
-78.85
-78.50
-73.26
-63.05
-48.81
-32.15
-14.92
1.27
15.38
26.94
35.84
42.13
45.91
47.35
46.73
44.57
41.57
38.46
35.83
34.02
33.01
32.52
32.21
31.82
31.31
30.79
30.39
30.08
29.59
28.54
26.58
23.59
19.79
15.60
11.49
7.82
4.67
1.95
-0.53
-2.96
-5.55
-8.39
-11.54
-14.94
-18.43
-21.78
-24.84
-27.63
-30.41
-33.56
-37.44
-42.24
-47.81
-53.67
-58.97
-62.61
-63.39
-60.31
-52.89
-41.44
-27.04
-11.31
4.07
17.79
29.08
37.74
43.80
47.37
48.56
47.56
44.84
41.11
37.25
34.05
31.95
30.97
30.83
31.01
31.06
30.71
29.94
28.88
27.77
26.72
25.64
24.25
22.23
19.41
15.91
12.12
8.53
5.47
2.97
0.72
-1.71
-4.63
-8.07
-11.75
-15.26
-18.32
-20.85
-23.04
-25.18
-27.54
-30.27
-33.46
-37.19
-41.54
-46.50
-51.78
-56.64
-59.91
-60.27
-56.63
-48.59
-36.66
-22.12
-6.69
7.95
20.54
30.42
37.43
41.75
43.68
43.58
41.85
38.99
35.58
32.22
29.42
27.45
26.31
25.79
25.59
25.42
25.15
24.75
24.26
23.66
22.83
21.58
19.70
17.11
13.89
10.29
6.68
3.33
0.44
-1.98
-4.05
-5.92
-7.75
-9.68
-11.76
-13.99
-16.34
-18.74
-21.10
-23.38
-25.57
-27.74
-30.05
-32.76
-36.16
-40.41
-45.45
-50.74
-55.33
-57.96
-57.45
-53.09
-44.87
-33.56
-20.41
-6.83
5.99
17.20
26.30
32.99
37.12
38.72
38.01
35.52
32.02
28.38
25.32
23.26
22.30
22.23
22.71
23.44
24.19
24.83
25.29
25.42
25.03
23.89
21.84
18.87
15.24
11.37
7.74
4.67
2.21
0.12
-1.99
-4.47
-7.47
-10.87
-14.35
-17.64
-20.56
-23.13
-25.55
-28.10
-31.11
-34.87
-39.55
-45.02
-50.75
-55.76
-58.76
-58.51
-54.16
-45.62
-33.61
-19.45
-4.78
8.95
20.71
29.98
36.65
40.90
42.98
43.16
41.75
39.14
35.85
32.51
29.71
27.85
27.06
27.14
27.66
28.15
28.24
27.73
26.62
25.03
23.06
20.77
18.18
15.30
12.21
9.06
6.00
3.13
0.42
-2.21
-4.88
-7.65
-10.57
-13.62
-16.81
-20.11
-23.51
-26.88
-30.11
-33.08
-35.77
-38.28
-40.80
-43.64
-47.11
-51.49
-56.83
-62.80
-68.50
-72.55
-73.40
-69.75
-61.16
-48.16
-32.15
-14.98
1.61
16.38
28.67
38.27
45.23
49.67
51.76
51.80
50.27
47.79
45.03
42.58
40.79
39.74
39.21
38.89
38.49
37.86
37.05
36.20
35.40
34.61
33.66
32.36
30.58
28.40
26.00
23.61
21.42
19.47
17.78
16.29
14.94
13.65
12.30
10.78
9.04
7.16
5.29
3.58
2.07
0.61
-1.03
-3.05
-5.50
-8.20
-10.89
-13.34
-15.45
-17.29
-19.07
-21.04
-23.40
-26.21
-29.40
-32.79
-36.15
-39.27
-42.08
-44.63
-47.11
-49.81
-53.12
-57.36
-62.73
-69.08
-75.70
-81.35
-84.42
-83.36
-77.15
-65.70
-49.91
-31.39
-12.13
6.09
21.92
34.57
43.80
49.75
52.82
53.54
52.49
50.29
47.51
44.67
42.18
40.32
39.15
38.56
38.38
38.40
38.46
38.44
38.16
37.29
35.42
32.28
28.13
23.91
21.07
20.97
24.26
30.36
37.58
43.79
47.19
47.01
43.53
37.70
30.63
23.09
15.51
8.09
1.04
-5.42
-11.10
-15.98
-20.20
-23.84
-26.82
-28.84
-29.48
-28.50
-25.97
-22.41
-18.62
-15.48
-13.73
-13.79
-15.73
-19.39
-24.49
-30.74
-37.92
-45.75
-53.71
-60.91
-66.14
-68.10
-65.77
-58.90
-48.07
-34.60
-20.13
-6.17
6.23
16.47
24.33
29.75
32.71
33.36
32.05
29.41
26.27
23.39
21.34
20.33
20.24
20.78
21.62
22.52
23.37
24.13
24.86
25.50
25.97
26.09
25.69
24.73
23.30
21.63
19.95
18.36
16.82
15.11
13.04
10.56
7.85
5.23
2.98
1.22
-0.23
-1.64
-3.30
-5.33
-7.67
-10.14
-12.58
-15.01
-17.61
-20.60
-24.13
-28.11
-32.21
-35.98
-39.08
-41.42
-43.25
-44.98
-47.12
-50.09
-54.20
-59.63
-66.34
-73.80
-80.80
-85.49
-85.79
-80.17
-68.31
-51.37
-31.71
-12.03
5.51
19.81
30.80
39.00
45.04
49.29
51.86
52.87
52.53
51.25
49.50
47.63
45.73
43.65
41.17
38.20
34.97
32.06
30.18
29.85
31.08
33.27
35.35
36.25
35.38
32.88
29.56
26.47
24.47
23.88
24.40
25.39
26.19
26.38
25.87
24.77
23.29
21.49
19.31
16.63
13.38
9.65
5.68
1.80
-1.74
-4.89
-7.76
-10.60
-13.65
-16.93
-20.33
-23.57
-26.40
-28.77
-30.80
-32.78
-34.96
-37.44
-40.10
-42.64
-44.80
-46.44
-47.74
-49.11
-51.08
-54.14
-58.57
-64.25
-70.61
-76.57
-80.75
-81.75
-78.51
-70.66
-58.59
-43.37
-26.39
-9.11
7.23
21.71
33.70
42.86
49.12
52.61
53.69
52.87
50.74
47.91
44.98
42.41
40.53
39.44
38.99
38.87
38.76
38.44
37.85
37.12
36.40
35.75
35.11
34.25
32.95
31.08
28.68
26.00
23.32
20.89
18.80
17.00
15.34
13.70
12.00
10.24
8.47
6.72
4.99
3.26
1.50
-0.29
-2.06
-3.77
-5.39
-6.93
-8.47
-10.12
-11.97
-14.00
-16.12
-18.19
-20.10
-21.84
-23.47
-25.12
-26.85
-28.66
-30.45
-32.11
-33.59
-34.95
-36.36
-38.10
-40.51
-43.87
-48.29
-53.47
-58.60
-62.43
-63.53
-60.71
-53.45
-42.07
-27.68
-11.83
3.90
18.20
30.23
39.55
46.06
49.85
51.16
50.37
47.97
44.62
40.99
37.69
35.17
33.57
32.78
32.50
32.43
32.35
32.23
32.12
32.09
32.11
32.00
31.53
30.49
28.84
26.68
24.30
21.96
19.84
17.96
16.17
14.35
12.46
10.56
8.77
7.14
5.63
4.11
2.50
0.75
-1.06
-2.88
-4.65
-6.41
-8.22
-10.12
-12.13
-14.16
-16.20
-18.20
-20.22
-22.33
-24.65
-27.26
-30.20
-33.40
-36.70
-39.89
-42.82
-45.46
-47.94
-50.45
-53.29
-56.74
-61.03
-66.25
-72.17
-78.11
-82.91
-85.07
-83.17
-76.29
-64.40
-48.38
-29.83
-10.61
7.55
23.41
36.23
45.80
52.17
55.65
56.68
55.85
53.87
51.44
49.16
47.36
46.00
44.88
43.70
42.36
40.99
39.89
39.34
39.40
39.82
40.15
39.89
38.78
36.85
34.38
31.74
29.27
27.11
25.25
23.58
21.97
20.30
18.51
16.60
14.64
12.73
10.94
9.32
7.85
6.46
5.06
3.59
2.03
0.44
-1.18
-2.85
-4.66
-6.67
-8.88
-11.17
-13.38
-15.38
-17.18
-18.93
-20.84
-23.10
-25.73
-28.62
-31.55
-34.26
-36.64
-38.69
-40.61
-42.71
-45.30
-48.73
-53.21
-58.76
-65.09
-71.50
-76.89
-79.90
-79.23
-74.02
-64.15
-50.33
-33.89
-16.46
0.44
15.63
28.38
38.32
45.36
49.59
51.28
50.87
48.92
46.05
42.88
39.91
37.45
35.69
34.60
34.11
34.01
34.11
34.25
34.28
34.15
33.87
33.45
32.85
31.97
30.67
28.86
26.58
24.05
21.54
19.25
17.25
15.41
13.52
11.45
9.19
6.88
4.68
2.72
1.02
-0.50
-2.01
-3.59
-5.29
-7.10
-8.95
-10.78
-12.56
-14.31
-16.13
-18.07
-20.18
-22.46
-24.83
-27.21
-29.53
-31.73
-33.83
-35.84
-37.88
-40.12
-42.83
-46.22
-50.37
-55.04
-59.56
-62.90
-63.82
-61.21
-54.44
-43.58
-29.51
-13.71
2.16
16.63
28.73
38.02
44.49
48.31
49.71
48.95
46.44
42.71
38.45
34.35
30.94
28.53
27.19
26.79
27.07
27.74
28.53
29.21
29.62
29.67
29.31
28.48
27.15
25.31
23.05
20.52
17.93
15.44
13.12
10.94
8.76
6.41
3.76
0.77
-2.43
-5.63
-8.62
-11.31
-13.81
-16.41
-19.40
-22.88
-26.74
-30.64
-34.25
-37.43
-40.24
-42.90
-45.64
-48.70
-52.27
-56.57
-61.71
-67.51
-73.25
-77.65
-79.15
-76.36
-68.60
-56.11
-40.03
-22.03
-3.89
12.89
27.25
38.62
46.83
51.99
54.40
54.49
52.83
50.10
46.98
44.07
41.76
40.12
38.96
38.05
37.23
36.54
36.13
36.15
36.52
36.95
37.04
36.44
35.04
32.91
30.31
27.54
24.80
22.17
19.65
17.19
14.74
12.24
9.62
6.82
3.80
0.57
-2.71
-5.86
-8.74
-11.37
-13.93
-16.68
-19.81
-23.31
-26.96
-30.45
-33.51
-36.07
-38.27
-40.39
-42.79
-45.87
-49.93
-55.09
-61.14
-67.37
-72.60
-75.36
-74.29
-68.54
-58.10
-43.78
-27.03
-9.55
7.15
21.93
34.15
43.49
49.86
53.30
54.03
52.47
49.34
45.47
41.66
38.49
36.21
34.79
34.06
33.80
33.84
34.08
34.40
34.63
34.61
34.16
33.13
31.55
29.51
27.19
24.81
22.52
20.35
18.25
16.15
13.98
11.77
9.50
7.16
4.66
1.90
-1.10
-4.20
-7.19
-9.90
-12.37
-14.82
-17.50
-20.58
-23.97
-27.40
-30.55
-33.24
-35.49
-37.51
-39.62
-42.07
-45.10
-48.91
-53.57
-58.95
-64.53
-69.29
-71.82
-70.73
-65.06
-54.70
-40.46
-23.85
-6.70
9.34
23.14
34.07
42.01
47.08
49.51
49.65
47.90
44.80
41.00
37.16
33.84
31.38
29.90
29.22
29.10
29.26
29.50
29.76
29.98
30.08
29.93
29.32
28.09
26.18
23.72
20.98
18.26
15.81
13.64
11.64
9.58
7.25
4.62
1.75
-1.16
-3.92
-6.40
-8.59
-10.59
-12.56
-14.65
-16.93
-19.39
-21.93
-24.39
-26.69
-28.78
-30.76
-32.77
-34.99
-37.62
-40.85
-44.74
-49.18
-53.74
-57.61
-59.71
-58.91
-54.38
-45.89
-33.95
-19.69
-4.60
9.88
22.63
33.00
40.75
45.89
48.52
48.81
47.00
43.51
39.00
34.26
30.07
26.98
25.20
24.60
24.84
25.52
26.35
27.10
27.61
27.70
27.19
25.94
23.97
21.43
18.57
15.63
12.75
9.94
7.08
4.09
0.95
-2.29
-5.56
-8.83
-12.11
-15.45
-18.86
-22.29
-25.59
-28.68
-31.48
-34.03
-36.43
-38.85
-41.52
-44.74
-48.80
-53.82
-59.62
-65.48
-70.25
-72.51
-70.98
-64.94
-54.43
-40.31
-23.98
-7.11
8.78
22.58
33.62
41.68
46.79
49.16
49.13
47.17
43.92
40.19
36.73
34.14
32.62
31.98
31.83
31.76
31.58
31.34
31.18
31.23
31.40
31.45
31.05
29.93
28.05
25.55
22.71
19.83
17.11
14.63
12.39
10.29
8.20
6.02
3.61
0.93
-2.00
-5.08
-8.15
-11.02
-13.66
-16.15
-18.70
-21.51
-24.68
-28.10
-31.52
-34.67
-37.38
-39.66
-41.73
-43.94
-46.74
-50.49
-55.41
-61.28
-67.44
-72.69
-75.56
-74.64
-69.02
-58.57
-44.07
-26.96
-9.02
8.04
22.90
34.77
43.38
48.84
51.50
51.81
50.30
47.58
44.28
41.05
38.40
36.59
35.63
35.31
35.32
35.47
35.66
35.87
36.05
36.09
35.82
35.07
33.76
31.95
29.80
27.53
25.33
23.31
21.48
19.74
17.95
16.01
13.89
11.62
9.33
7.14
5.16
3.39
1.78
0.20
-1.53
-3.55
-5.93
-8.57
-11.27
-13.78
-15.94
-17.80
-19.63
-21.79
-24.54
-27.91
-31.64
-35.32
-38.60
-41.31
-43.55
-45.63
-47.95
-50.92
-54.81
-59.73
-65.39
-71.05
-75.50
-77.23
-74.83
-67.46
-55.16
-38.97
-20.70
-2.37
14.20
27.86
38.10
45.03
49.03
50.59
50.20
48.34
45.55
42.40
39.43
37.01
35.29
34.17
33.50
33.08
32.85
32.80
32.92
33.08
33.11
32.79
31.98
30.65
28.90
26.86
24.68
22.48
20.33
18.32
16.49
14.88
13.42
12.00
10.46
8.67
6.62
4.44
2.35
0.57
-0.84
-2.00
-3.16
-4.58
-6.43
-8.64
-11.01
-13.24
-15.12
-16.64
-17.99
-19.49
-21.46
-24.03
-27.14
-30.50
-33.76
-36.67
-39.17
-41.44
-43.84
-46.82
-50.70
-55.57
-61.17
-66.76
-71.19
-73.09
-71.21
-64.79
-53.86
-39.28
-22.54
-5.34
10.74
24.58
35.51
43.28
47.97
49.84
49.32
47.00
43.56
39.72
36.10
33.18
31.21
30.21
30.02
30.41
31.09
31.86
32.56
33.11
33.45
33.52
33.23
32.49
31.20
29.34
26.96
24.19
21.24
18.35
15.73
13.48
11.53
9.65
7.57
5.06
2.04
-1.35
-4.82
-8.08
-11.00
-13.62
-16.13
-18.75
-21.61
-24.74
-28.03
-31.38
-34.72
-38.02
-41.30
-44.56
-47.87
-51.37
-55.32
-60.05
-65.73
-72.19
-78.66
-83.88
-86.24
-84.33
-77.35
-65.41
-49.54
-31.41
-12.83
4.62
19.84
32.22
41.55
47.82
51.20
52.05
50.90
48.49
45.62
43.02
41.11
40.04
39.64
39.62
39.78
39.99
40.33
40.84
41.50
42.11
42.40
42.11
41.10
39.46
37.33
34.95
32.50
30.09
27.81
25.73
23.86
22.16
20.48
18.56
16.22
13.41
10.30
7.25
4.60
2.53
0.94
-0.49
-2.15
-4.29
-6.91
-9.80
-12.70
-15.37
-17.77
-20.00
-22.28
-24.83
-27.78
-31.10
-34.67
-38.27
-41.73
-44.92
-47.83
-50.62
-53.59
-57.13
-61.66
-67.41
-74.16
-81.08
-86.75
-89.34
-87.20
-79.33
-65.82
-47.84
-27.36
-6.59
12.53
28.70
41.28
50.25
55.88
58.62
58.97
57.48
54.75
51.43
48.10
45.23
43.09
41.74
41.11
41.05
41.39
41.93
42.49
42.87
42.87
42.34
41.22
39.52
37.35
34.93
32.47
30.17
28.13
26.34
24.67
23.00
21.20
19.24
17.13
14.88
12.53
10.15
7.83
5.77
4.12
2.88
1.88
0.76
-0.82
-3.06
-5.87
-8.94
-11.89
-14.48
-16.72
-18.86
-21.22
-24.06
-27.37
-30.94
-34.47
-37.74
-40.70
-43.52
-46.46
-49.78
-53.65
-58.14
-63.26
-68.94
-74.94
-80.63
-84.92
-86.33
-83.38
-75.13
-61.59
-43.89
-23.97
-4.05
13.99
29.01
40.61
48.96
54.37
57.14
57.45
55.58
52.03
47.57
43.09
39.41
36.99
35.86
35.73
36.16
36.77
37.31
37.68
37.83
37.73
37.29
36.42
35.04
33.12
30.74
28.11
25.44
22.95
20.71
18.60
16.39
13.92
11.22
8.59
6.41
4.97
4.20
3.71
2.95
1.53
-0.63
-3.25
-5.89
-8.27
-10.35
-12.39
-14.71
-17.48
-20.62
-23.88
-26.97
-29.75
-32.27
-34.77
-37.56
-40.87
-44.87
-49.60
-54.98
-60.68
-66.02
-69.98
-71.31
-68.79
-61.67
-49.92
-34.35
-16.48
1.87
18.90
33.26
44.16
51.37
55.06
55.69
53.89
50.36
45.88
41.23
37.10
33.98
32.06
31.24
31.23
31.65
32.22
32.79
33.33
33.85
34.27
34.43
34.06
32.88
30.75
27.71
24.00
20.01
16.11
12.59
9.56
6.97
4.67
2.47
0.23
-2.18
-4.82
-7.69
-10.77
-13.94
-17.10
-20.19
-23.21
-26.25
-29.36
-32.56
-35.74
-38.76
-41.48
-43.91
-46.23
-48.78
-51.98
-56.22
-61.73
-68.36
-75.51
-82.03
-86.41
-86.99
-82.47
-72.30
-56.93
-37.81
-16.98
3.38
21.46
36.18
47.15
54.53
58.73
60.20
59.35
56.64
52.70
48.31
44.33
41.44
39.92
39.63
40.08
40.72
41.18
41.31
41.16
40.84
40.32
39.50
38.21
36.37
34.01
31.25
28.21
25.00
21.66
18.28
14.96
11.82
8.92
6.26
3.72
1.18
-1.41
-3.98
-6.40
-8.61
-10.68
-12.89
-15.58
-19.00
-23.16
-27.81
-32.53
-36.92
-40.67
-43.65
-45.94
-47.81
-49.74
-52.34
-56.24
-61.71
-68.37
-75.01
-79.69
-80.39
-75.64
-65.07
-49.61
-31.11
-11.79
6.43
22.24
35.02
44.59
51.03
54.53
55.34
53.88
50.78
46.80
42.71
39.13
36.44
34.72
33.92
33.83
34.27
35.05
35.95
36.76
37.19
37.05
36.21
34.71
32.67
30.32
27.84
25.35
22.86
20.30
17.58
14.69
11.69
8.79
6.17
3.96
2.08
0.31
-1.68
-4.12
-7.05
-10.26
-13.48
-16.46
-19.12
-21.59
-24.05
-26.61
-29.20
-31.65
-33.73
-35.39
-36.85
-38.48
-40.74
-43.93
-48.18
-53.35
-59.13
-65.05
-70.41
-74.23
-75.33
-72.51
-65.01
-52.83
-36.90
-18.88
-0.75
15.76
29.43
39.76
46.72
50.60
51.78
50.73
47.99
44.19
40.05
36.20
33.14
31.09
30.06
29.88
30.26
30.93
31.68
32.34
32.79
32.88
32.50
31.54
29.96
27.87
25.45
22.89
20.37
17.92
15.50
13.05
10.57
8.11
5.78
3.60
1.52
-0.59
-2.82
-5.15
-7.45
-9.60
-11.51
-13.27
-15.06
-17.13
-19.64
-22.65
-26.02
-29.50
-32.78
-35.61
-37.90
-39.76
-41.56
-43.75
-46.82
-50.97
-56.00
-61.13
-65.03
-66.19
-63.28
-55.63
-43.52
-28.12
-11.19
5.46
20.35
32.67
42.10
48.67
52.49
53.68
52.45
49.24
44.72
39.78
35.26
31.78
29.61
28.66
28.69
29.35
30.34
31.44
32.44
33.14
33.31
32.72
31.18
28.65
25.30
21.45
17.52
13.88
10.67
7.80
4.98
1.94
-1.43
-5.00
-8.45
-11.51
-14.11
-16.44
-18.85
-21.68
-25.02
-28.75
-32.57
-36.15
-39.29
-42.01
-44.50
-47.08
-50.10
-53.96
-58.94
-65.03
-71.79
-78.11
-82.35
-82.73
-77.85
-67.27
-51.79
-33.19
-13.78
4.37
19.87
32.18
41.36
47.75
51.62
53.15
52.57
50.30
47.03
43.57
40.63
38.63
37.64
37.44
37.69
38.11
38.48
38.70
38.69
38.42
37.80
36.76
35.22
33.15
30.60
27.73
24.75
21.83
19.06
16.43
13.85
11.25
8.67
6.18
3.85
1.69
-0.44
-2.68
-5.16
-7.85
-10.59
-13.17
-15.49
-17.66
-19.95
-22.71
-26.12
-30.08
-34.22
-38.04
-41.17
-43.54
-45.48
-47.56
-50.38
-54.41
-59.83
-66.41
-73.50
-79.97
-84.29
-84.82
-80.28
-70.15
-55.04
-36.51
-16.74
2.16
18.60
31.78
41.58
48.27
52.23
53.79
53.31
51.27
48.33
45.28
42.83
41.43
41.12
41.64
42.49
43.26
43.70
43.82
43.72
43.47
42.99
42.05
40.41
37.99
34.94
31.63
28.47
25.75
23.50
21.53
19.54
17.32
14.86
12.37
10.11
8.29
6.90
5.73
4.46
2.78
0.57
-2.13
-5.12
-8.12
-10.91
-13.35
-15.45
-17.35
-19.28
-21.53
-24.30
-27.60
-31.24
-34.92
-38.37
-41.42
-44.14
-46.71
-49.44
-52.64
-56.62
-61.60
-67.54
-73.92
-79.59
-82.91
-82.17
-76.11
-64.51
-48.33
-29.46
-10.16
7.59
22.49
33.99
42.12
47.22
49.68
49.91
48.38
45.66
42.45
39.47
37.22
35.97
35.66
36.01
36.69
37.45
38.17
38.80
39.30
39.55
39.32
38.37
36.56
33.92
30.73
27.42
24.44
22.06
20.31
18.94
17.58
15.91
13.80
11.33
8.75
6.29
4.12
2.20
0.39
-1.48
-3.53
-5.74
-8.01
-10.19
-12.21
-14.13
-16.14
-18.45
-21.20
-24.38
-27.80
-31.19
-34.27
-36.91
-39.15
-41.27
-43.69
-46.87
-51.19
-56.72
-63.08
-69.30
-73.99
-75.57
-72.77
-65.00
-52.56
-36.64
-19.03
-1.66
13.76
26.13
34.97
40.43
43.04
43.49
42.45
40.44
37.87
35.12
32.59
30.67
29.61
29.45
29.96
30.74
31.47
31.97
32.31
32.61
32.93
33.13
32.89
31.95
30.18
27.74
24.98
22.25
19.80
17.64
15.70
13.81
11.86
9.80
7.58
5.16
2.47
-0.44
-3.43
-6.24
-8.61
-10.45
-11.89
-13.28
-15.00
-17.32
-20.26
-23.62
-27.06
-30.27
-33.06
-35.46
-37.68
-40.08
-43.09
-47.08
-52.21
-58.23
-64.38
-69.46
-72.00
-70.69
-64.78
-54.36
-40.39
-24.39
-8.11
6.93
19.68
29.66
36.78
41.20
43.14
42.85
40.68
37.16
33.01
29.04
25.99
24.32
24.11
25.14
26.92
28.95
30.79
32.14
32.82
32.75
31.87
30.23
27.92
25.14
22.12
19.08
16.17
13.40
10.68
7.86
4.84
1.62
-1.70
-4.96
-8.07
-11.06
-14.02
-17.04
-20.16
-23.29
-26.30
-29.07
-31.61
-34.05
-36.63
-39.66
-43.47
-48.29
-54.18
-60.80
-67.33
-72.44
-74.61
-72.44
-65.22
-53.15
-37.40
-19.76
-2.19
13.70
26.91
37.09
44.35
49.00
51.38
51.83
50.70
48.48
45.78
43.25
41.38
40.42
40.28
40.66
41.16
41.47
41.42
40.98
40.23
39.24
38.02
36.51
34.61
32.22
29.35
26.14
22.86
19.78
17.11
14.89
12.97
11.14
9.16
6.91
4.37
1.62
-1.22
-4.00
-6.60
-8.95
-11.01
-12.86
-14.70
-16.77
-19.34
-22.54
-26.30
-30.33
-34.24
-37.63
-40.31
-42.40
-44.34
-46.80
-50.45
-55.67
-62.30
-69.50
-75.81
-79.47
-78.91
-73.18
-62.31
-47.31
-29.81
-11.68
5.47
20.51
32.85
42.26
48.76
52.45
53.60
52.64
50.24
47.24
44.45
42.43
41.38
41.11
41.24
41.42
41.43
41.27
41.00
40.67
40.16
39.28
37.81
35.70
33.08
30.22
27.41
24.89
22.73
20.90
19.27
17.69
16.05
14.30
12.43
10.49
8.54
6.67
5.01
3.65
2.60
1.81
1.09
0.21
-0.99
-2.62
-4.66
-7.02
-9.59
-12.23
-14.80
-17.13
-19.09
-20.63
-21.85
-23.01
-24.46
-26.51
-29.29
-32.69
-36.45
-40.19
-43.63
-46.70
-49.54
-52.51
-56.04
-60.49
-66.01
-72.27
-78.41
-83.04
-84.51
-81.40
-72.95
-59.49
-42.39
-23.74
-5.74
9.92
22.43
31.78
38.48
43.11
45.99
47.22
46.86
45.17
42.73
40.32
38.60
37.88
38.04
38.64
39.22
39.52
39.46
39.06
38.28
37.00
35.10
32.62
29.86
27.29
25.31
24.01
23.14
22.21
20.80
18.71
16.11
13.30
10.65
8.37
6.54
5.17
4.24
3.67
3.30
2.78
1.70
-0.23
-3.10
-6.62
-10.30
-13.61
-16.27
-18.26
-19.83
-21.29
-22.85
-24.59
-26.44
-28.32
-30.19
-32.09
-34.14
-36.51
-39.37
-42.92
-47.22
-52.07
-56.90
-60.68
-62.14
-60.11
-53.91
-43.70
-30.43
-15.62
-0.89
12.46
23.67
32.43
38.75
42.70
44.35
43.85
41.50
37.85
33.68
29.78
26.84
25.20
24.88
25.57
26.84
28.25
29.47
30.26
30.52
30.22
29.38
28.06
26.33
24.31
22.10
19.76
17.38
15.01
12.72
10.58
8.65
6.97
5.47
4.08
2.68
1.16
-0.53
-2.40
-4.47
-6.72
-9.14
-11.70
-14.40
-17.26
-20.32
-23.58
-27.01
-30.48
-33.84
-36.92
-39.68
-42.20
-44.72
-47.61
-51.30
-56.17
-62.40
-69.76
-77.47
-84.11
-87.90
-87.15
-80.84
-69.01
-52.86
-34.39
-15.82
1.07
15.21
26.32
34.61
40.44
44.17
46.05
46.36
45.49
43.99
42.46
41.35
40.87
40.93
41.25
41.52
41.57
41.46
41.35
41.40
41.64
41.88
41.77
40.95
39.25
36.73
33.70
30.58
27.73
25.31
23.28
21.42
19.48
17.26
14.74
12.06
9.45
7.19
5.42
4.09
2.96
1.63
-0.24
-2.77
-5.85
-9.11
-12.16
-14.73
-16.82
-18.74
-20.88
-23.57
-26.91
-30.68
-34.49
-37.97
-40.89
-43.29
-45.47
-47.86
-50.92
-55.00
-60.29
-66.67
-73.65
-80.23
-84.97
-86.20
-82.50
-73.17
-58.61
-40.26
-20.31
-1.04
15.73
28.99
38.57
44.85
48.47
49.98
49.82
48.38
46.12
43.68
41.75
40.85
41.13
42.29
43.67
44.63
44.79
44.24
43.36
42.57
42.02
41.43
40.30
38.20
35.05
31.21
27.28
23.88
21.36
19.71
18.59
17.57
16.29
14.54
12.34
9.83
7.24
4.75
2.51
0.56
-1.15
-2.75
-4.41
-6.31
-8.53
-11.06
-13.75
-16.42
-18.98
-21.50
-24.21
-27.40
-31.18
-35.37
-39.49
-42.94
-45.28
-46.44
-46.83
-47.20
-48.39
-51.02
-55.36
-61.14
-67.58
-73.46
-77.28
-77.57
-73.20
-63.76
-49.79
-32.68
-14.32
3.36
18.87
31.45
40.94
47.58
51.71
53.64
53.58
51.87
49.02
45.72
42.70
40.49
39.32
39.05
39.38
39.98
40.67
41.41
42.20
42.97
43.40
43.04
41.50
38.61
34.64
30.18
25.98
22.55
20.01
17.99
15.90
13.20
9.67
5.51
1.17
-2.87
-6.32
-9.17
-11.65
-14.09
-16.79
-19.94
-23.54
-27.48
-31.54
-35.49
-39.13
-42.43
-45.54
-48.80
-52.64
-57.46
-63.38
-70.12
-76.83
-82.18
-84.59
-82.64
-75.54
-63.42
-47.34
-29.10
-10.68
6.23
20.55
31.88
40.34
46.25
49.94
51.66
51.67
50.33
48.21
45.91
44.00
42.77
42.21
42.09
42.10
42.03
41.83
41.59
41.40
41.23
40.90
40.11
38.58
36.15
32.89
29.10
25.16
21.45
18.18
15.39
12.94
10.60
8.13
5.38
2.34
-0.84
-3.93
-6.74
-9.22
-11.55
-14.03
-16.95
-20.44
-24.33
-28.31
-31.99
-35.20
-37.97
-40.54
-43.22
-46.30
-49.99
-54.43
-59.72
-65.70
-71.84
-77.06
-79.87
-78.76
-72.72
-61.64
-46.50
-28.97
-10.98
5.85
20.49
32.44
41.55
47.81
51.28
52.19
51.05
48.63
45.80
43.31
41.55
40.56
40.13
40.00
39.96
39.95
39.98
40.02
39.96
39.63
38.84
37.45
35.44
32.91
30.05
27.10
24.26
21.64
19.28
17.10
15.03
12.97
10.89
8.76
6.56
4.21
1.66
-1.08
-3.94
-6.73
-9.28
-11.52
-13.54
-15.60
-17.98
-20.88
-24.27
-27.89
-31.40
-34.55
-37.29
-39.81
-42.45
-45.59
-49.49
-54.32
-60.06
-66.43
-72.76
-77.90
-80.37
-78.72
-71.99
-60.19
-44.35
-26.30
-8.11
8.48
22.41
33.29
41.19
46.37
49.06
49.48
48.00
45.20
41.90
38.93
36.90
36.01
36.03
36.49
36.94
37.11
36.99
36.75
36.51
36.27
35.86
34.97
33.35
30.88
27.66
24.02
20.34
16.98
14.12
11.77
9.72
7.73
5.61
3.27
0.76
-1.80
-4.30
-6.67
-8.91
-11.10
-13.35
-15.78
-18.44
-21.26
-24.12
-26.86
-29.38
-31.69
-33.91
-36.25
-38.93
-42.19
-46.19
-50.99
-56.32
-61.53
-65.51
-66.90
-64.49
-57.64
-46.59
-32.46
-16.89
-1.62
12.03
23.33
32.03
38.16
41.81
43.04
42.02
39.15
35.19
31.12
27.88
26.09
25.87
26.86
28.46
30.06
31.30
32.08
32.44
32.41
31.94
30.85
28.97
26.28
22.88
19.05
15.13
11.38
8.03
5.12
2.56
0.19
-2.25
-4.96
-8.02
-11.37
-14.81
-18.10
-21.06
-23.69
-26.16
-28.75
-31.76
-35.45
-39.99
-45.44
-51.57
-57.81
-63.11
-66.06
-65.24
-59.71
-49.39
-35.22
-18.95
-2.54
12.32
24.66
34.22
41.18
45.80
48.26
48.61
47.07
44.15
40.68
37.55
35.39
34.41
34.31
34.60
34.84
34.82
34.58
34.23
33.78
33.06
31.84
29.90
27.22
23.96
20.39
16.75
13.17
9.71
6.32
2.99
-0.26
-3.36
-6.26
-8.98
-11.65
-14.45
-17.57
-21.02
-24.69
-28.36
-31.78
-34.85
-37.63
-40.36
-43.42
-47.23
-52.12
-58.19
-65.09
-71.91
-77.17
-79.16
-76.46
-68.44
-55.60
-39.38
-21.76
-4.62
10.74
23.68
34.12
42.17
47.95
51.49
52.88
52.44
50.74
48.54
46.49
44.98
44.06
43.49
42.98
42.38
41.73
41.21
40.91
40.75
40.45
39.65
38.16
36.02
33.51
30.98
28.69
26.69
24.89
23.12
21.25
19.27
17.25
15.33
13.58
12.02
10.55
9.07
7.46
5.69
3.79
1.88
0.07
-1.55
-3.01
-4.43
-5.96
-7.77
-9.92
-12.37
-14.98
-17.57
-20.00
-22.21
-24.26
-26.32
-28.57
-31.16
-34.10
-37.28
-40.45
-43.37
-45.88
-48.02
-50.05
-52.44
-55.77
-60.50
-66.75
-73.96
-80.86
-85.65
-86.48
-82.03
-72.04
-57.38
-39.79
-21.31
-3.69
11.88
24.84
35.03
42.45
47.18
49.37
49.35
47.72
45.22
42.64
40.53
39.13
38.36
37.90
37.45
36.82
36.03
35.19
34.42
33.71
32.94
31.91
30.48
28.60
26.33
23.84
21.30
18.88
16.67
14.65
12.71
10.68
8.48
6.12
3.78
1.71
0.09
-1.08
-1.98
-2.94
-4.22
-5.94
-7.98
-10.09
-11.97
-13.44
-14.49
-15.32
-16.19
-17.35
-18.92
-20.84
-22.95
-25.05
-27.00
-28.80
-30.52
-32.32
-34.39
-36.92
-40.14
-44.13
-48.79
-53.55
-57.44
-59.17
-57.55
-51.89
-42.24
-29.47
-14.95
-0.19
13.50
25.24
34.58
41.35
45.63
47.58
47.48
45.74
42.91
39.60
36.36
33.60
31.51
30.04
29.03
28.31
27.76
27.33
27.00
26.68
26.23
25.48
24.28
22.62
20.59
18.35
16.04
13.77
11.59
9.54
7.62
5.86
4.24
2.69
1.12
-0.65
-2.72
-5.11
-7.76
-10.51
-13.22
-15.82
-18.32
-20.82
-23.45
-26.31
-29.44
-32.78
-36.24
-39.69
-43.01
-46.17
-49.23
-52.36
-55.85
-60.04
-65.13
-71.04
-77.23
-82.62
-85.78
-85.24
-80.00
-69.86
-55.55
-38.56
-20.67
-3.54
11.66
24.31
34.22
41.44
46.10
48.40
48.69
47.46
45.39
43.12
41.16
39.73
38.78
38.12
37.55
36.98
36.45
36.06
35.86
35.78
35.63
35.16
34.19
32.64
30.62
28.35
26.08
24.00
22.23
20.73
19.36
17.97
16.49
14.89
13.26
11.69
10.21
8.78
7.25
5.48
3.45
1.25
-0.90
-2.79
-4.32
-5.58
-6.84
-8.39
-10.42
-12.92
-15.65
-18.34
-20.76
-22.87
-24.88
-27.07
-29.71
-32.90
-36.53
-40.35
-44.13
-47.68
-51.02
-54.26
-57.62
-61.38
-65.84
-71.23
-77.56
-84.49
-91.14
-96.11
-97.75
-94.66
-86.11
-72.34
-54.59
-34.70
-14.66
3.85
19.76
32.62
42.42
49.41
53.91
56.22
56.74
55.94
54.43
52.82
51.57
50.86
50.58
50.43
50.13
49.58
48.86
48.24
47.91
47.88
47.97
47.81
47.10
45.66
43.60
41.19
38.78
36.64
34.85
33.31
31.83
30.18
28.23
25.91
23.27
20.45
17.64
15.05
12.89
11.26
10.08
9.17
8.25
7.15
5.82
4.41
3.07
1.88
0.74
-0.57
-2.27
-4.47
-7.03
-9.70
-12.24
-14.52
-16.62
-18.75
-21.14
-23.96
-27.23
-30.88
-34.75
-38.66
-42.46
-46.03
-49.31
-52.36
-55.42
-58.89
-63.26
-68.80
-75.42
-82.36
-88.31
-91.60
-90.68
-84.56
-73.16
-57.32
-38.61
-18.89
0.10
17.03
31.13
42.03
49.68
54.19
55.85
55.11
52.69
49.44
46.24
43.71
42.12
41.36
41.09
41.00
40.89
40.80
40.79
40.92
41.11
41.16
40.87
40.09
38.76
36.91
34.60
31.92
29.06
26.22
23.64
21.50
19.83
18.48
17.21
15.78
14.10
12.26
10.43
8.82
7.50
6.37
5.27
4.01
2.46
0.61
-1.51
-3.81
-6.19
-8.55
-10.82
-12.95
-15.01
-17.14
-19.51
-22.18
-25.09
-28.04
-30.80
-33.25
-35.49
-37.81
-40.59
-44.19
-48.74
-54.17
-59.99
-65.40
-69.23
-70.17
-67.08
-59.33
-47.12
-31.44
-13.95
3.54
19.40
32.53
42.42
49.04
52.62
53.57
52.36
49.59
45.94
42.10
38.67
35.98
34.12
32.94
32.24
31.88
31.81
32.03
32.52
33.10
33.51
33.42
32.62
31.02
28.78
26.12
23.35
20.71
18.35
16.30
14.49
12.79
11.03
9.12
7.02
4.76
2.43
0.06
-2.32
-4.75
-7.27
-9.88
-12.48
-15.01
-17.42
-19.81
-22.36
-25.24
-28.53
-32.08
-35.61
-38.82
-41.53
-43.80
-45.91
-48.28
-51.34
-55.44
-60.73
-67.08
-73.95
-80.37
-84.96
-86.18
-82.78
-74.20
-60.78
-43.80
-25.03
-6.30
10.90
25.67
37.59
46.55
52.58
55.77
56.36
54.76
51.68
47.93
44.33
41.44
39.50
38.45
38.00
37.92
38.03
38.29
38.67
39.05
39.24
39.02
38.20
36.75
34.74
32.33
29.73
27.14
24.71
22.57
20.72
19.02
17.30
15.38
13.16
10.74
8.28
5.95
3.79
1.70
-0.50
-2.92
-5.59
-8.40
-11.18
-13.77
-16.15
-18.43
-20.81
-23.52
-26.65
-30.11
-33.65
-36.95
-39.80
-42.23
-44.50
-47.07
-50.39
-54.81
-60.41
-66.87
-73.46
-79.00
-82.06
-81.23
-75.51
-64.71
-49.56
-31.58
-12.67
5.35
21.17
34.11
44.02
51.06
55.49
57.56
57.56
55.92
53.21
50.05
47.02
44.46
42.46
40.93
39.74
38.84
38.25
38.09
38.43
39.21
40.18
40.91
40.96
39.96
37.82
34.76
31.20
27.64
24.37
21.42
18.57
15.55
12.24
8.77
5.48
2.68
0.49
-1.22
-2.81
-4.59
-6.72
-9.09
-11.41
-13.38
-14.86
-15.98
-17.07
-18.59
-20.84
-23.91
-27.58
-31.47
-35.12
-38.24
-40.72
-42.71
-44.67
-47.19
-50.86
-56.06
-62.86
-70.70
-78.54
-84.92
-88.18
-86.94
-80.46
-68.91
-53.42
-35.71
-17.65
-0.77
13.99
26.25
35.97
43.16
47.76
49.78
49.44
47.30
44.17
40.89
38.07
35.94
34.44
33.39
32.67
32.33
32.48
33.16
34.24
35.39
36.02
35.69
34.18
31.63
28.53
25.47
22.90
20.94
19.36
17.70
15.61
12.96
9.98
7.08
4.65
2.83
1.49
0.23
-1.36
-3.48
-6.11
-9.01
-11.88
-14.56
-17.08
-19.58
-22.23
-25.06
-27.97
-30.74
-33.20
-35.29
-37.10
-38.78
-40.53
-42.50
-44.90
-47.93
-51.79
-56.51
-61.72
-66.57
-69.72
-69.72
-65.41
-56.40
-43.22
-27.22
-10.17
6.23
20.77
32.85
42.30
49.21
53.64
55.61
55.23
52.82
49.05
44.78
40.90
38.02
36.39
35.89
36.18
36.92
37.87
38.89
39.86
40.56
40.73
40.04
38.34
35.66
32.32
28.75
25.33
22.25
19.42
16.59
13.52
10.09
6.42
2.73
-0.77
-3.99
-7.04
-10.11
-13.36
-16.85
-20.48
-24.06
-27.43
-30.50
-33.34
-36.14
-39.22
-42.92
-47.60
-53.38
-60.05
-66.84
-72.49
-75.43
-74.22
-67.99
-56.78
-41.63
-24.23
-6.52
9.87
23.84
34.93
43.09
48.48
51.28
51.67
49.99
46.77
42.80
38.90
35.77
33.72
32.69
32.34
32.28
32.30
32.38
32.60
32.97
33.29
33.22
32.39
30.60
27.96
24.82
21.65
18.76
16.25
13.96
11.61
8.98
5.99
2.75
-0.52
-3.62
-6.45
-9.06
-11.61
-14.29
-17.24
-20.50
-23.98
-27.50
-30.86
-33.90
-36.60
-39.09
-41.67
-44.76
-48.79
-54.07
-60.53
-67.58
-73.95
-77.98
-77.95
-72.70
-62.01
-46.76
-28.68
-9.80
8.02
23.53
36.05
45.40
51.64
54.96
55.60
54.03
50.89
47.01
43.20
40.16
38.22
37.39
37.43
37.94
38.58
39.10
39.42
39.47
39.21
38.55
37.34
35.52
33.12
30.36
27.56
25.04
22.95
21.19
19.46
17.38
14.75
11.64
8.38
5.40
3.00
1.23
-0.13
-1.45
-3.09
-5.26
-7.94
-10.95
-14.02
-16.94
-19.62
-22.11
-24.57
-27.19
-30.05
-33.13
-36.28
-39.36
-42.27
-45.01
-47.67
-50.40
-53.42
-57.00
-61.42
-66.78
-72.73
-78.33
-82.06
-82.26
-77.57
-67.55
-52.80
-34.87
-15.72
2.76
19.17
32.71
43.04
50.14
54.17
55.42
54.39
51.76
48.34
44.84
41.83
39.54
37.96
36.92
36.25
35.82
35.56
35.42
35.26
34.93
34.23
33.08
31.45
29.41
27.10
24.67
22.30
20.18
18.46
17.20
16.29
15.48
14.45
13.01
11.13
9.03
7.04
5.41
4.23
3.31
2.37
1.09
-0.70
-3.00
-5.66
-8.47
-11.20
-13.70
-15.93
-17.98
-20.04
-22.35
-25.06
-28.18
-31.56
-34.92
-37.97
-40.58
-42.82
-44.91
-47.21
-50.07
-53.83
-58.63
-64.36
-70.43
-75.73
-78.72
-77.83
-71.98
-60.94
-45.60
-27.66
-9.15
8.07
22.76
34.33
42.72
48.12
50.85
51.27
49.86
47.27
44.19
41.31
39.09
37.71
37.04
36.77
36.58
36.28
35.86
35.46
35.23
35.17
35.11
34.73
33.72
31.91
29.40
26.47
23.50
20.83
18.61
16.85
15.37
13.95
12.40
10.63
8.63
6.49
4.34
2.32
0.52
-1.04
-2.44
-3.82
-5.33
-7.09
-9.13
-11.37
-13.73
-16.11
-18.54
-21.12
-23.92
-26.94
-30.01
-32.87
-35.30
-37.25
-38.93
-40.72
-43.01
-46.07
-49.98
-54.68
-60.01
-65.63
-70.89
-74.79
-76.00
-73.27
-65.85
-53.91
-38.59
-21.67
-5.03
9.87
22.21
31.80
38.73
43.17
45.22
45.04
42.98
39.70
36.00
32.70
30.39
29.26
29.17
29.74
30.60
31.49
32.31
33.05
33.71
34.19
34.29
33.82
32.63
30.76
28.38
25.74
23.06
20.51
18.14
15.94
13.90
11.99
10.18
8.37
6.48
4.45
2.31
0.17
-1.86
-3.76
-5.67
-7.81
-10.37
-13.44
-16.90
-20.51
-24.03
-27.31
-30.33
-33.14
-35.90
-38.78
-42.03
-45.97
-50.85
-56.71
-63.04
-68.82
-72.57
-72.76
-68.34
-59.09
-45.75
-29.77
-12.93
3.22
17.56
29.47
38.65
44.99
48.45
49.14
47.45
44.07
39.94
35.97
32.88
30.96
30.15
30.15
30.60
31.27
32.01
32.81
33.62
34.30
34.66
34.44
33.45
31.64
29.16
26.33
23.57
21.17
19.22
17.59
15.97
14.09
11.87
9.41
6.98
4.78
2.87
1.09
-0.82
-3.04
-5.61
-8.37
-11.08
-13.55
-15.77
-17.89
-20.20
-22.95
-26.23
-29.90
-33.67
-37.21
-40.33
-43.06
-45.67
-48.50
-51.91
-56.14
-61.31
-67.29
-73.59
-79.26
-82.84
-82.74
-77.66
-67.17
-52.00
-33.84
-14.87
2.90
18.14
30.26
39.22
45.30
48.81
50.10
49.63
47.99
45.84
43.83
42.38
41.63
41.45
41.58
41.73
41.76
41.70
41.70
41.89
42.26
42.58
42.44
41.46
39.42
36.46
32.96
29.43
26.29
23.70
21.63
19.84
18.13
16.33
14.38
12.32
10.21
8.15
6.21
4.48
2.94
1.47
-0.14
-2.13
-4.61
-7.48
-10.46
-13.19
-15.48
-17.39
-19.24
-21.38
-24.05
-27.17
-30.41
-33.38
-35.85
-37.82
-39.56
-41.47
-43.91
-47.17
-51.40
-56.69
-62.92
-69.59
-75.73
-79.87
-80.38
-75.98
-66.28
-51.98
-34.76
-16.75
0.11
14.51
25.96
34.56
40.71
44.72
46.82
47.14
45.96
43.77
41.24
39.01
37.52
36.89
36.90
37.20
37.52
37.73
37.90
38.06
38.19
38.05
37.39
36.00
33.87
31.21
28.30
25.45
22.85
20.57
18.59
16.82
15.19
13.59
11.94
10.19
8.35
6.46
4.63
2.97
1.56
0.37
-0.72
-1.91
-3.42
-5.40
-7.88
-10.73
-13.66
-16.38
-18.72
-20.67
-22.46
-24.42
-26.82
-29.71
-32.93
-36.13
-38.97
-41.33
-43.30
-45.25
-47.64
-50.90
-55.31
-60.78
-66.79
-72.34
-76.03
-76.42
-72.41
-63.69
-50.86
-35.33
-18.85
-3.08
10.80
22.22
31.04
37.35
41.32
43.13
43.00
41.33
38.68
35.72
33.09
31.21
30.25
30.13
30.59
31.36
32.25
33.18
34.14
35.04
35.66
35.71
34.90
33.10
30.48
27.42
24.43
21.93
20.09
18.78
17.63
16.23
14.25
11.69
8.75
5.81
3.22
1.14
-0.50
-2.00
-3.72
-5.94
-8.75
-12.04
-15.52
-18.96
-22.15
-25.03
-27.66
-30.20
-32.88
-36.01
-39.89
-44.75
-50.52
-56.68
-62.18
-65.62
-65.56
-61.06
-52.02
-39.22
-24.19
-8.67
5.80
18.19
28.04
35.31
40.14
42.71
43.26
42.13
39.80
36.90
34.07
31.78
30.27
29.52
29.32
29.44
29.69
30.00
30.34
30.71
31.01
31.03
30.51
29.19
26.95
23.93
20.48
17.09
14.18
11.98
10.40
9.13
7.72
5.87
3.47
0.65
-2.31
-5.12
-7.66
-9.96
-12.23
-14.74
-17.65
-20.96
-24.48
-27.95
-31.13
-33.94
-36.50
-39.06
-41.97
-45.54
-50.03
-55.52
-61.87
-68.59
-74.70
-78.83
-79.50
-75.53
-66.54
-53.08
-36.63
-19.08
-2.27
12.46
24.46
33.58
40.07
44.21
46.36
46.89
46.21
44.84
43.29
41.97
41.13
40.82
40.88
41.11
41.26
41.21
40.96
40.58
40.18
39.77
39.18
38.15
36.44
33.98
31.00
27.91
25.20
23.14
21.71
20.58
19.34
17.69
15.58
13.20
10.86
8.79
7.07
5.60
4.18
2.58
0.65
-1.67
-4.31
-7.10
-9.83
-12.32
-14.49
-16.42
-18.39
-20.75
-23.78
-27.54
-31.80
-36.07
-39.85
-42.81
-44.94
-46.63
-48.48
-51.16
-55.14
-60.52
-66.91
-73.40
-78.59
-80.85
-78.70
-71.34
-58.95
-42.76
-24.77
-7.10
8.53
21.19
30.75
37.55
42.08
44.72
45.72
45.30
43.89
42.05
40.37
39.27
38.85
38.89
39.06
39.08
38.88
38.59
38.34
38.18
37.94
37.33
36.05
33.98
31.25
28.18
25.19
22.57
20.49
18.87
17.49
16.08
14.43
12.44
10.18
7.84
5.65
3.75
2.19
0.81
-0.62
-2.33
-4.43
-6.85
-9.39
-11.82
-13.99
-15.91
-17.73
-19.65
-21.84
-24.35
-27.15
-30.02
-32.73
-35.01
-36.73
-37.94
-38.97
-40.35
-42.68
-46.41
-51.64
-57.90
-64.15
-68.91
-70.63
-68.08
-60.83
-49.38
-35.05
-19.58
-4.60
8.71
19.76
28.39
34.66
38.62
40.34
40.00
38.03
35.15
32.23
30.04
29.01
29.16
30.14
31.47
32.73
33.75
34.55
35.21
35.71
35.89
35.49
34.29
32.27
29.62
26.67
23.76
21.12
18.81
16.76
14.84
12.89
10.78
8.44
5.87
3.16
0.46
-2.10
-4.42
-6.59
-8.82
-11.37
-14.43
-18.02
-21.94
-25.92
-29.64
-32.94
-35.84
-38.55
-41.44
-44.89
-49.22
-54.47
-60.27
-65.73
-69.56
-70.37
-67.07
-59.30
-47.54
-33.07
-17.57
-2.65
10.49
21.21
29.34
35.01
38.44
39.90
39.71
38.33
36.32
34.28
32.68
31.75
31.49
31.70
32.18
32.78
33.41
34.01
34.49
34.65
34.30
33.27
31.52
29.17
26.43
23.56
20.79
18.32
16.23
14.50
12.99
11.49
9.85
7.97
5.86
3.58
1.18
-1.30
-3.86
-6.43
-8.92
-11.25
-13.44
-15.62
-18.04
-20.94
-24.36
-28.11
-31.87
-35.29
-38.18
-40.58
-42.74
-45.06
-47.95
-51.81
-56.87
-63.01
-69.63
-75.58
-79.28
-79.17
-74.17
-64.10
-49.80
-32.90
-15.34
1.12
15.32
26.72
35.30
41.34
45.18
47.16
47.60
46.91
45.54
44.00
42.74
42.02
41.86
42.07
42.36
42.50
42.37
42.01
41.50
40.89
40.12
39.08
37.63
35.75
33.50
31.06
28.65
26.44
24.52
22.89
21.44
20.02
18.51
16.84
15.01
13.10
11.24
9.51
7.95
6.52
5.17
3.77
2.25
0.50
-1.50
-3.72
-6.09
-8.50
-10.84
-13.07
-15.20
-17.31
-19.50
-21.84
-24.41
-27.19
-30.10
-33.03
-35.82
-38.37
-40.69
-42.94
-45.43
-48.55
-52.70
-58.11
-64.64
-71.63
-77.92
-81.93
-82.15
-77.52
-67.90
-54.14
-37.84
-20.87
-4.84
9.19
20.74
29.75
36.32
40.57
42.66
42.90
41.77
39.94
38.06
36.63
35.86
35.71
35.96
36.38
36.82
37.23
37.59
37.86
37.91
37.51
36.49
34.73
32.31
29.43
26.43
23.64
21.32
19.56
18.28
17.25
16.19
14.87
13.20
11.25
9.21
7.21
5.35
3.60
1.84
-0.02
-1.99
-4.02
-6.00
-7.84
-9.53
-11.18
-12.92
-14.88
-17.14
-19.66
-22.32
-24.96
-27.42
-29.60
-31.51
-33.31
-35.24
-37.63
-40.80
-44.91
-49.81
-54.90
-59.20
-61.44
-60.44
-55.47
-46.50
-34.24
-19.96
-5.14
8.84
21.04
30.91
38.29
43.22
45.82
46.30
44.98
42.36
39.10
35.90
33.34
31.73
31.07
31.15
31.63
32.23
32.75
33.08
33.11
32.76
31.91
30.51
28.54
26.11
23.37
20.47
17.59
14.84
12.29
9.95
7.72
5.46
3.02
0.31
-2.67
-5.80
-8.88
-11.78
-14.48
-17.10
-19.88
-22.95
-26.31
-29.78
-33.06
-35.94
-38.39
-40.65
-43.18
-46.45
-50.85
-56.47
-62.98
-69.57
-75.01
-77.85
-76.79
-71.08
-60.77
-46.81
-30.77
-14.41
0.79
13.92
24.64
33.04
39.29
43.55
45.93
46.57
45.82
44.21
42.31
40.59
39.26
38.35
37.73
37.33
37.13
37.19
37.50
37.93
38.23
38.06
37.15
35.41
32.94
30.09
27.23
24.72
22.68
21.01
19.45
17.66
15.45
12.86
10.09
7.44
5.07
3.02
1.14
-0.78
-2.89
-5.24
-7.75
-10.32
-12.88
-15.49
-18.26
-21.33
-24.74
-28.39
-32.11
-35.68
-38.92
-41.77
-44.30
-46.71
-49.37
-52.71
-57.12
-62.79
-69.39
-76.04
-81.27
-83.42
-81.05
-73.48
-61.01
-44.91
-27.06
-9.42
6.46
19.69
30.02
37.63
42.86
46.01
47.33
47.09
45.71
43.73
41.72
40.10
39.01
38.37
37.95
37.55
37.11
36.69
36.33
36.03
35.64
34.97
33.84
32.13
29.92
27.41
24.89
22.66
20.90
19.63
18.65
17.64
16.25
14.31
11.84
9.09
6.44
4.17
2.39
0.94
-0.52
-2.33
-4.70
-7.60
-10.80
-13.96
-16.84
-19.36
-21.62
-23.82
-26.15
-28.70
-31.42
-34.21
-36.88
-39.34
-41.53
-43.55
-45.60
-48.02
-51.17
-55.31
-60.46
-66.16
-71.44
-74.94
-75.17
-71.00
-62.02
-48.76
-32.57
-15.29
1.30
15.89
27.77
36.79
43.11
46.97
48.61
48.34
46.61
44.05
41.35
39.09
37.58
36.81
36.57
36.55
36.62
36.73
36.97
37.40
37.94
38.37
38.37
37.69
36.20
34.01
31.39
28.68
26.15
23.97
22.10
20.36
18.52
16.37
13.79
10.85
7.77
4.79
2.14
-0.17
-2.32
-4.60
-7.30
-10.53
-14.17
-17.97
-21.69
-25.21
-28.58
-31.98
-35.56
-39.46
-43.82
-48.79
-54.51
-60.88
-67.35
-72.78
-75.67
-74.51
-68.39
-57.38
-42.56
-25.70
-8.68
6.97
20.34
31.09
39.19
44.72
47.79
48.59
47.51
45.21
42.44
39.91
38.03
36.85
36.17
35.69
35.22
34.79
34.58
34.78
35.45
36.41
37.25
37.44
36.53
34.29
30.89
26.80
22.67
19.10
16.41
14.56
13.23
11.98
10.45
8.51
6.24
3.82
1.50
-0.64
-2.63
-4.66
-6.92
-9.49
-12.26
-14.96
-17.30
-19.15
-20.65
-22.24
-24.34
-27.24
-30.82
-34.71
-38.41
-41.58
-44.22
-46.66
-49.39
-52.91
-57.56
-63.40
-70.10
-76.87
-82.47
-85.39
-84.22
-78.10
-67.01
-51.87
-34.27
-16.05
1.15
16.21
28.62
38.30
45.38
50.07
52.54
53.02
51.93
49.83
47.43
45.29
43.76
42.83
42.28
41.80
41.18
40.42
39.61
38.87
38.19
37.47
36.49
35.06
33.06
30.51
27.56
24.44
21.42
18.66
16.28
14.22
12.37
10.63
8.95
7.37
5.94
4.69
3.62
2.66
1.74
0.84
-0.04
-0.89
-1.76
-2.76
-4.02
-5.60
-7.50
-9.60
-11.73
-13.77
-15.73
-17.68
-19.78
-22.16
-24.88
-27.92
-31.18
-34.50
-37.72
-40.71
-43.43
-46.01
-48.78
-52.19
-56.72
-62.54
-69.31
-76.03
-81.16
-82.98
-80.12
-72.03
-59.18
-42.95
-25.22
-7.80
7.94
21.23
31.79
39.62
44.78
47.45
47.92
46.72
44.55
42.13
40.00
38.44
37.47
36.95
36.74
36.76
37.01
37.41
37.84
38.10
37.97
37.30
36.06
34.26
32.02
29.46
26.75
24.05
21.55
19.34
17.40
15.61
13.80
11.85
9.73
7.58
5.58
3.88
2.48
1.21
-0.18
-1.93
-4.12
-6.63
-9.19
-11.49
-13.36
-14.84
-16.22
-17.85
-20.04
-22.81
-25.95
-29.05
-31.72
-33.77
-35.23
-36.41
-37.73
-39.62
-42.44
-46.37
-51.30
-56.76
-61.78
-65.09
-65.32
-61.45
-53.17
-41.04
-26.33
-10.65
4.51
18.06
29.41
38.34
44.85
48.92
50.63
50.17
47.91
44.47
40.57
36.91
33.99
32.06
31.14
31.00
31.35
31.87
32.34
32.61
32.58
32.16
31.24
29.70
27.50
24.74
21.64
18.49
15.56
12.95
10.60
8.35
5.99
3.44
0.75
-1.95
-4.47
-6.71
-8.69
-10.56
-12.55
-14.88
-17.69
-21.00
-24.69
-28.55
-32.36
-35.90
-39.06
-41.88
-44.55
-47.42
-50.89
-55.34
-60.92
-67.43
-74.07
-79.59
-82.46
-81.27
-75.19
-64.25
-49.37
-32.11
-14.20
2.80
17.84
30.31
39.95
46.71
50.63
51.94
51.04
48.58
45.31
41.94
38.97
36.61
34.87
33.60
32.62
31.82
31.10
30.39
29.58
28.57
27.30
25.82
24.32
23.01
22.13
21.83
22.11
22.84
23.79
24.71
25.39
25.65
25.38
24.54
23.13
21.22
18.96
16.53
14.10
11.81
9.76
7.92
6.22
4.54
2.75
0.75
-1.52
-4.05
-6.71
-9.33
-11.73
-13.81
-15.62
-17.42
-19.49
-22.07
-25.18
-28.65
-32.16
-35.43
-38.32
-40.96
-43.64
-46.78
-50.80
-55.89
-61.90
-68.14
-73.40
-76.13
-74.88
-68.74
-57.71
-42.75
-25.54
-7.93
8.48
22.63
34.03
42.56
48.30
51.45
52.29
51.25
48.94
46.04
43.16
40.71
38.81
37.43
36.38
35.53
34.78
34.15
33.62
33.18
32.72
32.06
31.01
29.39
27.15
24.36
21.22
18.01
15.04
12.49
10.41
8.68
7.04
5.22
3.02
0.41
-2.51
-5.50
-8.32
-10.83
-13.01
-14.99
-17.01
-19.33
-22.11
-25.37
-28.93
-32.44
-35.53
-37.96
-39.80
-41.45
-43.55
-46.68
-51.13
-56.64
-62.41
-67.22
-69.67
-68.60
-63.32
-53.82
-40.81
-25.53
-9.48
5.90
19.51
30.69
39.14
44.82
47.78
48.14
46.17
42.41
37.70
33.03
29.34
27.14
26.45
26.83
27.64
28.36
28.80
29.02
29.21
29.43
29.52
29.16
28.04
25.98
23.11
19.69
16.12
12.71
9.63
6.84
4.21
1.49
-1.50
-4.83
-8.40
-12.04
-15.50
-18.67
-21.54
-24.28
-27.08
-30.12
-33.59
-37.64
-42.40
-47.83
-53.57
-58.81
-62.39
-62.99
-59.59
-51.82
-40.09
-25.54
-9.66
6.07
20.47
32.70
42.25
48.84
52.33
52.86
50.85
47.03
42.29
37.51
33.31
29.98
27.50
25.71
24.45
23.59
23.06
22.76
22.55
22.24
21.70
20.80
19.49
17.73
15.42
12.50
8.98
5.01
0.89
-3.02
-6.47
-9.41
-12.03
-14.66
-17.61
-21.00
-24.71
-28.45
-31.91
-34.92
-37.58
-40.15
-42.98
-46.36
-50.47
-55.39
-61.05
-67.08
-72.76
-76.94
-78.24
-75.43
-67.84
-55.73
-40.22
-23.01
-5.88
9.79
23.16
33.95
42.18
47.98
51.49
52.89
52.51
50.86
48.58
46.30
44.53
43.51
43.21
43.44
43.93
44.47
44.94
45.27
45.41
45.27
44.70
43.57
41.77
39.29
36.27
32.92
29.52
26.33
23.48
20.96
18.59
16.12
13.30
10.06
6.50
2.86
-0.60
-3.70
-6.46
-9.05
-11.69
-14.57
-17.76
-21.19
-24.74
-28.24
-31.60
-34.73
-37.62
-40.26
-42.77
-45.40
-48.49
-52.31
-56.78
-61.22
-64.28
-64.30
-59.74
-49.84
-34.92
-16.32
4.04
24.15
42.39
57.68
69.45
77.50
81.91
82.99
81.26
77.33
71.88
65.52
58.79
52.23
46.32
41.42
37.73
35.20
33.60
32.58
31.84
31.12
30.23
28.98
27.15
24.59
21.29
17.36
13.08
8.81
4.85
1.36
-1.75
-4.72
-7.90
-11.55
-15.79
-20.47
-25.27
-29.78
-33.70
-36.91
-39.57
-41.97
-44.48
-47.36
-50.66
-54.24
-57.75
-60.85
-63.27
-64.98
-66.23
-67.52
-69.45
-72.47
-76.68
-81.59
-86.17
-88.96
-88.50
-83.75
-74.48
-61.27
-45.40
-28.42
-11.85
3.18
15.83
25.61
32.22
35.58
35.87
33.63
29.71
25.10
20.71
17.17
14.74
13.33
12.74
12.74
13.22
14.13
15.42
16.90
18.32
19.35
19.70
19.18
17.70
15.36
12.47
9.43
6.63
4.21
2.03
-0.26
-2.94
-6.06
-9.44
-12.77
-15.89
-18.85
-21.89
-25.23
-29.01
-33.28
-38.13
-43.63
-49.72
-55.90
-61.15
-64.03
-63.18
-57.82
-48.14
-35.18
-20.48
-5.61
8.21
20.26
30.22
37.95
43.41
46.56
47.48
46.47
44.04
40.91
37.80
35.23
33.42
32.33
31.74
31.46
31.36
31.35
31.33
31.05
30.18
28.37
25.42
21.40
16.67
11.73
6.99
2.60
-1.62
-6.05
-10.99
-16.47
-22.13
-27.41
-31.84
-35.35
-38.37
-41.72
-46.28
-52.59
-60.51
-69.07
-76.57
-81.05
-80.70
-74.43
-62.22
-45.06
-24.73
-3.30
17.33
35.75
51.02
62.66
70.49
74.62
75.44
73.70
70.39
66.51
62.82
59.68
57.03
54.53
51.78
48.47
44.51
40.04
35.31
30.65
26.32
22.40
18.72
14.88
10.38
4.88
-1.59
-8.61
-15.51
-21.66
-26.74
-30.87
-34.37
-37.56
-40.51
-43.06
-45.02
-46.41
-47.60
-49.25
-52.05
-56.47
-62.53
-69.71
-76.93
-82.64
-85.11
-82.78
-74.70
-60.84
-42.17
-20.47
2.17
23.86
43.18
59.34
72.04
81.28
87.19
90.05
90.25
88.32
84.90
80.64
76.06
71.52
67.19
63.10
59.26
55.72
52.62
50.09
48.16
46.73
45.49
44.02
41.94
39.06
35.41
31.32
27.25
23.62
20.69
18.38
16.37
14.20
11.48
8.09
4.22
0.25
-3.41
-6.51
-9.11
-11.51
-14.15
-17.40
-21.47
-26.27
