-648.82
-692.5
-725.27
-743.16
-704.27
-589.66
-413.63
-215.84
-32.43
119.17
236.37
320.49
372.31
396.44
390.81
357.55
305.85
250.29
202.8
174.02
166.78
177.02
197.32
216.15
226.32
223.52
211.78
195.03
175.62
152.89
125.61
92.19
52.87
14.58
-15.54
-31.49
-32.44
-20.99
-2.34
19.7
43.22
66.7
89.37
110.52
130.49
144.86
155.93
165.19
174.04
183.15
192.87
202.94
212.08
218.88
221.54
218.98
209
195.4
179.86
163.94
148.38
132.76
116.09
97.09
75.5
51.21
25.08
-2.05
-28.74
-53.91
-77.53
-100.46
-124.19
-149.77
-177.86
-207.96
-239.29
-270.27
-299.59
-326.78
-352.38
-377.87
-405.29
-437.19
-475.76
-521.98
-573.66
-624.88
-666.73
-689.84
-687.77
-659.35
-609.3
-545.87
-477.79
-411.16
-348.63
-290.44
-236.27
-186.36
-141.27
-100.94
-64.18
-29.56
3.26
32.66
55.77
70.51
77.09
78.33
78.03
78.92
81.34
83.81
84.64
83.38
80.86
77.93
74.08
67.41
56.09
40.39
23.35
9.73
3.55
6.04
14.87
24.97
30.48
26.8
12.05
-12.33
-41.97
-70.75
-92.71
-103.84
-103.17
-92.58
-75.56
-55.48
-34.38
-12.98
8.58
29.9
50.14
68.73
85.97
103.3
122.74
146.15
174.44
206.94
241.07
272.68
297.07
310.61
312.37
304.85
293.1
282.63
276.96
276.29
277.97
278.36
274.96
267.65
258.33
249.46
242.49
237.2
232.06
225.5
216.73
206.1
194.77
183.99
174.36
165.64
156.82
146.63
134.17
119.28
102.86
86.42
71.55
59.11
48.58
38.08
25.16
8.03
-13.46
-37.51
-61.38
-82.96
-102.14
-120.72
-141.17
-164.61
-189.54
-211.94
-226.76
-230.05
-220.25
-198.1
-165.5
-124.11
-74.76
-17.95
44.61
108.77
167.85
214.22
241.78
248.25
235.99
210.96
180.49
150.99
126.96
110.67
102.37
100.51
101.57
101.13
95.63
84.26
69.91
57.65
52.3
55.57
65.16
76
82.94
83.21
77.24
67.72
57.64
48.57
40.45
32.41
23.98
15.69
8.79
4.55
3.43
4.45
5.19
2.51
-6.06
-21.11
-40.76
-61.6
-80.57
-96.21
-109.16
-121.13
-133.76
-147.78
-162.56
-176.82
-189.2
-199.16
-207.34
-215.03
-223.3
-231.81
-238.14
-238.37
-228.17
-204.34
-165.76
-113.43
-50.13
19.79
90.44
154.53
204.14
232.6
236.89
219
185.63
145.66
107.35
76.34
55.39
44.72
42.47
44.83
46.56
42.64
30.68
12.84
-4.68
-14.8
-13.58
-2.44
12.88
25.59
31.52
30.32
24.48
17.22
10.7
5.64
1.96
-0.85
-3.48
-6.54
-10.33
-14.43
-17.81
-19.77
-20.54
-21.56
-24.5
-30.13
-37.83
-46.1
-53.93
-61.57
-70.3
-81.13
-93.68
-106.07
-115.9
-121.7
-123.72
-123.63
-123.61
-125.51
-130.2
-137.79
-147.66
-158.54
-168.83
-177.05
-182.59
-185.82
-187.69
-188.8
-189.05
-187.81
-184.56
-179.38
-172.61
-164.2
-153.14
-137.58
-115.65
-86.28
-49.43
-5.77
43.71
97.47
152.45
203.35
243.38
266.43
270.02
256.51
232.08
203.65
176.37
153.01
135.36
125.64
126.01
136.69
153.86
169.92
176.52
169.67
152.47
134
124.64
129.75
146.19
163.56
169.61
155.96
122
74.34
23.24
-22.07
-56.83
-81.41
-99.77
-116.86
-136.63
-160.67
-188.31
-217.27
-243.72
-262.6
-268.09
-255.12
-221.26
-168.78
-105.35
-42.93
5.11
27.57
17.91
-23.68
-90.61
-171.57
-253
-322.04
-369.45
-391.23
-388.45
-366.05
-330.29
-286.74
-239.32
-190.72
-143.34
-100.15
-64.02
-36.02
-14.43
5.74
31.1
67.63
118.1
180.57
248.17
310.32
355.32
373.25
358.98
314.59
249.83
179.87
120.47
82.1
65.45
60.84
52.45
25.78
-25.36
-95.69
-170.87
-234.41
-274.75
-289.21
-282.95
-264.16
-238.62
-207.45
-168.8
-121.87
-70
-20.37
18.97
43.44
54.01
56.61
58.73
65.95
80.32
100.82
125.02
150.78
176.93
202.85
227.89
251.01
270.91
286.04
294.52
294.05
282.38
258.41
223.8
183.42
144.69
115.48
101.44
104.09
120.19
142.86
163.9
176.1
175.05
160
133.57
100.86
68.07
41.35
25.7
24.09
36.71
60.5
89.45
115.5
130.53
128.78
108.88
74.52
33.28
-6.1
-37.01
-56.85
-66.87
-70.1
-68.69
-62.52
-49.98
-30.17
-4.98
20.77
41.53
54.06
59.52
63.01
70.65
86.06
108.17
131.77
150.37
159.57
159.06
152.24
144.02
138.21
136.29
137.91
142.15
148.46
156.63
165.87
174.13
178.27
175.26
163.42
142.9
115.14
81.45
41.79
-5.14
-60.3
-122.14
-185.01
-239.23
-273.46
-278.65
-252.12
-199.66
-134.42
-72.7
-28.39
-8.58
-12.54
-34.23
-66.51
-104.89
-148.65
-199.36
-258.16
-323.25
-389.38
-448.99
-494.44
-520.2
-524.2
-508.04
-476.29
-434.87
-389.2
-343.01
-298.39
-256.78
-220.09
-190.92
-171.51
-161.96
-158.93
-156.18
-146.91
-126.92
-96.53
-60.51
-25.77
1.83
20.13
31.54
41.84
58
85.33
125.01
172.34
217.28
247.47
253.32
232.7
193.14
149.81
119.91
115.44
138.14
178.85
221.47
249.56
252.26
227.55
181.96
127.71
78.27
44.27
30.61
35.53
52.1
71.63
87.32
96.65
101.02
103.5
106.34
109.66
112.51
114.85
118.86
128.1
144.82
167.41
189.86
203.96
203
184.69
151.82
110.34
66.36
23.56
-17.8
-60.05
-106.03
-156.98
-211.41
-265.25
-313.04
-349.91
-372.9
-381.52
-377.07
-361.47
-336.1
-301.57
-258.26
-207.46
-151.84
-95.5
-43.15
0.81
33.07
52.04
58.15
53.95
43.62
31.84
22.54
17.72
17.31
19.67
22.76
25.31
27.37
30.07
34.81
42.59
53.67
67.7
84.23
102.68
122.18
141.26
157.93
170.27
177.14
178.7
176.16
171.14
164.85
157.66
149.38
139.91
129.61
119.41
110.43
103.46
98.84
96.4
95.63
95.53
94.76
91.59
84.41
72.31
55.63
35.97
15.75
-2.59
-17.48
-28.55
-36.67
-43.35
-50.08
-57.63
-65.88
-73.94
-80.58
-84.7
-85.59
-82.98
-76.86
-67.45
-55.31
-41.43
-27.16
-14.01
-3.16
4.81
9.92
12.62
13.43
12.79
11.04
8.57
5.95
3.76
2.42
2.09
2.59
3.58
4.63
5.42
5.73
5.46
4.6
3.21
1.47
-0.36
-2.03
-3.32
-4.04
-4.05
-3.21
-1.47
1
3.85
6.54
8.53
9.39
8.86
6.74
2.9
-2.7
-9.82
-17.76
-25.39
-31.49
-35.26
-36.84
-37.25
-37.81
-39.39
-41.92
-44.56
-46.33
-46.77
-46.19
-45.15
-43.89
-41.89
-38.24
-32.31
-24.37
-15.61
-7.43
-0.65
4.96
10.31
16.17
22.44
28.15
32.05
33.45
32.71
31.03
29.68
29.34
29.75
29.9
28.66
25.25
19.46
11.75
2.96
-5.82
-13.48
-19.12
-22.28
-23.01
-21.82
-19.43
-16.4
-13.1
-9.74
-6.59
-3.92
-1.77
0.34
3.53
9.05
17.59
28.56
40.12
49.88
55.83
57.24
54.64
49.25
42.18
33.92
24.55
14.24
3.74
-5.69
-12.73
-16.73
-18.18
-18.44
-19.21
-21.65
-25.93
-31.11
-35.77
-38.57
-38.94
-37.14
-34
-30.46
-27.02
-23.6
-19.66
-14.61
-8.23
-0.91
6.34
12.3
16.05
17.34
16.79
15.49
14.56
14.56
15.33
16.24
16.65
16.36
15.77
15.56
16.22
17.64
19.18
19.94
19.25
16.91
13.3
9.16
5.32
2.46
0.95
0.79
1.72
3.39
5.57
8.26
11.73
16.27
21.96
28.5
35.23
41.32
46.11
49.38
51.3
52.3
52.66
52.42
51.26
48.78
44.69
39.05
32.19
24.56
16.54
8.3
-0.15
-8.73
-17.19
-24.98
-31.44
-36
-38.27
-38.16
-35.76
-31.19
-24.49
-15.63
-4.59
8.45
23.06
38.58
54.38
70
85.17
99.57
112.56
123.01
129.56
131.29
128.27
121.97
114.91
109.82
108.77
112.46
120.3
130.82
142.45
153.97
164.74
174.61
183.66
191.99
199.58
206.36
212.23
217.11
220.98
223.73
225.09
224.54
221.39
215.06
205.27
192.25
176.69
159.53
141.7
123.93
106.67
90.15
74.34
58.99
43.64
27.77
11.03
-6.56
-24.5
-42.03
-58.47
-73.78
-88.66
-104.44
-122.54
-143.82
-168.2
-194.71
-221.93
-248.65
-274.48
-299.94
-326.3
-355.23
-388.5
-427.75
-473.84
-525.94
-580.68
-632.06
-672.49
-694.97
-695.48
-674.44
-636.48
-588.51
-537.13
-486.84
-439.74
-396.37
-356.98
-322.22
-292.95
-269.55
-251.14
-235.31
-219.02
-199.61
-175.66
-147.16
-115.14
-80.9
-45.61
-9.93
26.07
62.12
97.21
129.8
158.37
182.5
203.53
224.02
247
274.79
307.16
340.36
368.17
383.86
382.58
363.11
327.61
280.94
229.37
180.53
141.49
117.03
107.25
108.02
113.95
120.75
123.39
122.27
118.06
109.9
96.57
77.45
53.03
27.4
3.81
-15.41
-29.07
-32.85
-25.31
-7.59
16.85
43.97
70.91
96.09
119.23
140.4
159.58
175.78
188.25
196.87
202.51
206.77
211.06
216.54
222.73
229.27
234.98
238.89
240.62
240.59
239.8
239.25
239.85
241.25
242.93
243.73
242.48
238.08
229.54
215.71
194.43
169.61
142.57
114.26
85.3
56.35
28.27
2.04
-21.35
-41.06
-56.44
-68.13
-76.73
-82.95
-87.34
-90.28
-91.95
-92.45
-92.01
-91.02
-90.73
-92.16
-95.98
-102.32
-110.8
-120.72
-131.33
-142.18
-153.17
-165.01
-178.35
-193.58
-210.66
-229.2
-248.82
-269.28
-290.63
-313.02
-336.69
-361.63
-388.09
-417.15
-450.85
-490.99
-537.32
-585.76
-628.24
-654.96
-657.71
-633.09
-583.62
-516.3
-439.68
-361.47
-287.94
-224.81
-177.82
-151.87
-148.57
-163.98
-188.59
-210.34
-219.23
-211.18
-188.99
-159.82
-131.49
-108.93
-93.27
-82.92
-75.69
-70.34
-66.76
-65.21
-65.37
-66.08
-65.65
-62.71
-56.76
-48.41
-39.01
-29.94
-22.11
-15.61
-9.84
-4
2.48
9.52
16.42
22.14
25.81
27.02
26.02
23.83
21.6
20.13
19.63
19.71
19.76
19.36
18.47
17.48
17.29
18.77
22.42
28.23
35.67
44.07
52.83
61.6
70.28
79.63
90.42
103.06
117.3
132.44
147.61
162.2
175.85
188.41
201.81
217.77
237.02
258.65
280.48
300.01
315.4
325.59
330.17
333.3
338.96
349.27
363.31
377.72
388.72
393.96
392.82
385.95
381.27
386.18
404.82
436.11
474.79
514.77
551.97
584.99
614.34
650.05
701.51
773.87
865.57
969.68
1078.2
1185.4
1288.9
1333.4
1278.3
1108.1
843.99
534.3
229.02
-38.75
-255.61
-421.94
-545.31
-627.24
-670.12
-678.74
-662.16
-632.23
-599.63
-571.11
-549.27
-533.97
-517.08
-491.17
-453.15
-407.12
-363.13
-332.4
-321.99
-332.09
-356.55
-381.7
-395.06
-390.17
-368.73
-338.23
-307
-280.01
-257.91
-239.07
-220.01
-199.33
-178.19
-159.48
-145.74
-137.47
-133.17
-129.59
-124.35
-116.27
-106.3
-96.77
-90.45
-89.2
-93.18
-100.62
-108.37
-112.68
-109.89
-97.3
-74.04
-41.67
-3.83
34.18
66.74
89.33
100.1
100.66
95.4
89.33
85.25
82.69
78.29
68.43
51.61
29.88
8.16
-8.16
-14.54
-11.36
-2.84
5.77
11.86
15.92
20.16
26.27
33.92
41.14
45.06
43.93
37.02
26.57
15.18
4.77
-4.09
-12.07
-20.33
-30.35
-40.35
-50.27
-59.03
-65.52
-69.13
-70.16
-69.56
-68.16
-66.98
-66.26
-65.99
-65.33
-63.76
-61.32
-58.58
-57.81
-58.23
-59.33
-60.38
-61.06
-60.92
-60.3
-60.23
-62.02
-66.64
-73.94
-83.23
-93.43
-103.73
-113.47
-122.78
-132.47
-143.81
-158.23
-176.89
-200.71
-229.13
-259.67
-287
-304.62
-307.18
-292.81
-264.03
-226.69
-187.67
-151
-120.53
-97.21
-79.77
-66.33
-55.65
-47.41
-41.42
-37.16
-33.43
-29.12
-23.3
-15.99
-8.09
-1
4.36
8.02
10.88
14.28
19.18
26.1
34.67
43.71
51.8
57.9
61.77
64.08
66.02
68.68
72.93
78.96
86.31
94.15
101.76
108.86
115.75
123.17
131.96
142.89
156.42
172.51
190.68
210.18
230.17
249.99
269.58
289.79
312.55
340.14
374.07
413.51
454.18
488.48
507.13
502.09
469.59
412.2
338.89
262.99
198.88
158.59
149.33
172.36
222.82
290.65
362.4
423.74
462.62
472.21
452.82
411.72
360.59
311.39
272.42
246.1
229.47
216.78
202.67
184.27
161.66
136.45
110.23
83.58
56.24
28
-0.38
-26.95
-49.55
-66.91
-79.61
-89.88
-100.66
-114.16
-130.87
-149.05
-165.56
-177.24
-182.3
-181.36
-177.39
-174.6
-176.84
-185.93
-200.98
-218.9
-236.16
-250.39
-261.9
-273.58
-289.63
-313.76
-347.79
-391.51
-443.13
-499.9
-558.13
-612.66
-656.81
-683.31
-687.01
-667.51
-629.99
-583.61
-537.6
-497.1
-461.35
-425.52
-384.98
-339.87
-295.94
-261.83
-243.82
-241.61
-247.63
-250.61
-241.24
-216.6
-181.28
-144
-112.69
-90.51
-75.17
-61.12
-43.25
-19.83
7.44
35.2
61.12
85.45
110.95
141.13
177.46
217.24
253.86
279.35
288.14
280.44
262.75
245.23
236.98
241.75
256.56
273.96
286.52
290.7
288.22
284.07
282.73
285.27
288.62
287.39
277.02
256.02
226.68
194.4
166.23
148.79
146.29
158.96
182.37
208.23
226.93
230.56
215.22
181.19
131.49
70.2
1.67
-68.89
-134.12
-184.48
-210.37
-205.21
-168.26
-105.17
-25.98
57.77
135.6
199.15
242.54
262.53
258.94
234.94
196.02
148.08
95.09
38.24
-22.99
-88.57
-155.94
-219.32
-270.66
-302.19
-309.22
-292.49
-258.9
-220.63
-192.25
-186.52
-209.9
-259.91
-325.66
-391.54
-442.8
-470.23
-472.18
-453.12
-420.21
-379.96
-336.61
-292.73
-250.31
-211.79
-179.87
-156.01
-139.24
-125.81
-110.59
-89.33
-60.68
-26.65
8.62
40.92
68.13
91.16
113.26
138.38
169.48
207.52
251.41
298.35
344.37
385.03
416.35
435.97
444
443.04
436.95
428.92
419.92
408.35
391.32
366.89
335.55
300.4
265.6
234.32
207.1
181.64
154.18
121.37
82.03
37.72
-7.56
-48.93
-82.79
-108.39
-127.9
-144.93
-162.13
-179.3
-193.33
-199.76
-194.96
-177.87
-150.23
-115.67
-78.39
-42.36
-11.05
12.5
26.15
29.41
24
13.69
3.14
-3.87
-5.72
-2.83
3.23
10.9
19.23
27.56
35.06
40.34
41.94
39.45
34.11
28.72
26.32
28.45
34.29
41.26
46.64
49.31
50.57
53.6
61.54
75.79
95.17
116.21
134.72
147.13
151.54
148.09
138.53
125.25
110.38
95.18
80.16
65.7
53.01
44.27
41.73
46.34
56.65
69.07
79.52
85.23
86.38
86.11
88.83
97.91
113.82
134.06
154.52
171.44
182.69
187.99
187.74
181.91
169.66
149.71
121.77
87
47.81
6.65
-34.96
-76.36
-116.31
-151.64
-177.43
-189.08
-184.65
-165.87
-136.78
-100.71
-58.49
-9.13
47.16
105.9
158.12
193.75
206.62
197.9
175.7
150.74
130.9
118.1
108.65
96.67
77.68
50.67
17.48
-19.03
-56.13
-91.29
-121.51
-143.16
-153.19
-151.09
-140.3
-127.96
-122.33
-128.85
-146.71
-167.95
-180.65
-174.58
-146.5
-102.68
-56.93
-25.01
-18.44
-39.78
-81.85
-130.67
-170.23
-187.19
-173.98
-129.5
-58.49
29.7
122.67
207.11
271.38
307.99
315.24
297.08
261.35
217.26
172.68
132.74
99.57
73.09
52.02
34.55
18.47
1.4
-18.74
-43.25
-72.09
-103.89
-136.49
-167.94
-197.28
-224.96
-252.57
-282.05
-315.08
-352.78
-395.98
-445.31
-500.68
-560.26
-619.54
-671.48
-708.24
-723.89
-716.71
-689.87
-649.93
-604.19
-558.17
-514.68
-474.36
-437.08
-402.96
-372.2
-344.45
-318.18
-291.03
-260.92
-227.26
-191.31
-155.47
-122.24
-92.7
-66.08
-40.3
-13.23
15.99
46.38
75.5
100.74
120.99
137.33
152.51
169.78
191.02
216.05
243.13
270.6
297.82
324.89
351.19
374.27
390.32
396.26
392.07
381.45
369.52
359.07
348.28
331.88
305.5
270.33
234.16
207.59
197.05
199.85
204.67
198.17
173.38
134.33
94.02
67.31
63.52
82.44
115.91
152.96
184.7
206.4
216.62
215.29
202.75
180.36
151.18
119.89
90.87
66.17
45.07
25.84
8.49
-4
-7.16
1.01
17.12
32.63
37.71
26.86
2.24
-27.37
-52.11
-67.17
-75.43
-84.41
-100.16
-122.02
-142.19
-150.77
-142.42
-120.29
-94.78
-78.36
-79.43
-99.16
-132.15
-169.93
-204.77
-232.12
-250.82
-261.67
-265.59
-262.85
-253.49
-238.39
-219.84
-201.37
-186.46
-176.97
-172.09
-168.35
-161.02
-146.32
-123.26
-94.37
-64.66
-39.05
-20.27
-7.73
1.46
10.47
20.68
31.07
39.38
44.02
45.5
46.57
50.56
59.24
71.77
85.3
97.11
106.28
113.95
121.93
131.08
140.54
148.17
152.12
152.47
151.88
154.95
166.3
188
217.25
246.09
263.35
258.9
228.29
175.19
110.91
50.68
8.81
-5.7
8.48
45.19
92.9
137.84
167.59
174.27
156.45
119.34
72.62
27.31
-7.7
-27.65
-32.35
-25.03
-10.51
6.48
22.35
35.45
46.09
55.98
67.2
81.03
97.29
114.74
131.78
147.22
160.24
170.12
175.95
176.83
172.69
164.75
155.17
145.91
137.63
129.35
119.4
107.01
93.22
80.57
71.61
67.54
67.84
71
75.86
82.16
90.32
100.32
110.65
118.44
120
111.99
92.26
60.43
18.59
-28.29
-72.38
-104.29
-115.57
-101.7
-64.12
-10.26
48.54
100.51
136.43
151.34
144.63
119.06
79.15
30.12
-22.89
-75.16
-122.76
-162.85
-193.74
-214.87
-226.94
-232.4
-235.21
-239.69
-248.47
-260.47
-270.83
-273.21
-263.69
-243.85
-220.96
-204.49
-201.02
-210.04
-224.05
-232.74
-228.94
-213.22
-194.04
-183.42
-190.58
-217.06
-255.61
-293.23
-317.15
-320.25
-303.91
-276.44
-248.41
-227.35
-214.86
-207.48
-200.29
-190.72
-179.97
-171.44
-167.41
-166.47
-163.4
-151.87
-127.81
-91.47
-46.92
0.59
47.29
92.15
135.65
177.34
213.92
239.65
249.14
240.91
219.46
194.05
174.43
166.4
169.23
176.92
182.22
180.93
173.77
165.1
159.68
159.84
164.58
170.6
174.17
172.59
164.76
150.83
131.9
109.92
87.72
68.67
56.14
52.43
57.91
70.54
85.99
98.65
103.31
97.12
80.9
59.02
37.48
21.35
12.46
9.06
7.46
4.44
-1
-7.69
-13.75
-18.3
-22.25
-27.45
-34.9
-43.48
-50.29
-52.13
-47.15
-35.72
-20.08
-3.5
10.38
17.81
15.05
-1.07
-31.83
-75.16
-125.22
-173.49
-211.61
-234.12
-240.14
-232.84
-217.32
-197.97
-176.98
-154.68
-130.87
-106.51
-84.09
-66.68
-56.12
-51.58
-49.84
-47.2
-41.87
-35.08
-30.1
-29.69
-33.68
-38.58
-39.36
-32.54
-18.47
-1.1
14.44
24.97
31.05
36.38
45.26
60.05
79.9
101.58
121.38
136.75
146.84
152.05
153.34
151.58
147.76
142.92
138.04
133.71
129.82
125.65
120.57
114.68
109.32
106.71
109.32
119.1
136.99
162.87
195.67
233.41
273.25
311.63
344.61
368.73
381.9
384.07
377.11
364.09
348.26
332.1
316.99
303.14
290.22
277.89
266.01
254.21
241.72
227.31
209.84
188.92
164.89
139
113.28
89.94
70.54
55.61
44.42
35.58
27.71
19.21
8.91
-3.35
-16.85
-30.62
-44.04
-57.5
-71.91
-88.11
-107.81
-133.34
-166.88
-209.45
-259.81
-313.54
-363.68
-402.34
-417.81
-402.88
-360.53
-302.32
-241.39
-187.1
-144.24
-114.81
-101.07
-105.14
-127.48
-164.67
-209.12
-251.56
-284.87
-299.93
-293.32
-267.34
-228.25
-183.68
-139.75
-99.78
-64.63
-33.88
-6.69
16.92
36.83
52.98
65.52
74.68
80.94
85.06
87.96
90.66
92.97
94.84
95.68
94.95
92.16
87.15
80.26
72.38
64.84
58.51
53.87
50
45.47
38.55
27.7
12.04
-8.46
-33.54
-63.58
-95.14
-127.59
-161.28
-197.25
-236.96
-282.07
-333.88
-392.24
-454.39
-514.13
-563.39
-593.68
-599.37
-580.06
-540.88
-490.43
-437.4
-387.78
-343.66
-304.84
-270.08
-238.71
-210.98
-187.3
-167.34
-149.67
-132.33
-113.77
-93.95
-73.87
-55.31
-39.76
-27.83
-19
-11.89
-4.9
3.19
12.61
22.79
32.68
41.27
47.97
52.81
56.37
59.45
62.8
66.78
71.4
76.38
81.3
85.8
89.7
93.09
96.33
99.98
104.73
111.19
119.7
130.29
142.65
156.15
170.11
183.91
197.17
210.01
223.23
238.3
256.99
280.32
307.49
335.19
358.02
370.04
366.77
346.66
311.49
265.66
214.92
165.15
121.6
88.34
67.87
60.56
64.5
75.93
90.44
104.36
115.59
123.59
128.36
129.72
127.23
120.65
110.61
98.76
87.15
77.57
70.99
67.4
66.13
66.04
65.83
64.23
60.28
53.75
45.4
36.75
29.45
24.35
21.11
18.57
15.48
11.4
6.72
2.05
-2.48
-7.49
-13.71
-21.05
-28.03
-32.21
-31.5
-25.36
-15.26
-3.9
6.25
14.16
20.55
27.11
35.37
45.94
58.32
71.21
82.76
90.72
92.51
86.07
70.86
48.8
24.06
1.75
-14.03
-21.61
-21.98
-18.04
-13.65
-13.07
-20.57
-39.59
-71.2
-112.31
-155.08
-188.58
-202.57
-191.79
-158.55
-111.84
-63.47
-23.28
4.12
19.72
27.91
33.34
38.6
43.71
47.38
48.82
48.8
49.58
53.51
61.39
71.57
80.39
83.98
80.23
69.96
56.55
44.27
36.18
32.86
32.54
32.39
30.45
26.58
22.36
20.21
21.86
27.3
34.84
41.83
45.9
45.86
41.98
35.63
28.69
22.66
18.07
14.44
10.66
5.54
-1.68
-11.07
-22.11
-33.55
-44.21
-53.12
-59.5
-62.68
-62.4
-59.52
-56.43
-56.63
-61.87
-72.24
-85.85
-99.82
-111.71
-120.76
-128.13
-136.17
-146.8
-157.27
-163.34
-161.69
-152.25
-138.33
-124.63
-114.62
-108.87
-105.02
-94.23
-68.61
-24.69
35.02
103.92
174.97
243.46
307.47
366.74
427.53
494.89
570.1
649.75
727.81
799.14
861.89
918.03
934.01
888.59
777.39
616.45
431.56
243.2
61.66
-108.15
-261.05
-390.45
-485.12
-539.21
-555.63
-545.18
-521.59
-495.7
-472.87
-454.24
-439.49
-424.17
-405.23
-382.16
-356.7
-331.51
-308.33
-287.36
-268.54
-252.78
-239.77
-229.38
-221.88
-216.61
-211.02
-200.79
-181.78
-152.75
-116.67
-78.17
-42.29
-12.64
9.63
24.99
33.95
36.08
30.44
16.96
-1.76
-21.34
-37.9
-49.84
-58.59
-67.21
-78.12
-91.49
-105.04
-115.51
-118.96
-113.92
-101.39
-83.94
-64.32
-44.44
-25.33
-7.3
9.53
25.03
38.75
50.21
58.88
64.43
66.81
66.22
63.13
58.16
51.92
44.71
36.85
28.79
21.34
15.55
12.3
11.96
14.2
17.98
21.89
24.65
25.51
24.39
21.76
18.25
14.44
10.64
6.88
2.93
-1.44
-6.25
-11.26
-16.05
-20.23
-23.62
-26.29
-28.44
-30.15
-31.27
-31.36
-29.87
-26.53
-21.54
-15.53
-9.34
-3.69
1.05
4.79
7.63
9.61
10.71
10.89
10.12
8.36
5.49
1.31
-4.32
-11.3
-19.27
-27.55
-35.42
-42.32
-47.98
-52.44
-55.84
-58.19
-59.3
-58.83
-56.41
-51.86
-45.25
-36.91
-27.35
-17.31
-7.59
0.92
7.56
12.03
14.57
15.87
16.91
18.58
21.44
25.62
30.94
37.13
44.04
51.62
59.69
67.76
74.96
80.24
82.86
82.71
80.33
76.69
72.65
68.56
64.34
59.68
54.45
49
43.85
39.42
35.73
32.4
28.92
25.03
20.87
16.86
13.52
11.06
9.4
8.22
7.1
5.64
3.57
0.86
-2.24
-5.17
-7.31
-8.27
-8.12
-7.46
-7.22
-8.3
-11.2
-15.87
-21.66
-27.46
-32.02
-34.17
-33.23
-29.15
-22.51
-14.33
-5.71
2.46
9.66
15.67
20.47
24.09
26.65
28.47
29.96
31.61
33.64
35.86
37.64
38.25
37.23
34.67
31.18
27.61
24.59
22.27
20.39
18.54
16.44
14.09
11.65
9.23
6.78
4.19
1.45
-1.24
-3.42
-4.67
-4.78
-3.93
-2.64
-1.61
-1.47
-2.67
-5.2
-8.64
-12.13
-14.65
-15.44
-14.39
-12.14
-9.85
-8.66
-9.12
-11
-13.31
-14.94
-15.19
-14.1
-12.38
-10.95
-10.53
-11.37
-13.32
-16.15
-19.84
-24.56
-30.48
-37.42
-44.67
-51.04
-55.19
-56.01
-52.97
-46.2
-36.41
-24.6
-11.82
0.95
12.8
23
30.94
36.29
39.04
39.46
38.04
35.25
31.52
27.19
22.72
18.71
15.79
14.46
14.74
16.11
17.68
18.6
18.46
17.37
15.83
14.31
13.07
12.01
10.9
9.56
8.09
6.78
5.92
5.66
5.82
6.09
6.1
5.61
4.58
3.13
1.51
-0.02
-1.22
-1.95
-2.12
-1.82
-1.18
-0.43
0.15
0.31
-0.08
-0.94
-2.02
-2.94
-3.45
-3.59
-3.7
-4.36
-6.1
-9.18
-13.32
-17.89
-22.11
-25.48
-27.93
-29.81
-31.63
-33.77
-36.2
-38.45
-39.64
-38.78
-35.11
-28.43
-19.26
-8.69
1.95
11.62
19.76
26.31
31.34
34.73
36.04
34.88
31.26
26.02
20.55
16.28
13.98
13.55
14.27
15.29
16.28
17.38
18.94
20.97
22.97
24.11
23.76
21.93
19.36
17.14
16.07
16.26
17.09
17.61
17.09
15.34
12.68
9.69
6.85
4.37
2.27
0.57
-0.66
-1.35
-1.69
-2.22
-3.63
-6.45
-10.7
-15.85
-21.03
-25.51
-29.03
-31.86
-34.54
-37.54
-41.05
-44.96
-49.07
-53.21
-57.25
-61.01
-64.1
-65.88
-65.66
-62.94
-57.67
-50.19
-41.09
-31.1
-21.03
-11.73
-4.05
1.42
4.55
5.83
6.29
7.01
8.63
11.02
13.48
15.25
15.99
16.09
16.32
17.36
19.25
21.34
22.63
22.35
20.33
17.03
13.29
9.82
7.07
5.05
3.61
2.58
1.87
1.39
1.05
0.71
0.28
-0.29
-0.93
-1.49
-1.86
-2.01
-1.95
-1.6
-0.85
0.5
2.51
5.03
7.61
9.61
10.34
9.3
6.37
1.91
-3.32
-8.34
-12.36
-14.98
-16.38
-17.21
-18.28
-20.16
-22.94
-26.14
-28.81
-29.93
-28.66
-24.46
-17.32
-7.72
3.31
14.34
23.83
30.48
33.59
33.23
30.11
25.32
19.97
14.9
10.62
7.33
4.99
3.39
2.21
1.16
0.03
-1.15
-2.19
-2.75
-2.5
-1.19
1.2
4.43
7.98
11.19
13.49
14.69
15.02
15.05
15.29
15.84
16.21
15.69
13.73
10.5
6.86
3.9
2.37
2.22
2.73
2.97
2.47
1.42
0.54
0.44
1.17
2.04
1.98
0.21
-3.26
-7.58
-11.47
-13.82
-14.32
-13.49
-12.41
-12.15
-13.29
-15.77
-19.08
-22.63
-26.09
-29.42
-32.79
-36.28
-39.71
-42.48
-43.75
-42.81
-39.39
-33.89
-27.29
-20.82
-15.46
-11.58
-8.86
-6.56
-3.96
-0.62
3.44
8.03
12.99
18.45
24.82
32.4
41.1
50.15
58.2
63.73
65.52
63.25
57.64
50.38
43.49
38.59
36.24
35.7
35.28
33.09
28.09
20.54
11.75
3.38
-3.36
-8
-10.49
-10.58
-7.6
-0.69
10.29
24.18
38.5
50.36
57.62
59.61
56.96
50.79
42.01
31.09
18.57
5.71
-5.43
-12.72
-15.16
-13.66
-10.95
-10.37
-14.19
-22.54
-33.36
-43.55
-50.57
-53.36
-52.39
-48.72
-42.81
-33.96
-20.67
-1.78
22.33
49.33
75.36
96.34
109.37
113.75
110.89
103.51
94.07
83.32
69.58
49.23
18.23
-25.88
-82.26
-146.07
-209.15
-261.55
-293.77
-299.14
-275.82
-227.99
-165.6
-102.22
-51.23
-21.51
-14.49
-24.06
-39.43
-49.83
-48.74
-35.93
-16.42
2.55
15.01
18.27
13.34
3.8
-6.03
-12.7
-14.52
-11.87
-6.8
-2.08
0.11
-0.98
-4.6
-9.35
-14.45
-20.26
-27.89
-37.88
-49.21
-59.39
-65.62
-66.59
-63.37
-58.88
-56.02
-55.71
-56.02
-52.78
-41.52
-19.82
11.3
47.39
82.01
108.85
123.65
125.33
116.06
100.07
82.01
65.52
52.53
43.42
37.78
34.91
34.09
34.57
35.51
36.19
36.24
35.74
35.09
34.49
33.69
32.03
28.98
24.69
20.15
16.93
16.44
19.24
24.77
31.68
38.48
44.11
48.17
50.66
51.55
50.51
47.08
41.1
33.13
24.55
17.04
11.89
9.45
9.03
9.27
8.89
7.21
4.41
1.33
-1.01
-1.88
-1.21
0.36
1.6
1.06
-2.26
-8.56
-16.94
-25.75
-33.33
-38.69
-42.02
-44.43
-47.32
-51.61
-57.28
-63.31
-68.08
-69.95
-67.69
-60.87
-50.04
-36.72
-23.08
-11.38
-3.35
0.44
0.6
-1.36
-3.69
-4.99
-4.61
-2.75
-0.2
1.93
2.58
0.98
-3.15
-9.55
-17.64
-26.68
-36.12
-45.51
-54.08
-60.35
-62.16
-57.38
-45.2
-27.24
-7.47
8.98
17.96
18.07
11.21
1.58
-6.57
-10.77
-11.18
-9.71
-8.58
-8.87
-10.27
-11.71
-12.32
-12.04
-11.45
-11.15
-11.19
-11.04
-9.93
-7.35
-3.3
1.88
7.98
15.22
24.09
34.92
47.44
60.61
73.03
83.4
90.96
95.59
97.63
97.49
95.46
91.65
86.25
79.75
73.06
67.39
63.88
63.2
65.29
69.4
74.32
78.85
82.22
84.19
84.97
84.93
84.24
82.75
80.09
75.99
70.52
64.28
58.24
53.36
50.3
49.13
49.38
50.27
51.04
51.26
50.97
50.47
50.17
50.26
50.64
50.93
50.7
49.67
47.88
45.62
43.35
41.46
40.14
39.28
38.58
37.71
36.5
34.97
33.36
31.97
31.08
30.86
31.31
32.33
33.75
35.37
37.02
38.63
40.24
41.92
43.71
45.53
47.14
48.17
48.33
47.5
45.76
43.33
40.41
37.15
33.66
30.14
26.91
24.46
23.23
23.52
24.91
26.92
29.29
31.96
34.83
37.56
39.69
40.63
39.85
36.5
30.22
21.42
11.14
0.69
-8.8
-16.51
-22.14
-25.88
-29.3
-33.57
-38.69
-43.61
-47.05
-47.99
-45.89
-40.7
-32.88
-26.19
-23.23
-24.04
-26.74
-29.77
-32.89
-36.91
-42.99
-52.25
-71.3
-103.28
-145.27
-190.15
-231.59
-266.48
-294.51
-316.98
-335.89
-362.77
-404.37
-458.48
-516.58
-571.01
-618.24
-657.56
-688.97
-712.3
-739.34
-776.26
-818.7
-855.51
-877.79
-882.75
-871.71
-847.18
-735
-512.01
-218.78
69.61
300.19
460.22
561.29
621.77
657.92
680.75
683.75
662.68
622.78
576.75
536.16
506.86
489.77
483.57
486.1
485.32
473.27
450.42
422.03
392.21
361.6
329.29
296.12
265.25
234.93
205.13
178.61
158.87
147.07
141.66
139.93
140.29
142.05
141.58
135.93
124.35
108.07
88.66
71.04
57.42
48.35
42.41
35.54
23.57
4.21
-22.19
-53.14
-85.17
-115.66
-143.14
-167.95
-191.91
-217.58
-247.19
-282
-321.8
-364.5
-406.58
-443.07
-468.87
-480.5
-477.73
-464.13
-446.15
-430.76
-422.58
-422.29
-426.12
-427.71
-420.9
-402.22
-371.88
-333.11
-290.36
-247.53
-207.02
-169.69
-135.55
-104.65
-77.57
-55.03
-37.25
-23.5
-12.27
-1.88
8.93
20.52
32.52
44.16
54.81
64.3
72.86
81.02
89.4
98.6
109.15
121.52
135.96
152.43
170.38
188.94
206.94
223.61
238.83
253.37
268.7
286.47
308
333.69
362.7
392.9
421.21
444
457.91
460.69
452.17
434.73
412.68
390.81
372.16
356.55
340.6
319.72
290.82
254.2
213.93
176.13
145.99
125.12
111
98.68
84.6
68.61
54.14
46.16
47.64
56.81
66.35
65.81
45.56
1.25
-64.8
-144.51
-226.41
-298.41
-350.18
-375.17
-372
-345.48
-305.4
-266.21
-243.48
-248.42
-283.3
-339.95
-402.86
-455.26
-485.11
-484.89
-456.08
-407.35
-349.86
-292.21
-238.47
-189.89
-147.29
-112.17
-78.84
-42.66
-2.35
40.9
86.43
135.18
187.93
243.76
300
365.05
444.18
535.2
629.85
720.44
803.73
879.84
950.09
1015.3
1089.9
1180.7
1280.4
1370
1430.7
1453.3
1438.5
1394.7
1241.3
952.32
570.75
183.3
-140.89
-378.25
-536.63
-634.62
-690.68
-721.41
-727.5
-707.65
-668.01
-622.3
-583.23
-556.66
-543.19
-541.94
-551.28
-559.28
-556.38
-541.59
-522.14
-506.27
-497.89
-497.07
-502.61
-517.26
-535.95
-552.3
-562.76
-567.28
-565.72
-555.29
-531.98
-471.06
-368.76
-241.07
-114.6
-9.84
65.28
112.54
138.76
151.69
157.58
156.99
151.96
147.03
146.5
150.95
156.34
155.97
143.95
118.67
81.95
39.91
2.6
-21.48
-30.02
-27.13
-19.7
-13.22
-9.5
-8.85
-9.59
-9.18
-6.13
-0.92
4.51
7.99
7.81
2.83
-8.14
-24.55
-43.7
-61.38
-73.68
-78.64
-76.85
-70.94
-64.33
-60.07
-59.41
-61.43
-63.99
-64.92
-62.8
-57.01
-47.59
-35.11
-20.78
-6.86
3.48
6.75
0.51
-15.26
-37.44
-60.49
-78.32
-86.47
-83.6
-71.45
-53.58
-33.62
-14.25
3.05
17.43
28.06
34.13
35.34
32.6
28.09
24.6
24.15
27.04
31.77
36.06
38.29
38.46
38.27
40.03
45.17
53.37
62.81
71.22
77.2
81.01
84.15
88.33
94.37
101.72
108.95
114.75
118.64
121.17
123.5
126.57
130.6
135.02
138.81
141.03
141.31
140.08
138.31
137.12
137.11
137.95
138.23
135.89
129.1
117
100.17
80.56
60.91
43.91
31.49
24.62
23.06
25.18
27.84
26.61
16.65
-5.73
-41.39
-87.34
-137.01
-181.95
-214.57
-230.82
-231.63
-222.51
-211.23
-204.75
-206.75
-216.79
-231.49
-246.57
-258.64
-265.96
-267.79
-263.2
-250.42
-227.4
-193.38
-150.35
-103.08
-57.55
-18.65
11.68
34.65
53
68.87
82.29
91.37
93.79
88.71
77.48
63.26
49.55
38.65
31.07
26.02
22.38
19.45
17.13
15.69
15.45
16.47
18.63
21.69
25.24
28.69
31.3
32.52
32.23
30.8
28.78
26.55
24.18
21.73
19.64
19.07
21.54
28.22
39.11
52.68
66.42
77.9
85.79
90.18
92.26
93.32
93.89
93.54
91.25
86.17
78.16
67.91
56.62
45.44
35.11
25.73
17.1
9.05
1.89
-3.5
-6.04
-5.08
-0.99
4.77
10.14
13.47
14.24
13.32
12.35
12.78
14.96
18.02
20.55
21.42
20.41
18.11
15.29
12.3
8.93
4.84
0.21
-3.98
-6.27
-5.65
-2.19
2.79
7.39
10.05
10.33
8.87
6.8
4.99
3.58
2.18
0.36
-1.96
-4.44
-6.56
-8.14
-9.35
-10.75
-12.94
-16.31
-20.84
-25.88
-30.14
-31.96
-29.99
-23.76
-14.19
-3.38
6.21
12.82
16.14
17.35
18.35
20.7
24.94
30.43
35.89
40.08
42.29
42.45
41.02
38.72
36.26
34.28
33.12
32.82
33.23
34.16
35.62
37.87
41.3
46.07
51.76
57.38
61.69
63.78
63.57
61.91
60.3
60.19
62.55
67.57
74.78
83.24
92.05
100.41
107.78
113.94
118.86
122.65
125.32
126.8
126.92
125.63
123.01
119.13
113.82
106.56
96.62
83.25
65.97
44.52
18.52
-12.75
-50.2
-94.21
-143.86
-196.39
-247.62
-293.08
-329.34
-355.02
-370.96
-379.65
-384.36
-388.08
-392.62
-397.91
-401.79
-400.52
-389.97
-367.07
-330.96
-283.09
-226.33
-163.77
-98.11
-31.89
31.55
87.65
131.5
159.47
171.06
169.63
161.18
151.94
146.02
144.3
145.08
145.94
145.58
144.5
144.19
145.71
148.39
149.86
147.28
139.04
125.75
110.28
96.16
85.88
79.62
75.33
69.92
60.88
47.45
30.91
13.88
-0.93
-11.8
-18.59
-22.59
-25.81
-30.08
-36.27
-44.1
-52.49
-60.21
-66.5
-71.22
-74.47
-76.2
-75.93
-72.99
-67.03
-58.43
-48.39
-38.65
-30.84
-26.02
-24.31
-24.96
-26.71
-28.18
-28.21
-26.02
-21.21
-13.7
-3.82
7.76
20.03
31.88
42.44
51.4
59.01
65.78
72.02
77.5
81.57
83.72
84.04
83.4
83.03
83.76
85.49
87.17
87.25
84.54
78.8
70.82
62.08
54.12
47.93
43.62
40.46
37.15
32.36
25.22
15.66
4.54
-6.66
-16.34
-23.4
-27.6
-29.53
-30.3
-31.12
-32.91
-36.15
-40.89
-46.86
-53.45
-59.74
-64.56
-66.7
-65.34
-60.34
-52.6
-43.8
-35.99
-30.86
-29.26
-30.9
-34.54
-38.52
-41.35
-42.1
-40.63
-37.64
-34.61
-33.43
-35.89
-42.88
-53.79
-66.22
-76.5
-80.76
-76.24
-62.24
-40.41
-14.21
12.17
34.92
51.5
60.98
64.09
62.71
59.26
55.96
54.21
54.37
55.87
57.68
58.7
58.06
55.34
50.55
44.17
37.05
30.26
24.88
21.63
20.75
21.82
23.96
26.06
27.11
26.47
24.13
20.64
16.98
14.12
12.67
12.64
13.41
14.05
13.61
11.53
7.66
2.19
-4.45
-11.75
-19.12
-25.97
-31.76
-36.16
-39.17
-41.08
-42.32
-43.24
-43.94
-44.22
-43.76
-42.29
-39.78
-36.47
-32.82
-29.4
-26.7
-24.99
-24.16
-23.73
-22.91
-20.99
-17.55
-12.6
-6.58
-0.12
6.15
11.87
16.89
21.28
25.17
28.64
31.63
33.97
35.4
35.74
34.95
33.2
30.89
28.48
26.38
24.85
23.93
23.51
23.32
23.05
22.29
20.75
18.3
15.14
11.7
8.46
5.76
3.71
2.16
0.84
-0.43
-1.78
-3.23
-4.75
-6.37
-8.08
-9.85
-11.6
-13.32
-15.17
-17.48
-20.63
-24.74
-29.55
-34.42
-38.58
-41.46
-43.04
-43.81
-44.64
-46.32
-49.23
-53.16
-57.25
-60.31
-61.11
-58.85
-53.39
-45.36
-35.9
-26.35
-17.71
-10.43
-4.34
1.02
6.04
10.79
14.93
17.98
19.64
20.06
19.84
19.8
20.55
22.18
24.2
25.85
26.52
26.13
25.21
24.56
24.83
26.13
27.99
29.57
30.13
29.29
27.2
24.41
21.56
19.16
17.51
16.58
16.13
15.78
15.16
14.06
12.48
10.68
9.03
7.91
7.4
7.37
7.38
6.89
5.53
3.22
0.22
-3.01
-6.08
-8.91
-11.72
-14.88
-18.56
-22.53
-26.19
-28.89
-30.39
-31.15
-32.29
-35.1
-40.45
-48.23
-57.32
-66.01
-72.62
-76.06
-76.08
-73.08
-67.7
-60.45
-51.65
-41.52
-30.46
-19.22
-8.77
-0.04
6.38
10.52
12.89
14.33
15.64
17.33
19.48
21.88
24.17
26.06
27.42
28.22
28.53
28.45
28.02
27.33
26.47
25.52
24.61
23.8
23.14
22.6
22.13
21.64
21.06
20.36
19.58
18.87
18.4
18.28
18.45
18.66
18.51
17.66
15.9
13.38
10.57
8.17
6.9
7.15
8.78
11.09
13.1
13.87
12.99
10.68
7.69
4.97
3.2
2.63
2.94
3.47
3.5
2.52
0.44
-2.34
-5.17
-7.4
-8.71
-9.25
-9.61
-10.47
-12.3
-15.12
-18.63
-22.41
-26.17
-29.78
-33.11
-35.82
-37.29
-36.8
-33.9
-28.69
-21.89
-14.6
-7.93
-2.6
1.24
3.98
6.33
8.93
12.07
15.53
18.68
20.76
21.32
20.53
19.14
18.19
18.45
19.95
21.96
23.23
22.67
19.91
15.58
11
7.68
6.54
7.6
10.02
12.5
13.92
13.74
12.17
9.97
7.97
6.7
6.19
6.15
6.13
5.9
5.48
5.12
5.08
5.52
6.3
7.04
7.25
6.4
4.21
0.68
-3.9
-9
-14.07
-18.68
-22.69
-26.19
-29.5
-32.93
-36.77
-41.18
-46.14
-51.42
-56.55
-60.91
-63.78
-64.5
-62.55
-57.61
-49.61
-38.76
-25.65
-11.32
2.84
15.38
25.22
31.99
36.15
38.65
40.46
42.12
43.63
44.59
44.6
43.51
41.53
39.07
36.54
34.24
32.29
30.73
29.51
28.49
27.43
26.03
23.98
21.17
17.79
14.33
11.57
10.25
10.92
13.66
17.95
22.76
26.74
28.71
28.04
24.96
20.43
15.76
12.07
9.81
8.64
7.69
5.97
2.94
-1.25
-5.91
-10.08
-13.02
-14.54
-14.97
-15.04
-15.53
-17
-19.64
-23.35
-27.76
-32.38
-36.62
-39.9
-41.75
-42.09
-41.3
-40.23
-39.88
-41.1
-44.19
-48.83
-54.14
-58.88
-61.68
-61.24
-56.7
-47.88
-35.61
-21.73
-8.74
1.02
6.11
6.55
3.66
-0.52
-4.08
-6.02
-6.39
-6.04
-6.04
-7.1
-9.31
-12.1
-14.56
-15.8
-15.32
-13.14
-9.85
-6.36
-3.59
-2.34
-3.05
-5.7
-9.77
-14.15
-17.31
-17.71
-14.42
-7.57
1.19
9.16
13.49
12.33
5.66
-4.89
-16.76
-27.49
-35.54
-40.67
-43.66
-45.71
-47.99
-51.23
-55.95
-62.24
-69.27
-75.13
-77.38
-73.78
-63.24
-46.17
-24.14
0.22
24.42
47.08
68.36
89.05
109.86
130.86
151.37
170.65
187.23
199.62
207.13
210.33
210.43
208.94
207.27
206.13
205.77
204.2
197.81
182.63
156.34
118.79
72.3
21.04
-32.49
-79.37
-110.4
-122.69
-121.4
-113.75
-104.86
-96.23
-86.97
-76.07
-62.57
-47.45
-33.03
-24.21
-22.47
-27.34
-36.14
-44.95
-50.98
-52.33
-49.61
-45.48
-44.94
-52.08
-69.31
-97.37
-131.79
-169.64
-207.51
-241.1
-254.03
-234.3
-181.08
-107.26
-31.3
32.18
76.11
101.64
115.09
123.71
130.55
135.07
134.54
126.55
110.66
89.19
65.38
43.61
28.11
20.07
18.28
20.31
23.92
28.17
33.31
40.8
52.61
69.83
91.06
113.55
135.48
155.72
174.43
192.28
209.92
227.35
243.61
256.59
264.17
265.2
259.83
249.35
235.37
219.3
202.21
184.97
168.14
152.09
137.04
122.79
108.95
95.11
81.12
67.22
53.81
40.96
28.15
14.26
-2.01
-21.47
-43.9
-68.06
-92.01
-113.79
-132.11
-146.75
-158.64
-169.59
-181.91
-198.02
-219.89
-247.83
-279.27
-308.51
-327.9
-330.13
-311.19
-272.03
-218.14
-157.37
-97.08
-42.37
4.18
41.55
69.06
85.8
90.97
84.53
67.56
42.13
10.72
-24.21
-60.44
-96.16
-130.43
-163.47
-196.99
-233.69
-276.12
-324.79
-376.49
-423.95
-457.38
-467.73
-449.88
-404.83
-339.35
-263.16
-185.25
-111.05
-41.86
23.85
88.42
153.73
220.77
289.63
359.07
425.78
483.96
526.39
546.8
542.49
515.73
473.15
423.37
374.11
330.41
294.17
265.08
241.77
222.5
205.42
188.76
171.05
151.54
130.42
108.39
86
63.21
39.11
12.46
-17.61
-50.93
-86.41
-122.35
-157.34
-190.92
-223.59
-256.72
-292.01
-331.17
-375.36
-424.34
-475.42
-523.14
-560.12
-579.01
-575.11
-548.1
-501.81
-442.23
-374.77
-302.72
-227.74
-151.77
-79.07
-17.06
25.47
41.73
30.49
-2.12
-43.72
-79.67
-98.19
-93.68
-68.06
-28.63
15.11
54.51
83.83
101.01
107.58
107.74
106.71
108.16
111.98
113.3
104.17
77.87
33.26
-23.55
-81.6
-130.54
-165.35
-187.58
-202.35
-213.48
-219.99
-216.65
-197.66
-160.38
-107.19
-44.12
22.21
86.79
145.67
194.57
227.66
239.02
226.1
193.08
151.46
116.88
103.04
115.77
150.92
196.61
239.24
269.61
285.94
292.57
295.79
299.62
303.83
305.39
300.99
288.92
269.59
244.2
213.73
178.96
141.34
103.76
70.27
44.48
27.64
18
11.38
2.61
-13.17
-39.63
-78.6
-129.1
-186.57
-243.09
-289.32
-318
-326.76
-319.13
-302.66
-285.3
-272.33
-264.9
-260.92
-256.98
-250.42
-239.99
-225.7
-208.18
-188.26
-166.98
-145.59
-125.33
-106.76
-89.39
-71.38
-50.01
-22.86
11.26
51.79
96.95
144.5
192.34
238.16
278.44
307.61
318.7
305.75
267.21
208.16
139.79
76.01
28.64
3.73
0.59
13.65
35.6
59.95
82.11
98.92
108.01
107.88
98.23
80.56
57.88
33.4
8.96
-15.87
-43.22
-74.96
-110.64
-146.33
-175.42
-191.33
-190.98
-176.78
-155.9
-137.16
-126.98
-127.08
-134.76
-145.37
-155.1
-162.17
-165.98
-165.18
-156.54
-135.6
-98.93
-46.4
17.96
86.78
151.43
204.36
240.67
258.9
261.22
252.54
239
225.79
215.41
207.1
197.96
185.19
168.04
148.7
131.2
119.54
115.6
118.49
125.14
131.63
134.27
130.08
117.02
94.17
62.27
24.22
-15.19
-50.74
-78.94
-99.44
-114.88
-128.81
-142.91
-155.56
-163.02
-162.39
-154.61
-145.04
-141.31
-149.45
-170.97
-202.46
-237.62
-270.21
-295.88
-312.47
-318.82
-313.89
-296.6
-266.73
-225.39
-175.09
-119.04
-60.54
-2.94
50.26
95.05
127.18
143.11
140.96
121.59
89.12
50.54
13.98
-13.92
-30.22
-36.1
-35.25
-31.17
-25.46
-18.54
-11.79
-9.12
-15.94
-36.05
-68.59
-107.5
-144.62
-174.08
-195.01
-210.6
-224.28
-236.1
-242.13
-237.2
-218.76
-188.97
-153.19
-116.69
-81.71
-46.98
-9.75
31.42
74.9
116.48
151.36
176.71
193.25
205.36
219.5
241.67
274.95
318.15
366.02
411.04
446.02
466.44
471.76
465.04
451.43
436.04
421.91
409.24
395.99
379.48
358.09
332.2
304.07
276.99
254.5
239.94
236.07
244.41
264.2
291.65
320.37
343.33
355.45
355.67
346.86
333.79
320.1
306.4
290.51
269.55
242.33
210.39
177.05
145.32
116.24
88.55
59.87
28.5
-5.51
-40.48
-74.17
-104.79
-131.51
-154.22
-173.14
-188.65
-201.48
-212.92
-224.51
-237.48
-251.9
-266.53
-279.3
-288.19
-292.18
-291.62
-287.76
-282.03
-275.29
-267.59
-258.57
-248.02
-236.18
-223.75
-211.38
-199.37
-187.44
-174.97
-161.85
-149.09
-139.17
-135.38
-140.62
-155.83
-179.28
-207.12
-235.01
-259.77
-280.24
-296.66
-309.17
-316.64
-316.51
-306.07
-284.21
-252.13
-212.83
-169.55
-124.65
-79.6
-36.12
3.01
34.14
54.41
63.58
64.63
62.59
61.93
64.52
69.2
73.18
74.24
72.16
68.56
65.61
64.61
65.56
67.79
70.95
75.36
81.6
89.61
98.08
104.83
107.65
105.38
98.47
88.68
78.17
68.84
61.81
57.32
55.02
54.03
53.15
51.1
47.03
40.87
33.36
25.5
17.75
9.71
0.28
-11.54
-26.04
-42.48
-59.28
-74.33
-85.24
-89.5
-84.75
-69.33
-42.81
-6.36
37.38
84.82
131.85
174.29
208.29
230.76
239.87
235.52
219.2
193.5
161.22
125.08
87.83
52.57
22.71
1.23
-10.48
-13.2
-9.78
-3.94
1.09
3.4
2.33
-2.07
-9.73
-20.67
-34.82
-51.64
-69.78
-87.09
-101.08
-109.61
-111.73
-108.25
-101.65
-95.37
-92.6
-95.29
-103.69
-116.57
-131.84
-146.86
-158.7
-164.44
-162.12
-151.77
-136.02
-119.34
-106.39
-100.01
-100.14
-104.19
-108.29
-108.77
-102.8
-88.13
-62.73
-25.09
24.63
83.41
145.07
201.56
245.26
271.22
278.24
268.44
245.61
213.63
175.54
133.49
89.59
46.77
8.81
-20.39
-38.29
-44.68
-41.69
-32.75
-21.16
-9.01
3.15
15.8
29.45
43.94
58.16
70.45
78.93
82.12
79.28
70.63
57.47
41.97
26.8
14.47
6.46
2.85
2.33
2.81
2.2
-0.78
-6.03
-11.9
-15.7
-14.52
-6.6
7.31
23.54
36.5
41.09
35.18
20.48
1.23
-18.53
-37.08
-54.98
-72.92
-89.39
-99.95
-99.35
-84.88
-58.31
-25.15
8.54
39.29
66.72
91.47
112.05
123.85
121.24
101.58
67.95
28.57
-6.9
-31.81
-45.04
-50.25
-52.62
-55.6
-59.45
-62.28
-62.56
-61.05
-61.02
-66.38
-79.06
-97.31
-116.19
-129.78
-134.13
-129.29
-119.36
-110.65
-108.99
-117.27
-134.51
-156.54
-177.86
-193.87
-202.53
-204.83
-204.08
-204.4
-209.13
-219.83
-236.17
-256.37
-278.03
-298.53
-315.16
-325.09
-325.73
-315.17
-292.92
-260.14
-219.26
-173.27
-124.91
-76.35
-29.44
13.72
50.47
78.08
94.79
101.02
99.71
95.64
93.8
97.74
108.67
125.97
148.64
176.67
211.57
255.21
307.83
366.04
422.61
468.61
496.68
503.73
491.61
465.89
433.43
400.46
371.5
348.81
332.28
319.28
304.98
284.08
253.49
214.54
173.22
137.51
112.94
99.14
89.49
74.62
47.49
7.25
-40.66
-87.72
-126.59
-153.81
-169.66
-176.08
-174.15
-163.53
-143.63
-115.46
-82.81
-51.59
-27.84
-15.24
-13.67
-19.24
-26.13
-29.39
-27.42
-22.89
-21.48
-28.98
-47.98
-76.06
-106.22
-129.93
-140.89
-137.81
-124.76
-109.05
-97.95
-96.01
-104.14
-120.08
-139.75
-158.87
-174.28
-184.93
-191.81
-197.38
-204.26
-213.66
-224.66
-234.4
-239.09
-235.36
-221.18
-195.92
-160.14
-115.25
-63.7
-9.17
43.73
90.48
128
155.45
174.07
185.75
191.54
190.96
182.54
165.31
140.48
111.96
85.41
66.15
57.32
58.88
68.13
80.91
92.94
100.71
102.09
96.62
85.54
71.35
56.83
44.01
33.51
24.74
16.77
9.26
2.76
-1.89
-4.37
-5.51
-7.15
-11.31
-19.22
-30.62
-43.59
-55.01
-61.31
-59.53
-48.27
-28.31
-2.7
24
47.11
63.23
70.97
70.82
64.37
53.52
39.81
24.3
7.56
-9.88
-26.95
-41.33
-49.38
-47.16
-32.21
-5.2
29.52
65.48
96.9
121.42
140.91
159.68
180.74
202.48
218.26
219.83
202.67
170.33
134.27
108.92
104.35
120.75
147.9
170.4
175.16
156.95
119.05
69.67
16.77
-34.9
-83.15
-125.74
-158.56
-176.33
-175.29
-155.92
-123.5
-86.22
-52.34
-27.87
-15.86
-16.9
-29.55
-50.67
-75.56
-98.78
-115.45
-122.75
-120.57
-110.95
-96.93
-81.51
-67.23
-56.27
-50.64
-51.68
-59.45
-72.41
-88.05
-103.86
-118.13
-130.09
-139.3
-145.3
-147.39
-145.03
-138.03
-126.73
-111.95
-94.86
-77.1
-60.85
-48.66
-42.75
-43.9
-50.56
-58.55
-62.08
-55.43
-35.05
-0.8
43.67
91.76
135.7
168.71
186.87
189.82
180.17
161.85
138.5
112.68
86.25
61.13
39.65
24.1
15.46
12.89
13.88
15.72
16.93
17.97
20.55
25.97
33.83
41.74
46.47
45.66
38.9
28.05
16.3
7.05
2.92
5.23
13.96
27.78
44.22
59.93
71.23
74.93
69.26
54.65
33.65
10.19
-11.74
-29.11
-40.02
-43.21
-37.68
-22.86
0.65
30.37
62.02
90.9
113.84
130.42
142.68
152.87
160.93
163.38
154.85
131.56
94.49
50.23
8.46
-22.47
-39.46
-45.81
-49
-56.36
-71.19
-91.47
-111.75
-126.65
-134.12
-136.06
-136.67
-139.5
-145.43
-152.41
-157.19
-157.62
-154
-148.83
-145.17
-144.87
-147.66
-151.8
-155.41
-157.74
-159.6
-162.57
-167.91
-175.25
-182.19
-184.67
-178.11
-159
-126.12
-81.13
-28.01
28.14
82.67
132.28
175.1
210.07
236.31
253.08
260.27
259.01
251.37
239.63
225.1
207.69
186.57
161.39
133.32
105.11
80.24
61.51
49.96
44.45
42.11
39.25
32.45
19.78
1.57
-19.6
-39.86
-55.71
-65.61
-70.5
-73.14
-76.56
-82.7
-91.7
-102.18
-111.94
-118.94
-121.99
-121.27
-118.21
-114.97
-113.53
-114.81
-118.21
-121.74
-122.48
-117.47
-104.22
-81.1
-47.89
-5.89
41.87
90.78
135.61
171.75
196.4
209.13
211.41
205.69
194.46
179.77
163.27
146.4
130.37
116.12
103.96
93.58
84.18
75.04
65.96
57.54
50.92
47.08
46.08
46.76
46.97
44.49
37.95
27.39
14.15
0.37
-12.17
-22.56
-30.91
-37.91
-44.19
-50.05
-55.49
-60.53
-65.36
-70.23
-75.17
-79.84
-83.77
-86.72
-89.09
-91.9
-96.22
-102.52
-110.02
-116.89
-121.03
-121.27
-117.92
-112.8
-108.32
-106.61
-108.67
-114.12
-121.19
-127.04
-128.22
-121.36
-104.07
-75.64
-37.59
6.43
51.29
91.58
122.83
142.38
149.58
145.69
133.33
115.87
96.64
78.2
61.83
47.8
35.88
26.09
18.94
15.16
15.07
18.16
23.01
27.88
31.28
32.38
31.02
27.56
22.69
17.25
12.22
8.56
6.76
6.72
7.53
7.93
6.88
4
-0.25
-4.86
-8.8
-11.47
-12.91
-13.86
-15.47
-18.74
-23.97
-30.34
-36.17
-39.68
-40.01
-37.78
-34.95
-33.89
-36.38
-42.7
-51.51
-60.51
-67.56
-71.58
-72.9
-72.88
-73.2
-75.47
-80.88
-89.74
-101.16
-112.65
-120.17
-118.94
-104.87
-76.3
-35.09
13.43
62.01
103.81
134.52
153.33
162.08
163.63
160.1
152.3
140.06
123.29
102.77
80.51
59.35
41.91
29.67
22.39
18.41
15.58
12.5
9.36
7.9
10.23
17.34
28.03
39.07
46.54
47.83
42.94
34.4
25.85
20.02
17.52
17.01
16.4
14.27
10.52
6.09
2.07
-1.15
-4.17
-8.14
-14.01
-22.02
-31.73
-42.54
-54.26
-67.08
-80.9
-94.56
-105.9
-112.59
-113.68
-110.36
-105.77
-103.6
-106.26
-113.78
-123.86
-132.93
-137.43
-134.8
-123.68
-103.62
-74.89
-38.6
3.03
46.55
87.71
122.28
146.95
160
161.45
152.88
136.88
116.32
93.89
71.92
52.36
36.88
26.56
21.64
21.32
24.12
28.39
33.03
37.59
42
46.05
49.04
49.95
47.88
42.54
34.45
24.66
14.33
4.52
-4.08
-11.11
-16.62
-21.15
-25.54
-30.74
-37.32
-45.22
-53.8
-62.11
-69.41
-75.55
-81.07
-86.84
-93.39
-100.57
-107.63
-113.91
-119.39
-124.78
-130.74
-136.77
-140.46
-137.79
-124.72
-99.2
-62.42
-18.69
26.09
66.52
99.2
123.06
138.59
146.6
147.55
141.44
128.36
109.39
87.02
64.9
46.74
35.03
29.97
29.76
31.64
33.33
34.05
34.39
35.44
37.58
40.09
41.6
41.07
38.36
34.19
29.41
24.28
18.1
9.86
-0.91
-13.47
-25.87
-35.87
-42.1
-44.91
-46.43
-49.65
-56.92
-68.7
-83.3
-97.75
-109.28
-116.66
-120.43
-122.46
-124.74
-128.48
-133.69
-139.4
-144.09
-145.99
-143.27
-133.98
-116.25
-88.88
-52.15
-8.61
36.95
78.53
110.65
130.14
137.09
134.47
126.56
117.11
108.02
99.52
91.23
83.38
77.06
73.66
73.81
76.81
80.9
84.18
85.39
84.27
81.3
76.97
71.5
64.87
56.93
47.77
37.54
26.54
15.33
4.77
-4.21
-11.15
-16.35
-20.75
-25.13
-29.65
-33.76
-37.01
-39.76
-43.02
-47.63
-53.36
-58.79
-62.19
-62.74
-61.2
-59.38
-58.97
-60.45
-62.85
-64.6
-64.42
-61.54
-55.29
-44.62
-28.17
-5.21
23.5
55.38
86.77
114.13
135.06
148.55
154.5
153.21
144.9
129.87
108.81
83.27
55.88
30
8.99
-4.79
-10.71
-9.92
-4.78
2.19
9.21
15.48
20.96
25.68
29.38
31.33
30.74
27.19
21.05
13.66
6.85
2.42
1.39
3.5
7.19
10.12
9.94
5.25
-4.01
-16.51
-30.08
-42.43
-51.78
-57.44
-59.91
-60.79
-62.08
-65.28
-70.55
-76.32
-79.64
-77.1
-66.08
-45.87
-18.21
12.96
42.57
65.88
79.85
83.81
79.17
68.56
54.67
39.43
23.68
7.64
-8.22
-22.75
-34.12
-40.66
-41.78
-38.4
-32.44
-25.68
-19
-12.2
-4.68
3.62
11.79
18.15
20.93
19.17
13.3
4.96
-3.7
-10.99
-16.32
-20.32
-24.33
-29.41
-35.72
-42.17
-46.99
-48.89
-47.99
-46.14
-46.01
-49.76
-57.87
-68.99
-80.72
-90.65
-96.87
-97.97
-92.7
-80.14
-60.09
-33.59
-3.08
28.12
56.64
79.87
96.17
104.81
105.86
100.05
88.93
74.67
59.62
45.95
35.09
27.71
23.81
22.92
24.4
27.59
31.69
35.86
39.05
40.19
38.49
33.75
26.42
17.27
6.84
-5.1
-19.41
-36.93
-57.83
-81.15
-105.36
-128.85
-150.44
-169.37
-184.95
-196.19
-201.93
-201.43
-194.86
-183.63
-170
-156.3
-144.42
-135.58
-130.45
-129.49
-132.92
-140.26
-150.11
-159.84
-165.87
-164.45
-152.57
-128.71
-93.24
-48.51
1.79
53.43
102.68
147.16
185.85
218.41
244.01
260.79
266.3
259.15
240.74
215.87
191.61
174.49
167.67
169.9
176.74
183.27
186.72
187.08
186.13
185.53
185.52
185
182.13
174.97
162.01
142.56
117
87.3
56.99
30.22
9.88
-3.62
-12.48
-20.18
-29.37
-40.83
-53.79
-67.22
-81.07
-96.36
-114.19
-134.71
-156.49
-176.97
-193.51
-204.25
-208.46
-206.46
-199.11
-187.68
-173.71
-158.79
-143.78
-128.26
-110.4
-87.73
-58.6
-23.09
16.78
57.71
96.48
131.06
160.72
185.62
206.05
221.74
231.95
236.12
234.31
227.32
216.17
201.47
183.23
161.23
135.85
108.63
82.2
59.35
42.07
30.73
24.3
20.95
18.91
16.72
13.36
8.17
0.68
-9
-20.24
-31.82
-42.25
-50.33
-55.67
-58.75
-60.63
-62.31
-64.16
-65.87
-67.01
-67.48
-67.81
-68.86
-71.38
-75.56
-80.93
-86.61
-91.73
-95.76
-98.68
-100.86
-102.72
-104.24
-104.63
-102.23
-95
-81.52
-61.87
-38.12
-13.79
7.51
23.47
33.7
39.41
42.15
42.61
40.44
34.98
26.26
15.6
5.15
-3.16
-8.39
-10.57
-10.17
-7.36
-1.9
6.25
16.41
27.07
36.4
43.12
47.03
48.74
48.96
47.95
45.66
42.45
39.49
38.26
39.32
41.42
41.86
38.21
30.07
19.58
10.16
4.13
1.25
-1.12
-6.2
-15.86
-29.81
-46.22
-63.06
-78.8
-92.37
-102.42
-107.02
-104.2
-93.07
-74.3
-49.98
-22.71
4.87
30.14
50.33
62.75
65.71
59.61
47.42
33.72
22.86
17.16
16.25
17.71
18.71
17.36
13.38
7.84
2.39
-1.52
-2.99
-1.84
1.33
5.28
8.2
8.23
4.03
-4.65
-16.81
-30.46
-43.12
-52.51
-56.99
-55.75
-49.05
-38.27
-25.72
-14.25
-6.34
-3.37
-5.07
-9.72
-14.9
-18.63
-20.13
-19.99
-19.84
-21.56
-26.64
-35.62
-47.88
-61.49
-73.53
-80.68
-80.16
-70.7
-52.94
-29.26
-2.85
23.17
46.35
65.03
78.04
84.53
84.03
76.92
64.66
49.67
34.84
22.83
15.49
13.36
15.61
20.24
24.68
26.48
24.06
16.96
5.68
-8.61
-24.63
-41.17
-57.12
-71.55
-83.62
-92.73
-98.41
-100.51
-98.96
-93.79
-85.01
-72.68
-57.18
-39.36
-20.67
-2.97
11.78
22.1
27.48
28.57
27.02
24.69
22.95
22.02
21.07
18.74
13.84
5.78
-5.42
-19.25
-34.83
-50.66
-64.5
-73.53
-74.91
-66.78
-49.02
-23.57
5.98
35.29
60.53
79.32
91.17
97.08
98.83
98.14
96.23
93.76
91.1
88.52
86.2
84.23
82.44
80.64
78.78
77.03
75.68
74.7
73.63
71.63
67.89
62.17
54.95
47.2
39.9
33.74
29.05
25.94
24.19
23.18
21.66
18.03
10.99
0.29
-12.79
-25.88
-36.44
-42.86
-45.03
-44.19
-42.17
-40.56
-40.26
-41.34
-43.54
-46.56
-50.26
-54.52
-58.98
-62.97
-65.74
-66.91
-66.88
-66.75
-67.98
-71.51
-77.24
-83.92
-89.59
-92.21
-90.07
-81.94
-67.08
-45.43
-17.91
13.1
44.03
70.89
90.5
101.49
104.43
101.2
93.94
84.33
73.46
62.16
51.36
42.18
35.59
32.02
31.26
32.63
35.35
38.84
42.75
46.69
50.14
52.37
52.75
51.02
47.36
42.35
36.76
31.28
26.4
22.22
18.55
14.98
11.07
6.56
1.46
-3.9
-9.07
-13.65
-17.62
-21.37
-25.43
-30.22
-35.65
-41.16
-46.07
-50.05
-53.44
-57.14
-62.19
-69.1
-77.19
-84.72
-89.27
-88.67
-81.72
-68.41
-49.76
-27.35
-2.97
21.37
43.51
61.2
72.65
77.09
75.28
69.28
61.63
54.42
48.63
44.1
40.2
36.29
32.28
28.54
25.74
24.58
25.37
27.96
31.7
35.55
38.42
39.48
38.45
35.62
31.65
27.25
22.81
18.54
14.45
10.69
7.44
4.74
2.34
-0.37
-4.1
-9.38
-16.23
-24.04
-31.82
-38.67
-44.05
-48.07
-51.17
-53.81
-56.31
-58.76
-61.31
-64.27
-68.19
-73.62
-80.73
-89.02
-97.09
-102.97
-104.48
-99.86
-88.35
-70.28
-47.12
-20.98
5.82
31.17
53.26
70.62
82.03
86.82
85.13
78.25
68.37
58.04
49.33
43.16
39.31
36.75
34.39
31.67
28.74
26.3
25.12
25.63
27.63
30.41
33
34.42
34.04
31.69
27.61
22.44
17.01
12.1
8.19
5.24
2.81
0.28
-2.88
-6.89
-11.7
-17.12
-22.96
-29.11
-35.54
-42.12
-48.56
-54.51
-59.61
-63.62
-66.61
-68.98
-71.47
-74.9
-79.76
-85.85
-92.37
-98.31
-103.09
-106.84
-110.2
-113.44
-115.92
-115.64
-109.89
-96.26
-73.61
-42.54
-5.2
35.25
75.05
110.18
136.7
151.33
152.46
141.2
121.71
100.6
85.21
81.4
91.7
114.54
144.83
175.74
201.08
217.06
223.15
221.64
216.4
211.45
209.62
211.62
215.7
218.19
214.3
199.71
172.06
131.83
82.01
27.09
-28.63
-82.17
-132.36
-179.6
-225.33
-271.63
-320.64
-373.64
-429.63
-484.4
-530.76
-560.38
-566.77
-547.81
-506.39
-449.04
-383.26
-315.27
-249.28
-188.17
-134.48
-90.56
-57.56
-34.18
-16.52
0.69
21.9
48.87
80.33
112.95
142.84
166.93
183.41
191.51
191.36
183.99
171.5
156.95
143.71
134.46
130.42
131.07
134.55
138.45
140.76
140.39
137.19
131.48
123.62
113.86
102.55
90.43
78.87
69.37
62.92
59.3
57.07
54.33
49.96
44.38
39.28
36.23
35.02
32.99
25.98
10.54
-13.79
-43.64
-72.79
-94.71
-105.17
-103.71
-93.36
-79.02
-65.47
-55.94
-51.71
-52.21
-55.49
-58.7
-58.62
-52.33
-38.03
-15.74
12.5
43.03
71.38
93.49
106.78
110.67
106.64
97.62
87.07
77.91
71.73
68.42
66.47
63.7
58.12
48.69
35.71
20.81
6.57
-4.24
-9.52
-8.7
-2.9
5.55
14.1
20.94
25.35
27.38
27.07
24.02
17.53
7.14
-6.7
-22.62
-38.76
-53.44
-65.69
-75.23
-82.33
-87.48
-91.12
-93.51
-94.62
-93.88
-90.26
-82.45
-69.58
-51.7
-30.07
-6.79
15.83
35.9
52.22
64.12
71.31
73.89
72.61
68.91
64.72
61.77
60.98
62.16
64.15
65.48
65.13
62.85
59.19
54.99
50.99
47.52
44.45
41.34
37.64
32.79
26.32
17.9
7.39
-4.97
-18.6
-32.51
-45.51
-56.54
-65.2
-71.9
-77.76
-83.99
-91.27
-99.39
-107.35
-113.94
-118.17
-119.4
-117.23
-111.07
-100.18
-84.05
-62.92
-38.11
-11.84
13.43
35.77
54.29
69.02
80.6
89.71
96.65
101.24
102.95
101.41
96.71
89.68
81.61
73.69
66.47
59.69
52.69
45.08
37.22
29.96
24.02
19.25
14.52
8.5
0.65
-8
-15.16
-18.41
-16.64
-10.7
-3.1
3.24
6.41
6.28
4.18
1.71
-0.35
-2.49
-6
-11.73
-19
-25.44
-27.82
-23.61
-12.22
4.7
24.11
42.78
58.33
69.42
75.46
76.06
71.03
60.77
46.67
31.15
16.92
6.01
-1.02
-4.99
-7.49
-9.96
-12.95
-16.18
-18.81
-20.04
-19.49
-17.42
-14.73
-12.75
-12.94
-16.28
-22.87
-31.79
-41.38
-49.91
-56.32
-60.71
-63.99
-67.4
-71.78
-77.28
-83.59
-90.21
-96.68
-102.46
-106.51
-107.23
-102.79
-91.97
-74.93
-53.44
-30.24
-8.06
11.26
26.9
38.68
46.35
49.39
47.34
40.43
29.93
17.94
6.63
-2.44
-8.8
-12.78
-14.92
-15.6
-15.01
-13.4
-11.39
-9.65
-8.54
-7.75
-6.47
-4.12
-0.96
1.71
2.39
0.43
-3.09
-5.51
-3.97
2.75
13.16
23.27
28.35
25.21
13.74
-3.06
-20.43
-33.87
-40.66
-40.28
-33.88
-23.24
-9.98
4.68
19.85
34.76
48.71
61.22
71.84
79.94
84.53
84.53
79.52
70.55
60.2
51.59
47.11
47.09
49.81
52.61
53.43
51.77
48.35
43.99
38.68
31.7
22.6
12.16
2.37
-4.61
-7.87
-8.32
-8.09
-9.3
-13.09
-19.56
-28.17
-38.3
-49.38
-60.66
-71.12
-79.84
-86.49
-91.56
-95.95
-99.97
-102.66
-102.08
-96.21
-84.15
-66.52
-44.86
-20.75
4.71
30.49
54.93
75.34
88.82
93.85
91.29
84.38
77.07
72.07
69.76
68.67
67
64.09
60.36
56.47
52.13
46.02
36.96
25.24
13.18
3.94
-0.35
-0
2.28
3.02
-0.07
-6.99
-15.75
-23.8
-29.68
-33.67
-37.53
-43.17
-51.41
-61.54
-71.81
-80.3
-85.98
-88.8
-89.18
-87.31
-82.7
-74.48
-62.19
-46.26
-28.04
-9.19
8.97
25.6
39.96
51.06
57.72
59.29
56.34
50.7
44.72
40.09
37.03
34.43
30.77
25.26
18.34
11.55
6.51
4.1
4.03
5.1
5.81
5.08
2.6
-1.26
-5.68
-10.13
-14.47
-19.05
-24.4
-30.67
-37.37
-43.43
-47.61
-49.13
-48.18
-46.01
-44.54
-45.66
-50.44
-58.63
-68.59
-77.65
-82.73
-81.26
-72.1
-56.16
-36.29
-16.24
0.88
13.98
24.18
33.73
44.22
55.19
64.17
68.15
65.53
57.21
46.19
35.96
28.67
24.56
22.49
21.3
20.64
20.92
22.67
25.75
29.32
32.37
34.18
34.69
34.17
32.82
30.57
27.12
22.26
16.05
8.75
0.69
-7.95
-16.96
-25.92
-34.14
-40.78
-45.19
-47.27
-47.62
-47.32
-47.51
-48.87
-51.48
-55.03
-59.22
-63.87
-68.62
-72.5
-73.59
-69.47
-58.24
-39.65
-15.77
9.49
31.7
47.53
55.89
57.82
55.6
51.28
46
39.96
33.1
25.67
18.6
12.99
9.64
8.63
9.35
10.93
12.79
14.78
17.04
19.65
22.5
25.45
28.58
32.19
36.47
41.03
44.93
47.01
46.76
44.68
42.13
40.48
40.16
40.44
39.8
37.02
31.99
25.85
20.23
16.27
13.93
12.09
9.27
4.42
-2.72
-11.72
-21.81
-32.1
-41.65
-49.65
-55.55
-59.44
-62.07
-64.52
-67.57
-70.95
-73.15
-71.99
-65.53
-53.03
-35.27
-14.27
7.37
27.11
42.91
53.39
57.86
56.46
50.02
39.96
28.01
15.95
5.28
-2.9
-8.05
-10.27
-10.18
-8.75
-6.91
-5.29
-4.07
-3.2
-2.64
-2.57
-3.25
-4.72
-6.66
-8.5
-9.82
-10.67
-11.65
-13.54
-16.8
-21.34
-26.5
-31.5
-35.79
-39.2
-41.78
-43.51
-44.14
-43.38
-41.24
-38.17
-34.97
-32.23
-29.83
-26.81
-21.64
-12.82
0.4
17.75
37.98
59.24
79.48
96.8
109.68
117.14
118.89
115.45
108.05
98.29
87.78
77.58
68.17
59.54
51.5
44.09
37.59
32.44
28.9
26.88
25.89
25.3
24.56
23.29
21.32
18.48
14.56
9.47
3.33
-3.23
-9.29
-14
-17.02
-18.89
-20.84
-24.33
-30.31
-38.75
-48.56
-58.04
-65.6
-70.41
-72.73
-73.9
-75.78
-80.11
-87.57
-97.42
-107.36
-113.9
-113.28
-102.42
-80.01
-47.22
-8.01
31.52
64.58
85.81
93.12
88.45
76.95
64.83
56.91
54.99
57.79
62.44
66.36
68.4
68.66
67.61
65.18
60.81
54.25
46.28
38.81
33.81
32.09
32.51
32.64
30.03
23.66
14.4
4.47
-3.98
-9.98
-14.12
-17.96
-22.88
-29.38
-36.82
-44.01
-50.01
-54.73
-58.93
-63.78
-70.05
-77.81
-86.48
-95.34
-104.02
-112.67
-121.74
-131.36
-140.89
-148.8
-153.08
-151.81
-143.8
-128.88
-107.94
-82.62
-54.9
-26.66
0.52
25.4
46.89
63.84
75.12
79.91
78.15
70.88
60.08
48.25
37.79
30.33
26.51
25.93
27.55
30.21
33.05
35.65
37.87
39.61
40.53
40.11
37.93
34.02
28.98
23.8
19.43
16.38
14.64
13.85
13.51
13.17
12.37
10.66
7.75
3.7
-0.97
-5.41
-8.89
-11.03
-11.89
-11.67
-10.44
-8.19
-5.05
-1.78
0.32
-0.28
-4.52
-12.11
-21.43
-29.99
-35.5
-36.74
-34.07
-29.2
-24.65
-22.89
-25.53
-32.67
-42.68
-52.47
-58.37
-57.34
-47.89
-30.66
-7.97
17.07
41.63
63.8
82.74
98.23
110.14
117.98
120.86
117.82
108.4
93.16
73.9
53.6
35.68
23.02
16.99
17.01
20.97
26.21
30.61
33.13
33.74
32.8
30.44
26.45
20.58
12.92
4.13
-4.73
-12.63
-18.9
-23.38
-26.26
-27.81
-28.3
-27.99
-27.28
-26.72
-26.94
-28.34
-31
-34.53
-38.23
-41.24
-42.81
-42.43
-39.94
-35.51
-29.64
-23.22
-17.51
-14.21
-15.19
-21.88
-34.51
-51.41
-69
-82.78
-88.76
-85
-72.18
-52.93
-30.49
-7.39
15.03
36.13
55
69.92
78.84
80.3
74.45
63.24
49.72
36.83
26.56
19.66
16.07
15.55
17.99
23.28
30.93
39.8
48.28
54.67
57.78
57.15
53.18
46.81
39.18
31.34
24.01
17.57
11.99
7
2.22
-2.61
-7.57
-12.57
-17.57
-22.7
-28.27
-34.48
-41.16
-47.73
-53.37
-57.52
-60.21
-62.26
-65.06
-70.09
-78.07
-88.43
-99.1
-107.07
-109.46
-104.62
-92.77
-75.9
-56.74
-37.88
-20.96
-6.61
5.01
13.8
19.67
23
25.04
27.76
33.05
41.61
52.38
62.87
70.5
73.92
73.85
72.48
72.16
73.93
76.95
78.98
77.79
72.35
63.42
53
43.32
35.84
30.81
27.52
24.85
21.73
17.61
12.4
6.48
0.48
-5.01
-9.69
-13.66
-17.34
-21.14
-25.14
-29.05
-32.46
-35.18
-37.37
-39.44
-41.73
-44.35
-47.18
-50
-52.52
-54.26
-54.31
-51.41
-44.32
-32.39
-15.89
3.79
24.63
44.41
61.24
73.81
81.46
84.13
82.25
76.64
68.32
58.34
47.48
36.27
25.09
14.29
4.46
-3.64
-9.29
-12.01
-11.85
-9.42
-5.77
-2.11
0.47
1.3
0.21
-2.51
-6.21
-10.09
-13.33
-15.42
-16.19
-16.07
-15.84
-16.36
-18.13
-21.16
-25.06
-29.4
-33.95
-38.66
-43.48
-48.04
-51.61
-53.44
-53.12
-51.15
-48.8
-47.72
-49.16
-53.58
-60.63
-69.45
-79.14
-88.68
-96.86
-102.05
-102.41
-96.47
-83.89
-65.7
-43.99
-21.11
1.09
21.58
39.8
55.13
66.73
73.83
76.4
75.52
73.04
70.94
70.38
71.36
72.94
73.94
73.73
72.56
71.36
71.06
71.97
73.47
74.26
73.11
69.44
63.63
56.73
49.86
43.64
37.99
32.51
26.9
21.46
16.89
13.76
12.01
10.75
8.64
4.69
-1.21
-8.24
-15.16
-21.11
-26.05
-30.63
-35.73
-41.78
-48.58
-55.39
-61.53
-66.71
-71.05
-74.81
-78.1
-80.83
-82.83
-83.92
-83.93
-82.49
-78.84
-71.99
-61.07
-45.95
-27.53
-7.66
11.47
27.81
39.99
47.32
49.62
47.28
41.26
33.26
25.3
19.13
15.51
13.99
13.29
12.2
10.28
8.11
6.86
7.44
10
13.93
18.28
22.28
25.45
27.43
27.82
26.32
23.06
18.91
15.19
12.99
12.56
13.19
13.73
13.33
11.85
9.68
7.14
4.14
0.18
-5.09
-11.53
-18.46
-24.98
-30.38
-34.41
-37.28
-39.61
-42.19
-45.83
-50.8
-56.47
-61.04
-61.94
-56.98
-45.43
-28.59
-9.21
9.76
26.42
40.29
51.73
60.83
66.98
69.15
66.89
61.01
53.51
46.81
42.58
41.18
41.61
42.27
41.93
40.28
37.91
35.73
34.37
33.69
33.04
31.67
29.23
25.96
22.31
18.7
15.21
11.64
7.75
3.58
-0.53
-4.14
-6.99
-9.19
-11.12
-13.18
-15.67
-18.77
-22.49
-26.66
-30.95
-34.85
-37.9
-39.88
-40.93
-41.52
-42.28
-43.75
-46.23
-49.77
-54.12
-58.69
-62.54
-64.36
-62.76
-56.66
-45.85
-31.13
-14.2
3.03
18.93
32.54
43.46
51.64
57.04
59.6
59.49
57.14
53.4
49.18
45.2
41.81
39.07
37.02
35.81
35.6
36.21
37.04
37.16
35.78
32.8
28.81
24.8
21.57
19.37
17.89
16.7
15.6
14.71
14.27
14.22
14.05
12.98
10.51
6.72
2.42
-1.35
-3.96
-5.56
-6.94
-9.08
-12.51
-17.03
-21.89
-26.17
-29.33
-31.41
-32.81
-34.09
-35.59
-37.48
-39.92
-43
-46.6
-49.96
-51.68
-50.1
-44.12
-33.82
-20.56
-6.37
6.88
18.21
27.59
35.36
41.67
46.15
48.19
47.54
44.68
40.76
37.02
34.3
32.67
31.78
31.21
30.88
30.96
31.56
32.41
32.84
32.16
30.02
26.73
23.15
20.13
18.12
16.98
16.09
14.7
12.35
8.95
4.82
0.57
-3.24
-6.22
-8.24
-9.52
-10.47
-11.57
-13.19
-15.54
-18.6
-22.22
-26.08
-29.73
-32.66
-34.51
-35.3
-35.51
-36
-37.47
-40.22
-43.84
-47.45
-50.23
-51.77
-52.3
-52.37
-52.44
-52.44
-51.78
-49.5
-44.85
-37.61
-28.12
-17.12
-5.39
6.45
17.83
28.05
36.18
41.33
42.93
41.27
37.4
32.82
28.83
26.08
24.45
23.39
22.43
21.49
20.85
20.83
21.48
22.45
23.18
23.08
21.87
19.59
16.53
13.12
9.73
6.58
3.7
1
-1.65
-4.36
-7.16
-9.96
-12.6
-14.97
-17.06
-19.05
-21.24
-23.85
-26.95
-30.46
-34.21
-38.01
-41.67
-44.85
-46.95
-47.12
-44.5
-38.51
-29.18
-17.29
-4.14
8.71
19.93
28.7
34.78
38.41
39.97
39.76
37.96
34.71
30.37
25.58
21.16
17.8
15.74
14.71
14.15
13.61
13
12.53
12.42
12.6
12.65
12.06
10.58
8.4
5.99
3.83
2.08
0.55
-1.13
-3.21
-5.69
-8.4
-11.12
-13.76
-16.42
-19.24
-22.26
-25.4
-28.52
-31.63
-34.87
-38.46
-42.4
-46.18
-48.78
-48.99
-45.81
-38.91
-28.75
-16.44
-3.42
8.91
19.35
27.06
31.58
32.9
31.48
28.19
24.03
19.84
16.09
12.84
9.96
7.32
4.99
3.22
2.31
2.41
3.46
5.13
6.92
8.4
9.24
9.28
8.45
6.75
4.3
1.36
-1.67
-4.41
-6.64
-8.48
-10.26
-12.27
-14.58
-16.93
-18.85
-20.07
-20.7
-21.27
-22.59
-25.28
-29.51
-34.8
-40.15
-44.2
-45.72
-43.86
-38.44
-29.94
-19.36
-7.87
3.39
13.56
22.14
28.86
33.65
36.52
37.55
36.85
34.63
31.23
27.13
22.89
18.97
15.67
13.15
11.45
10.6
10.61
11.31
12.31
13.04
12.91
11.64
9.31
6.33
3.28
0.75
-0.8
-1
0.37
3.18
6.88
10.5
12.91
13.28
11.42
7.68
2.63
-3.42
-10.52
-18.84
-28.08
-37.11
-44.11
-47.25
-45.51
-39.18
-29.7
-18.86
-8.12
1.81
10.73
18.53
24.78
28.81
30.14
28.95
26.11
22.95
20.51
19.19
18.69
18.57
18.62
19.1
20.42
22.63
25.21
27.23
27.84
26.74
24.35
21.51
18.96
16.92
15.05
12.7
9.39
5.14
0.46
-3.91
-7.43
-10.02
-12.11
-14.41
-17.46
-21.32
-25.48
-29.22
-32.04
-33.86
-34.96
-35.43
-34.91
-32.54
-27.5
-19.53
-9.28
1.85
12.4
21.31
28.21
33.14
36.22
37.34
36.35
33.26
28.53
23.05
17.82
13.56
10.58
8.77
7.82
7.47
7.51
7.78
8.05
8.09
7.75
7.05
6.19
5.35
4.53
3.58
2.28
0.53
-1.54
-3.71
-5.86
-8.18
-11
-14.61
-18.9
-23.43
-27.6
-31.01
-33.7
-36.03
-38.51
-41.38
-44.54
-47.58
-49.96
-51.16
-50.73
-48.33
-43.75
-36.95
-28.17
-17.95
-7
3.87
13.83
22.16
28.25
31.77
32.72
31.48
28.72
25.28
21.98
19.4
17.87
17.36
17.71
18.54
19.51
20.35
20.94
21.33
21.56
21.64
21.34
20.41
18.63
16.04
12.97
9.92
7.35
5.49
4.22
3.17
1.91
0.11
-2.34
-5.36
-8.75
-12.34
-15.98
-19.55
-22.94
-26.02
-28.72
-31.13
-33.57
-36.46
-40.18
-44.72
-49.54
-53.61
-55.59
-54.29
-49.09
-40.13
-28.3
-14.98
-1.65
10.42
20.37
27.79
32.6
34.96
35.17
33.65
30.95
27.74
24.71
22.43
21.15
20.73
20.71
20.56
19.97
18.95
17.83
16.96
16.57
16.53
16.54
16.21
15.3
13.8
11.87
9.79
7.79
5.98
4.34
2.81
1.3
-0.22
-1.71
-3.13
-4.54
-6.14
-8.22
-11
-14.41
-18.08
-21.49
-24.25
-26.33
-28.14
-30.33
-33.46
-37.75
-42.95
-48.42
-53.24
-56.43
-57.06
-54.41
-48.19
-38.61
-26.49
-13.06
0.34
12.57
22.89
30.95
36.67
40.1
41.31
40.56
38.31
35.21
31.94
29.02
26.68
24.93
23.65
22.76
22.27
22.24
22.67
23.47
24.46
25.38
26.02
26.19
25.78
24.72
23.1
21.13
19.1
17.12
15.04
12.47
9.06
4.76
-0.01
-4.64
-8.68
-12.1
-15.36
-19.04
-23.51
-28.81
-34.73
-41.07
-47.7
-54.48
-61.16
-67.27
-72.34
-76.05
-78.41
-79.48
-79.1
-76.7
-71.42
-62.56
-50.15
-35.08
-18.84
-3.13
10.7
21.86
30.09
35.49
38.35
39.13
38.36
36.67
34.67
32.85
31.46
30.51
29.82
29.17
28.47
27.71
27
26.39
25.88
25.34
24.61
23.54
21.99
19.91
17.36
14.54
11.72
9.16
6.89
4.67
2.09
-1.15
-5.04
-9.17
-12.98
-16.11
-18.64
-21.03
-23.89
-27.63
-32.29
-37.57
-42.96
-47.85
-51.59
-53.46
-52.71
-48.79
-41.55
-31.43
-19.44
-6.92
4.78
14.62
22.01
26.8
29.2
29.65
28.7
26.87
24.59
22.09
19.51
16.93
14.5
12.54
11.45
11.57
12.93
15.18
17.64
19.53
20.28
19.72
18.01
15.57
12.86
10.15
7.64
5.35
3.29
1.37
-0.54
-2.67
-5.21
-8.2
-11.41
-14.4
-16.81
-18.58
-20.03
-21.75
-24.19
-27.23
-30.08
-31.44
-30.04
-25.13
-16.85
-6.14
5.59
16.9
26.68
34.25
39.36
42.02
42.44
40.94
37.91
33.87
29.36
24.96
21.15
18.22
16.32
15.49
15.7
16.88
18.8
21.09
23.21
24.64
25.05
24.42
22.94
20.89
18.44
15.63
12.41
8.81
5.01
1.28
-2.15
-5.21
-8.04
-10.86
-13.84
-16.97
-20.08
-22.97
-25.58
-28.06
-30.68
-33.64
-36.76
-39.42
-40.66
-39.48
-35.22
-27.81
-17.9
-6.64
4.55
14.38
21.94
26.88
29.37
29.98
29.39
28.14
26.42
24.06
20.79
16.59
12
8.11
6.2
7.06
10.51
15.26
19.38
21.15
19.73
15.47
9.64
3.77
-0.91
-3.61
-3.9
-1.81
1.62
3.89
1.22
-10.11
-31.52
-60.37
-89.78
-110.76
-115.74
-101.84
-72.16
-34.34
2.64
31.72
49.56
56.28
53.91
44.87
31.29
15.25
-0.74
-13.78
-21.4
-22.4
-17.46
-8.88
0.56
8.81
15.28
20.71
26.38
33.11
40.73
48.1
53.65
56.15
55.16
51.05
44.83
37.79
31.1
25.65
21.88
19.81
19.05
18.98
18.89
18.19
16.53
13.88
10.56
7.1
4.08
1.95
0.88
0.66
0.78
0.6
-0.45
-2.57
-5.57
-9
-12.25
-14.91
-16.89
-18.41
-19.88
-21.65
-23.85
-26.35
-28.91
-31.3
-33.49
-35.63
-37.96
-40.71
-44.04
-48.03
-52.66
-57.73
-62.65
-66.46
-67.9
-65.81
-59.56
-49.32
-36
-21.03
-5.9
8.08
19.99
29.23
35.59
39.14
40.29
39.64
37.87
35.6
33.23
31
29.02
27.41
26.22
25.52
25.35
25.66
26.32
27.07
27.57
27.49
26.59
24.88
22.62
20.21
18
16.18
14.73
13.56
12.57
11.69
10.83
9.81
8.32
6.14
3.25
-0.07
-3.31
-6
-7.89
-9.06
-9.84
-10.6
-11.61
-12.96
-14.68
-16.74
-19.12
-21.73
-24.38
-26.81
-28.77
-30.16
-31.13
-32.04
-33.31
-35.34
-38.29
-42.07
-46.32
-50.35
-53.23
-53.91
-51.54
-45.66
-36.49
-24.78
-11.66
1.68
14.19
25.04
33.64
39.59
42.74
43.2
41.43
38.09
34.01
29.95
26.52
24.11
22.81
22.44
22.67
23.19
23.7
24.14
24.61
25.19
25.84
26.34
26.34
25.56
23.96
21.74
19.29
16.98
15
13.31
11.7
9.93
7.84
5.49
3.1
0.96
-0.75
-2
-2.9
-3.72
-4.74
-6.17
-8.14
-10.64
-13.58
-16.82
-20.26
-23.82
-27.46
-31.11
-34.65
-37.82
-40.38
-42.27
-43.64
-44.94
-46.73
-49.3
-52.5
-55.66
-57.81
-57.97
-55.52
-50.28
-42.53
-32.79
-21.72
-10.06
1.37
11.64
19.92
25.64
28.67
29.39
28.47
26.73
24.77
23
21.55
20.45
19.69
19.31
19.35
19.87
20.82
22.05
23.26
24.11
24.34
23.77
22.44
20.54
18.3
16.03
13.99
12.44
11.55
11.39
11.8
12.36
12.55
11.88
10.11
7.26
3.62
-0.48
-4.75
-9.01
-13.11
-16.87
-20.13
-22.77
-24.89
-26.74
-28.76
-31.36
-34.74
-38.76
-42.92
-46.46
-48.42
-47.94
-44.38
-37.55
-27.76
-15.82
-3.01
9.34
20.02
28.32
34.04
37.44
39
39.21
38.44
37.01
35.21
33.32
31.59
30.15
28.99
28.06
27.35
26.93
26.9
27.22
27.58
27.55
26.78
25.19
23
20.65
18.43
16.43
14.46
12.23
9.55
6.46
3.15
-0.15
-3.26
-6.11
-8.75
-11.3
-13.94
-16.83
-20.03
-23.43
-26.75
-29.62
-31.84
-33.44
-34.77
-36.33
-38.7
-42.36
-47.56
-54.22
-61.79
-69.08
-74.27
-75.32
-70.62
-59.72
-43.74
-25.11
-6.75
8.96
20.79
28.72
33.4
35.5
35.41
33.38
29.82
25.5
21.56
18.95
18.08
18.62
19.68
20.35
20.1
18.93
17.35
16.03
15.52
15.98
17.2
18.65
19.66
19.69
18.54
16.46
14.02
11.89
10.59
10.21
10.5
10.93
11
10.41
9.14
7.45
5.61
3.79
1.98
0.01
-2.29
-5
-7.98
-10.98
-13.73
-16.09
-18.17
-20.22
-22.59
-25.49
-28.92
-32.75
-36.77
-40.75
-44.5
-47.68
-49.73
-49.89
-47.37
-41.68
-32.85
-21.6
-9.08
3.33
14.5
23.68
30.57
35.15
37.59
38.12
37.06
34.94
32.42
30.18
28.73
28.2
28.31
28.65
28.82
28.73
28.49
28.38
28.54
28.86
29.07
28.86
28.11
26.84
25.23
23.5
21.83
20.34
19.07
17.97
16.93
15.84
14.54
12.98
11.16
9.14
6.92
4.47
1.72
-1.32
-4.48
-7.48
-10.05
-12.06
-13.66
-15.24
-17.22
-19.85
-23.1
-26.57
-29.76
-32.27
-34.08
-35.62
-37.55
-40.45
-44.43
-48.92
-52.77
-54.63
-53.42
-48.69
-40.79
-30.65
-19.48
-8.41
1.63
10.11
16.7
21.32
24.05
25.1
24.8
23.5
21.63
19.55
17.63
16.08
15.08
14.7
14.92
15.66
16.8
18.2
19.67
21.01
21.95
22.24
21.76
20.51
18.72
16.71
14.82
13.19
11.79
10.39
8.73
6.69
4.33
1.92
-0.3
-2.19
-3.89
-5.64
-7.69
-10.08
-12.63
-15.04
-17.1
-18.83
-20.54
-22.75
-25.86
-29.98
-34.74
-39.33
-42.75
-43.99
-42.41
-37.78
-30.34
-20.76
-9.95
1.1
11.51
20.55
27.77
32.94
36.08
37.38
37.2
36.03
34.33
32.5
30.84
29.47
28.37
27.5
26.82
26.32
26.09
26.09
26.2
26.13
25.55
24.23
22.24
19.88
17.59
15.74
14.41
13.46
12.56
11.38
9.75
7.65
5.16
2.35
-0.73
-4
-7.36
-10.63
-13.75
-16.74
-19.72
-22.88
-26.24
-29.69
-32.99
-35.96
-38.53
-40.92
-43.47
-46.48
-50.12
-54.18
-58.1
-60.97
-61.81
-59.75
-54.33
-45.61
-34.14
-20.9
-7.08
6.14
17.73
26.89
33.2
36.59
37.38
36.2
33.91
31.39
29.4
28.35
28.26
28.81
29.49
29.85
29.66
28.98
28.06
27.22
26.63
26.33
26.21
26.12
25.89
25.42
24.63
23.51
22.18
20.73
19.3
17.92
16.61
15.32
14.02
12.68
11.22
9.59
7.72
5.65
3.48
1.4
-0.5
-2.22
-3.93
-5.9
-8.34
-11.36
-14.87
-18.62
-22.28
-25.51
-28.06
-29.87
-31.13
-32.17
-33.42
-35.13
-37.28
-39.61
-41.72
-43.33
-44.47
-45.51
-47.05
-49.63
-53.39
-57.82
-61.83
-64.01
-63.1
-58.4
-50.03
-38.73
-25.61
-11.82
1.73
14.27
25.14
33.78
39.79
43.09
44
43.14
41.25
39.09
37.24
36.06
35.61
35.61
35.66
35.35
34.57
33.51
32.58
32.11
32.19
32.58
32.81
32.46
31.31
29.46
27.18
24.87
22.78
21.07
19.72
18.57
17.41
16.07
14.4
12.42
10.23
8.02
6.01
4.38
3.23
2.56
2.18
1.83
1.19
0.06
-1.63
-3.82
-6.36
-9.11
-11.92
-14.65
-17.19
-19.48
-21.57
-23.54
-25.51
-27.56
-29.69
-31.9
-34.26
-36.86
-39.83
-43.27
-47.13
-51.18
-54.95
-57.75
-58.75
-57.23
-52.77
-45.37
-35.55
-24.2
-12.42
-1.32
8.2
15.55
20.57
23.49
24.82
25.16
25.01
24.66
24.22
23.78
23.45
23.42
23.82
24.59
25.51
26.28
26.67
26.63
26.28
25.76
25.15
24.41
23.44
22.19
20.74
19.26
17.9
16.72
15.63
14.44
12.95
11.03
8.74
6.25
3.78
1.49
-0.59
-2.54
-4.49
-6.52
-8.59
-10.61
-12.55
-14.46
-16.51
-18.86
-21.6
-24.79
-28.41
-32.5
-37.11
-42.15
-47.27
-51.75
-54.64
-54.99
-52.15
-46
-36.97
-25.91
-13.93
-2.12
8.59
17.54
24.45
29.37
32.57
34.4
35.16
35.09
34.34
33.16
31.82
30.61
29.73
29.18
28.82
28.51
28.18
27.84
27.56
27.31
26.95
26.3
25.21
23.71
21.9
19.96
17.95
15.86
13.6
11.13
8.48
5.77
3.15
0.69
-1.61
-3.79
-5.93
-8.1
-10.39
-12.83
-15.46
-18.24
-21.1
-23.93
-26.59
-29
-31.18
-33.22
-35.32
-37.78
-40.93
-44.97
-49.82
-54.99
-59.54
-62.31
-62.21
-58.56
-51.28
-40.89
-28.36
-14.82
-1.42
10.8
21.05
28.81
33.92
36.6
37.31
36.68
35.35
33.8
32.38
31.19
30.15
29.11
27.96
26.75
25.74
25.21
25.33
26.01
26.88
27.43
27.28
26.3
24.62
22.56
20.45
18.5
16.8
15.33
13.97
12.61
11.12
9.49
7.77
6.09
4.58
3.31
2.25
1.29
0.27
-0.98
-2.52
-4.37
-6.48
-8.74
-11.04
-13.32
-15.58
-17.86
-20.25
-22.74
-25.3
-27.8
-30.14
-32.23
-34.1
-35.85
-37.65
-39.69
-42.19
-45.36
-49.25
-53.6
-57.64
-60.25
-60.16
-56.42
-48.77
-37.8
-24.73
-11.03
2.03
13.57
23.17
30.67
36.07
39.44
40.99
41.09
40.26
39.02
37.75
36.65
35.68
34.72
33.63
32.36
31.04
29.89
29.12
28.84
29
29.33
29.48
29.1
28
26.26
24.13
21.95
19.96
18.21
16.64
15.11
13.57
12.06
10.67
9.46
8.38
7.28
6.04
4.59
3.09
1.73
0.68
-0.1
-0.83
-1.81
-3.28
-5.31
-7.75
-10.34
-12.8
-14.99
-16.93
-18.79
-20.78
-23.04
-25.54
-28.16
-30.69
-33.03
-35.24
-37.58
-40.37
-43.89
-48.17
-52.89
-57.45
-61.05
-62.82
-62.02
-58.14
-51.06
-41.05
-28.83
-15.49
-2.31
9.49
19.07
26.11
30.79
33.58
34.99
35.38
34.92
33.8
32.28
30.79
29.77
29.42
29.65
30.1
30.36
30.19
29.6
28.78
27.9
27
25.97
24.69
23.12
21.36
19.51
17.66
15.8
13.87
11.83
9.75
7.77
5.96
4.32
2.69
0.92
-1.1
-3.35
-5.67
-7.9
-9.88
-11.55
-12.99
-14.32
-15.71
-17.25
-19.01
-20.96
-23
-24.97
-26.76
-28.33
-29.8
-31.37
-33.28
-35.68
-38.5
-41.41
-43.82
-45
-44.22
-40.9
-34.87
-26.4
-16.22
-5.33
5.19
14.47
21.98
27.53
31.25
33.32
34.01
33.55
32.3
30.65
29.05
27.83
27.09
26.72
26.46
26.09
25.55
24.92
24.34
23.89
23.49
22.95
22.1
20.84
19.22
17.3
15.17
12.89
10.47
8.01
5.58
3.33
1.31
-0.53
-2.36
-4.39
-6.74
-9.43
-12.34
-15.36
-18.39
-21.36
-24.26
-27.02
-29.57
-31.84
-33.88
-35.89
-38.22
-41.2
-45
-49.51
-54.19
-58.19
-60.41
-59.8
-55.66
-47.86
-36.92
-23.97
-10.42
2.37
13.41
22.23
28.76
33.25
36.01
37.32
37.49
36.92
36.06
35.35
35.05
35.13
35.29
35.17
34.55
33.56
32.53
31.83
31.56
31.57
31.45
30.86
29.65
27.93
25.97
24.09
22.51
21.31
20.46
19.83
19.23
18.45
17.38
15.99
14.4
12.71
11.06
9.43
7.78
6.06
4.28
2.51
0.8
-0.86
-2.56
-4.41
-6.43
-8.55
-10.58
-12.41
-14
-15.47
-17.01
-18.79
-20.88
-23.23
-25.65
-27.91
-29.87
-31.54
-33.09
-34.77
-36.87
-39.64
-43.2
-47.49
-52.16
-56.55
-59.72
-60.64
-58.45
-52.81
-43.96
-32.65
-19.96
-6.98
5.3
16.15
25.03
31.61
35.84
37.92
38.35
37.75
36.78
35.9
35.37
35.18
35.16
35.05
34.7
34.09
33.37
32.73
32.34
32.17
32
31.55
30.6
29.16
27.44
25.7
24.11
22.66
21.3
19.94
18.61
17.43
16.47
15.69
14.99
14.21
13.25
12.15
10.97
9.75
8.51
7.21
5.92
4.69
3.64
2.77
1.98
1.09
0.03
-1.16
-2.25
-3.01
-3.39
-3.57
-3.89
-4.74
-6.27
-8.31
-10.49
-12.44
-13.97
-15.2
-16.42
-17.97
-20.06
-22.63
-25.46
-28.27
-30.86
-33.18
-35.3
-37.39
-39.69
-42.43
-45.81
-49.8
-54.06
-57.89
-60.33
-60.48
-57.7
-51.85
-43.28
-32.67
-20.92
-8.95
2.34
12.15
19.83
25.05
27.85
28.6
27.93
26.51
24.95
23.62
22.72
22.19
21.92
21.68
21.31
20.76
20.09
19.47
19.02
18.79
18.66
18.41
17.76
16.52
14.65
12.32
9.88
7.74
6.2
5.37
5.16
5.34
5.64
5.87
5.87
5.59
4.98
4.04
2.82
1.48
0.22
-0.83
-1.66
-2.45
-3.44
-4.84
-6.71
-8.94
-11.33
-13.73
-16.07
-18.41
-20.86
-23.44
-26.1
-28.67
-30.96
-32.88
-34.41
-35.61
-36.56
-37.4
-38.29
-39.48
-41.17
-43.35
-45.65
-47.35
-47.48
-45.19
-40.04
-32.14
-22.19
-11.17
-0.17
9.9
18.39
24.96
29.5
32.1
32.97
32.42
30.86
28.75
26.61
24.84
23.64
22.93
22.43
21.79
20.87
19.8
18.9
18.5
18.69
19.27
19.83
19.94
19.38
18.23
16.76
15.33
14.13
13.21
12.47
11.83
11.29
10.96
11.04
11.63
12.76
14.26
15.85
17.13
17.64
16.96
14.84
11.34
7
2.72
-0.55
-2.17
-2.15
-1.22
-0.46
-0.83
-2.81
-6.24
-10.4
-14.41
-17.48
-19.03
-18.82
-17.15
-15.22
-15.17
-19.62
-30.5
-47.79
-68.76
-88.49
-101.63
-104.58
-96.95
-81.63
-63.25
-46.32
-33.6
-25.81
-22.36
-22.19
-24.48
-28.44
-32.94
-36.26
-36.48
-32.14
-22.87
-9.78
4.98
18.98
30.27
37.99
42.32
44.12
44.43
44.02
43.23
42.17
40.93
39.75
38.96
38.8
39.26
40.05
40.79
41.21
41.25
41.03
40.7
40.22
39.45
38.21
36.47
34.45
32.46
30.73
29.29
27.98
26.64
25.19
23.74
22.44
21.34
20.28
19
17.3
15.17
12.9
10.88
9.45
8.74
8.7
9.16
9.91
10.76
11.51
11.93
11.82
11.06
9.63
7.7
5.55
3.47
1.69
0.24
-0.99
-2.25
-3.74
-5.53
-7.56
-9.58
-11.39
-12.86
-14.06
-15.22
-16.69
-18.71
-21.37
-24.54
-27.87
-30.94
-33.41
-35.16
-36.32
-37.25
-38.37
-40.01
-42.36
-45.47
-49.3
-53.66
-58.16
-62.17
-64.77
-64.99
-62.02
-55.47
-45.55
-33.05
-19.15
-5.18
7.65
18.49
26.85
32.62
35.94
37.13
36.64
34.97
32.71
30.4
28.5
27.21
26.42
25.86
25.22
24.34
23.32
22.42
21.92
21.93
22.31
22.77
22.99
22.78
22.14
21.19
20.04
18.76
17.31
15.67
13.89
12.08
10.38
8.86
7.47
6.16
4.86
3.62
2.51
1.63
1.01
0.59
0.27
-0.05
-0.42
-0.87
-1.4
-2.05
-2.86
-3.86
-5.07
-6.46
-7.97
-9.6
-11.37
-13.35
-15.55
-17.94
-20.43
-22.94
-25.44
-27.99
-30.68
-33.62
-36.86
-40.38
-44.03
-47.56
-50.5
-52.19
-51.85
-48.77
-42.56
-33.38
-21.94
-9.35
3.19
14.63
24.28
31.79
37.05
40.12
41.15
40.39
38.27
35.41
32.48
30.08
28.56
27.86
27.61
27.34
26.67
25.54
24.17
22.97
22.2
21.95
21.98
21.93
21.44
20.39
18.87
17.11
15.36
13.72
12.15
10.49
8.63
6.57
4.46
2.52
0.98
-0.09
-0.75
-1.2
-1.64
-2.21
-2.94
-3.78
-4.6
-5.35
-6.07
-6.86
-7.81
-8.96
-10.32
-11.78
-13.26
-14.7
-16.1
-17.49
-18.98
-20.68
-22.72
-25.21
-28.21
-31.66
-35.36
-39.08
-42.65
-45.97
-49.13
-52.25
-55.48
-58.96
-62.84
-67.23
-72.09
-77.04
-81.27
-83.62
-82.85
-78.07
-69.02
-56.27
-41.04
-24.84
-9.19
4.71
16.14
24.87
30.99
34.84
36.82
37.39
37.07
36.37
35.75
35.47
35.51
35.62
35.5
34.95
34.09
33.23
32.74
32.81
33.39
34.21
34.99
35.52
35.63
35.23
34.23
32.63
30.59
28.4
26.41
24.85
23.73
22.84
21.91
20.79
19.55
18.4
17.53
16.91
16.31
15.4
14.06
12.42
10.85
9.76
9.27
9.17
9.05
8.47
7.31
5.69
3.96
2.36
0.97
-0.38
-1.93
-3.79
-5.94
-8.18
-10.28
-12.13
-13.76
-15.35
-17.11
-19.25
-21.83
-24.81
-28.04
-31.34
-34.57
-37.72
-40.79
-43.86
-47.04
-50.46
-54.29
-58.62
-63.36
-68.11
-72.07
-74.09
-72.97
-67.7
-57.86
-43.85
-26.85
-8.62
8.9
24.06
35.79
43.77
48.39
50.39
50.65
49.88
48.6
47.15
45.78
44.67
43.9
43.4
43
42.46
41.7
40.82
40.11
39.8
39.94
40.35
40.65
40.52
39.79
38.54
37.01
35.4
33.83
32.25
30.56
28.7
26.65
24.47
22.23
19.96
17.68
15.36
12.97
10.49
7.97
5.63
3.77
2.72
2.5
2.73
2.71
1.68
-0.8
-4.55
-8.95
-13.16
-16.55
-18.94
-20.48
-21.56
-22.53
-23.64
-25.06
-26.87
-29.12
-31.71
-34.46
-37.12
-39.59
-41.96
-44.53
-47.66
-51.53
-55.98
-60.43
-63.99
-65.67
-64.5
-59.87
-51.53
-39.74
-25.24
-9.13
7.21
22.35
35.03
44.44
50.31
52.94
53.02
51.42
48.94
46.24
43.74
41.68
40.1
38.85
37.74
36.59
35.44
34.44
33.85
33.82
34.26
34.91
35.35
35.23
34.29
32.51
30.03
27.18
24.36
21.95
20.2
19.1
18.37
17.6
16.38
14.48
11.9
8.88
5.72
2.78
0.25
-1.79
-3.42
-4.88
-6.44
-8.3
-10.52
-13.02
-15.63
-18.26
-20.89
-23.6
-26.5
-29.63
-32.89
-36.18
-39.44
-42.69
-46.08
-49.79
-53.97
-58.66
-63.68
-68.57
-72.55
-74.6
-73.62
-68.76
-59.66
-46.63
-30.67
-13.25
3.94
19.36
31.85
40.84
46.35
48.9
49.25
48.18
46.31
44.07
41.69
39.34
37.1
35.05
33.19
31.53
30.07
28.88
28.08
27.77
27.9
28.29
28.61
28.55
27.93
26.72
25.1
23.31
21.55
19.93
18.43
16.95
15.42
13.81
12.19
10.65
9.26
8
6.76
5.41
3.87
2.16
0.35
-1.42
-3.05
-4.44
-5.64
-6.77
-7.98
-9.43
-11.13
-13.01
-14.92
-16.74
-18.49
-20.27
-22.25
-24.5
-27
-29.62
-32.24
-34.86
-37.57
-40.5
-43.7
-47.09
-50.54
-54
-57.57
-61.39
-65.44
-69.26
-71.78
-71.57
-67.34
-58.47
-45.38
-29.43
-12.46
3.76
17.96
29.45
38.03
43.69
46.57
46.99
45.51
42.95
40.15
37.77
36.08
34.94
33.95
32.7
31.02
29.05
27.21
25.98
25.64
26.16
27.16
28.11
28.58
28.38
27.58
26.42
25.13
23.87
22.67
21.51
20.38
19.26
18.08
16.81
15.38
13.74
11.9
9.89
7.87
6.02
4.56
3.55
2.92
2.33
1.37
-0.22
-2.41
-4.86
-7.13
-8.98
-10.48
-11.91
-13.6
-15.69
-18.14
-20.81
-23.62
-26.58
-29.72
-33.02
-36.3
-39.36
-42.06
-44.46
-46.81
-49.46
-52.65
-56.42
-60.49
-64.23
-66.75
-67.12
-64.53
-58.62
-49.52
-37.85
-24.56
-10.75
2.45
14.04
23.2
29.44
32.69
33.31
31.97
29.53
26.8
24.46
22.93
22.32
22.49
23.09
23.79
24.37
24.87
25.43
26.21
27.18
28.09
28.61
28.44
27.52
25.97
24.07
22.05
20.08
18.22
16.47
14.8
13.06
10.88
7.8
3.47
-2.07
-8.15
-13.68
-17.49
-18.92
-18.17
-16.26
-14.59
-14.35
-16.02
-19.31
-23.37
-27.28
-30.39
-32.44
-33.4
-33.39
-32.69
-32.03
-32.69
-36.37
-44.54
-57.56
-74.08
-91.05
-104.59
-111.29
-109.41
-99.26
-82.73
-62.29
-40.05
-17.39
4.74
25.25
42.67
55.38
62.36
63.84
61.36
57.28
53.83
52.3
52.81
54.64
56.74
58.32
58.98
58.67
57.6
56.17
54.97
54.55
55.15
56.37
57.1
55.86
51.56
44.03
34.23
23.94
14.92
8.45
4.96
4.23
5.64
8.4
11.71
14.7
16.61
16.88
15.46
12.9
10.15
8.2
7.66
8.48
10.03
11.4
11.82
10.85
8.56
5.36
1.88
-1.33
-3.95
-6.1
-8.31
-11.42
-16.3
-23.45
-32.73
-43.26
-53.63
-62.43
-68.71
-72.22
-73.44
-73.25
-72.61
-72.25
-72.53
-73.33
-74.13
-74.05
-72.05
-67.18
-58.82
-46.91
-32
-15.18
2.13
18.47
32.48
43.16
50
53.09
53.11
51.11
48.26
45.56
43.6
42.5
41.98
41.55
40.7
39.13
36.89
34.42
32.4
31.47
31.88
33.35
35.13
36.36
36.47
35.35
33.44
31.39
29.7
28.51
27.53
26.27
24.28
21.47
18.12
14.78
12.02
10.22
9.48
9.59
10.16
10.79
11.2
11.31
11.2
10.97
10.69
10.27
9.53
8.31
6.62
4.63
2.59
0.7
-1
-2.57
-4.07
-5.48
-6.67
-7.47
-7.82
-7.81
-7.58
-7.23
-6.76
-6.05
-5.02
-3.67
-2.2
-0.86
0.08
0.42
-0.04
-1.63
-4.81
-10.06
-17.6
-27.11
-37.53
-47.2
-54.22
-56.98
-54.72
-47.68
-36.98
-24.24
-11.15
0.82
10.62
17.69
21.91
23.6
23.43
22.27
20.92
19.99
19.71
19.94
20.29
20.33
19.76
18.56
17.01
15.57
14.7
14.64
15.31
16.34
17.28
17.77
17.7
17.17
16.42
15.6
14.77
13.86
12.81
11.68
10.59
9.61
8.68
7.54
5.87
3.45
0.4
-2.84
-5.63
-7.43
-8.1
-7.99
-7.75
-8.05
-9.25
-11.22
-13.53
-15.65
-17.31
-18.54
-19.61
-20.83
-22.35
-24.14
-26.08
-28.08
-30.1
-32.14
-34.21
-36.26
-38.22
-40.08
-41.87
-43.74
-45.85
-48.37
-51.32
-54.5
-57.31
-58.82
-57.96
-53.82
-46.06
-35.08
-21.94
-8.03
5.27
16.9
26.23
32.97
37.06
38.65
38.07
35.84
32.73
29.55
27.02
25.57
25.19
25.55
26.13
26.39
26.04
25.12
23.99
23.14
23.01
23.74
25.1
26.53
27.36
27.08
25.56
23.14
20.4
17.96
16.2
15.19
14.83
14.85
14.85
14.07
11.36
5.45
-4.31
-17.32
-31.54
-44.08
-52.42
-55.53
-54.3
-50.84
-47.24
-44.36
-41.53
-37.26
-30.47
-21.38
-11.54
-3.09
2.32
4.15
3.03
0.11
-3.63
-7.87
-12.86
-19.1
-26.88
-36.06
-46.14
-56.36
-65.99
-74.15
-79.93
-82.41
-80.79
-74.73
-64.5
-51.02
-35.68
-19.98
-5.27
7.42
17.41
24.38
28.36
29.88
29.76
29.03
28.57
28.85
29.89
31.36
32.78
33.8
34.32
34.45
34.44
34.56
34.99
35.71
36.57
37.3
37.65
37.49
36.85
35.88
34.79
33.77
32.94
32.33
31.91
31.53
31.04
30.28
29.15
27.65
25.86
23.89
21.83
19.78
17.84
16.18
14.98
14.38
14.35
14.63
14.78
14.3
12.86
10.42
7.21
3.71
0.37
-2.51
-4.85
-6.75
-8.37
-9.82
-11.12
-12.32
-13.49
-14.8
-16.41
-18.45
-20.94
-23.79
-26.9
-30.18
-33.56
-36.93
-40.15
-43.09
-45.65
-47.84
-49.79
-51.69
-53.79
-56.38
-59.71
-63.89
-68.66
-73.22
-76.27
-76.29
-71.99
-62.77
-49.01
-31.97
-13.4
4.84
21.22
34.7
44.74
51.29
54.69
55.59
54.82
53.24
51.58
50.23
49.24
48.32
47.08
45.26
42.92
40.47
38.48
37.35
37.15
37.56
38.02
38.05
37.42
36.24
34.72
33.13
31.58
30.14
28.82
27.65
26.66
25.84
25.11
24.37
23.56
22.73
22.03
21.67
21.78
22.34
23.1
23.66
23.57
22.48
20.24
16.93
12.87
8.46
4.11
0.11
-3.36
-6.27
-8.76
-11.06
-13.49
-16.3
-19.56
-23.07
-26.46
-29.32
-31.43
-32.84
-33.87
-34.94
-36.3
-38.01
-39.83
-41.48
-42.77
-43.73
-44.64
-45.78
-47.4
-49.6
-52.33
-55.49
-58.89
-62.22
-64.87
-66.04
-64.81
-60.51
-52.97
-42.55
-30
-16.26
-2.28
11.02
22.68
31.76
37.48
39.59
38.56
35.54
31.94
28.84
26.66
25.2
24.01
22.83
21.75
21.12
21.2
22.01
23.24
24.51
25.49
26.05
26.18
25.96
25.53
25
24.56
24.38
24.44
24.56
24.4
23.65
22.23
20.33
18.28
16.39
14.75
13.23
11.57
9.53
7.05
4.29
1.54
-0.91
-2.91
-4.57
-6.1
-7.77
-9.77
-12.18
-14.98
-18.15
-21.59
-25.07
-28.23
-30.64
-32.04
-32.57
-32.87
-33.94
-36.76
-41.79
-48.7
-56.39
-63.29
-67.82
-68.78
-65.52
-57.96
-46.48
-31.87
-15.34
1.53
17.02
29.68
38.62
43.8
45.89
45.89
44.77
43.12
41.26
39.27
37.23
35.26
33.5
32.01
30.78
29.73
28.84
28.17
27.82
27.87
28.29
28.98
29.73
30.37
30.76
30.81
30.45
29.62
28.25
26.27
23.63
20.37
16.61
12.62
8.75
5.4
2.89
1.41
0.86
0.92
1.09
0.85
-0.11
-1.82
-4.04
-6.42
-8.69
-10.74
-12.64
-14.45
-16.2
-17.85
-19.38
-20.88
-22.56
-24.68
-27.41
-30.76
-34.51
-38.42
-42.27
-45.95
-49.51
-53.08
-56.9
-61.19
-66.01
-71.06
-75.48
-78.01
-77.27
-72.23
-62.64
-49.12
-32.95
-15.7
1.12
16.3
28.99
38.67
45.14
48.58
49.51
48.77
47.24
45.65
44.36
43.36
42.39
41.14
39.48
37.56
35.74
34.42
33.81
33.8
33.96
33.85
33.16
31.89
30.26
28.55
26.93
25.4
23.88
22.26
20.5
18.62
16.69
14.9
13.59
13.23
14.21
16.52
19.61
22.44
23.92
23.35
20.73
16.76
12.4
8.46
5.22
2.49
-0.05
-2.6
-5.01
-6.96
-8.18
-8.74
-9.06
-9.69
-11.05
-13.15
-15.67
-18.13
-20.14
-21.64
-22.84
-24.08
-25.6
-27.47
-29.63
-32.01
-34.54
-37.17
-39.89
-42.68
-45.7
-49.17
-53.36
-58.24
-63.24
-67.24
-68.84
-66.81
-60.56
-50.32
-37
-21.9
-6.38
8.31
21.06
31.08
37.89
41.52
42.52
41.66
39.78
37.55
35.37
33.45
31.9
30.69
29.78
29.05
28.43
27.93
27.64
27.62
27.81
27.93
27.66
26.78
25.3
23.51
21.74
20.25
19.09
18.13
17.22
16.21
15
13.54
11.83
9.98
8.12
6.41
5
3.9
3.04
2.25
1.37
0.29
-1.03
-2.61
-4.4
-6.3
-8.12
-9.66
-10.8
-11.6
-12.24
-13
-14.06
-15.42
-16.96
-18.49
-19.91
-21.25
-22.62
-24.12
-25.82
-27.69
-29.77
-32.1
-34.78
-37.89
-41.39
-45.06
-48.41
-50.75
-51.2
-48.9
-43.31
-34.34
-22.56
-9.14
4.46
16.81
26.87
34.17
38.7
40.79
40.89
39.43
36.92
33.85
30.75
28.08
26.1
24.84
24.1
23.65
23.28
22.96
22.75
22.75
22.94
23.17
23.2
22.82
21.97
20.73
19.28
17.79
16.37
15.06
13.89
12.81
11.76
10.61
9.18
7.37
5.21
2.88
0.65
-1.33
-2.99
-4.46
-5.88
-7.4
-9.07
-10.86
-12.79
-14.86
-17.09
-19.5
-22.06
-24.75
-27.56
-30.51
-33.61
-36.82
-40.07
-43.28
-46.38
-49.29
-52.06
-54.78
-57.72
-61.17
-65.32
-70.05
-74.71
-78.15
-78.94
-75.86
-68.3
-56.47
-41.44
-24.83
-8.46
6.01
17.43
25.3
29.85
31.86
32.44
32.65
33.21
34.18
34.96
34.58
32.22
27.76
22.06
16.75
13.63
13.96
17.95
24.69
32.62
40.09
45.91
49.51
50.85
50.18
47.81
44.11
39.54
34.69
30.18
26.47
23.69
21.68
20.04
18.31
16.18
13.58
10.67
7.72
5
2.69
0.9
-0.39
-1.25
-1.85
-2.41
-3.19
-4.37
-6.07
-8.2
-10.61
-13.12
-15.55
-17.83
-19.99
-22.13
-24.39
-26.9
-29.68
-32.69
-35.78
-38.79
-41.6
-44.2
-46.72
-49.4
-52.55
-56.41
-60.98
-65.94
-70.54
-73.75
-74.39
-71.46
-64.41
-53.37
-39.15
-23.05
-6.63
8.63
21.64
31.8
39.04
43.64
46.07
46.88
46.53
45.44
43.96
42.32
40.69
39.16
37.85
36.88
36.4
36.51
37.19
38.28
39.48
40.46
40.95
40.8
39.99
38.59
36.73
34.54
32.23
29.99
28.01
26.39
25.16
24.24
23.44
22.55
21.34
19.64
17.4
14.73
11.87
9.11
6.72
4.8
3.27
1.9
0.41
-1.4
-3.56
-6
-8.54
-11.04
-13.44
-15.73
-18.03
-20.46
-23.11
-25.97
-28.96
-31.94
-34.77
-37.39
-39.78
-42.03
-44.35
-46.98
-50.19
-54.17
-58.82
-63.61
-67.54
-69.31
-67.69
-61.91
-51.94
-38.55
-23.02
-6.88
8.45
21.88
32.74
40.76
46.03
48.87
49.72
49.11
47.54
45.44
43.15
40.88
38.76
36.81
35.05
33.63
32.73
32.58
33.25
34.6
36.17
37.4
37.81
37.21
35.78
33.89
31.94
30.1
28.36
26.51
24.46
22.22
19.97
17.89
16
14.11
11.93
9.24
6.02
2.54
-0.87
-3.92
-6.5
-8.8
-11.06
-13.52
-16.27
-19.24
-22.25
-25.12
-27.81
-30.44
-33.17
-36.18
-39.51
-43.16
-47.1
-51.33
-55.9
-60.73
-65.45
-69.25
-71.01
-69.52
-63.93
-54.08
-40.6
-24.76
-8.19
7.53
21.2
32.09
39.89
44.73
46.93
47.02
45.61
43.41
41.07
39.12
37.78
36.98
36.43
35.76
34.76
33.45
32.06
30.91
30.23
30.02
30.09
30.11
29.74
28.72
26.97
24.57
21.79
19.04
16.66
14.85
13.53
12.41
11.2
9.71
8.02
6.27
4.65
3.14
1.65
0.05
-1.68
-3.44
-5.08
-6.54
-7.91
-9.4
-11.23
-13.47
-16.01
-18.62
-21.08
-23.28
-25.34
-27.46
-29.89
-32.73
-35.91
-39.16
-42.19
-44.82
-47.07
-49.24
-51.76
-55
-59.13
-63.88
-68.55
-71.99
-72.95
-70.28
-63.36
-52.29
-37.92
-21.61
-4.98
10.53
23.84
34.32
41.72
46.13
47.86
47.44
45.59
43.1
40.67
38.71
37.29
36.19
35.16
34.13
33.29
32.94
33.22
33.92
34.5
34.4
33.31
31.42
29.23
27.24
25.67
24.37
22.99
21.27
19.2
17.04
15.11
13.58
12.42
11.43
10.41
9.27
8.06
6.85
5.74
4.75
3.81
2.84
1.73
0.41
-1.17
-3.01
-5.05
-7.21
-9.39
-11.5
-13.53
-15.54
-17.66
-20.01
-22.68
-25.63
-28.78
-31.99
-35.15
-38.13
-40.8
-43
-44.66
-45.85
-46.96
-48.6
-51.32
-55.34
-60.17
-64.72
-67.5
-67.13
-62.79
-54.4
-42.64
-28.64
-13.72
0.83
13.93
24.77
32.88
38.22
41.11
42.1
41.77
40.58
38.79
36.64
34.31
32.04
30.09
28.58
27.52
26.86
26.52
26.46
26.64
26.93
27.09
26.89
26.18
25
23.49
21.81
20.03
18.12
15.98
13.63
11.17
8.8
6.68
4.85
3.29
1.99
1
0.36
0.01
-0.24
-0.66
-1.45
-2.6
-3.94
-5.19
-6.18
-7.03
-8.04
-9.61
-11.97
-15.02
-18.38
-21.59
-24.3
-26.42
-28.14
-29.77
-31.57
-33.71
-36.21
-39.11
-42.44
-46.17
-50.01
-53.27
-54.88
-53.65
-48.7
-39.84
-27.7
-13.58
0.97
14.52
26
34.86
40.94
44.4
45.6
44.97
43.08
40.46
37.65
35.05
32.92
31.33
30.2
29.39
28.76
28.33
28.17
28.4
28.97
29.73
30.38
30.64
30.31
29.34
27.79
25.76
23.39
20.85
18.28
15.84
13.57
11.48
9.51
7.62
5.78
3.95
2.02
-0.09
-2.42
-4.88
-7.24
-9.3
-11
-12.47
-14
-15.88
-18.22
-20.93
-23.74
-26.37
-28.71
-30.87
-33.11
-35.68
-38.71
-42.08
-45.48
-48.59
-51.29
-53.86
-56.81
-60.61
-65.22
-69.88
-73.2
-73.63
-70.05
-62.09
-50.25
-35.64
-19.6
-3.47
11.56
24.5
34.6
41.48
45.2
46.27
45.55
43.97
42.29
40.95
39.99
39.15
38.11
36.64
34.83
33.01
31.66
31.15
31.52
32.47
33.46
33.95
33.6
32.41
30.62
28.59
26.63
24.89
23.4
22.09
20.86
19.62
18.29
16.78
15.03
13.06
10.96
8.89
6.99
5.35
3.94
2.68
1.48
0.25
-1.04
-2.44
-3.98
-5.67
-7.51
-9.46
-11.51
-13.61
-15.78
-18.05
-20.45
-23
-25.72
-28.59
-31.55
-34.52
-37.41
-40.18
-42.81
-45.38
-48.02
-50.95
-54.36
-58.38
-62.92
-67.48
-71.16
-72.73
-70.94
-64.97
-54.73
-40.98
-25.12
-8.78
6.57
19.84
30.41
38.01
42.7
44.77
44.77
43.41
41.42
39.43
37.75
36.45
35.4
34.49
33.69
33.12
32.97
33.32
34.09
34.94
35.51
35.47
34.71
33.34
31.64
29.9
28.3
26.92
25.66
24.42
23.09
21.59
19.94
18.15
16.27
14.38
12.57
10.91
9.46
8.22
7.15
6.18
5.17
3.99
2.46
0.5
-1.89
-4.58
-7.36
-10.07
-12.6
-14.93
-17.07
-19.08
-21.01
-22.95
-25.07
-27.49
-30.25
-33.22
-36.06
-38.46
-40.23
-41.5
-42.66
-44.25
-46.71
-50.26
-54.72
-59.55
-63.87
-66.59
-66.63
-63.13
-55.8
-44.97
-31.55
-16.85
-2.25
11.05
22.18
30.67
36.39
39.5
40.4
39.67
37.96
35.87
33.84
32.18
30.99
30.25
29.87
29.72
29.73
29.94
30.48
31.45
32.8
34.24
35.33
35.62
34.91
33.27
31.04
28.65
26.46
24.59
22.91
21.24
19.4
17.36
15.22
13.12
11.17
9.35
7.53
5.52
3.22
0.6
-2.28
-5.24
-8.13
-10.85
-13.39
-15.84
-18.33
-21
-23.92
-27.01
-30.12
-33.04
-35.64
-37.99
-40.32
-42.94
-46.12
-50.05
-54.73
-60.01
-65.49
-70.43
-73.76
-74.25
-70.78
-62.8
-50.55
-35.07
-18.02
-1.22
13.76
25.91
34.84
40.69
43.98
45.32
45.27
44.29
42.73
40.91
39.08
37.45
36.1
35.03
34.17
33.48
32.99
32.8
32.91
33.26
33.62
33.74
33.41
32.58
31.34
29.83
28.28
26.8
25.39
23.98
22.4
20.56
18.45
16.23
14.08
12.17
10.5
8.94
7.33
5.62
3.88
2.31
1.02
-0.02
-1.02
-2.25
-3.93
-6.08
-8.55
-11.12
-13.63
-15.98
-18.26
-20.54
-22.95
-25.58
-28.47
-31.63
-35
-38.49
-41.96
-45.26
-48.28
-50.98
-53.5
-56.14
-59.36
-63.47
-68.39
-73.4
-77.15
-78.03
-74.64
-66.35
-53.55
-37.53
-20.08
-3.01
12.25
24.83
34.42
41.18
45.52
47.95
48.92
48.79
47.81
46.26
44.45
42.7
41.24
40.07
39.04
37.97
36.81
35.72
34.94
34.62
34.69
34.88
34.82
34.28
33.22
31.75
30.12
28.52
27.05
25.7
24.39
22.94
21.22
19.19
16.92
14.59
12.37
10.39
8.6
6.9
5.14
3.3
1.46
-0.23
-1.67
-2.88
-4
-5.22
-6.67
-8.38
-10.21
-12.02
-13.79
-15.63
-17.81
-20.59
-24.1
-28.16
-32.4
-36.35
-39.66
-42.27
-44.33
-46.18
-48.2
-50.76
-54.1
-58.32
-63.25
-68.31
-72.48
-74.41
-72.79
-66.72
-56.1
-41.71
-25.04
-7.92
7.96
21.34
31.62
38.79
43.25
45.6
46.39
46.03
44.81
43
40.88
38.78
36.94
35.44
34.21
33.17
32.33
31.82
31.8
32.28
33.02
33.63
33.71
33.06
31.75
29.98
28
25.95
23.9
21.89
19.98
18.23
16.62
15.05
13.38
11.5
9.43
7.27
5.18
3.27
1.55
-0.04
-1.52
-2.86
-3.97
-4.79
-5.4
-5.98
-6.72
-7.73
-8.92
-10.14
-11.26
-12.44
-14.09
-16.68
-20.53
-25.5
-31.1
-36.67
-41.71
-46.15
-50.26
-54.47
-58.99
-63.62
-67.73
-70.44
-70.81
-68.15
-62.11
-52.77
-40.67
-26.71
-12.05
2.07
14.57
24.63
31.87
36.31
38.29
38.34
37.08
35.06
32.77
30.59
28.76
27.45
26.75
26.68
27.19
28.13
29.27
30.36
31.23
31.78
32.05
32.05
31.72
30.93
29.52
27.48
24.96
22.29
19.77
17.57
15.62
13.66
11.46
8.86
5.89
2.76
-0.32
-3.23
-5.92
-8.49
-11.1
-13.89
-16.97
-20.32
-23.83
-27.33
-30.67
-33.78
-36.68
-39.52
-42.49
-45.87
-49.87
-54.58
-59.82
-64.99
-69.08
-70.86
-69.19
-63.41
-53.53
-40.28
-24.93
-8.98
6.19
19.48
30.21
38.12
43.33
46.16
47.08
46.58
45.1
43.08
40.92
38.98
37.48
36.51
35.99
35.78
35.73
35.77
35.9
36.08
36.21
36.1
35.56
34.44
32.77
30.7
28.41
26.12
23.98
22.04
20.24
18.47
16.56
14.37
11.92
9.31
6.76
4.44
2.37
0.46
-1.53
-3.78
-6.35
-9.13
-11.93
-14.61
-17.13
-19.62
-22.25
-25.13
-28.31
-31.68
-35.11
-38.46
-41.64
-44.64
-47.51
-50.38
-53.45
-56.98
-61.22
-66.2
-71.59
-76.5
-79.59
-79.35
-74.57
-64.75
-50.45
-33.17
-14.93
2.25
16.91
28.4
36.76
42.48
46.14
48.12
48.7
48.13
46.76
45.05
43.43
42.14
41.11
40.11
38.95
37.65
36.46
35.69
35.52
35.84
36.32
36.52
36.13
35.07
33.47
31.53
29.46
27.38
25.35
23.38
21.49
19.69
17.99
16.36
14.73
13.04
11.24
9.35
7.45
5.65
4.04
2.63
1.33
-0.04
-1.65
-3.59
-5.87
-8.37
-10.94
-13.42
-15.71
-17.8
-19.8
-21.87
-24.2
-26.95
-30.11
-33.55
-37.02
-40.3
-43.24
-45.84
-48.25
-50.77
-53.72
-57.41
-61.93
-67.01
-71.9
-75.35
-75.88
-72.25
-63.85
-51.09
-35.29
-18.31
-2
12.29
23.9
32.8
39.26
43.58
45.97
46.53
45.48
43.25
40.49
37.9
35.98
34.92
34.59
34.67
34.89
35.12
35.37
35.66
35.95
36.1
35.95
35.37
34.34
32.93
31.29
29.51
27.66
25.71
23.57
21.13
18.31
15.12
11.72
8.43
5.59
3.45
2.07
1.26
0.67
-0.09
-1.33
-3.21
-5.71
-8.63
-11.7
-14.62
-17.2
-19.4
-21.43
-23.58
-26.15
-29.22
-32.69
-36.23
-39.48
-42.19
-44.28
-45.96
-47.57
-49.55
-52.22
-55.69
-59.71
-63.58
-66.35
-66.92
-64.32
-58.02
-48.03
-35.03
-20.21
-5.03
9.09
21.11
30.49
37.18
41.46
43.72
44.26
43.37
41.38
38.77
36.08
33.84
32.37
31.7
31.72
32.19
32.95
33.88
34.88
35.74
36.24
36.11
35.15
33.32
30.76
27.77
24.72
21.92
19.5
17.42
15.44
13.25
10.64
7.59
4.27
0.96
-2.14
-4.97
-7.66
-10.41
-13.42
-16.75
-20.37
-24.14
-27.89
-31.49
-34.82
-37.87
-40.72
-43.57
-46.72
-50.46
-54.98
-60.1
-65.23
-69.29
-70.95
-69.01
-62.7
-52.08
-38.03
-22.04
-5.86
8.98
21.41
31
37.86
42.38
44.99
46.04
45.78
44.46
42.42
40.14
38.15
36.82
36.28
36.37
36.79
37.21
37.48
37.57
37.56
37.44
37.1
36.39
35.18
33.49
31.46
29.29
27.15
25.13
23.23
21.36
19.42
17.34
15.12
12.79
10.44
8.18
6.11
4.25
2.52
0.81
-1.07
-3.23
-5.67
-8.3
-11
-13.67
-16.3
-18.95
-21.72
-24.71
-27.92
-31.3
-34.74
-38.15
-41.45
-44.61
-47.66
-50.63
-53.66
-57
-60.95
-65.71
-71.09
-76.37
-80.24
-81.17
-77.84
-69.66
-56.97
-40.97
-23.35
-5.82
10.21
23.8
34.48
42.18
47.13
49.78
50.72
50.55
49.75
48.67
47.53
46.41
45.41
44.55
43.79
43.1
42.43
41.78
41.16
40.61
40.03
39.32
38.35
37.06
35.53
33.92
32.4
31.05
29.81
28.56
27.15
25.52
23.68
21.68
19.54
17.32
15.06
12.87
10.91
9.34
8.22
7.46
6.86
6.15
5.17
3.91
2.45
0.98
-0.43
-1.83
-3.39
-5.28
-7.55
-10.08
-12.64
-15.01
-17.06
-18.87
-20.61
-22.51
-24.76
-27.43
-30.46
-33.68
-36.92
-39.99
-42.82
-45.39
-47.77
-50.13
-52.76
-56
-60.17
-65.35
-71.13
-76.52
-80.06
-80.22
-75.87
-66.72
-53.39
-37.26
-20.1
-3.67
10.67
22.11
30.42
35.91
39.17
40.92
41.7
41.83
41.42
40.53
39.3
38.02
37.01
36.43
36.24
36.22
36.15
35.9
35.45
34.86
34.16
33.29
32.13
30.59
28.7
26.66
24.71
23.02
21.61
20.32
18.91
17.12
14.84
12.14
9.19
6.24
3.57
1.37
-0.23
-1.26
-1.9
-2.43
-3.14
-4.24
-5.82
-7.77
-9.97
-12.23
-14.46
-16.56
-18.53
-20.36
-22.07
-23.71
-25.31
-26.93
-28.54
-30.09
-31.54
-32.94
-34.5
-36.5
-39.22
-42.75
-46.91
-51.13
-54.49
-55.88
-54.26
-49.02
-40.17
-28.46
-15.15
-1.71
10.63
21.14
29.63
36.18
40.92
43.85
44.85
43.98
41.61
38.43
35.21
32.54
30.68
29.56
28.98
28.85
29.12
29.76
30.62
31.38
31.66
31.19
29.9
27.95
25.62
23.22
20.97
18.99
17.25
15.65
13.99
12.11
9.97
7.66
5.38
3.32
1.5
-0.21
-2.05
-4.24
-6.81
-9.64
-12.48
-15.15
-17.6
-19.95
-22.36
-24.95
-27.77
-30.75
-33.82
-36.92
-40.06
-43.2
-46.27
-49.19
-51.95
-54.74
-57.88
-61.78
-66.61
-72.11
-77.42
-81.22
-82.04
-78.7
-70.75
-58.52
-43.15
-26.21
-9.36
6.01
19.02
29.28
36.84
42.01
45.21
46.85
47.36
47.08
46.32
45.29
44.12
42.85
41.45
39.97
38.5
37.24
36.4
36.05
36.12
36.36
36.49
36.27
35.64
34.66
33.46
32.16
30.79
29.32
27.64
25.74
23.66
21.51
19.41
17.44
15.64
14
12.48
10.98
9.43
7.75
5.91
3.99
2.09
0.38
-1.02
-2.11
-3.01
-3.94
-5.11
-6.7
-8.78
-11.32
-14.17
-17.09
-19.84
-22.23
-24.21
-25.99
-27.94
-30.45
-33.71
-37.65
-41.98
-46.3
-50.39
-54.28
-58.28
-62.78
-67.99
-73.74
-79.35
-83.72
-85.51
-83.53
-77.06
-66.09
-51.38
-34.3
-16.52
0.37
15.17
27.19
36.29
42.7
46.82
49.13
50.03
49.88
49.03
47.8
46.47
45.29
44.38
43.8
43.53
43.56
43.9
44.56
45.47
46.46
47.25
47.54
47.09
45.84
43.9
41.51
38.93
36.28
33.59
30.75
27.63
24.18
20.5
16.78
13.29
10.24
7.71
5.69
4.04
2.62
1.29
-0.04
-1.4
-2.81
-4.25
-5.7
-7.14
-8.59
-10.07
-11.66
-13.41
-15.37
-17.49
-19.65
-21.72
-23.59
-25.3
-27.02
-29.03
-31.53
-34.58
-38.01
-41.46
-44.54
-47.01
-48.87
-50.41
-52.14
-54.57
-58.05
-62.54
-67.53
-72.03
-74.81
-74.6
-70.5
-62.26
-50.33
-35.86
-20.39
-5.41
7.87
18.82
27.3
33.52
37.81
40.5
41.8
41.9
41.04
39.58
37.9
36.31
35.03
34.08
33.48
33.2
33.24
33.55
34.03
34.5
34.71
34.47
33.74
32.62
31.26
29.83
28.43
27.07
25.73
24.37
22.95
21.43
19.75
17.9
15.88
13.74
11.57
9.42
7.32
5.21
3.02
0.68
-1.77
-4.26
-6.75
-9.28
-11.96
-14.89
-18.11
-21.47
-24.82
-27.99
-30.9
-33.61
-36.25
-39
-42.02
-45.49
-49.58
-54.36
-59.59
-64.63
-68.4
-69.59
-67.09
-60.33
-49.52
-35.6
-20.06
-4.47
9.84
22.02
31.73
39.01
44.09
47.2
48.58
48.49
47.24
45.24
42.94
40.75
38.9
37.46
36.38
35.58
34.99
34.63
34.48
34.5
34.58
34.55
34.24
33.48
32.18
30.36
28.14
25.76
23.45
21.42
19.72
18.26
16.86
15.3
13.44
11.29
9
6.73
4.67
2.87
1.3
-0.21
-1.89
-3.95
-6.51
-9.47
-12.58
-15.51
-18.04
-20.15
-22.03
-24.03
-26.46
-29.47
-32.99
-36.76
-40.44
-43.8
-46.75
-49.35
-51.78
-54.32
-57.3
-61.03
-65.71
-71.2
-76.92
-81.73
-84.15
-82.77
-76.64
-65.72
-50.88
-33.68
-15.88
0.98
15.83
28.09
37.6
44.44
48.89
51.28
52.05
51.66
50.51
48.9
47.03
45.09
43.23
41.64
40.44
39.68
39.37
39.38
39.58
39.78
39.84
39.62
38.97
37.82
36.18
34.15
31.9
29.64
27.51
25.53
23.64
21.68
19.57
17.32
15.05
12.96
11.17
9.71
8.44
7.18
5.77
4.17
2.45
0.72
-0.95
-2.58
-4.3
-6.22
-8.32
-10.51
-12.6
-14.51
-16.26
-17.98
-19.93
-22.29
-25.14
-28.42
-31.95
-35.52
-38.9
-41.99
-44.79
-47.4
-50.06
-53.08
-56.76
-61.27
-66.49
-71.89
-76.5
-79.03
-78.2
-73.1
-63.53
-50.17
-34.32
-17.63
-1.66
12.45
24.14
33.35
40.31
45.36
48.74
50.63
51.21
50.69
49.36
47.55
45.55
43.52
41.55
39.66
37.92
36.44
35.36
34.72
34.44
34.29
34
33.36
32.31
30.93
29.33
27.62
25.85
23.99
21.99
19.87
17.68
15.47
13.27
11.06
8.83
6.62
4.49
2.56
0.89
-0.52
-1.77
-3.02
-4.4
-6
-7.86
-9.99
-12.41
-15.1
-18.05
-21.14
-24.26
-27.25
-30.04
-32.62
-35.05
-37.41
-39.74
-42.02
-44.3
-46.79
-49.85
-53.84
-58.84
-64.36
-69.26
-72.01
-71.19
-66
-56.63
-44.09
-29.9
-15.55
-2.17
9.52
19.22
26.76
32.13
35.44
36.97
37.1
36.27
34.9
33.27
31.63
30.15
29.01
28.38
28.38
28.98
30.02
31.25
32.35
33.07
33.19
32.57
31.17
29.08
26.52
23.8
21.23
18.95
16.95
15.01
12.9
10.44
7.67
4.78
1.99
-0.55
-2.94
-5.34
-7.93
-10.83
-13.96
-17.16
-20.3
-23.25
-26.01
-28.65
-31.32
-34.21
-37.59
-41.66
-46.46
-51.67
-56.56
-60.08
-61.08
-58.66
-52.43
-42.7
-30.31
-16.49
-2.53
10.5
21.89
31.3
38.67
44.07
47.55
49.16
48.96
47.21
44.35
41
37.81
35.24
33.47
32.38
31.72
31.23
30.81
30.47
30.3
30.34
30.43
30.31
29.67
28.28
26.17
23.54
20.69
17.9
15.28
12.76
10.19
7.43
4.45
1.32
-1.83
-4.9
-7.83
-10.62
-13.3
-15.91
-18.51
-21.2
-24.03
-27.04
-30.18
-33.32
-36.34
-39.17
-41.81
-44.33
-46.91
-49.75
-53.1
-57.19
-61.99
-67.16
-71.83
-74.72
-74.47
-70.1
-61.27
-48.57
-33.25
-16.91
-1.09
13.05
24.82
33.99
40.65
45.01
47.4
48.18
47.79
46.71
45.45
44.41
43.78
43.54
43.46
43.28
42.85
42.2
41.48
40.86
40.35
39.85
39.14
38.04
36.41
34.27
31.72
28.95
26.24
23.82
21.84
20.27
18.92
17.55
15.96
14.08
12.03
10
8.13
6.46
4.9
3.25
1.34
-0.92
-3.5
-6.29
-9.03
-11.5
-13.53
-15.16
-16.61
-18.27
-20.52
-23.52
-27.18
-31.19
-35.14
-38.72
-41.79
-44.48
-47.03
-49.75
-52.96
-56.86
-61.44
-66.35
-70.75
-73.35
-72.74
-67.79
-58.18
-44.54
-28.41
-11.69
3.89
17.19
27.85
36.03
42.11
46.44
49.24
50.64
50.85
50.23
49.21
48.15
47.22
46.39
45.51
44.49
43.37
42.28
41.37
40.69
40.11
39.45
38.47
37.08
35.23
33.01
30.59
28.18
26.03
24.31
23.08
22.27
21.65
20.91
19.8
18.17
15.96
13.24
10.22
7.14
4.29
1.84
-0.19
-1.9
-3.46
-4.96
-6.36
-7.55
-8.47
-9.22
-10.05
-11.21
-12.83
-14.86
-17.06
-19.19
-21.14
-22.92
-24.67
-26.51
-28.52
-30.7
-33.04
-35.48
-38
-40.54
-43
-45.25
-47.2
-48.89
-50.56
-52.59
-55.38
-59.16
-63.72
-68.33
-71.81
-72.81
-70.25
-63.66
-53.37
-40.41
-26.18
-12.04
0.98
12.25
21.51
28.68
33.79
36.93
38.35
38.43
37.7
36.65
35.69
34.98
34.6
34.52
34.71
35.17
35.84
36.58
37.15
37.32
36.94
36
34.58
32.86
31.02
29.19
27.43
25.79
24.25
22.76
21.27
19.73
18.12
16.44
14.69
12.89
10.99
9.03
7.06
5.16
3.41
1.83
0.37
-1.13
-2.87
-5.02
-7.62
-10.56
-13.62
-16.53
-19.1
-21.34
-23.44
-25.7
-28.32
-31.3
-34.45
-37.46
-40.12
-42.43
-44.6
-46.93
-49.72
-53.2
-57.45
-62.36
-67.57
-72.4
-75.83
-76.73
-74.12
-67.53
-57.18
-43.96
-29.14
-14.08
0.09
12.6
23.03
31.22
37.17
41.01
42.98
43.44
42.85
41.7
40.39
39.17
38.15
37.27
36.44
35.63
34.86
34.22
33.78
33.52
33.32
32.99
32.32
31.21
29.72
27.99
26.21
24.54
23
21.52
19.99
18.32
16.56
14.87
13.39
12.21
11.29
10.45
9.52
8.39
7.04
5.58
4.15
2.84
1.7
0.72
-0.15
-0.98
-1.89
-2.98
-4.31
-5.83
-7.41
-8.87
-10.07
-10.99
-11.8
-12.77
-14.18
-16.14
-18.57
-21.24
-23.89
-26.34
-28.6
-30.83
-33.26
-36.02
-39.11
-42.39
-45.71
-48.93
-51.98
-54.89
-57.79
-60.88
-64.48
-68.85
-74.05
-79.69
-84.83
-88.14
-88.14
-83.73
-74.6
-61.31
-45.15
-27.76
-10.69
4.92
18.35
29.32
37.76
43.75
47.52
49.43
49.98
49.75
49.24
48.76
48.39
48.07
47.64
47.04
46.35
45.71
45.31
45.18
45.25
45.26
44.91
43.99
42.49
40.55
38.49
36.61
35.1
33.96
33.04
32.11
30.97
29.53
27.84
26.01
24.14
22.28
20.43
18.6
16.82
15.16
13.64
12.23
10.83
9.33
7.68
5.92
4.15
2.49
0.96
-0.49
-2.01
-3.74
-5.8
-8.16
-10.71
-13.31
-15.85
-18.3
-20.74
-23.35
-26.24
-29.42
-32.8
-36.14
-39.28
-42.1
-44.64
-47.1
-49.73
-52.84
-56.64
-61.16
-66.11
-70.79
-74.17
-75.07
-72.44
-65.74
-55.02
-41.04
-25.05
-8.53
7.08
20.65
31.5
39.43
44.59
47.35
48.17
47.54
45.96
43.96
42.03
40.52
39.56
39.02
38.65
38.24
37.71
37.15
36.7
36.4
36.15
35.74
34.99
33.84
32.37
30.75
29.1
27.5
25.92
24.25
22.39
20.27
17.91
15.41
12.9
10.52
8.4
6.5
4.78
3.09
1.32
-0.62
-2.75
-5.01
-7.31
-9.5
-11.52
-13.34
-15.04
-16.77
-18.66
-20.73
-22.89
-25
-26.93
-28.65
-30.28
-32.05
-34.21
-36.95
-40.39
-44.48
-48.97
-53.29
-56.57
-57.71
-55.7
-49.9
-40.37
-27.86
-13.68
0.71
14.04
25.45
34.5
41.08
45.23
47.1
46.94
45.18
42.4
39.23
36.25
33.83
32.09
30.91
30.09
29.46
28.92
28.49
28.17
27.98
27.87
27.73
27.43
26.81
25.75
24.22
22.25
19.94
17.5
15.1
12.88
10.84
8.91
6.89
4.65
2.12
-0.67
-3.59
-6.58
-9.55
-12.48
-15.32
-18.04
-20.6
-23.07
-25.59
-28.33
-31.39
-34.69
-38.02
-41.14
-43.92
-46.41
-48.86
-51.59
-54.94
-59.17
-64.29
-69.97
-75.46
-79.55
-80.88
-78.21
-70.94
-59.29
-44.3
-27.53
-10.63
5.01
18.51
29.44
37.75
43.58
47.26
49.2
49.82
49.58
48.82
47.79
46.62
45.37
44.1
42.91
41.94
41.27
40.89
40.65
40.32
39.69
38.66
37.25
35.59
33.82
32
30.14
28.23
26.27
24.31
22.39
20.55
18.75
16.95
15.12
13.24
11.28
9.22
7.05
4.73
2.25
-0.37
-3.06
-5.74
-8.33
-10.77
-13.02
-15.09
-17.09
-19.21
-21.72
-24.76
-28.3
-32.12
-35.87
-39.29
-42.26
-44.91
-47.53
-50.47
-54.01
-58.25
-63.06
-67.98
-72.15
-74.42
-73.57
-68.63
-59.32
-46.14
-30.34
-13.56
2.57
16.81
28.41
37.23
43.46
47.49
49.72
50.52
50.21
49.12
47.53
45.75
43.99
42.35
40.8
39.3
37.84
36.47
35.31
34.41
33.73
33.1
32.31
31.19
29.71
27.94
26.02
24.12
22.33
20.68
19.17
17.72
16.22
14.53
12.55
10.24
7.69
5.11
2.75
0.8
-0.77
-2.14
-3.62
-5.41
-7.58
-9.99
-12.4
-14.58
-16.45
-18.1
-19.74
-21.56
-23.72
-26.24
-29.01
-31.91
-34.78
-37.51
-40.06
-42.46
-44.84
-47.41
-50.43
-54.08
-58.33
-62.82
-66.73
-68.9
-68.15
-63.62
-55.12
-43.23
-29.16
-14.36
-0.21
12.35
22.8
31.03
37.09
41.11
43.17
43.45
42.23
39.99
37.31
34.72
32.59
31.06
30.08
29.52
29.3
29.39
29.81
30.49
31.21
31.65
31.49
30.53
28.82
26.59
24.2
21.94
19.98
18.26
16.54
14.58
12.16
9.22
5.89
2.41
-0.99
-4.11
-6.92
-9.53
-12.1
-14.8
-17.74
-20.93
-24.31
-27.79
-31.24
-34.54
-37.63
-40.55
-43.5
-46.85
-51.01
-56.21
-62.26
-68.44
-73.47
-75.84
-74.25
-68
-57.29
-43.11
-26.98
-10.48
5.06
18.78
30.27
39.42
46.25
50.83
53.31
53.91
53.02
51.2
48.99
46.84
44.97
43.4
42.03
40.81
39.76
38.96
38.48
38.25
38.03
37.51
36.43
34.71
32.43
29.8
27.05
24.35
21.81
19.44
17.21
15.09
13
10.93
8.88
6.92
5.12
3.5
1.97
0.39
-1.43
-3.59
-6.05
-8.72
-11.43
-14.08
-16.63
-19.13
-21.7
-24.51
-27.69
-31.25
-35.11
-39.06
-42.8
-46.08
-48.8
-51.13
-53.4
-56.1
-59.67
-64.29
-69.78
-75.38
-79.85
-81.61
-79.22
-71.77
-59.29
-42.81
-24.1
-5.21
12.03
26.39
37.38
45.07
49.94
52.57
53.49
53.16
51.96
50.21
48.21
46.24
44.47
43.02
41.91
41.09
40.48
40.01
39.62
39.25
38.86
38.35
37.6
36.49
34.97
33.1
31.03
28.97
27.07
25.42
23.9
22.38
20.68
18.77
16.77
14.87
13.22
11.86
10.7
9.55
8.28
6.79
5.13
3.35
1.49
-0.48
-2.61
-4.89
-7.25
-9.58
-11.79
-13.86
-15.86
-17.89
-20
-22.22
-24.6
-27.23
-30.24
-33.7
-37.51
-41.45
-45.16
-48.4
-51.09
-53.38
-55.56
-58.01
-61.06
-64.95
-69.67
-74.79
-79.34
-81.94
-81.05
-75.56
-65.16
-50.57
-33.33
-15.37
1.56
16.27
28.22
37.39
43.98
48.24
50.35
50.58
49.3
47.09
44.62
42.43
40.83
39.75
38.97
38.25
37.53
36.94
36.62
36.61
36.68
36.54
35.88
34.62
32.89
30.92
28.96
27.12
25.42
23.83
22.33
20.93
19.59
18.23
16.71
14.94
12.95
10.85
8.8
6.94
5.26
3.67
2
0.09
-2.09
-4.51
-7.04
-9.57
-12.03
-14.37
-16.66
-19
-21.58
-24.49
-27.81
-31.42
-35.11
-38.61
-41.75
-44.57
-47.33
-50.48
-54.44
-59.35
-64.91
-70.29
-74.25
-75.45
-72.77
-65.65
-54.33
-39.78
-23.5
-7.11
8.01
20.89
31.08
38.51
43.31
45.74
46.11
44.83
42.44
39.59
36.86
34.72
33.42
32.9
32.95
33.28
33.59
33.72
33.59
33.17
32.48
31.5
30.19
28.55
26.6
24.42
22.13
19.88
17.76
15.82
14.03
12.31
10.54
8.63
6.56
4.33
1.97
-0.49
-3.05
-5.7
-8.41
-11.12
-13.75
-16.24
-18.59
-20.88
-23.25
-25.83
-28.66
-31.66
-34.66
-37.47
-40
-42.33
-44.75
-47.66
-51.41
-56.16
