58.32
56.77
55.55
54.71
54.03
53.21
52.09
50.73
49.35
48.18
47.28
46.49
45.46
43.88
41.58
38.66
35.38
32.11
29.12
26.53
24.3
22.29
20.36
18.42
16.45
14.49
12.59
10.8
9.12
7.56
6.07
4.59
3.03
1.34
-0.51
-2.45
-4.37
-6.13
-7.65
-8.98
-10.23
-11.58
-13.2
-15.2
-17.57
-20.23
-23.03
-25.82
-28.45
-30.86
-33.11
-35.37
-37.86
-40.79
-44.19
-47.93
-51.72
-55.24
-58.31
-61.03
-63.75
-67.04
-71.51
-77.52
-84.95
-92.96
-100
-104.07
-103.27
-96.41
-83.44
-65.47
-44.48
-22.69
-2
16.3
31.59
43.72
52.77
58.96
62.58
64.06
63.97
62.9
61.41
59.87
58.43
57.07
55.65
54.02
52.12
50.03
47.9
45.94
44.25
42.78
41.38
39.8
37.87
35.52
32.85
30.07
27.36
24.84
22.51
20.31
18.19
16.15
14.27
12.66
11.38
10.39
9.57
8.81
8.04
7.28
6.62
6.13
5.8
5.54
5.27
4.93
4.58
4.31
4.16
4.06
3.75
2.94
1.41
-0.85
-3.6
-6.47
-9.14
-11.44
-13.44
-15.39
-17.55
-20.11
-23.06
-26.26
-29.41
-32.29
-34.76
-36.88
-38.9
-41.16
-44.03
-47.82
-52.68
-58.46
-64.56
-69.89
-72.97
-72.27
-66.68
-55.91
-40.71
-22.65
-3.69
14.36
30.21
43.19
53.11
60.02
64.02
65.27
64.1
61.03
56.86
52.41
48.36
45.07
42.5
40.42
38.52
36.66
34.9
33.4
32.29
31.56
30.98
30.21
28.91
26.93
24.28
21.25
18.2
15.47
13.19
11.23
9.3
7.08
4.46
1.61
-1.11
-3.35
-5.03
-6.33
-7.67
-9.44
-11.8
-14.65
-17.73
-20.74
-23.52
-26.1
-28.6
-31.22
-34.13
-37.4
-41.01
-44.84
-48.68
-52.33
-55.69
-58.84
-62.07
-65.79
-70.45
-76.41
-83.75
-92.11
-100.51
-107.4
-110.86
-109.16
-101.31
-87.47
-68.97
-47.84
-26.2
-5.71
12.7
28.63
41.98
52.61
60.36
65.17
67.3
67.34
66.04
64.11
61.92
59.6
57.06
54.29
51.42
48.74
46.52
44.88
43.71
42.73
41.6
40.07
38.07
35.63
32.9
30.02
27.06
24.02
20.83
17.42
13.79
10.11
6.72
4.08
2.56
2.27
3
4.25
5.57
6.68
7.65
8.75
10.24
12.16
14.21
15.94
16.89
16.84
15.8
13.95
11.5
8.64
5.54
2.42
-0.44
-2.85
-4.82
-6.63
-8.8
-11.8
-15.79
-20.46
-25.13
-29.12
-32.05
-34.05
-35.67
-37.6
-40.3
-43.85
-47.97
-52.25
-56.37
-60.19
-63.79
-67.32
-71.01
-75.13
-80.12
-86.41
-94.32
-103.64
-113.43
-122.02
-127.28
-127.23
-120.6
-107.23
-88.17
-65.34
-41.06
-17.51
3.67
21.56
35.83
46.53
53.93
58.34
60.19
60.06
58.73
57.04
55.64
54.81
54.44
54.16
53.66
52.86
51.94
51.13
50.56
50.14
49.59
48.68
47.36
45.74
44.08
42.6
41.39
40.42
39.54
38.56
37.27
35.55
33.39
30.93
28.41
26.08
24.14
22.58
21.28
20
18.49
16.56
14.07
10.96
7.19
2.79
-2.15
-7.46
-12.92
-18.3
-23.43
-28.32
-33.11
-38.03
-43.25
-48.74
-54.25
-59.31
-63.42
-66.27
-67.89
-68.68
-69.3
-70.49
-72.92
-76.99
-82.66
-89.35
-95.8
-100.34
-101.13
-96.73
-86.53
-70.97
-51.41
-29.78
-8.05
12.17
29.74
44.04
54.81
62.06
66.02
67.13
66.07
63.65
60.72
58.05
56.21
55.43
55.66
56.6
57.84
58.97
59.66
59.77
59.22
58.04
56.29
54.04
51.35
48.24
44.7
40.69
36.23
31.46
26.65
22.17
18.32
15.23
12.79
10.64
8.38
5.74
2.66
-0.68
-4.03
-7.22
-10.21
-13.15
-16.23
-19.58
-23.25
-27.13
-31.08
-34.9
-38.42
-41.54
-44.35
-47.15
-50.44
-54.78
-60.57
-67.77
-75.71
-83.08
-88.12
-89
-84.33
-73.57
-57.19
-36.64
-13.96
8.6
29.13
46.33
59.67
69.23
75.5
79.06
80.38
79.78
77.48
73.8
69.19
64.2
59.32
54.92
51.17
48.19
46.1
45.04
44.98
45.62
46.35
46.5
45.57
43.51
40.77
38.05
35.97
34.72
34.01
33.21
31.68
29.05
25.4
21.25
17.27
14.02
11.72
10.16
8.87
7.3
5.09
2.22
-1.04
-4.23
-6.94
-8.94
-10.3
-11.31
-12.35
-13.75
-15.62
-17.89
-20.34
-22.8
-25.24
-27.82
-30.88
-34.86
-40.16
-46.92
-54.8
-62.78
-69.24
-72.24
-70.15
-62.12
-48.41
-30.34
-9.84
11.04
30.52
47.33
60.68
70.23
76.09
78.73
78.93
77.52
75.18
72.22
68.69
64.5
59.73
54.62
49.66
45.34
42.01
39.77
38.48
37.87
37.59
37.35
36.95
36.28
35.25
33.86
32.05
29.81
27.16
24.19
21.06
17.9
14.77
11.61
8.32
4.78
0.98
-2.97
-6.91
-10.68
-14.22
-17.61
-20.98
-24.52
-28.33
-32.39
-36.56
-40.66
-44.58
-48.31
-51.98
-55.74
-59.67
-63.73
-67.72
-71.46
-74.87
-78.12
-81.59
-85.78
-91.16
-97.87
-105.51
-113.03
-118.76
-120.83
-117.62
-108.33
-93.3
-73.86
-51.99
-29.69
-8.58
10.36
26.62
39.98
50.3
57.5
61.65
63.07
62.37
60.33
57.66
54.88
52.24
49.79
47.52
45.46
43.67
42.21
40.99
39.8
38.37
36.47
34.02
31.08
27.79
24.28
20.61
16.78
12.8
8.74
4.68
0.7
-3.18
-7.01
-10.9
-14.93
-19.18
-23.57
-27.98
-32.22
-36.13
-39.66
-42.91
-46.18
-49.9
-54.53
-60.42
-67.63
-75.75
-83.74
-90.08
-92.93
-90.73
-82.57
-68.6
-50.01
-28.72
-6.87
13.66
31.59
46.28
57.61
65.73
70.91
73.42
73.62
71.96
68.96
65.14
60.97
56.75
52.64
48.71
45.04
41.78
39.07
37.03
35.62
34.63
33.73
32.59
31
28.86
26.19
23.05
19.47
15.5
11.2
6.69
2.17
-2.16
-6.18
-9.91
-13.56
-17.41
-21.69
-26.46
-31.59
-36.76
-41.69
-46.21
-50.36
-54.42
-58.85
-64.14
-70.66
-78.46
-87
-95.09
-100.94
-102.54
-98.3
-87.5
-70.71
-49.6
-26.52
-3.81
16.72
34.04
47.82
58.15
65.3
69.58
71.3
70.9
68.89
65.86
62.32
58.64
55.02
51.55
48.34
45.5
43.22
41.62
40.7
40.23
39.84
39.12
37.76
35.69
32.99
29.88
26.53
23.03
19.38
15.56
11.57
7.49
3.43
-0.5
-4.24
-7.85
-11.46
-15.26
-19.45
-24.15
-29.34
-34.81
-40.2
-45.17
-49.5
-53.22
-56.66
-60.35
-64.88
-70.7
-77.88
-85.9
-93.53
-98.99
-100.31
-95.87
-85.02
-68.25
-47.19
-24.08
-1.2
19.63
37.31
51.36
61.73
68.59
72.23
73.08
71.69
68.76
64.96
60.89
56.95
53.35
50.15
47.35
44.94
42.96
41.39
40.24
39.43
38.81
38.16
37.2
35.7
33.55
30.8
27.67
24.45
21.29
18.19
14.88
11.05
6.51
1.34
-4.05
-9.14
-13.54
-17.14
-20.21
-23.17
-26.41
-30.08
-34.05
-38.06
-41.82
-45.23
-48.4
-51.61
-55.28
-59.82
-65.54
-72.43
-80.01
-87.18
-92.33
-93.67
-89.71
-79.78
-64.34
-44.91
-23.65
-2.74
16.16
32.12
44.9
54.56
61.25
65.01
65.95
64.4
61.01
56.66
52.21
48.2
44.78
41.82
39.14
36.71
34.7
33.34
32.67
32.48
32.25
31.44
29.62
26.67
22.8
18.46
14.14
10.15
6.59
3.29
-0.09
-3.88
-8.31
-13.38
-18.88
-24.44
-29.7
-34.43
-38.65
-42.63
-46.86
-51.87
-58.09
-65.57
-73.82
-81.71
-87.59
-89.65
-86.42
-77.28
-62.7
-44.14
-23.62
-3.2
15.53
31.58
44.5
54.12
60.41
63.41
63.35
60.79
56.56
51.61
46.74
42.42
38.74
35.57
32.76
30.25
28.14
26.6
25.68
25.25
24.97
24.37
23.05
20.78
17.61
13.82
9.8
5.9
2.21
-1.37
-5.15
-9.41
-14.26
-19.56
-24.97
-30.12
-34.72
-38.75
-42.44
-46.27
-50.82
-56.64
-64.03
-72.79
-82.05
-90.25
-95.43
-95.67
-89.76
-77.53
-60.03
-39.18
-17.21
3.94
22.9
38.96
51.86
61.5
67.85
70.94
70.99
68.55
64.4
59.43
54.44
49.94
46.12
42.92
40.19
37.81
35.8
34.24
33.18
32.56
32.07
31.25
29.66
27.01
23.37
19.11
14.72
10.63
6.95
3.48
-0.25
-4.64
-9.82
-15.62
-21.59
-27.22
-32.15
-36.26
-39.73
-42.95
-46.46
-50.81
-56.44
-63.46
-71.43
-79.27
-85.31
-87.63
-84.63
-75.52
-60.68
-41.56
-20.32
0.8
20
36.23
49.11
58.69
65.12
68.54
69.1
67.1
63.13
58.03
52.75
48.08
44.45
41.86
40.01
38.49
37.02
35.51
34.04
32.74
31.63
30.53
29.1
26.98
23.95
20.02
15.46
10.7
6.1
1.91
-1.89
-5.46
-9.07
-12.93
-17.11
-21.54
-26.01
-30.28
-34.13
-37.45
-40.32
-43.02
-46
-49.83
-55.07
-61.99
-70.35
-79.2
-86.93
-91.52
-91.11
-84.62
-72.07
-54.66
-34.34
-13.28
6.68
24.3
38.91
50.22
58.12
62.57
63.73
62
58.13
53.09
47.91
43.41
40
37.68
36.12
34.9
33.73
32.56
31.5
30.7
30.13
29.54
28.51
26.63
23.67
19.71
15.12
10.45
6.19
2.62
-0.3
-2.9
-5.66
-8.92
-12.81
-17.08
-21.31
-25.03
-27.97
-30.22
-32.22
-34.6
-38.03
-42.95
-49.38
-56.8
-64.13
-69.87
-72.38
-70.34
-63.05
-50.76
-34.56
-16.18
2.47
19.75
34.51
46.15
54.48
59.49
61.29
60.13
56.47
51.08
44.99
39.23
34.63
31.55
29.82
28.95
28.37
27.73
26.97
26.27
25.78
25.49
25.06
24
21.87
18.46
13.93
8.73
3.42
-1.56
-6.02
-10.05
-13.95
-18.07
-22.65
-27.71
-33.04
-38.26
-42.95
-46.85
-49.96
-52.61
-55.43
-59.15
-64.43
-71.56
-80.19
-89.17
-96.66
-100.46
-98.62
-90.03
-74.84
-54.44
-31.1
-7.3
14.8
33.75
48.82
59.88
67.12
70.91
71.69
70.08
66.81
62.66
58.4
54.55
51.4
48.94
47.08
45.66
44.65
44.03
43.75
43.66
43.44
42.74
41.29
38.96
35.84
32.15
28.19
24.22
20.38
16.64
12.84
8.78
4.36
-0.31
-4.93
-9.12
-12.62
-15.44
-17.92
-20.55
-23.82
-27.93
-32.77
-37.91
-42.85
-47.15
-50.64
-53.5
-56.24
-59.6
-64.34
-70.93
-79.24
-88.23
-96.01
-100.2
-98.63
-90
-74.46
-53.57
-29.83
-5.92
15.93
34.37
48.88
59.48
66.44
70.12
70.95
69.54
66.67
63.19
59.85
57.09
55.07
53.65
52.62
51.78
51.11
50.72
50.72
51.11
51.7
52.03
51.59
49.95
46.97
42.85
38.08
33.23
28.8
25.01
21.8
18.94
16.12
13.13
9.97
6.74
3.68
0.94
-1.44
-3.66
-6.06
-8.92
-12.33
-16.1
-19.8
-23.05
-25.67
-27.87
-30.1
-32.85
-36.42
-40.73
-45.43
-49.98
-53.95
-57.16
-59.77
-62.27
-65.38
-69.81
-76.05
-83.98
-92.64
-100.24
-104.51
-103.31
-95.37
-80.73
-60.8
-37.93
-14.69
6.77
25.14
39.88
51.02
58.77
63.33
64.92
63.94
61.06
57.21
53.38
50.3
48.33
47.36
47.02
46.88
46.7
46.47
46.25
46.06
45.77
45.11
43.77
41.56
38.55
34.95
31.13
27.49
24.27
21.54
19.16
16.78
14.01
10.57
6.43
1.82
-2.85
-7.18
-10.94
-14.19
-17.18
-20.28
-23.76
-27.69
-31.92
-36.17
-40.16
-43.75
-47
-50.16
-53.65
-57.91
-63.3
-69.95
-77.54
-85.13
-91.15
-93.67
-90.95
-82.01
-67.12
-47.76
-26.25
-4.95
14.3
30.51
43.39
53.03
59.55
63.06
63.78
62.17
59.04
55.34
51.9
49.21
47.36
46.17
45.4
44.92
44.69
44.72
44.92
45.05
44.79
43.85
42.09
39.51
36.32
32.8
29.26
25.97
23.04
20.44
18.02
15.56
12.92
10.1
7.24
4.5
1.96
-0.48
-3.01
-5.84
-9.04
-12.51
-16.02
-19.33
-22.35
-25.14
-27.95
-31.07
-34.72
-38.94
-43.58
-48.33
-52.85
-56.87
-60.33
-63.44
-66.68
-70.68
-76.07
-83.18
-91.75
-100.72
-108.28
-112.14
-110.24
-101.34
-85.58
-64.48
-40.54
-16.5
5.39
23.84
38.49
49.65
57.81
63.38
66.59
67.7
67.09
65.41
63.37
61.58
60.35
59.66
59.26
58.9
58.42
57.84
57.24
56.65
56.01
55.13
53.79
51.86
49.3
46.26
43
39.8
36.92
34.49
32.48
30.66
28.72
26.4
23.65
20.66
17.8
15.45
13.8
12.72
11.84
10.66
8.84
6.33
3.39
0.44
-2.14
-4.21
-5.87
-7.43
-9.19
-11.38
-14.01
-16.95
-19.97
-22.83
-25.41
-27.73
-29.98
-32.5
-35.63
-39.58
-44.26
-49.28
-54.09
-58.23
-61.5
-64.12
-66.66
-69.87
-74.42
-80.74
-88.74
-97.6
-105.76
-111.1
-111.4
-105.03
-91.61
-72.19
-49
-24.76
-1.94
17.84
33.88
46.21
55.16
61.11
64.45
65.6
65.17
63.88
62.45
61.45
61.12
61.35
61.76
61.92
61.48
60.36
58.69
56.77
54.87
53.11
51.38
49.41
46.96
43.94
40.5
36.96
33.7
30.96
28.81
27.07
25.46
23.72
21.71
19.48
17.26
15.32
13.86
12.89
12.21
11.48
10.39
8.79
6.74
4.5
2.39
0.58
-0.89
-2.15
-3.42
-4.89
-6.64
-8.64
-10.78
-12.93
-15.01
-17.04
-19.2
-21.75
-24.96
-28.95
-33.61
-38.63
-43.59
-48.11
-51.99
-55.29
-58.34
-61.61
-65.64
-70.88
-77.5
-85.13
-92.73
-98.64
-100.93
-97.93
-88.87
-74.18
-55.41
-34.77
-14.45
3.94
19.54
32.1
41.7
48.42
52.34
53.62
52.71
50.34
47.43
44.82
43.04
42.25
42.26
42.77
43.51
44.3
45.06
45.74
46.26
46.46
46.15
45.19
43.45
40.96
37.88
34.45
30.92
27.51
24.3
21.25
18.27
15.32
12.4
9.56
6.85
4.22
1.58
-1.21
-4.2
-7.37
-10.59
-13.73
-16.76
-19.79
-23.06
-26.84
-31.23
-36.1
-41.08
-45.71
-49.64
-52.88
-55.81
-59.06
-63.35
-69.2
-76.74
-85.54
-94.54
-102.08
-106.19
-105
-97.32
-83.17
-63.85
-41.69
-19.3
1.13
18.32
32.01
42.57
50.54
56.29
59.94
61.54
61.32
59.8
57.67
55.61
54.02
52.97
52.27
51.64
50.94
50.2
49.56
49.19
49.1
49.07
48.76
47.74
45.77
42.88
39.37
35.73
32.42
29.67
27.42
25.42
23.4
21.17
18.71
16.06
13.34
10.63
8.02
5.64
3.61
1.95
0.52
-0.96
-2.85
-5.38
-8.55
-12.13
-15.76
-19.14
-22.17
-25.01
-27.96
-31.42
-35.63
-40.56
-45.94
-51.22
-55.89
-59.57
-62.31
-64.55
-67.12
-70.91
-76.61
-84.4
-93.69
-103.12
-110.67
-114.15
-111.7
-102.41
-86.66
-66.04
-42.98
-20.03
0.74
18.19
32.01
42.47
50.04
55.12
58.02
59.12
58.94
58.11
57.24
56.72
56.6
56.69
56.7
56.44
55.96
55.5
55.3
55.49
55.95
56.36
56.29
55.39
53.54
50.86
47.65
44.31
41.18
38.45
36.12
34
31.88
29.58
27.08
24.51
22.07
19.87
17.88
15.9
13.7
11.15
8.36
5.59
3.12
1.09
-0.62
-2.34
-4.45
-7.15
-10.42
-14
-17.5
-20.67
-23.44
-25.98
-28.58
-31.56
-35.07
-39.05
-43.27
-47.4
-51.11
-54.26
-56.94
-59.51
-62.57
-66.79
-72.74
-80.55
-89.69
-98.82
-106
-109.08
-106.37
-97.16
-82
-62.57
-41.15
-19.95
-0.6
16.06
29.81
40.74
48.95
54.43
57.23
57.62
56.21
53.93
51.73
50.33
50.01
50.6
51.67
52.74
53.53
53.99
54.21
54.25
54.06
53.46
52.21
50.25
47.68
44.77
41.87
39.21
36.88
34.78
32.69
30.42
27.85
25.04
22.14
19.32
16.72
14.3
11.93
9.38
6.47
3.14
-0.51
-4.28
-7.92
-11.3
-14.41
-17.42
-20.57
-24.09
-28.08
-32.49
-37.06
-41.51
-45.57
-49.14
-52.38
-55.67
-59.58
-64.64
-71.13
-78.8
-86.68
-93.1
-96.1
-93.91
-85.58
-71.37
-52.74
-31.91
-11.2
7.56
23.39
36.08
45.87
53.08
57.9
60.37
60.65
59.09
56.34
53.24
50.5
48.59
47.56
47.14
46.96
46.7
46.25
45.66
45
44.27
43.31
41.88
39.79
37.03
33.85
30.63
27.73
25.38
23.55
22.08
20.7
19.18
17.41
15.36
13.09
10.67
8.26
6
4.05
2.47
1.19
0.01
-1.39
-3.23
-5.64
-8.54
-11.74
-14.99
-18.11
-21.04
-23.9
-26.89
-30.22
-34.03
-38.28
-42.76
-47.13
-51.08
-54.45
-57.35
-60.17
-63.47
-67.89
-73.88
-81.53
-90.37
-99.25
-106.35
-109.6
-107.19
-98.15
-82.86
-62.9
-40.69
-18.72
1.1
17.75
31.06
41.34
48.99
54.33
57.57
58.99
59.03
58.29
57.34
56.61
56.24
56.16
56.14
56.01
55.7
55.29
54.94
54.74
54.62
54.36
53.63
52.1
49.63
46.35
42.63
38.98
35.83
33.37
31.48
29.78
27.86
25.42
22.42
19.09
15.78
12.82
10.4
8.49
6.89
5.3
3.47
1.32
-1.09
-3.57
-5.89
-7.93
-9.7
-11.37
-13.16
-15.3
-17.88
-20.83
-23.91
-26.81
-29.31
-31.38
-33.27
-35.39
-38.1
-41.5
-45.37
-49.27
-52.8
-55.83
-58.62
-61.72
-65.8
-71.38
-78.68
-87.4
-96.62
-104.79
-109.94
-110.09
-103.88
-91.05
-72.68
-50.88
-28.19
-6.89
11.57
26.58
38.26
46.97
53.1
56.92
58.68
58.79
57.78
56.33
54.95
53.92
53.2
52.54
51.69
50.56
49.29
48.14
47.34
46.93
46.66
46.11
44.87
42.66
39.54
35.82
32
28.55
25.76
23.61
21.87
20.23
18.5
16.68
14.91
13.37
12.09
10.95
9.76
8.39
6.83
5.22
3.72
2.39
1.16
-0.14
-1.7
-3.57
-5.68
-7.89
-10.07
-12.17
-14.24
-16.42
-18.88
-21.7
-24.91
-28.4
-32
-35.48
-38.69
-41.57
-44.25
-46.97
-50.1
-54.05
-59.27
-65.97
-73.88
-82.01
-88.62
-91.58
-89.05
-80.17
-65.48
-46.76
-26.44
-6.77
10.72
25.39
37.2
46.28
52.68
56.36
57.42
56.29
53.71
50.61
47.81
45.8
44.74
44.49
44.75
45.26
45.82
46.31
46.67
46.82
46.66
46.03
44.79
42.83
40.2
37.06
33.7
30.46
27.62
25.29
23.41
21.76
20.03
17.97
15.46
12.59
9.58
6.74
4.32
2.42
0.86
-0.71
-2.73
-5.52
-9.1
-13.21
-17.37
-21.1
-24.2
-26.77
-29.22
-32.04
-35.55
-39.81
-44.56
-49.35
-53.73
-57.41
-60.36
-62.85
-65.38
-68.64
-73.27
-79.71
-87.83
-96.82
-105.08
-110.49
-110.95
-104.97
-92.26
-73.82
-51.75
-28.59
-6.64
12.56
28.41
40.98
50.66
57.82
62.7
65.49
66.46
66.11
65.06
63.89
63.01
62.5
62.23
61.99
61.6
61.05
60.44
59.86
59.35
58.75
57.81
56.21
53.78
50.54
46.8
43.04
39.71
37.1
35.14
33.51
31.81
29.77
27.34
24.7
22.12
19.8
17.8
16.03
14.33
12.54
10.57
8.39
6.07
3.72
1.46
-0.63
-2.6
-4.58
-6.83
-9.52
-12.72
-16.29
-19.9
-23.15
-25.78
-27.8
-29.58
-31.68
-34.65
-38.75
-43.78
-49.16
-54.21
-58.45
-61.81
-64.68
-67.7
-71.52
-76.65
-83.29
-91.25
-99.82
-107.63
-112.76
-113.11
-107.07
-94.13
-75.26
-52.68
-29.15
-7.12
11.86
27.32
39.52
49
56.13
61.06
63.88
64.83
64.44
63.41
62.36
61.67
61.32
61.07
60.62
59.86
58.95
58.13
57.65
57.47
57.28
56.61
55.08
52.57
49.26
45.59
42.01
38.84
36.15
33.84
31.68
29.44
27
24.37
21.68
19.08
16.7
14.58
12.66
10.77
8.73
6.43
3.85
1.12
-1.59
-4.07
-6.24
-8.15
-10
-12.02
-14.36
-17.01
-19.81
-22.53
-25.08
-27.53
-30.14
-33.2
-36.83
-40.93
-45.2
-49.28
-52.95
-56.19
-59.14
-62.14
-65.57
-69.89
-75.44
-82.35
-90.24
-98.03
-104.02
-106.18
-102.8
-93.06
-77.37
-57.3
-35.12
-13.12
6.91
23.96
37.7
48.2
55.63
60.16
61.98
61.45
59.25
56.23
53.3
51.1
49.91
49.59
49.79
50.12
50.28
50.18
49.86
49.39
48.84
48.23
47.46
46.38
44.84
42.72
40.04
36.98
33.85
30.93
28.36
26.11
24.01
21.92
19.74
17.49
15.19
12.78
10.1
6.97
3.29
-0.83
-5.1
-9.2
-12.94
-16.34
-19.58
-22.95
-26.59
-30.5
-34.49
-38.32
-41.81
-44.92
-47.8
-50.77
-54.25
-58.72
-64.52
-71.74
-79.97
-88.21
-94.86
-98.01
-95.96
-87.76
-73.58
-54.81
-33.59
-12.22
7.42
24.22
37.82
48.32
55.95
60.92
63.42
63.75
62.41
60.07
57.41
54.96
53.02
51.59
50.53
49.65
48.85
48.1
47.46
47
46.66
46.25
45.47
44.02
41.79
38.92
35.76
32.73
30.06
27.71
25.45
22.98
20.17
17.17
14.29
11.84
9.9
8.32
6.75
4.88
2.61
0.07
-2.47
-4.78
-6.81
-8.64
-10.45
-12.42
-14.58
-16.88
-19.23
-21.59
-24
-26.6
-29.57
-33.08
-37.19
-41.82
-46.77
-51.76
-56.49
-60.82
-64.74
-68.44
-72.25
-76.63
-82.05
-88.82
-96.87
-105.51
-113.27
-118.1
-117.86
-110.99
-97.14
-77.35
-53.79
-29.12
-5.73
14.81
31.81
45.34
55.79
63.52
68.82
71.86
72.93
72.45
70.97
69.07
67.1
65.23
63.41
61.54
59.6
57.7
56.02
54.69
53.72
52.96
52.16
51.07
49.5
47.4
44.86
42.12
39.5
37.27
35.56
34.25
33.02
31.49
29.39
26.69
23.61
20.52
17.72
15.37
13.44
11.73
10.04
8.24
6.32
4.34
2.39
0.5
-1.38
-3.29
-5.32
-7.48
-9.75
-12.04
-14.27
-16.35
-18.26
-19.96
-21.44
-22.7
-23.79
-24.87
-26.2
-28.12
-30.92
-34.8
-39.64
-45.12
-50.74
-56.02
-60.68
-64.81
-68.82
-73.4
-79.24
-86.73
-95.68
-105.11
-113.28
-118.02
-117.31
-109.91
-95.75
-76.02
-52.82
-28.56
-5.36
15.26
32.52
46.17
56.31
63.21
67.28
68.99
68.95
67.76
65.97
63.93
61.84
59.71
57.55
55.38
53.37
51.69
50.52
49.89
49.66
49.59
49.35
48.7
47.49
45.74
43.55
41.16
38.8
36.68
34.85
33.26
31.74
30.11
28.25
26.2
24.07
22.03
20.14
18.39
16.61
14.64
12.36
9.79
7.02
4.15
1.24
-1.8
-5.07
-8.62
-12.37
-16.09
-19.61
-22.85
-26
-29.35
-33.21
-37.69
-42.62
-47.64
-52.3
-56.29
-59.55
-62.33
-65.11
-68.61
-73.5
-80.21
-88.63
-97.85
-106.16
-111.39
-111.49
-105.12
-92.17
-73.74
-51.85
-28.86
-6.83
12.76
29.19
42.31
52.27
59.35
63.82
66.03
66.4
65.5
63.92
62.17
60.56
59.09
57.65
56.11
54.51
53.06
52.03
51.54
51.45
51.38
50.86
49.6
47.55
44.93
42.07
39.28
36.72
34.39
32.18
30.02
27.85
25.71
23.61
21.56
19.48
17.32
15.05
12.74
10.56
8.66
7.16
6.01
5.09
4.21
3.2
2.01
0.64
-0.92
-2.74
-4.84
-7.22
-9.7
-12.02
-13.97
-15.51
-16.85
-18.33
-20.27
-22.78
-25.7
-28.7
-31.48
-33.91
-36.11
-38.37
-41.01
-44.28
-48.24
-52.74
-57.49
-62.11
-66.31
-69.95
-73.21
-76.55
-80.66
-86.21
-93.53
-102.25
-111.14
-118.17
-121.02
-117.69
-107.26
-90.23
-68.35
-44.17
-20.21
1.54
19.99
34.8
46.15
54.46
60.17
63.73
65.57
66.15
65.93
65.33
64.64
64.03
63.46
62.82
61.98
60.93
59.84
58.97
58.49
58.35
58.22
57.61
56.13
53.67
50.47
47.01
43.77
41.05
38.88
37.02
35.18
33.11
30.73
28.11
25.44
22.92
20.66
18.71
16.97
15.34
13.7
12.03
10.39
8.9
7.63
6.56
5.54
4.35
2.83
0.93
-1.23
-3.43
-5.44
-7.12
-8.55
-9.94
-11.6
-13.75
-16.42
-19.42
-22.44
-25.2
-27.59
-29.69
-31.71
-33.89
-36.37
-39.13
-42.05
-44.98
-47.78
-50.37
-52.75
-55.04
-57.49
-60.49
-64.55
-70.04
-76.99
-84.78
-92.05
-96.86
-97.22
-91.67
-79.86
-62.67
-42.02
-20.25
0.57
19.01
34.45
46.78
56.15
62.67
66.45
67.7
66.88
64.69
61.98
59.48
57.6
56.41
55.7
55.16
54.59
53.94
53.34
52.94
52.79
52.75
52.55
51.82
50.28
47.8
44.47
40.56
36.43
32.41
28.68
25.27
22.09
19.05
16.14
13.47
11.21
9.44
8.15
7.15
6.2
5.04
3.57
1.79
-0.21
-2.27
-4.22
-5.94
-7.35
-8.46
-9.4
-10.41
-11.72
-13.51
-15.81
-18.5
-21.35
-24.11
-26.64
-28.97
-31.25
-33.7
-36.52
-39.76
-43.33
-47
-50.57
-53.94
-57.19
-60.62
-64.67
-69.89
-76.75
-85.51
-95.86
-106.74
-116.29
-122.14
-122.03
-114.58
-99.76
-79.02
-54.82
-29.92
-6.64
13.54
29.96
42.58
51.66
57.56
60.78
61.89
61.6
60.63
59.52
58.63
58.04
57.68
57.44
57.21
57
56.85
56.82
56.91
57.05
57.08
56.76
55.89
54.3
52
49.18
46.14
43.23
40.65
38.43
36.39
34.3
31.98
29.42
26.77
24.22
21.93
19.94
18.18
16.55
14.93
13.31
11.69
10.08
8.45
6.74
4.88
2.87
0.75
-1.36
-3.35
-5.16
-6.84
-8.54
-10.44
-12.66
-15.25
-18.12
-21.12
-24.12
-27.01
-29.84
-32.74
-35.9
-39.49
-43.54
-47.93
-52.4
-56.69
-60.57
-64.06
-67.35
-70.82
-74.97
-80.27
-87.07
-95.3
-104.29
-112.63
-118.26
-118.97
-113.09
-100.16
-81.18
-58.32
-34.23
-11.27
9.04
26.1
39.91
50.74
58.81
64.26
67.31
68.38
68.07
67.06
65.88
64.8
63.8
62.69
61.32
59.72
58.09
56.74
55.89
55.52
55.34
54.93
53.9
52.08
49.58
46.68
43.73
40.94
38.43
36.14
33.97
31.79
29.46
26.91
24.15
21.27
18.47
15.97
13.92
12.27
10.82
9.26
7.34
5.02
2.47
0.02
-2.02
-3.54
-4.68
-5.76
-7.14
-9.06
-11.52
-14.33
-17.21
-19.92
-22.37
-24.62
-26.85
-29.26
-31.99
-35.06
-38.43
-41.95
-45.44
-48.76
-51.82
-54.67
-57.57
-60.95
-65.36
-71.18
-78.38
-86.23
-93.22
-97.35
-96.68
-90
-77.23
-59.58
-39.14
-18.21
1.26
18.11
31.95
42.9
51.22
57.1
60.66
62.05
61.61
59.96
57.82
55.92
54.73
54.41
54.8
55.61
56.57
57.49
58.32
59.01
59.48
59.63
59.46
59.15
59.03
59.39
60.3
61.41
62.04
61.36
58.74
53.96
47.33
39.49
31.15
22.85
14.84
7.17
-0.17
-7.07
-13.32
-18.71
-23.11
-26.59
-29.4
-31.85
-34.18
-36.49
-38.71
-40.71
-42.37
-43.68
-44.82
-46.03
-47.58
-49.64
-52.17
-54.97
-57.72
-60.18
-62.22
-63.95
-65.73
-68.04
-71.46
-76.45
-83.2
-91.39
-99.99
-107.27
-111.14
-109.64
-101.67
-87.31
-67.93
-45.72
-23.09
-2
16.33
31.43
43.36
52.38
58.81
62.95
65.16
65.9
65.68
65
64.26
63.66
63.21
62.76
62.15
61.3
60.29
59.38
58.84
58.84
59.25
59.68
59.55
58.37
55.92
52.31
47.93
43.25
38.65
34.35
30.39
26.75
23.4
20.28
17.41
14.82
12.55
10.68
9.26
8.21
7.32
6.33
4.98
3.21
1.15
-0.88
-2.61
-3.91
-4.91
-5.94
-7.33
-9.33
-11.96
-15.06
-18.37
-21.61
-24.62
-27.36
-29.97
-32.67
-35.71
-39.21
-43.14
-47.28
-51.36
-55.17
-58.67
-62.08
-65.8
-70.35
-76.18
-83.48
-91.99
-100.83
-108.44
-112.85
-112.1
-104.89
-91.12
-72.01
-49.8
-27.07
-5.99
12.13
26.86
38.41
47.17
53.47
57.55
59.67
60.21
59.71
58.73
57.68
56.77
55.96
55.18
54.36
53.57
52.95
52.6
52.51
52.5
52.3
51.62
50.28
48.23
45.6
42.57
39.38
36.24
33.3
30.65
28.28
26.12
24.02
21.83
19.49
17.03
14.58
12.33
10.42
8.88
7.58
6.32
4.86
3
0.63
-2.25
-5.56
-9.11
-12.65
-15.95
-18.86
-21.38
-23.68
-26.02
-28.63
-31.63
-34.93
-38.31
-41.54
-44.48
-47.14
-49.66
-52.29
-55.32
-59.1
-63.95
-70.09
-77.36
-84.98
-91.52
-95.07
-93.82
-86.67
-73.7
-56.24
-36.4
-16.43
1.93
17.76
30.83
41.29
49.24
54.67
57.48
57.74
55.86
52.56
48.75
45.28
42.75
41.38
41.1
41.57
42.43
43.35
44.13
44.65
44.81
44.48
43.52
41.8
39.31
36.16
32.49
28.44
24.06
19.32
14.21
8.85
3.5
-1.5
-5.8
-9.22
-11.74
-13.47
-14.6
-15.24
-15.52
-15.59
-15.65
-15.96
-16.73
-18.01
-19.67
-21.43
-23
-24.26
-25.36
-26.7
-28.82
-32.27
-37.44
-44.5
-53.35
-63.42
-73.64
-82.37
-87.67
-87.8
-81.76
-69.69
-52.92
-33.55
-13.78
4.64
20.72
34.14
44.95
53.26
59.1
62.5
63.68
63.1
61.42
59.34
57.42
55.89
54.78
53.97
53.31
52.77
52.4
52.21
52.14
51.99
51.44
50.18
47.98
44.79
40.77
36.2
31.41
26.74
22.43
18.6
15.27
12.36
9.75
7.31
4.98
2.75
0.69
-1.14
-2.71
-4.14
-5.6
-7.33
-9.48
-12.07
-14.96
-17.91
-20.71
-23.3
-25.77
-28.38
-31.35
-34.82
-38.7
-42.77
-46.72
-50.34
-53.53
-56.4
-59.27
-62.6
-66.94
-72.73
-80.11
-88.61
-97.06
-103.6
-106.11
-102.82
-92.9
-76.82
-56.28
-33.72
-11.59
8.23
24.7
37.63
47.31
54.24
58.9
61.67
62.94
63.11
62.61
61.8
60.9
59.98
59
57.92
56.77
55.67
54.78
54.18
53.85
53.61
53.15
52.16
50.4
47.82
44.58
41.03
37.54
34.42
31.77
29.46
27.24
24.88
22.31
19.62
17.03
14.71
12.7
10.85
8.96
6.84
4.46
1.95
-0.45
-2.57
-4.39
-6.07
-7.88
-10.01
-12.54
-15.31
-18.09
-20.71
-23.15
-25.62
-28.38
-31.62
-35.31
-39.21
-42.92
-46.15
-48.78
-50.94
-53.01
-55.42
-58.63
-63
-68.71
-75.67
-83.35
-90.67
-96.03
-97.68
-94.16
-84.82
-70.11
-51.54
-31.22
-11.27
6.68
21.79
33.86
43.05
49.56
53.5
55
54.33
52.11
49.21
46.58
44.92
44.44
44.91
45.81
46.63
47.09
47.2
47.14
47.1
47.07
46.86
46.19
44.78
42.53
39.52
36.06
32.49
29.14
26.12
23.34
20.57
17.55
14.13
10.36
6.43
2.62
-0.84
-3.89
-6.67
-9.43
-12.51
-16.13
-20.38
-25.06
-29.86
-34.35
-38.28
-41.65
-44.79
-48.22
-52.49
-58.02
-64.92
-72.85
-81.02
-88.09
-92.42
-92.34
-86.65
-75.11
-58.61
-39
-18.61
0.46
16.8
29.89
39.91
47.31
52.49
55.69
57.03
56.74
55.22
53.08
50.9
49.13
47.92
47.19
46.74
46.42
46.17
46
45.87
45.63
45.04
43.81
41.74
38.88
35.47
31.9
28.51
25.49
22.79
20.25
17.64
14.84
11.86
8.84
5.93
3.22
0.68
-1.82
-4.43
-7.28
-10.37
-13.62
-16.82
-19.84
-22.61
-25.27
-28.05
-31.21
-34.87
-38.93
-43.12
-47.1
-50.66
-53.79
-56.71
-59.86
-63.76
-68.89
-75.5
-83.39
-91.71
-98.91
-102.98
-101.96
-94.62
-80.95
-62.22
-40.71
-18.95
0.93
17.66
30.9
40.94
48.34
53.62
57.12
59.1
59.83
59.67
59.02
58.23
57.51
56.9
56.33
55.73
55.04
54.32
53.7
53.22
52.83
52.31
51.32
49.61
47.06
43.82
40.23
36.7
33.58
31.01
28.91
27.06
25.21
23.2
20.98
18.66
16.32
14.03
11.77
9.5
7.15
4.76
2.37
0.11
-2
-3.99
-6
-8.22
-10.76
-13.63
-16.68
-19.68
-22.44
-24.91
-27.21
-29.58
-32.31
-35.54
-39.17
-42.9
-46.34
-49.24
-51.6
-53.72
-56.06
-59.15
-63.42
-69.17
-76.36
-84.53
-92.53
-98.62
-100.75
-97.19
-87.13
-71.14
-50.98
-29.14
-7.99
10.76
26.25
38.3
47.07
52.79
55.71
56.23
55
52.88
50.71
49.1
48.19
47.79
47.46
46.83
45.8
44.53
43.35
42.51
42.08
41.82
41.32
40.15
38.07
35.12
31.61
28.03
24.8
22.17
20.1
18.3
16.38
14.03
11.18
8
4.81
1.93
-0.55
-2.7
-4.82
-7.22
-10.12
-13.52
-17.25
-21.02
-24.59
-27.82
-30.8
-33.77
-37.11
-41.24
-46.46
-52.87
-60.12
-67.31
-73.01
-75.59
-73.6
-66.34
-54.13
-38.24
-20.52
-2.83
13.37
27.25
38.51
47.12
53.15
56.62
57.64
56.47
53.62
49.77
45.7
42.08
39.33
37.61
36.77
36.51
36.5
36.5
36.41
36.21
35.86
35.26
34.26
32.7
30.58
28.04
25.33
22.69
20.23
17.89
15.51
12.96
10.21
7.4
4.72
2.31
0.18
-1.84
-4
-6.53
-9.52
-12.89
-16.43
-19.86
-23.02
-25.94
-28.79
-31.88
-35.43
-39.53
-44.07
-48.78
-53.35
-57.57
-61.35
-64.83
-68.38
-72.52
-77.77
-84.42
-92.18
-100.01
-106.22
-108.82
-106.09
-97.2
-82.48
-63.3
-41.74
-19.93
0.37
18.03
32.56
43.9
52.23
57.86
61.13
62.52
62.54
61.7
60.44
59.01
57.51
55.91
54.18
52.34
50.5
48.8
47.38
46.34
45.68
45.33
45.11
44.75
43.97
42.57
40.56
38.17
35.76
33.63
31.87
30.35
28.78
26.96
24.86
22.64
20.54
18.69
17.1
15.64
14.16
12.61
11.07
9.64
8.37
7.19
5.99
4.66
3.2
1.73
0.42
-0.61
-1.39
-2.05
-2.82
-3.89
-5.35
-7.14
-9.12
-11.09
-12.91
-14.58
-16.17
-17.86
-19.81
-22.12
-24.76
-27.58
-30.4
-33.03
-35.47
-37.86
-40.45
-43.51
-47.2
-51.47
-56.04
-60.55
-64.66
-68.21
-71.3
-74.33
-77.89
-82.65
-89.09
-97.21
-106.3
-114.82
-120.68
-121.72
-116.42
-104.37
-86.49
-64.67
-41.26
-18.46
2.11
19.52
33.43
43.92
51.3
56.03
58.61
59.6
59.52
58.84
57.93
57.05
56.29
55.67
55.09
54.48
53.85
53.24
52.75
52.38
52.07
51.66
50.98
49.88
48.32
46.38
44.17
41.86
39.62
37.5
35.49
33.49
31.36
29.06
26.64
24.28
22.17
20.41
18.97
17.7
16.4
14.97
13.41
11.86
10.47
9.35
8.46
7.64
6.63
5.15
3.03
0.28
-2.87
-6.1
-9.1
-11.75
-14.21
-16.83
-19.97
-23.78
-28.12
-32.57
-36.7
-40.21
-43.14
-45.8
-48.71
-52.43
-57.42
-63.86
-71.52
-79.56
-86.54
-90.66
-90.21
-84.08
-72.19
-55.49
-35.74
-14.94
5.19
23.5
39.4
52.68
63.24
70.91
75.52
76.97
75.48
71.6
66.19
60.13
54.19
48.77
44.03
39.93
36.48
33.78
31.99
31.17
31.14
31.47
31.65
31.18
29.81
27.61
24.89
22.11
19.71
18
17.04
16.64
16.47
16.15
15.45
14.35
12.99
11.58
10.22
8.87
7.38
5.63
3.63
1.52
-0.49
-2.24
-3.77
-5.26
-6.99
-9.15
-11.78
-14.75
-17.81
-20.74
-23.46
-26.11
-28.91
-32.16
-36.01
-40.39
-45.02
-49.52
-53.55
-56.98
-59.96
-62.91
-66.42
-71.1
-77.37
-85.15
-93.65
-101.37
-106.26
-106.28
-100.04
-87.27
-69.02
-47.33
-24.69
-3.32
15.25
30.33
41.92
50.38
56.21
59.87
61.82
62.46
62.21
61.44
60.36
59.12
57.72
56.17
54.53
52.93
51.54
50.52
49.89
49.57
49.36
48.98
48.17
46.74
44.63
41.9
38.79
35.61
32.68
30.21
28.18
26.4
24.57
22.48
20.09
17.58
15.25
13.32
11.82
10.53
9.12
7.33
5.12
2.7
0.33
-1.74
-3.49
-5.05
-6.64
-8.43
-10.53
-12.92
-15.5
-18.19
-20.87
-23.48
-25.97
-28.45
-31.1
-34.17
-37.83
-42.07
-46.71
-51.39
-55.82
-59.81
-63.45
-67.07
-71.15
-76.21
-82.57
-90.13
-98.21
-105.46
-110.1
-110.3
-104.77
-93.15
-76.25
-55.79
-33.93
-12.72
6.31
22.33
35.09
44.67
51.28
55.23
56.88
56.73
55.38
53.46
51.45
49.67
48.24
47.18
46.48
46.16
46.22
46.62
47.22
47.81
48.13
47.97
47.21
45.84
43.93
41.61
39.05
36.43
33.91
31.57
29.43
27.4
25.33
23.1
20.66
18.06
15.49
13.13
11.1
9.35
7.64
5.67
3.2
0.22
-3.06
-6.32
-9.26
-11.84
-14.21
-16.71
-19.64
-23.11
-27
-31.02
-34.83
-38.21
-41.13
-43.76
-46.41
-49.49
-53.37
-58.33
-64.38
-71.07
-77.34
-81.66
-82.33
-78
-68.21
-53.57
-35.62
-16.32
2.49
19.46
33.84
45.29
53.68
58.98
61.3
60.95
58.55
54.88
50.8
47.02
43.99
41.84
40.48
39.7
39.31
39.21
39.38
39.8
40.36
40.83
40.88
40.23
38.71
36.38
33.46
30.19
26.81
23.39
19.97
16.56
13.2
9.93
6.76
3.62
0.4
-2.97
-6.46
-9.93
-13.19
-16.08
-18.67
-21.18
-23.95
-27.27
-31.25
-35.77
-40.57
-45.31
-49.75
-53.79
-57.54
-61.31
-65.6
-70.99
-77.91
-86.36
-95.65
-104.24
-110.02
-110.82
-105.11
-92.57
-74.23
-52.17
-28.86
-6.5
13.39
30.07
43.34
53.31
60.17
64.21
65.82
65.59
64.25
62.46
60.75
59.33
58.17
57.12
56.02
54.89
53.87
53.14
52.81
52.82
52.94
52.85
52.25
50.92
48.85
46.21
43.28
40.38
37.73
35.36
33.13
30.8
28.15
25.16
21.96
18.83
16.03
13.69
11.77
10.07
8.31
6.2
3.56
0.33
-3.39
-7.37
-11.3
-14.95
-18.23
-21.27
-24.41
-27.98
-32.25
-37.19
-42.56
-47.94
-52.95
-57.39
-61.28
-64.98
-69.03
-74.09
-80.63
-88.69
-97.59
-105.81
-111.23
-111.62
-105.45
-92.38
-73.55
-51.17
-27.8
-5.69
13.74
29.86
42.6
52.1
58.52
62.1
63.24
62.58
60.9
58.96
57.24
55.95
55.01
54.22
53.44
52.65
51.95
51.49
51.36
51.51
51.73
51.7
51.11
49.76
47.61
44.8
41.62
38.39
35.36
32.65
30.23
27.93
25.51
22.8
19.72
16.38
13
9.77
6.85
4.18
1.56
-1.25
-4.41
-7.9
-11.53
-15.01
-18.15
-20.94
-23.59
-26.43
-29.77
-33.71
-38.1
-42.56
-46.7
-50.28
-53.3
-56.08
-59.13
-63.01
-68.14
-74.63
-82.1
-89.6
-95.62
-98.39
-96.29
-88.36
-74.68
-56.44
-35.65
-14.56
4.9
21.5
34.72
44.62
51.47
55.62
57.43
57.32
55.84
53.56
50.97
48.4
45.95
43.61
41.35
39.27
37.57
36.51
36.25
36.75
37.7
38.63
39.02
38.43
36.64
33.71
29.98
25.96
22.19
19.04
16.57
14.53
12.48
9.99
6.82
3.09
-0.82
-4.38
-7.22
-9.26
-10.78
-12.23
-14.07
-16.5
-19.44
-22.55
-25.5
-28.09
-30.36
-32.55
-35
-38.04
-41.93
-46.8
-52.6
-58.93
-64.9
-69.11
-69.98
-66.19
-57.21
-43.63
-27.02
-9.45
7.17
21.51
33.04
41.76
47.89
51.57
52.87
51.94
49.19
45.31
41.13
37.37
34.44
32.42
31.13
30.38
30.03
30.03
30.35
30.87
31.33
31.36
30.63
28.95
26.33
22.99
19.27
15.5
11.89
8.45
5.06
1.56
-2.11
-5.87
-9.52
-12.94
-16.15
-19.36
-22.82
-26.73
-31.07
-35.6
-39.95
-43.85
-47.2
-50.18
-53.24
-56.93
-61.77
-68.04
-75.64
-83.88
-91.44
-96.58
-97.49
-92.8
-82.11
-66.16
-46.64
-25.78
-5.69
12.11
26.83
38.4
47.06
53.17
57.01
58.82
58.94
57.82
56.03
54.13
52.56
51.48
50.87
50.56
50.39
50.23
50.05
49.82
49.47
48.88
47.91
46.43
44.43
41.96
39.14
36.11
32.96
29.71
26.39
22.99
19.57
16.21
12.99
9.96
7.12
4.43
1.83
-0.77
-3.45
-6.28
-9.3
-12.51
-15.81
-19.06
-22.17
-25.16
-28.22
-31.64
-35.66
-40.27
-45.17
-49.87
-53.87
-56.98
-59.48
-62.02
-65.51
-70.71
-77.9
-86.62
-95.53
-102.67
-105.78
-103.03
-93.57
-77.85
-57.61
-35.26
-13.22
6.67
23.46
36.93
47.21
54.52
59.02
60.97
60.81
59.27
57.17
55.22
53.78
52.88
52.3
51.75
51.11
50.44
49.89
49.59
49.53
49.49
49.14
48.12
46.26
43.61
40.47
37.28
34.44
32.18
30.42
28.91
27.34
25.52
23.44
21.23
19.07
17.04
15.12
13.25
11.35
9.41
7.45
5.5
3.54
1.55
-0.53
-2.74
-5.11
-7.64
-10.33
-13.09
-15.8
-18.35
-20.66
-22.81
-25.05
-27.67
-30.95
-34.93
-39.43
-44.04
-48.33
-51.95
-54.84
-57.25
-59.69
-62.84
-67.35
-73.59
-81.38
-89.8
-97.2
-101.48
-100.64
-93.45
-79.94
-61.45
-40.27
-18.92
0.52
16.84
29.78
39.66
46.99
52.1
55.14
56.15
55.34
53.24
50.58
48.16
46.49
45.74
45.66
45.83
45.89
45.7
45.38
45.17
45.18
45.29
45.1
44.2
42.34
39.63
36.45
33.32
30.62
28.45
26.63
24.86
22.88
20.58
18.03
15.39
12.84
10.53
8.56
6.91
5.46
3.95
2.1
-0.35
-3.44
-6.94
-10.47
-13.58
-16
-17.77
-19.21
-20.91
-23.42
-27.06
-31.77
-37.11
-42.4
-47.04
-50.67
-53.37
-55.53
-57.78
-60.7
-64.68
-69.73
-75.32
-80.38
-83.35
-82.62
-77
-66.18
-50.94
-32.94
-14.22
3.43
18.81
31.39
41.06
47.87
51.91
53.31
52.43
49.97
46.84
43.97
41.96
41.01
40.82
40.87
40.7
40.14
39.34
38.71
38.55
38.87
39.31
39.28
38.27
36.08
32.94
29.34
25.83
22.72
19.95
17.23
14.18
10.62
6.61
2.47
-1.45
-4.95
-8.07
-11.14
-14.51
-18.45
-22.99
-27.87
-32.72
-37.15
-40.99
-44.34
-47.55
-51.13
-55.66
-61.52
-68.87
-77.38
-86.15
-93.71
-98.2
-97.91
-91.73
-79.62
-62.73
-43.06
-22.91
-4.25
11.69
24.51
34.35
41.58
46.51
49.3
50.14
49.35
47.48
45.21
43.18
41.79
41.16
41.15
41.48
41.89
42.23
42.48
42.69
42.87
42.91
42.59
41.69
40.04
37.65
34.74
31.62
28.58
25.75
23.07
20.4
17.65
14.85
12.15
9.68
7.44
5.21
2.71
-0.25
-3.62
-7.13
-10.42
-13.27
-15.76
-18.2
-21.01
-24.47
-28.61
-33.2
-37.87
-42.26
-46.18
-49.63
-52.86
-56.28
-60.43
-65.86
-72.85
-81.15
-89.75
-96.9
-100.46
-98.49
-89.98
-75.19
-55.67
-33.77
-11.91
8
24.88
38.38
48.63
55.94
60.58
62.89
63.27
62.3
60.62
58.87
57.44
56.51
56.04
55.84
55.73
55.59
55.37
55.09
54.76
54.34
53.66
52.52
50.73
48.24
45.18
41.85
38.6
35.67
33.11
30.77
28.4
25.77
22.8
19.6
16.34
13.21
10.3
7.64
5.18
2.86
0.61
-1.64
-4.01
-6.62
-9.49
-12.57
-15.68
-18.65
-21.4
-24.05
-26.84
-30.01
-33.64
-37.6
-41.57
-45.25
-48.5
-51.42
-54.36
-57.82
-62.32
-68.25
-75.72
-84.34
-92.99
-99.91
-103.02
-100.48
-91.39
-76.2
-56.6
-35.07
-14.12
4.41
19.59
31.31
39.92
45.85
49.43
50.89
50.55
48.92
46.62
44.33
42.5
41.31
40.75
40.62
40.8
41.23
41.86
42.6
43.24
43.52
43.18
42.11
40.32
37.92
35.13
32.16
29.23
26.51
24.04
21.7
19.21
16.31
12.89
9.11
5.35
2.04
-0.57
-2.53
-4.14
-5.77
-7.67
-9.84
-12.16
-14.42
-16.56
-18.7
-21.07
-23.94
-27.46
-31.5
-35.73
-39.72
-43.08
-45.75
-47.97
-50.3
-53.38
-57.78
-63.68
-70.88
-78.66
-85.83
-90.91
-92.39
-89.08
-80.5
-67.05
-50.01
-31.15
-12.31
5.04
20.01
32.2
41.53
47.98
51.54
52.27
50.54
47.08
42.95
39.26
36.88
36.13
36.8
38.28
39.89
41.17
41.94
42.27
42.23
41.81
40.79
38.91
35.97
31.96
27.09
21.76
16.38
11.33
6.76
2.63
-1.26
-5.2
-9.43
-14.04
-18.93
-23.88
-28.57
-32.78
-36.45
-39.73
-43.05
-46.95
-51.97
-58.46
-66.34
-74.92
-82.88
-88.45
-89.87
-85.87
-76.13
-61.43
-43.38
-24.01
-5.19
11.71
25.99
37.47
46.23
52.45
56.29
57.96
57.82
56.42
54.44
52.5
51.04
50.18
49.76
49.48
49.12
48.59
47.98
47.44
47.02
46.6
45.87
44.46
42.03
38.47
33.91
28.73
23.39
18.31
13.67
9.37
5.09
0.47
-4.69
-10.29
-16.02
-21.46
-26.31
-30.53
-34.37
-38.32
-42.89
-48.54
-55.47
-63.53
-71.97
-79.54
-84.52
-85.22
-80.44
-69.91
-54.46
-35.8
-16
3.06
20.06
34.39
45.91
54.76
61.15
65.24
67.25
67.5
66.44
64.57
62.36
60.12
57.96
55.88
53.84
51.8
49.83
47.96
46.18
44.4
42.48
40.28
37.75
34.89
31.75
28.33
24.59
20.49
16.08
11.47
6.91
2.6
-1.31
-4.85
-8.2
-11.61
-15.29
-19.32
-23.59
-27.92
-32.09
-35.98
-39.62
-43.16
-46.86
-51.05
-56.09
-62.25
-69.55
-77.49
-84.91
-90.1
-91.23
-86.86
-76.55
-61.02
-41.97
-21.56
-1.85
15.67
30.25
41.71
50.24
56.14
59.7
61.21
61.05
59.67
57.62
55.4
53.38
51.69
50.25
48.84
47.25
45.43
43.48
41.58
39.87
38.3
36.68
34.71
32.18
29.12
25.74
22.36
19.22
16.33
13.46
10.32
6.73
2.79
-1.2
-4.94
-8.33
-11.55
-14.93
-18.8
-23.18
-27.84
-32.38
-36.43
-39.86
-42.79
-45.59
-48.71
-52.66
-57.8
-64.26
-71.71
-79.22
-85.36
-88.37
-86.69
-79.41
-66.62
-49.44
-29.75
-9.68
8.93
24.83
37.49
46.89
53.29
57.01
58.39
57.82
55.78
52.95
50.01
47.55
45.87
44.94
44.4
43.81
42.81
41.3
39.43
37.52
35.79
34.23
32.55
30.31
27.14
23
18.23
13.36
8.92
5.16
2
-0.9
-3.93
-7.37
-11.31
-15.62
-20.05
-24.32
-28.2
-31.66
-34.86
-38.18
-42.09
-46.97
-52.93
-59.59
-66.1
-71.19
-73.47
-71.76
-65.45
-54.69
-40.37
-23.94
-7.02
8.92
22.81
34.04
42.34
47.68
50.12
49.88
47.42
43.41
38.73
34.27
30.71
28.37
27.12
26.53
26.08
25.33
24.09
22.43
20.58
18.72
16.9
14.99
12.73
9.86
6.28
2.07
-2.53
-7.26
-11.87
-16.26
-20.43
-24.47
-28.48
-32.59
-36.86
-41.27
-45.77
-50.3
-54.85
-59.45
-64.23
-69.37
-75.12
-81.77
-89.5
-98.19
-107.18
-115.19
-120.5
-121.37
-116.66
-106.22
-90.99
-72.76
-53.55
-35.19
-18.92
-5.43
5
12.3
16.54
17.97
17.08
14.6
11.41
8.33
5.94
4.49
3.92
4.03
4.7
6.01
8.28
11.85
16.92
23.36
30.68
38.22
45.27
51.28
55.78
58.47
59.12
57.74
54.66
50.5
46.11
42.26
39.41
37.64
36.67
36.17
35.83
35.42
34.62
32.87
29.33
23.18
14.01
2.17
-10.97
-23.37
-32.74
-37.28
-36.18
-29.79
-19.42
-6.79
6.42
18.96
30.02
39.09
45.78
49.66
50.46
48.16
43.26
36.66
29.58
23.18
18.32
15.39
14.31
14.7
15.99
17.65
19.2
20.3
20.76
20.52
19.73
18.65
17.72
17.44
18.24
20.29
23.26
26.23
27.93
27.27
23.86
18.32
11.97
6.2
1.83
-1.27
-3.91
-6.97
-10.81
-15.2
-19.64
-23.9
-28.39
-34.02
-41.74
-51.93
-64.04
-76.59
-87.57
-94.85
-96.71
-92.22
-81.42
-65.28
-45.48
-23.99
-2.69
16.91
33.81
47.48
57.78
64.89
69.29
71.72
73.08
74.25
75.88
78.27
81.33
84.81
88.32
91.6
94.48
96.99
99.25
101.47
103.84
106.37
108.83
110.62
110.88
108.76
103.72
95.82
85.73
74.42
62.82
51.57
41.09
31.82
24.59
20.66
21.47
27.96
40.07
56.47
74.89
92.67
107.47
117.75
122.9
123.14
119.16
111.84
102.14
91.14
80.15
70.68
64.05
60.63
59.27
57.21
50.77
36.52
12.49
-21.48
-64.14
-113.6
-167.6
-223.01
-274.99
-316.86
-341.38
-343.14
-320.86
-278.12
-222.09
-160.82
-100.72
-45.48
3.29
44.53
76.61
97.33
104.98
99.5
83.23
60.51
36.66
16.48
3.04
-3.25
-4.47
-4.23
-5.94
-11.33
-19.73
-28.84
-36.42
-41.96
-46.96
-53.94
-64.51
-78.17
-92.38
-104.06
-111.23
-113.91
-113.6
-111.96
-109.69
-106.4
-101.29
-94.2
-86.07
-78.54
-73.16
-70.5
-69.95
-70.16
-69.71
-67.67
-63.75
-58.12
-51.16
-43.45
-35.82
-29.6
-26.67
-29.1
-38.38
-54.69
-76.48
-100.72
-123.83
-142.94
-156.75
-165.65
-171.22
-175.37
-179.59
-184.29
-188.62
-190.53
-187.13
-175.36
-152.87
-118.83
-74.31
-22.06
34.26
90.83
144.1
190.62
226.98
250.18
258.61
253.08
237.18
216.44
196.46
181.08
171.34
165.76
161.67
156.68
149.66
140.76
130.97
121.43
113.06
106.37
101.42
97.83
94.85
91.61
87.34
81.64
74.61
66.91
59.62
53.99
50.98
50.75
52.38
53.94
53.22
48.78
40.81
31.31
23.24
19.22
20.24
25.45
32.71
39.78
45.08
47.69
46.82
41.34
30.04
12.34
-10.86
-37.07
-62.94
-85.36
-102.15
-112.12
-114.45
-108.37
-93.26
-69.37
-38.38
-3.26
32.43
65.65
94.38
117.44
133.78
142.14
141.25
130.77
112.01
88.03
62.82
39.86
21
6.13
-6.31
-18.24
-30.94
-44.5
-57.79
-68.97
-76.23
-78.52
-76.04
-70.28
-63.4
-57.41
-53.4
-51.28
-50.22
-49.32
-48.28
-47.13
-45.85
-43.73
-39.42
-31.74
-20.62
-7.77
3.79
10.63
10.09
1.05
-15.76
-37.82
-61.4
-82.35
-97.35
-105.14
-107.28
-107.81
-111.83
-123.59
-144.86
-174.33
-208.08
-240.72
-266.52
-280.42
-278.68
-259.6
-224.1
-175.96
-121.15
-66.33
-16.91
24.46
58.2
86.75
112.78
137.39
159.46
176.37
185.71
186.99
182.16
174.62
167.15
160.21
151.63
138.18
117.75
91.04
61.45
33.48
10.52
-6.56
-19.1
-29.18
-37.95
-44.88
-48.47
-47.67
-43.03
-36.78
-31.96
-30.95
-34.51
-41.54
-49.62
-56.32
-60.24
-61.74
-62.64
-65.13
-70.42
-77.94
-85.62
-91.09
-93.16
-92.34
-90.36
-88.8
-88
-86.95
-84.43
-80.32
-76.22
-74.73
-77.69
-84.48
-91.57
-93.74
-86.41
-67.84
-39.89
-7
25.83
55.05
79.3
98.82
114.14
124.84
129.56
126.94
117.04
102
85.52
71.37
61.81
56.86
54.7
52.93
49.93
45.55
40.98
37.89
37.38
39.42
42.86
46.05
47.7
47.36
45.42
42.74
40.14
38.13
36.88
36.29
35.97
35.26
33.33
29.56
23.77
16.44
8.37
0.41
-6.86
-12.97
-17.45
-19.95
-20.85
-21.79
-25.65
-35.7
-54.15
-80.79
-112.71
-145.04
-172.54
-190.9
-197.59
-191.88
-174.53
-147.49
-113.67
-76.62
-40.15
-7.68
18.26
36.49
47.19
51.8
52.61
52.29
53.08
56.33
61.94
68.66
74.67
78.55
79.96
79.81
79.94
82.34
88.34
98.03
110.17
122.52
132.61
138.52
139.41
135.53
127.86
117.64
105.9
93.27
80.06
66.5
52.98
40.31
29.37
20.86
14.76
10.36
6.6
2.79
-0.93
-3.87
-5.73
-7.39
-11.06
-19.26
-33.17
-51.48
-70.47
-85.51
-93.11
-92.33
-84.78
-73.46
-61.19
-49.58
-38.99
-29.18
-19.96
-11.59
-4.51
1.04
5.37
9.28
13.77
19.68
27.14
35.61
44
51.33
57.19
61.9
66.26
70.94
75.94
80.41
83
82.41
77.96
69.69
58.22
44.22
28.15
10.21
-9.29
-29.53
-48.98
-65.77
-78.51
-87.1
-92.94
-98.42
-105.73
-115.83
-127.99
-140.28
-150.43
-156.66
-157.81
-153.21
-142.28
-124.62
-100.28
-70.32
-36.96
-3.54
26.08
48.29
60.64
62.41
54.71
40.06
21.48
1.6
-17.77
-35.52
-50.65
-61.98
-68.26
-68.8
-63.87
-54.43
-41.35
-24.75
-4.17
20.46
47.69
74.24
96.04
109.99
115.32
113.73
108.31
101.8
95.42
88.71
80.28
68.89
54.24
37.07
18.95
1.74
-12.96
-24.29
-32.41
-38.37
-43.79
-49.99
-57.69
-66.86
-76.83
-86.65
-94.94
-99.66
-98.14
-87.74
-67.03
-37.1
-1.87
32.83
61.29
80.06
89
90.89
89.75
88.94
89.98
92.6
95.75
98.6
101.02
103.1
104.42
103.73
99.44
90.66
78.06
64.06
51.53
42.76
38.09
35.97
33.87
29.5
22
12.24
2.15
-6.36
-12.41
-16.67
-20.86
-26.95
-36.11
-48.07
-61.2
-73.24
-82.29
-87.57
-89.64
-90
-90.16
-91
-92.49
-94.09
-95.37
-96.39
-97.58
-99.25
-101.01
-101.48
-98.68
-90.78
-76.83
-57.17
-33.37
-7.8
16.78
37.51
51.63
56.73
51.41
35.97
12.95
-13.14
-36.69
-52.42
-56.81
-48.96
-30.75
-6.35
19.12
40.96
56.22
64.27
66.59
65.75
64.33
63.96
64.96
66.54
67.34
66.06
61.88
54.69
45.03
33.95
22.72
12.51
4.11
-2.16
-6.28
-8.41
-8.78
-7.98
-7.19
-8.1
-12.3
-20.32
-30.92
-41.1
-47.08
-45.76
-35.84
-18.11
5.36
32.09
59.76
86.11
108.57
124.26
130.75
127.18
114.9
97.18
78
60.72
47.16
37.63
31.63
28.52
27.81
28.96
31.09
32.98
33.49
32.11
29.24
25.87
22.97
20.91
19.32
17.35
14.25
9.7
3.92
-2.65
-9.69
-17.2
-25.45
-34.65
-44.71
-55.07
-64.93
-73.68
-81.38
-88.62
-96.28
-104.66
-112.82
-118.59
-119.18
-112.39
-97.59
-75.91
-49.71
-21.56
6.51
32.96
56.32
74.78
86.42
90.04
86.04
76.57
64.8
53.64
44.7
38.08
32.96
28.52
24.59
21.67
20.49
21.45
24.31
28.25
32.03
34.49
34.78
32.58
28.13
22.08
15.36
8.82
3.05
-1.77
-5.85
-9.64
-13.67
-18.32
-23.75
-29.76
-35.87
-41.35
-45.59
-48.41
-50.37
-52.64
-56.53
-62.94
-71.89
-82.58
-93.57
-103.19
-109.73
-111.61
-107.65
-97.31
-81.03
-60.34
-37.56
-15.25
4.49
20.46
32.28
40.08
44.17
44.96
43.04
39.29
34.82
30.61
27.28
25.1
24.01
23.85
24.48
25.86
27.97
30.86
34.55
38.93
43.65
48.07
51.36
52.84
52.22
49.85
46.59
43.48
41.24
39.96
39.19
38.15
36.17
32.94
28.71
24.09
19.97
17.25
16.63
18.48
22.63
28.33
34.31
39.11
41.46
40.73
37.07
31.41
25.16
19.71
15.75
12.87
9.56
3.67
-6.87
-23.2
-45.15
-71
-97.83
-121.87
-139.23
-146.71
-142.64
-127.51
-104.05
-76.54
-49.62
-27.02
-10.75
-1.02
3.18
3.44
1.43
-1.16
-2.83
-2.44
0.38
5.09
10.39
14.85
17.7
19.23
20.63
23.33
28.17
34.83
41.94
47.52
49.8
47.84
41.76
32.63
22.12
12.09
4.19
-0.47
-1.53
0.49
4.45
8.9
12.61
14.92
15.79
15.58
14.69
13.3
11.32
8.62
5.22
1.33
-2.83
-7.08
-11.41
-15.88
-20.58
-25.62
-31.21
-37.55
-44.6
-51.75
-57.62
-60.39
-58.34
-50.64
-37.67
-20.9
-2.3
16.31
33.53
48.34
59.88
67.45
70.72
70.15
67.06
63.3
60.59
59.85
60.92
62.77
64
63.38
60.22
54.42
46.51
37.55
28.98
22.42
19.37
20.8
26.75
36.16
46.94
56.25
61.22
59.68
50.84
35.61
16.29
-4.06
-22.6
-37.5
-48.25
-55.42
-60.08
-63.24
-65.6
-67.64
-69.94
-73.23
-78.24
-85.27
-93.91
-103.05
-111.31
-117.53
-121.01
-121.44
-118.58
-112
-101.2
-85.92
-66.59
-44.34
-20.79
2.4
23.88
42.48
57.17
66.85
70.69
68.6
61.64
52.01
42.47
35.46
32.33
32.99
36.19
40.2
43.59
45.6
46.22
45.85
44.91
43.68
42.32
41.03
40.07
39.59
39.45
39.08
37.64
34.36
28.85
21.31
12.55
3.72
-3.98
-9.75
-13.43
-15.66
-17.64
-20.62
-25.3
-31.33
-37.45
-42.07
-44.09
-43.48
-41.24
-38.72
-36.89
-35.95
-35.47
-35.05
-34.68
-35
-36.89
-41.08
-47.72
-56.13
-64.92
-72.21
-76.13
-75.31
-69.37
-59.03
-45.77
-31.34
-17.22
-4.39
6.51
14.96
20.44
22.6
21.62
18.4
14.38
10.97
8.97
8.29
8.17
7.71
6.57
5.36
5.64
9.35
17.99
31.62
48.57
65.69
79.55
87.72
89.73
87.11
82.53
78.69
77.35
79.01
83.09
88.15
92.12
92.45
86.4
71.7
47.41
14.66
-23.26
-61.53
-94.99
-119.58
-133.34
-136.78
-132.44
-123.95
-114.87
-107.73
-103.54
-101.87
-101.37
-100.45
-97.91
-93.21
-86.42
-78.01
-68.62
-58.95
-49.85
-42.31
-37.38
-35.79
-37.43
-41.04
-44.29
-44.45
-39.39
-28.38
-12.47
5.95
23.95
39.01
49.68
55.78
58.13
58.07
56.91
55.56
54.39
53.34
52.19
50.84
49.43
48.28
47.71
47.82
48.5
49.41
50.23
50.72
50.83
50.66
50.51
50.66
51.38
52.69
54.3
55.62
55.97
54.82
52.04
47.89
42.83
37.29
31.44
25.24
18.6
11.57
4.46
-2.29
-8.39
-13.86
-19.1
-24.7
-31.11
-38.44
-46.46
-54.75
-62.95
-70.78
-77.89
-83.6
-86.77
-85.97
-80.02
-68.45
-51.78
-31.43
-9.22
13.01
33.75
51.77
66.02
75.63
80.13
79.69
75.32
68.69
61.61
55.56
51.28
48.84
47.96
48.34
49.89
52.52
55.94
59.49
62.17
63
61.33
57.11
50.77
43
34.47
25.62
16.73
8.04
-0.12
-7.31
-13.15
-17.54
-20.81
-23.67
-27
-31.5
-37.44
-44.53
-52.06
-59.17
-65.14
-69.63
-72.85
-75.47
-78.55
-83.04
-89.36
-96.88
-103.85
-107.74
-106.13
-97.62
-82.44
-62.34
-39.96
-17.85
2.15
19.11
32.73
42.86
49.33
52.08
51.52
48.7
45.15
42.43
41.41
42.01
43.38
44.43
44.57
44.01
43.58
44.17
46.16
49.13
52.09
54.03
54.32
52.85
49.86
45.61
40.34
34.26
27.78
21.5
16.02
11.7
8.39
5.51
2.37
-1.55
-6.32
-11.62
-16.91
-21.67
-25.58
-28.63
-31.07
-33.33
-35.91
-39.24
-43.5
-48.56
-54.02
-59.43
-64.47
-69.03
-73.18
-77.2
-81.43
-86.27
-91.9
-98.1
-103.93
-107.72
-107.46
-101.46
-88.93
-70.41
-47.54
-22.68
1.76
23.68
41.52
54.31
61.73
64.12
62.52
58.46
53.67
49.58
47.01
46.03
46.12
46.45
46.33
45.55
44.42
43.61
43.78
45.13
47.35
49.69
51.42
52.03
51.39
49.6
46.87
43.47
39.71
36.05
33.02
31
30.01
29.57
28.85
27.02
23.64
18.84
13.33
7.98
3.52
0.16
-2.49
-5.19
-8.68
-13.27
-18.61
-23.85
-28.07
-30.75
-32.02
-32.59
-33.33
-34.97
-37.71
-41.48
-46.08
-51.44
-57.49
-63.97
-70.3
-75.65
-79.32
-81.14
-81.6
-81.67
-82.32
-83.99
-86.31
-88.08
-87.58
-83.01
-73.01
-57.09
-35.93
-11.28
14.36
38.34
58.42
73.25
82.46
86.57
86.61
83.85
79.3
73.56
66.77
58.92
50.27
41.62
34.28
29.64
28.64
31.41
37.17
44.47
51.52
56.5
57.82
54.51
46.62
35.41
23.18
12.53
5.47
2.65
3.18
5.21
6.7
6.26
3.49
-1.1
-6.5
-11.63
-15.69
-18.34
-19.68
-20.07
-19.87
-19.3
-18.39
-17.07
-15.29
-13.13
-10.75
-8.31
-6.03
-4.12
-2.92
-2.82
-4.23
-7.51
-12.91
-20.57
-30.34
-41.63
-53.14
-62.85
-68.43
-67.91
-60.41
-46.51
-28.07
-7.59
12.53
30.51
45.25
56.21
63.14
66.05
65.28
61.58
56.1
50.23
45.23
41.85
40.15
39.47
38.81
37.3
34.67
31.42
28.5
26.87
26.94
28.45
30.61
32.59
33.91
34.52
34.65
34.49
33.97
32.7
30.23
26.21
20.65
13.97
6.79
-0.25
-6.73
-12.54
-17.86
-22.91
-27.78
-32.38
-36.55
-40.32
-44.18
-48.91
-55.22
-63.27
-72.48
-81.69
-89.76
-96.03
-100.47
-103.35
-104.75
-104.2
-100.84
-93.92
-83.36
-69.94
-55.01
-39.99
-25.81
-12.83
-1.06
9.47
18.43
25.32
29.67
31.42
31.09
29.72
28.54
28.57
30.22
33.14
36.44
39.07
40.39
40.36
39.52
38.55
37.95
37.84
38.09
38.46
38.71
38.58
37.77
35.93
32.93
29.08
25.12
22.05
20.59
20.91
22.48
24.38
25.65
25.7
24.27
21.3
16.73
10.5
2.74
-6.06
-15.05
-23.31
-30.27
-36.09
-41.59
-47.78
-55.34
-64.28
-74.04
-83.83
-92.95
-100.91
-107.05
-110.38
-109.51
-103
-89.86
-69.95
-44.09
-14.06
17.62
47.91
73.61
91.92
101.06
100.83
92.71
79.53
64.68
51.3
41.66
36.78
36.5
39.65
44.53
49.37
52.76
53.88
52.52
48.87
43.4
36.83
30.15
24.48
20.79
19.39
19.69
20.28
19.57
16.57
11.32
4.91
-1.14
-5.67
-8.38
-9.81
-10.92
-12.45
-14.6
-17.1
-19.59
-22.08
-25.02
-29.06
-34.49
-40.83
-46.91
-51.29
-52.97
-51.94
-49.23
-46.45
-45.05
-45.73
-48.39
-52.43
-57.39
-63.19
-70.06
-77.99
-86.18
-92.88
-95.88
-93.4
-84.82
-70.97
-53.73
-35.19
-17.01
-0.04
15.4
29.16
40.96
50.37
56.92
60.42
61.05
59.29
55.89
51.7
47.59
44.33
42.51
42.39
43.91
46.75
50.46
54.5
58.27
61.11
62.34
61.44
58.27
53.21
47.05
40.81
35.29
30.88
27.49
24.7
22.09
19.39
16.58
13.73
10.79
7.61
3.94
-0.23
-4.6
-8.54
-11.43
-12.93
-13.18
-12.74
-12.29
-12.49
-13.85
-16.81
-21.68
-28.38
-36.13
-43.3
-47.67
-47.23
-41.06
-29.84
-15.67
-1.28
10.97
19.73
24.65
26.09
24.69
21.29
17.02
13.46
12.36
14.97
21.4
30.27
39.02
44.92
46.23
42.99
36.99
31.04
27.65
28.04
31.7
36.78
40.97
42.49
40.62
35.73
28.93
21.47
14.37
8.16
2.99
-1.26
-4.76
-7.7
-10.23
-12.54
-14.98
-17.99
-22.05
-27.43
-34.06
-41.5
-49.09
-56.31
-62.95
-69.14
-75.17
-81.1
-86.51
-90.53
-92.15
-90.86
-87.09
-82.25
-78.25
-76.49
-77.11
-78.75
-79.03
-75.58
-66.95
-53.15
-35.3
-15.18
5.51
25.32
43.1
57.86
68.74
75.26
77.53
76.35
73.04
68.98
65.31
62.51
60.39
58.28
55.47
51.6
47.01
42.61
39.48
38.33
39.18
41.33
43.83
45.87
47.1
47.49
47.1
45.85
43.54
40.07
35.77
31.35
27.69
25.35
24.24
23.56
22.17
19.07
13.94
7.24
-0.02
-6.75
-12.33
-16.75
-20.51
-24.21
-28.19
-32.4
-36.53
-40.37
-43.99
-47.77
-52.13
-57.24
-62.93
-68.72
-74.14
-78.89
-82.8
-85.78
-87.71
-88.56
-88.64
-88.65
-89.43
-91.41
-94.05
-95.71
-94.09
-87.11
-73.83
-54.96
-32.57
-9.53
11.43
28.32
40.13
46.8
49.05
48.1
45.43
42.48
40.38
39.77
40.7
42.64
44.64
45.63
44.91
42.48
39.24
36.67
36.18
38.45
43.05
48.75
54.04
57.87
59.89
60.33
59.54
57.66
54.58
50.07
44.22
37.47
30.61
24.42
19.45
15.73
12.81
9.83
5.95
0.71
-5.62
-12.07
-17.33
-20.35
-20.83
-19.36
-17.15
-15.5
-15.41
-17.33
-21.2
-26.66
-33.07
-39.57
-45.11
-48.75
-50.14
-49.88
-49.51
-51
-55.85
-64.3
-74.91
-84.96
-91.33
-91.59
-84.75
-71.44
-53.46
-33.02
-12.06
8.13
26.88
43.85
58.7
70.94
80.03
85.56
87.47
86.14
82.26
76.59
69.86
62.7
55.77
49.8
45.57
43.65
44.14
46.49
49.61
52.24
53.39
52.7
50.48
47.49
44.42
41.61
38.89
35.75
31.72
26.65
20.86
15.08
10.16
6.79
5.31
5.49
6.69
7.97
8.34
7.1
3.9
-1.08
-7.26
-13.82
-20.05
-25.6
-30.74
-36.25
-43.12
-51.99
-62.89
-75.09
-87.49
-99.07
-109.14
-117.36
-123.33
-126.27
-125.07
-118.64
-106.5
-89.15
-68
-44.84
-21.43
0.87
20.98
37.95
50.98
59.62
64.13
65.56
65.47
65.28
65.69
66.37
66.21
64.05
59.34
52.69
45.69
40.32
38.18
39.69
43.87
48.62
51.5
50.72
45.91
38.31
30.31
24.45
22.44
24.55
29.68
36.04
41.86
46.03
48.17
48.33
46.46
42.23
35.25
25.48
13.61
1.02
-10.63
-19.99
-26.47
-30.36
-32.46
-33.7
-34.85
-36.41
-38.71
-42.01
-46.52
-52.27
-59.16
-66.94
-75.3
-83.94
-92.51
-100.59
-107.64
-113.11
-116.6
-117.9
-116.93
-113.55
-107.45
-98.07
-84.92
-67.9
-47.59
-25.43
-3.51
15.82
30.47
39.03
40.99
36.68
27.14
13.99
-0.61
-14
-23.33
-26.17
-21.35
-9.41
7.45
26.15
43.89
58.96
71.02
80.71
88.91
96.26
102.92
108.73
113.42
116.56
117.59
115.84
110.65
101.74
89.39
74.43
57.95
41.05
24.65
9.54
-3.46
-13.51
-19.83
-22.17
-21.04
-17.86
-14.54
-12.8
-13.56
-16.73
-21.46
-26.8
-32.18
-37.61
-43.39
-49.67
-56.16
-62.19
-67.07
-70.56
-73.08
-75.57
-79.11
-84.4
-91.38
-99.1
-105.88
-109.7
-108.81
-102.12
-89.56
-72.04
-51.22
-29.16
-8.03
10.22
24.19
33.23
37.68
38.64
37.59
35.87
34.22
32.7
30.92
28.49
25.35
21.95
19.06
17.55
18.06
20.88
25.9
32.66
40.35
47.88
54.01
57.55
57.8
54.87
49.95
45.01
42.15
42.59
45.99
50.4
52.99
51.36
44.61
33.73
21.14
9.53
0.72
-4.96
-8.53
-11.64
-15.73
-21.48
-28.8
-37.1
-45.77
-54.44
-62.91
-71.01
-78.27
-83.93
-87
-86.5
-81.75
-72.42
-58.63
-40.84
-19.89
3.03
26.3
48.01
66.2
79.28
86.38
87.73
84.6
78.98
72.93
67.95
64.5
62.01
59.36
55.49
49.95
43.18
36.18
30.02
25.31
21.97
19.41
16.93
14.19
11.46
9.49
9.15
10.99
14.99
20.55
26.64
32.11
35.77
36.61
33.88
27.29
17.3
5.15
-7.4
-18.65
-27.5
-33.81
-38.27
-42.02
-46.16
-51.36
-57.84
-65.36
-73.35
-81.05
-87.69
-92.81
-96.45
-99.22
-101.97
-105.17
-108.41
-110.2
-108.47
-101.37
-88.06
-69.1
-46.28
-22.11
0.83
20.5
35.78
46.59
53.85
59.03
63.48
67.79
71.45
73.13
71.44
65.83
57.05
47.05
38.21
32.41
30.52
32.29
36.69
42.42
48.29
53.43
57.32
59.68
60.28
58.89
55.18
48.96
40.46
30.52
20.48
11.68
4.88
-0.07
-4.09
-8.26
-13.21
-18.84
-24.55
-29.87
-34.89
-40.33
-47
-55.12
-63.87
-71.61
-76.61
-77.89
-75.73
-71.44
-66.69
-62.73
-60.12
-58.96
-59.49
-62.3
-67.95
-76.23
-85.47
-92.71
-94.67
-89.12
-75.87
-56.71
-34.63
-12.53
7.55
24.63
38.42
48.77
55.54
58.72
58.65
56.21
52.57
48.95
46.21
44.75
44.52
45.24
46.62
48.38
50.28
51.94
52.93
52.9
51.94
50.62
49.83
50.24
51.83
53.67
54.37
52.65
48.02
40.91
32.3
23.25
14.5
6.56
-0.06
-4.74
-6.91
-6.6
-4.72
-2.94
-3.08
-6.27
-12.32
-19.71
-26.35
-30.44
-31.41
-30.12
-28.44
-28.39
-31.35
-37.57
-46.37
-56.5
-66.59
-75.4
-81.83
-84.94
-84.04
-78.96
-70.14
-58.56
-45.33
-31.35
-17.02
-2.53
11.84
25.32
36.72
44.76
48.67
48.6
45.57
41.12
36.77
33.6
32.07
32.13
33.46
35.65
38.34
41.31
44.4
47.47
50.35
52.81
54.61
55.49
55.26
53.85
51.31
47.78
43.47
38.62
33.46
28.19
23.03
18.13
13.65
9.64
6.06
2.66
-0.9
-5
-9.91
-15.67
-22.09
-28.87
-35.76
-42.65
-49.4
-55.5
-59.9
-61.07
-57.43
-48.11
-33.31
-14.47
6.19
26.33
44
57.92
67.45
72.36
72.78
69.28
62.88
55.06
47.44
41.28
37.12
34.69
33.17
31.76
30.15
28.66
28.02
28.85
31.22
34.42
37.25
38.47
37.3
33.79
28.72
23.31
18.71
15.57
13.84
12.82
11.45
8.67
3.76
-3.53
-12.94
-23.89
-35.66
-47.69
-59.72
-71.79
-84.04
-96.51
-108.96
-120.95
-131.96
-141.53
-149.21
-154.37
-156
-152.81
-143.69
-128.25
-107.32
-82.81
-57.19
-32.67
-10.72
7.96
23.11
34.46
41.65
44.56
43.63
40.13
35.89
32.76
31.86
33.25
36.02
38.91
40.98
41.93
42.08
41.9
41.66
41.38
41.19
41.67
43.85
48.68
56.26
65.24
73.18
77.4
76.32
70.18
60.89
50.94
42.1
34.57
27.16
18.36
7.46
-4.8
-16.63
-26.3
-33.2
-38.39
-43.98
-51.92
-62.9
-75.98
-89.15
-100.52
-109.13
-115.13
-118.99
-120.58
-118.66
-111.37
-97.33
-76.83
-52.22
-27.24
-5.52
10.72
21.32
27.67
31.58
34.31
36.09
36.57
35.42
32.93
29.95
27.46
26.04
25.64
25.81
26.07
26.32
26.87
28.23
30.76
34.38
38.54
42.48
45.45
47.04
47.18
46.09
44.09
41.55
38.89
36.5
34.69
33.47
32.42
30.86
28.12
24.07
19.19
14.47
10.88
8.78
7.72
6.68
4.64
1.12
-3.55
-8.46
-12.59
-15.33
-16.85
-18.09
-20.44
-25.26
-33.18
-43.72
-55.12
-64.76
-69.91
-68.67
-60.57
-46.77
-29.63
-12
3.52
15.21
22.49
25.87
26.71
26.72
27.39
29.53
33.02
36.91
39.86
40.62
38.7
34.63
29.88
26.49
26.27
30.3
38.65
50.53
64.61
79.45
93.65
105.82
114.63
118.89
117.9
111.95
102.41
91.39
80.75
71.33
62.56
53.07
41.62
27.94
12.79
-2.61
-17.45
-31.68
-45.77
-60.06
-74.11
-86.73
-96.81
-104.48
-111.61
-121.34
-136.36
-157.04
-180.45
-201.1
-213.04
-212.29
-198.47
-174.74
-146.22
-118.11
-94.2
-76.47
-65.29
-59.78
-57.8
-55.92
-49.99
-36.38
-13.53
16.99
50.77
82.2
106.41
120.86
125.62
122.56
114.15
102.69
90.14
78.32
69.15
64.2
64.18
68.41
74.92
81.08
84.51
83.93
79.36
72.04
63.77
56.34
50.92
47.72
45.85
43.67
39.25
31.15
19.04
3.89
-12.37
-27.55
-40.01
-49.17
-55.56
-60.48
-65.48
-71.81
-80.13
-90.34
-101.5
-112.04
-119.97
-123.41
-121.02
-112.44
-98.41
-80.5
-60.69
-40.82
-22.24
-5.67
8.7
21
31.46
40.21
47.15
51.94
54.18
53.68
50.75
46.32
41.64
37.76
35.03
33.01
30.77
27.61
23.55
19.41
16.35
15.26
16.37
19.21
22.98
26.82
30.14
32.48
33.51
33.13
31.56
29.45
27.64
26.76
26.78
27.02
26.39
23.97
19.52
13.52
6.89
0.47
-5.36
-10.67
-15.75
-20.76
-25.66
-30.38
-35.19
-40.8
-48.25
-58.44
-71.55
-86.88
-102.88
-117.6
-129.15
-136.03
-137.17
-131.99
-120.41
-102.95
-80.84
-55.84
-30.03
-5.36
16.61
34.87
48.97
58.94
65.22
68.58
69.97
70.44
70.9
72.08
74.29
77.42
80.87
83.82
85.55
85.9
85.31
84.6
84.31
84.19
83.09
79.65
73.14
64.01
53.63
43.38
33.77
24.2
13.54
1.16
-12.44
-25.83
-37.46
-46.43
-52.71
-56.7
-58.52
-57.81
-54.09
-47.57
-39.7
-32.88
-29.53
-30.89
-36.42
-43.94
-50.63
-54.21
-53.91
-50.66
-46.65
-44.3
-45.22
-49.49
-55.59
-60.96
-62.92
-59.62
-50.51
-36.43
-19.18
-0.98
16.09
30.4
40.9
47.16
49.28
47.83
43.73
38.18
32.48
27.85
25.19
24.87
26.69
30.03
34.11
38.4
42.74
47.31
52.28
57.41
61.97
64.96
65.62
63.81
60.15
55.66
51.23
47.11
42.9
37.91
31.7
24.41
16.75
9.46
2.86
-3.34
-9.82
-17.13
-25.27
-33.55
-41.02
-46.89
-50.93
-53.62
-55.84
-58.57
-62.52
-67.89
-74.35
-81
-86.48
-89.23
-87.79
-81.2
-69.32
-52.95
-33.76
-13.93
4.38
19.43
30.28
36.82
39.62
39.63
37.85
35.23
32.56
30.58
29.91
30.88
33.48
37.26
41.42
45.03
47.34
48.01
47.2
45.43
43.24
40.78
37.59
32.72
25.27
15.06
3
-9.08
-19.18
-26.02
-29.6
-31
-31.68
-32.65
-34.03
-35.34
-35.98
-35.75
-34.98
-34.18
-33.84
-34.16
-35.22
-37.2
-40.43
-45.23
-51.47
-58.32
-64.15
-66.88
-64.59
-56.24
-42.12
-23.95
-4.43
13.5
27.56
36.66
41.06
41.99
41.06
39.67
38.74
38.64
39.3
40.36
41.35
41.79
41.38
40.12
38.27
36.26
34.37
32.54
30.39
27.35
22.97
17.06
9.92
2.16
-5.32
-11.63
-16.15
-18.78
-19.99
-20.65
-21.6
-23.22
-25.29
-27.22
-28.5
-29
-29.12
-29.53
-30.87
-33.65
-38.22
-44.82
-53.31
-62.8
-71.43
-76.67
-76.16
-68.67
-54.71
-36.43
-16.71
1.8
17.43
29.59
38.39
44.2
47.36
48.22
47.29
45.24
42.87
40.87
39.67
39.47
40.35
42.41
45.72
50.12
55.06
59.54
62.48
63.2
61.78
58.99
55.77
52.55
48.98
44.19
37.59
29.47
21.09
14.02
9.23
6.51
4.6
2.03
-2.04
-7.51
-13.73
-20.35
-27.88
-37.66
-51.08
-68.6
-89.07
-109.78
-127.31
-138.51
-141.58
-136.35
-124.16
-107.2
-87.76
-67.71
-48.38
-30.62
-15.06
-2.23
7.52
14.13
17.93
19.55
19.75
19.18
18.25
17.21
16.3
15.78
15.92
16.75
17.99
19.09
19.56
19.25
18.5
17.93
17.98
18.61
19.12
18.6
16.39
12.6
8.03
3.84
0.9
-0.6
-1.11
-1.38
-1.97
-2.99
-4.19
-5.38
-6.69
-8.6
-11.6
-15.66
-19.95
-22.89
-22.77
-18.36
-9.44
3.2
18.09
33.62
48.4
61.42
71.9
79.31
83.27
83.74
81.08
76
69.41
62.22
55.2
48.95
43.85
40.09
37.58
35.97
34.7
33.18
31.02
28.17
24.89
21.64
18.85
16.73
15.13
13.59
11.45
8.13
3.39
-2.52
-8.89
-14.75
-19.37
-22.59
-25.1
-28.15
-33.19
-41.29
-52.79
-67.08
-82.62
-97.17
-108.09
-112.92
-109.99
-98.95
-80.91
-58.16
-33.48
-9.45
11.96
29.47
42.37
50.42
53.9
53.67
51.19
48.02
45.32
43.41
41.87
39.92
37.02
33.25
29.23
25.74
23.35
22.17
21.89
22
22.03
21.64
20.65
18.98
16.58
13.44
9.66
5.45
1.1
-3.17
-7.27
-11.32
-15.49
-19.91
-24.54
-29.28
-34.05
-38.98
-44.36
-50.55
-57.78
-65.92
-74.41
-82.16
-87.74
-89.59
-86.36
-77.39
-62.93
-44.18
-22.95
-1.23
19.24
37.09
51.35
61.37
66.82
67.93
65.51
60.83
55.33
50.08
45.61
41.93
38.84
36.31
34.51
33.82
34.4
36.11
38.4
40.58
42.05
42.52
42.03
40.84
39.19
37.2
34.86
32.18
29.29
26.45
23.97
21.97
20.37
18.87
17.18
15.09
12.6
9.81
6.85
3.82
0.84
-1.87
-4.13
-5.86
-7.32
-9
-11.4
-14.76
-18.84
-23.09
-26.98
-30.32
-33.4
-36.71
-40.54
-44.71
-48.64
-51.68
-53.67
-55.03
-56.7
-59.57
-64.08
-70.13
-77.2
-84.71
-92.12
-98.71
-103.36
-104.4
-99.97
-88.74
-70.48
-46.35
-18.6
10.02
36.76
59.23
75.4
83.8
83.66
75.27
60.18
41.04
21.09
3.37
-9.94
-17.86
-20.65
-19.4
-15.67
-10.98
-6.53
-2.98
-0.49
1.21
2.64
4.44
7.13
11.07
16.26
22.34
28.7
34.52
39.03
41.52
41.54
38.93
34
27.53
20.67
14.64
10.29
7.8
6.68
6.03
4.97
3.02
0.08
-3.55
-7.5
-11.38
-14.85
-17.65
-19.66
-20.96
-21.94
-23.11
-24.96
-27.73
-31.35
-35.47
-39.74
-43.86
-47.73
-51.41
-55.17
-59.47
-64.8
-71.47
-79.18
-86.76
-92.24
-93.34
-88.23
-76.25
-58.21
-36.03
-12.25
10.75
31.17
47.93
60.55
69.03
73.67
74.99
73.69
70.53
66.31
61.71
57.26
53.25
49.82
47.03
44.94
43.62
43.1
43.3
43.98
44.75
45.21
45.08
44.26
42.83
40.96
38.79
36.39
33.73
30.72
27.37
23.74
20
16.34
12.89
9.62
6.4
3
-0.74
-4.87
-9.39
-14.29
-19.57
-25.14
-30.75
-35.95
-40.28
-43.48
-45.8
-47.98
-51.11
-56.13
-63.42
-72.46
-81.85
-89.5
-93.2
-91.15
-82.46
-67.44
-47.52
-24.93
-2.15
18.6
35.75
48.56
57.07
61.92
64.08
64.52
64
62.95
61.49
59.63
57.36
54.87
52.52
50.75
49.9
50.12
51.32
53.19
55.33
57.32
58.83
59.55
59.24
57.71
55.02
51.52
47.88
44.84
42.85
41.79
40.85
38.9
34.95
28.69
20.56
11.52
2.6
-5.5
-12.67
-19.2
-25.6
-32.28
-39.47
-47.16
-55.15
-63.09
-70.5
-76.88
-81.76
-84.87
-86.42
-87.13
-88.22
-90.91
-95.85
-102.42
-108.63
-111.53
-108.13
-96.58
-76.78
-50.58
-21.11
8
33.48
53.01
65.46
70.95
70.68
66.59
60.81
55.16
50.76
47.94
46.32
45.14
43.67
41.48
38.74
36.14
34.69
35.23
38.01
42.41
47.07
50.45
51.37
49.39
44.88
38.68
31.81
25.19
19.52
15.18
12.11
9.71
7.04
3.14
-2.43
-9.31
-16.38
-22.25
-25.84
-26.83
-25.75
-23.69
-21.85
-21.21
-22.36
-25.45
-30.25
-36.28
-42.86
-49.34
-55.3
-60.64
-65.5
-70.14
-74.73
-79.34
-84.04
-88.98
-94.23
-99.54
-104
-106.03
-103.79
-95.84
-81.82
-62.63
-40.14
-16.52
6.32
27.05
44.87
59.31
70.05
76.95
80.13
79.96
77.03
72.08
65.84
59.02
52.31
46.26
41.17
37.03
33.46
29.99
26.27
22.33
18.57
15.55
13.69
12.96
12.88
12.73
11.92
10.27
8.08
5.93
4.3
3.37
3
2.96
3.12
3.63
4.77
6.73
9.45
12.53
15.36
17.29
17.82
16.64
13.7
9.18
3.44
-2.98
-9.5
-15.53
-20.66
-24.66
-27.67
-30.18
-33
-37.07
-43.15
-51.43
-61.32
-71.41
-79.92
-85.13
-85.91
-81.82
-73.07
-60.25
-44.2
-25.99
-6.91
11.52
27.84
40.98
50.49
56.58
59.82
60.84
60.06
57.74
54.16
49.84
45.54
42.07
40.01
39.55
40.47
42.28
44.38
46.27
47.52
47.83
47.02
45.07
42.13
38.5
34.56
30.62
26.9
23.49
20.4
17.63
15.08
12.57
9.74
6.18
1.6
-4.02
-10.33
-16.72
-22.6
-27.67
-32.13
-36.62
-42.06
-49.25
-58.57
-69.68
-81.45
-92.12
-99.61
-102.04
-98.13
-87.56
-71.06
-50.25
-27.35
-4.71
15.57
32
43.93
51.5
55.52
57.05
57.09
56.25
54.77
52.55
49.47
45.55
41.12
36.7
32.87
29.98
28.05
26.79
25.79
24.74
23.59
22.49
21.67
21.22
21
20.72
20.09
18.94
17.3
15.3
13.11
10.85
8.48
5.88
2.85
-0.85
-5.31
-10.39
-15.73
-20.79
-25.14
-28.65
-31.6
-34.59
-38.32
-43.41
-50.22
-58.76
-68.59
-78.66
-87.3
-92.43
-92.05
-84.9
-70.92
-51.35
-28.41
-4.65
17.6
36.66
51.56
61.96
68.02
70.34
69.79
67.4
64.2
61.04
58.49
56.83
55.96
55.51
54.9
53.55
51.13
47.68
43.67
39.65
36.04
32.86
29.8
26.46
22.75
18.94
15.61
13.32
12.23
12.07
12.24
12.19
11.6
10.5
9.04
7.29
5.12
2.23
-1.59
-6.43
-12.12
-18.38
-24.98
-31.81
-38.77
-45.75
-52.56
-58.94
-64.66
-69.71
-74.31
-78.94
-84.3
-90.98
-99.16
-108.23
-116.66
-122.24
-122.76
-116.77
-104.09
-85.88
-64.15
-41.11
-18.62
1.99
19.69
33.6
42.94
47.22
46.58
41.91
34.63
26.34
18.4
11.67
6.54
3.05
1
0.17
0.27
1.04
2.35
4.25
6.9
10.55
15.32
21.06
27.25
33.17
38.06
41.46
43.43
44.47
45.31
46.5
48.23
50.23
52.03
53.15
53.35
52.59
50.94
48.42
45.04
40.79
35.76
30.02
23.55
16.14
7.62
-1.98
-12.24
-22.42
-31.83
-40.18
-47.66
-54.8
-62.04
-69.56
-77.19
-84.75
-92.11
-99.08
-105.07
-108.81
-108.44
-102.21
-89.32
-70.51
-48.04
-24.98
-4.25
12.15
23.32
29.23
30.44
28.03
23.75
20.02
19.52
24.28
34.71
49.24
64.81
78.05
86.64
89.96
88.94
85.12
79.73
73.27
65.81
57.61
49.51
42.86
38.8
37.69
38.81
40.57
41.24
39.58
35.28
28.92
21.56
14.29
7.81
2.28
-2.52
-7.02
-11.56
-16.24
-20.91
-25.27
-29.04
-32.09
-34.54
-36.74
-39.14
-42.13
-45.81
-49.99
-54.18
-57.91
-60.99
-63.76
-66.91
-71.16
-76.68
-82.73
-87.69
-89.52
-86.49
-77.8
-63.83
-45.99
-26.24
-6.58
11.37
26.47
38.1
46.04
50.39
51.46
49.78
46.07
41.27
36.38
32.33
29.75
28.86
29.39
30.79
32.48
33.98
35.12
35.89
36.4
36.75
37.01
37.25
37.46
37.52
37.14
35.9
33.39
29.49
24.5
19.14
14.28
10.68
8.6
7.74
7.34
6.49
4.53
1.24
-3.03
-7.67
-12.03
-15.77
-19
-22.22
-26.16
-31.5
-38.56
-47.11
-56.21
-64.34
-69.65
-70.41
-65.52
-54.8
-39.16
-20.31
-0.43
18.37
34.41
46.69
54.92
59.35
60.57
59.28
56.08
51.54
46.23
40.78
35.89
32.16
29.94
29.16
29.37
29.9
30.1
29.49
27.9
25.34
21.89
17.6
12.46
6.49
-0.1
-6.84
-13.11
-18.28
-22.08
-24.67
-26.56
-28.27
-30.02
-31.57
-32.4
-32.07
-30.57
-28.35
-26.16
-24.68
-24.22
-24.67
-25.68
-26.94
-28.28
-29.71
-31.28
-33.05
-35.21
-38.1
-42.25
-48.03
-55.18
-62.53
-68.06
-69.57
-65.46
-55.41
-40.46
-22.56
-3.87
13.86
29.51
42.47
52.41
59.16
62.79
63.64
62.42
60
57.18
54.52
52.28
50.51
49.18
48.33
47.98
48.07
48.4
48.6
48.25
47.11
45.22
42.91
40.55
38.37
36.25
33.85
30.8
27.01
22.74
18.47
14.67
11.57
9.17
7.32
5.95
5.04
4.63
4.61
4.67
4.37
3.3
1.3
-1.49
-4.7
-7.9
-10.8
-13.32
-15.61
-17.95
-20.56
-23.57
-26.98
-30.65
-34.43
-38.11
-41.54
-44.62
-47.32
-49.71
-51.95
-54.26
-56.8
-59.66
-62.85
-66.45
-70.74
-76.09
-82.75
-90.3
-97.41
-101.87
-101.26
-93.86
-79.37
-59.15
-35.75
-12.07
9.44
27.27
40.79
50.03
55.38
57.46
57.09
55.22
52.77
50.44
48.56
47.14
46.01
45.02
44.12
43.37
42.92
42.9
43.3
43.98
44.59
44.75
44.06
42.28
39.41
35.74
31.71
27.83
24.49
21.9
20.03
18.71
17.63
16.55
15.29
13.83
12.31
10.96
9.97
9.37
8.98
8.45
7.33
5.3
2.32
-1.33
-5.15
-8.63
-11.46
-13.61
-15.33
-16.94
-18.73
-20.79
-23.09
-25.56
-28.21
-31.14
-34.5
-38.32
-42.4
-46.35
-49.73
-52.32
-54.27
-56.08
-58.5
-62.18
-67.5
-74.35
-82.09
-89.57
-95.26
-97.52
-94.91
-86.69
-73.03
-55.1
-34.79
-14.25
4.62
20.52
32.87
41.7
47.43
50.62
51.78
51.33
49.66
47.23
44.65
42.61
41.72
42.29
44.15
46.77
49.44
51.58
52.96
53.72
54.19
54.65
55.16
55.5
55.29
54.16
51.88
48.46
44.12
39.18
34
28.89
24.08
19.66
15.62
11.84
8.12
4.32
0.34
-3.79
-7.95
-11.98
-15.78
-19.26
-22.45
-25.45
-28.41
-31.52
-34.93
-38.7
-42.74
-46.86
-50.81
-54.44
-57.71
-60.71
-63.68
-66.94
-70.84
-75.58
-80.87
-85.75
-88.47
-86.97
-79.52
-65.53
-46.01
-23.3
-0.44
19.88
35.94
47.23
54.17
57.69
58.73
58.13
56.57
54.62
52.7
51.01
49.47
47.79
45.66
43
40.11
37.65
36.4
36.84
38.85
41.64
44.01
44.85
43.63
40.61
36.7
32.98
30.24
28.66
27.96
27.64
27.3
26.83
26.25
25.61
24.75
23.37
21.2
18.21
14.73
11.33
8.56
6.7
5.59
4.72
3.48
1.43
-1.54
-5.22
-9.19
-13.06
-16.61
-19.82
-22.82
-25.83
-29.04
-32.52
-36.26
-40.16
-44.11
-48.08
-52.1
-56.34
-61.1
-66.76
-73.72
-82.15
-91.72
-101.36
-109.25
-113.16
-111.1
-102.07
-86.46
-66.01
-43.28
-20.86
-0.72
16.12
29.42
39.43
46.56
51.15
53.52
54.06
53.27
51.79
50.17
48.79
47.73
46.82
45.84
44.71
43.54
42.6
42.14
42.26
42.79
43.44
43.88
43.85
43.19
41.8
39.7
37.03
34.09
31.26
28.9
27.23
26.21
25.63
25.16
24.46
23.23
21.23
18.36
14.73
10.69
6.82
3.74
1.88
1.32
1.71
2.38
2.57
1.6
-0.91
-5
-10.29
-16.17
-21.89
-26.85
-30.78
-33.77
-36.27
-38.83
-41.93
-45.75
-50.19
-54.89
-59.41
-63.41
-66.78
-69.64
-72.37
-75.49
-79.53
-84.81
-91.3
-98.4
-104.96
-109.35
-109.84
-105.04
-94.34
-78.09
-57.59
-34.69
-11.45
10.25
28.98
43.88
54.66
61.53
65.07
66.06
65.34
63.66
61.65
59.76
58.3
57.42
57.17
57.5
58.33
59.46
60.61
61.32
61.07
59.44
56.33
52.13
47.61
43.64
40.8
39.13
38.1
36.94
34.95
31.75
27.4
22.19
16.59
11.06
6.06
2
-0.75
-1.92
-1.51
0.21
2.63
4.93
6.22
5.79
3.33
-1.01
-6.59
-12.5
-17.86
-22.16
-25.39
-27.96
-30.42
-33.21
-36.47
-40.13
-44.03
-48.13
-52.39
-56.71
-60.88
-64.62
-67.87
-70.95
-74.55
-79.31
-85.26
-91.49
-96.1
-96.88
-92.05
-81
-64.42
-44.11
-22.25
-0.93
18.36
34.75
47.92
57.89
64.93
69.41
71.8
72.55
72.11
70.94
69.43
67.99
66.93
66.46
66.63
67.37
68.47
69.63
70.51
70.77
70.18
68.67
66.37
63.49
60.22
56.58
52.45
47.7
42.3
36.49
30.71
25.46
21.1
17.68
14.94
12.37
9.43
5.69
0.99
-4.55
-10.5
-16.31
-21.44
-25.46
-28.23
-29.92
-31.05
-32.36
-34.71
-38.81
-44.94
-52.75
-61.27
-69.19
-75.4
-79.51
-82.09
-84.42
-87.78
-92.65
-98.22
-102.57
-103.4
-98.92
-88.56
-73.06
-54.07
-33.57
-13.39
5.06
20.78
33.19
42.16
47.9
51.02
52.29
52.48
52.14
51.55
50.72
49.5
47.8
45.68
43.48
41.72
40.97
41.56
43.4
46.01
48.63
50.55
51.3
50.82
49.34
47.27
45.01
42.83
40.87
39.06
37.22
35.1
32.49
29.34
25.74
21.92
18.12
14.54
11.29
8.35
5.69
3.26
0.97
-1.32
-3.86
-7.01
-11.12
-16.42
-22.79
-29.75
-36.56
-42.45
-46.96
-50.14
-52.59
-55.19
-58.74
-63.62
-69.7
-76.5
-83.52
-90.47
-97.2
-103.47
-108.54
-111.19
-109.87
-103.29
-90.88
-73.05
-51.09
-26.89
-2.59
19.74
38.24
51.6
59.21
61.42
59.43
55.08
50.31
46.67
44.96
45.12
46.41
47.78
48.31
47.48
45.36
42.46
39.48
37.04
35.49
34.88
35.03
35.64
36.32
36.66
36.25
34.81
32.33
29.06
25.45
21.98
18.98
16.56
14.66
13.15
11.84
10.57
9.1
7.26
5
2.49
0.06
-1.96
-3.44
-4.64
-6.14
-8.59
-12.38
-17.4
-23.06
-28.54
-33.22
-36.89
-39.8
-42.45
-45.32
-48.58
-52.16
-55.79
-59.19
-62.28
-65.13
-68.05
-71.35
-75.21
-79.43
-83.28
-85.5
-84.61
-79.31
-69.03
-54.08
-35.69
-15.59
4.42
22.91
38.91
51.9
61.61
67.9
70.71
70.22
66.93
61.71
55.69
49.92
45.17
41.71
39.4
37.9
36.97
36.51
36.53
36.98
37.54
37.77
37.22
35.71
33.42
30.83
28.48
26.7
25.57
24.84
24.19
23.25
21.77
19.62
16.82
13.45
9.64
5.55
1.29
-2.98
-7.08
-10.82
-14.03
-16.64
-18.74
-20.53
-22.23
-24.01
-25.9
-27.9
-30.03
-32.43
-35.28
-38.7
-42.62
-46.79
-50.9
-54.82
-58.65
-62.69
-67.16
-71.85
-75.99
-78.27
-77.26
-71.82
-61.49
-46.65
-28.42
-8.37
11.78
30.44
46.35
58.65
66.89
71.09
71.66
69.39
65.32
60.57
56.03
52.25
49.31
46.99
45.04
43.39
42.22
41.85
42.38
43.56
44.79
45.36
44.77
42.93
40.16
36.97
33.79
30.85
28.19
25.7
23.32
20.96
18.6
16.2
13.65
10.83
7.58
3.75
-0.71
-5.75
-11.17
-16.7
-22.12
-27.35
-32.54
-37.92
-43.76
-50.19
-57.31
-65.23
-73.97
-83.33
-92.57
-100.25
-104.47
-103.34
-95.83
-82.2
-64.12
-44.1
-24.66
-7.6
6.25
16.96
25
30.91
35.09
37.8
39.26
39.72
39.43
38.51
36.94
34.66
31.73
28.49
25.6
23.87
23.89
25.75
28.87
32.16
34.41
34.74
32.86
29.16
24.4
19.52
15.35
12.52
11.38
11.94
13.82
16.24
18.18
18.7
17.21
13.79
9.07
4
-0.56
-4.15
-6.81
-8.99
-11.25
-13.98
-17.29
-20.97
-24.69
-28.16
-31.37
-34.58
-38.36
-43.43
-50.47
-59.8
-71.12
-83.19
-93.89
-100.6
-100.92
-93.53
-78.68
-58.27
-35.27
-12.85
6.52
21.55
32.07
38.75
42.54
44.37
44.98
45.01
44.96
45.19
45.81
46.6
47.04
46.61
44.97
42.24
38.9
35.65
33.06
31.4
30.63
30.55
30.88
31.37
31.66
31.2
29.41
25.87
20.7
14.65
8.95
4.88
3.17
3.77
5.88
8.31
9.95
10.21
9.03
6.82
4.13
1.39
-1.12
-3.36
-5.3
-6.94
-8.33
-9.64
-11.25
-13.64
-17.21
-22.04
-27.83
-33.93
-39.61
-44.36
-48.02
-50.96
-53.87
-57.59
-62.75
-69.39
-76.74
-83.21
-86.79
-85.65
-78.79
-66.42
-49.88
-31.15
-12.25
5.3
20.67
33.56
43.93
51.71
56.75
58.9
58.25
55.29
50.83
45.86
41.21
37.38
34.48
32.39
30.97
30.24
30.28
31.1
32.49
34.02
35.14
35.41
34.66
32.96
30.58
27.9
25.29
23.01
21.18
19.75
18.51
17.2
15.64
13.83
11.9
9.98
8.05
5.96
3.55
0.77
-2.26
-5.34
-8.38
-11.59
-15.33
-19.94
-25.35
-31.02
-36.11
-39.84
-41.94
-42.71
-42.93
-43.48
-45.12
-48.26
-52.98
-58.98
-65.56
-71.51
-75.33
-75.43
-70.68
-60.83
-46.56
-29.31
-10.84
7.28
23.9
38.3
50.07
58.94
64.72
67.38
67.19
64.77
61.07
57.12
53.77
51.44
50.15
49.64
49.59
49.86
50.38
51.12
51.83
52.12
51.63
50.23
48.09
45.58
43.02
40.5
37.84
34.81
31.25
27.2
22.84
18.33
13.72
8.97
4.04
-1.08
-6.28
-11.36
-16.06
-20.08
-23.13
-25.15
-26.4
-27.54
-29.41
-32.72
-37.66
-43.77
-50.15
-55.77
-59.97
-62.6
-64.1
-65.33
-67.32
-70.97
-76.66
-84.02
-91.66
-97.44
-98.93
-94.2
-82.52
-64.66
-42.71
-19.52
2.16
20.24
33.7
42.5
47.43
49.61
50.21
50.13
49.94
49.89
49.98
50.05
49.85
49.03
47.33
44.67
41.3
37.8
34.89
33.16
32.74
33.31
34.18
34.64
34.23
32.93
31.11
29.25
27.76
26.74
26.04
25.29
24.15
22.42
20.09
17.32
14.39
11.55
9.08
7.16
5.88
5.17
4.76
4.29
3.36
1.7
-0.71
-3.65
-6.79
-9.81
-12.58
-15.16
-17.73
-20.42
-23.2
-25.86
-28.23
-30.26
-32.18
-34.39
-37.29
-41.06
-45.51
-50.24
-54.8
-58.9
-62.5
-65.81
-69.19
-73.12
-78.03
-84.16
-91.28
-98.46
-104.06
-106.03
-102.46
-92.33
-75.87
-54.65
-31.14
-8.04
12.37
28.71
40.58
48.47
53.28
55.95
57.13
57.07
55.83
53.56
50.63
47.58
44.9
42.83
41.27
40.01
38.89
37.96
37.43
37.45
38
38.84
39.65
40.1
39.98
39.12
37.48
35.15
32.42
29.74
27.56
26.12
25.29
24.68
23.75
22.14
19.77
16.83
13.67
10.63
7.94
5.67
3.78
2.12
0.47
-1.44
-3.82
-6.75
-10.08
-13.48
-16.51
-18.92
-20.66
-22.03
-23.49
-25.48
-28.23
-31.6
-35.13
-38.11
-40.01
-40.71
-40.84
-41.66
-44.74
-51.37
-61.95
-75.68
-90.67
-104.35
-114.13
-118
-114.89
-104.75
-88.53
-67.85
-44.77
-21.41
0.39
19.35
34.85
46.87
55.74
61.88
65.71
67.47
67.43
65.89
63.3
60.23
57.27
54.99
53.73
53.61
54.5
56.01
57.62
58.77
59.02
58.16
56.27
53.65
50.71
47.8
45.14
42.74
40.46
38.07
35.29
31.94
27.93
23.36
18.5
13.72
9.3
5.4
1.88
-1.59
-5.45
-10
-15.28
-21.01
-26.69
-31.82
-36.15
-39.75
-42.96
-46.25
-50.01
-54.53
-59.97
-66.52
-74.27
-82.97
-91.71
-98.82
-102.08
-99.45
-89.78
-73.38
-51.98
-28.2
-4.82
15.99
32.97
45.77
54.69
60.36
63.48
64.71
64.61
63.6
62
59.98
57.59
54.86
51.91
48.95
46.37
44.59
43.86
44.13
44.98
45.79
45.96
45.13
43.27
40.6
37.46
34.12
30.76
27.42
24.08
20.66
17.09
13.41
9.81
6.59
4.04
2.21
0.84
-0.55
-2.45
-5.08
-8.32
-11.8
-15.13
-18.08
-20.69
-23.1
-25.56
-28.27
-31.41
-35.15
-39.56
-44.56
-49.8
-54.73
-58.79
-61.54
-62.94
-63.32
-63.5
-64.59
-67.78
-73.82
-82.64
-92.92
-102.27
-107.79
-106.96
-98.44
-82.5
-60.82
-35.91
-10.48
13.11
32.99
47.91
57.24
61.09
60.32
56.45
51.33
46.66
43.54
42.23
42.2
42.53
42.39
41.45
40.03
38.94
39.02
40.71
43.81
47.54
51
53.48
54.74
54.93
54.34
53.18
51.47
49.22
46.5
43.57
40.74
38.17
35.81
33.36
30.47
26.93
22.75
18.15
13.41
8.79
4.47
0.59
-2.76
-5.6
-8.07
-10.43
-13.03
-16.11
-19.73
-23.72
-27.75
-31.5
-34.76
-37.56
-40.1
-42.64
-45.37
-48.37
-51.6
-54.97
-58.4
-61.9
-65.58
-69.74
-74.77
-81.05
-88.6
-96.83
-104.33
-109.07
-108.89
-102.31
-88.94
-69.69
-46.47
-21.68
2.27
23.28
39.77
50.78
56.11
56.35
52.79
47.15
41.18
36.31
33.42
32.73
33.9
36.16
38.55
40.23
40.69
39.87
38.15
36.08
34.2
32.85
32.15
32.03
32.23
32.31
31.75
30.08
27.15
23.18
18.85
14.93
12.02
10.23
9.15
8.08
6.4
3.9
0.9
-1.91
-3.83
-4.53
-4.23
-3.58
-3.41
-4.41
-6.93
-10.96
-16.26
-22.44
-29.04
-35.54
-41.42
-46.26
-49.87
-52.44
-54.47
-56.57
-59.05
-61.65
-63.41
-62.87
-58.52
-49.4
-35.54
-18
1.31
20.21
36.75
49.65
58.36
62.94
63.9
62.01
58.33
54.04
50.26
47.79
46.83
46.97
47.47
47.64
47.24
46.44
45.62
45.03
44.53
43.74
42.23
39.87
36.82
33.43
29.96
26.53
23.08
19.61
16.12
12.7
9.25
5.55
1.27
-3.76
-9.37
-15.08
-20.29
-24.58
-27.93
-30.76
-33.61
-36.98
-41.01
-45.54
-50.26
-54.89
-59.36
-63.86
-68.73
-74.39
-81.15
-89.07
-97.73
-106.17
-112.88
-116.07
-114.08
-105.88
-91.41
-71.63
-48.37
-23.88
-0.44
20.1
36.55
48.5
56.23
60.47
62.15
62.13
61.08
59.49
57.7
55.9
54.16
52.41
50.59
48.72
47.02
45.81
45.34
45.6
46.26
46.84
46.92
46.3
45.03
43.2
40.85
37.92
34.43
30.55
26.64
23.07
20.02
17.34
14.64
11.47
7.61
3.14
-1.57
-6.13
-10.3
-14.09
-17.76
-21.65
-25.95
-30.58
-35.18
-39.25
-42.48
-44.83
-46.66
-48.51
-51.01
-54.66
-59.79
-66.61
-75.07
-84.67
-94.3
-102.16
-106.06
-103.98
-94.8
-78.67
-57.08
-32.43
-7.43
15.51
34.69
49.19
58.82
63.99
65.48
64.34
61.68
58.48
55.51
53.18
51.53
50.41
49.5
48.62
47.71
46.97
46.64
46.91
47.79
49.02
50.14
50.64
50.1
48.3
45.38
41.69
37.69
33.79
30.13
26.65
23.11
19.33
15.36
11.38
7.63
4.13
0.68
-3.09
-7.41
-12.23
-17.08
-21.35
-24.55
-26.59
-27.88
-29.12
-31.01
-33.92
-37.79
-42.17
-46.47
-50.2
-53.11
-55.29
-57.15
-59.28
-62.32
-66.76
-72.63
-79.28
-85.31
-88.71
-87.42
-79.94
-65.87
-46.14
-22.8
1.46
24
42.69
56.32
64.63
68.18
68.03
65.47
61.59
57.26
53.06
49.48
46.92
45.61
45.45
45.83
45.83
44.53
41.48
37
31.95
27.47
24.31
22.6
21.83
21.2
19.97
17.79
14.71
11.05
7.26
3.78
1.01
-0.74
-1.3
-0.83
0.28
1.33
1.57
0.41
-2.3
-6.27
-10.9
-15.52
-19.67
-23.24
-26.39
-29.33
-32.19
-34.92
-37.37
-39.5
-41.49
-43.72
-46.63
-50.56
-55.49
-61.09
-66.7
-71.41
-74.14
-73.72
-69.1
-59.6
-45.21
-26.81
-6.11
14.68
33.41
48.47
59.14
65.52
68.27
68.2
66.1
62.58
58.18
53.48
48.99
45.2
42.32
40.36
39.15
38.43
38.03
37.84
37.8
37.8
37.62
37.02
35.73
33.64
30.77
27.26
23.35
19.23
15.1
11.08
7.24
3.65
0.31
-2.86
-5.99
-9.27
-12.85
-16.82
-21.14
-25.68
-30.26
-34.77
-39.1
-43.2
-47.08
-50.79
-54.54
-58.66
-63.64
-69.82
-77.1
-84.68
-91
-94.06
-91.99
-83.69
-69.23
-49.88
-27.75
-5.27
15.43
32.84
46.2
55.37
60.63
62.52
61.67
58.85
54.83
50.41
46.24
42.76
40.08
38.12
36.68
35.64
34.99
34.86
35.29
36.15
37.05
37.48
36.96
35.21
32.29
28.58
24.61
20.92
17.86
15.47
13.48
11.45
8.92
5.69
1.87
-2.13
-5.89
-9.13
-11.91
-14.6
-17.65
-21.41
-25.84
-30.63
-35.24
-39.27
-42.57
-45.36
-48.09
-51.34
-55.62
-61.25
-68.27
-76.34
-84.61
-91.73
-96
-95.75
-89.72
-77.5
-59.71
-37.95
-14.5
8.18
27.91
43.15
53.23
58.35
59.37
57.6
54.37
50.85
47.8
45.51
43.92
42.74
41.69
40.63
39.64
38.93
38.69
38.96
39.53
40.1
40.37
40.21
39.62
38.63
37.19
35.11
32.19
28.45
24.2
20.04
16.61
14.21
12.67
11.39
9.63
6.91
3.21
-1.02
-5.16
-8.72
-11.62
-14.13
-16.71
-19.73
-23.27
-27.18
-31.24
-35.34
-39.5
-43.81
-48.3
-52.87
-57.44
-62.14
-67.39
-73.67
-81.16
-89.15
-96.01
-99.41
-97.17
-88.06
-72.29
-51.55
-28.35
-5.36
15.3
32.33
45.23
54.04
59.11
60.96
60.25
57.73
54.25
50.65
47.52
45.19
43.63
42.6
41.79
41.05
40.39
39.89
39.59
39.36
38.93
37.98
36.37
34.09
31.31
28.25
25.1
22.05
19.24
16.8
14.72
12.89
11.05
8.91
6.3
3.24
-0.08
-3.38
-6.45
-9.24
-11.79
-14.2
-16.53
-18.79
-21.06
-23.44
-26.12
-29.21
-32.72
-36.41
-39.97
-43.09
-45.64
-47.7
-49.57
-51.68
-54.55
-58.71
-64.48
-71.78
-79.9
-87.38
-92.23
-92.41
-86.49
-74.15
-56.38
-35.17
-12.99
7.84
25.6
39.38
49.02
54.89
57.61
57.91
56.42
53.77
50.57
47.39
44.69
42.74
41.57
41.01
40.87
41.01
41.41
42.08
42.95
43.8
44.27
43.97
42.6
40.09
36.54
32.26
27.68
23.24
19.31
16.08
13.53
11.44
9.46
7.34
4.98
2.48
0.07
-2.03
-3.72
-5.11
-6.47
-8.11
-10.28
-13.12
-16.54
-20.33
-24.18
-27.83
-31.1
-34.05
-36.94
-40.2
-44.36
-49.78
-56.51
-63.99
-71.06
-76.04
-77.17
-73.06
-63.22
-48.24
-29.7
-9.76
9.41
26.12
39.38
48.93
54.97
57.96
58.4
56.81
53.75
49.89
45.89
42.35
39.64
37.84
36.81
36.27
36
35.84
35.78
35.8
35.8
35.57
34.83
33.31
30.86
27.56
23.69
19.66
15.81
12.35
9.23
6.2
2.96
-0.65
-4.59
-8.64
-12.55
-16.21
-19.74
-23.35
-27.27
-31.52
-35.98
-40.36
-44.45
-48.13
-51.44
-54.58
-57.88
-61.83
-66.94
-73.53
-81.42
-89.54
-96.04
-98.64
-95.4
-85.44
-69.32
-48.84
-26.51
-4.75
14.63
30.64
42.95
51.67
57.11
59.73
60.1
58.89
56.82
54.53
52.44
50.72
49.29
48.02
46.82
45.76
45.05
44.85
45.12
45.58
45.73
45.12
43.49
40.92
37.73
34.32
30.97
27.83
24.94
22.3
19.92
17.81
15.88
13.97
11.85
9.28
6.17
2.59
-1.21
-4.85
-8.03
-10.66
-12.95
-15.29
-18.11
-21.72
-26.14
-31.13
-36.31
-41.33
-45.95
-50.12
-53.95
-57.66
-61.67
-66.5
-72.6
-80.05
-88.23
-95.66
-100.24
-99.83
-92.98
-79.41
-60.21
-37.45
-13.67
8.79
28.2
43.54
54.55
61.45
64.84
65.51
64.29
61.98
59.21
56.42
53.83
51.5
49.42
47.61
46.13
45.09
44.48
44.16
43.76
42.87
41.17
38.61
35.45
32.07
28.85
25.98
23.47
21.21
19.11
17.15
15.37
13.88
12.79
12.21
12.28
13
14.19
15.43
16.13
15.68
13.74
10.38
6.12
1.78
-1.79
-3.99
-4.59
-3.78
-2.02
0.17
2.29
3.92
4.71
4.28
2.26
-1.67
-7.61
-15.29
-24.1
-33.13
-41.5
-48.66
-54.57
-59.7
-64.86
-70.78
-77.87
-85.92
-94.1
-101.09
-105.32
-105.29
-99.96
-88.96
-72.73
-52.57
-30.34
-8.19
11.84
28.21
40.08
47.39
50.68
50.84
48.92
45.85
42.46
39.37
37.06
35.74
35.41
35.85
36.76
37.89
39.18
40.67
42.39
44.2
45.78
46.69
46.61
45.45
43.33
40.54
37.38
34.07
30.76
27.52
24.33
21.13
17.81
14.3
10.55
6.65
2.69
-1.21
-5.04
-8.88
-12.86
-17.11
-21.66
-26.44
-31.29
-36
-40.35
-44.17
-47.42
-50.29
-53.19
-56.68
-61.27
-67.15
-73.97
-80.74
-85.94
-87.8
-84.64
-75.39
-59.9
-39.05
-14.66
10.82
34.84
55.19
70.41
79.99
84.35
84.59
82.17
78.55
74.91
72.06
70.34
69.76
70.08
70.98
72.16
73.39
74.53
75.52
76.25
76.52
75.99
74.3
71.19
66.65
60.86
54.05
46.26
37.2
26.46
13.7
-0.94
-16.69
-32.29
-46.4
-58.13
-67.33
-74.6
-81.15
-88.32
-97.18
-108.04
-120.18
-131.88
-140.99
-145.62
-144.94
-139.49
-130.77
-120.61
-110.44
-100.93
-92.22
-84.28
-77.31
-71.66
-67.67
-65.38
-64.54
-64.7
-65.17
-64.83
-61.94
-54.47
-40.84
-20.76
4.31
31.43
57.16
78.6
93.97
102.61
104.59
100.36
90.73
77.15
61.73
46.99
35.15
27.5
24.03
23.81
25.48
27.95
30.57
33.02
35.01
36.15
36.04
34.59
32.26
29.98
28.81
29.41
31.81
35.5
39.73
43.8
47.14
49.19
49.41
47.45
43.49
38.31
33.11
28.84
25.69
23
19.63
14.65
7.84
-0.29
-8.82
-16.94
-24.04
-29.7
-33.41
-34.59
-32.89
-28.56
-22.71
-17.23
-14.28
-15.69
-22.4
-34.25
-50.02
-67.75
-85.01
-99.24
-108.1
-109.83
-103.7
-90.48
-72.6
-53.79
-38.32
-29.8
-30.18
-39.13
-54.1
-71.04
-85.4
-93.26
-92.1
-81.18
-61.52
-35.49
-6.28
22.8
48.88
69.98
85.13
94.33
98.36
98.44
96
92.34
88.42
84.68
81.01
76.94
72.02
66.29
60.49
55.95
54.17
56.04
61.34
68.74
76.22
81.89
84.59
84.11
81.01
76.2
70.56
64.75
59.23
54.28
49.94
46.02
42.13
37.86
32.98
27.55
21.83
16.01
10.06
3.71
-3.37
-11.26
-19.73
-28.36
-36.71
-44.59
-52.03
-59.18
-66.06
-72.45
-78.01
-82.6
-86.47
-90.23
-94.49
-99.24
-103.42
-105.07
-101.89
-92.19
-75.66
-53.6
-28.52
-3.39
19.15
37.27
50.08
57.56
60.38
59.76
57.25
54.42
52.53
52.28
53.71
56.34
59.31
61.61
62.27
60.6
56.5
50.58
44.07
38.35
34.4
32.46
32.08
32.49
33.14
33.83
34.62
35.54
36.31
36.4
35.3
32.78
28.93
24.11
18.64
12.74
6.54
0.26
-5.69
-10.67
-14.02
-15.26
-14.32
-11.58
-7.89
-4.41
-2.4
-2.92
-6.49
-12.92
-21.27
-30.1
-37.9
-43.63
-47.08
-48.92
-50.39
-52.86
-57.28
-63.92
-72.3
-81.36
-89.79
-96.43
-100.68
-102.74
-103.51
-104.4
-106.78
-111.5
-118.43
-126.34
-132.88
-135.09
-130.01
-115.6
-91.5
-59.49
-23.23
12.56
43.28
65.64
78.15
81.22
76.55
66.62
54.22
42.09
32.66
27.63
27.67
32.33
40.2
49.44
58.28
65.39
70.05
72.16
72.08
70.67
68.94
67.77
67.5
67.72
67.56
66.11
63.07
58.91
54.61
51.07
48.58
46.73
44.76
42.12
38.93
35.89
33.81
32.85
32.04
29.22
21.74
7.4
-14.38
-42.04
-71.95
-99.38
-119.82
-130.2
-129.6
-119.21
-101.73
-80.66
-59.44
-41.03
-27.53
-20.14
-19.08
-23.65
-32.46
-43.7
-55.57
-66.71
-76.46
-84.69
-91.51
-96.77
-99.84
-99.65
-95.13
-85.68
-71.48
-53.53
-33.28
-12.29
8.07
26.76
43.02
56.35
66.51
73.49
77.47
78.9
78.34
76.34
73.21
68.96
63.38
56.35
48.26
40.2
33.84
30.86
32.27
37.96
46.66
56.43
65.2
71.31
73.69
71.84
65.84
56.22
44.1
31
18.65
8.58
1.84
-1.2
-0.91
1.81
5.68
9.2
10.94
9.73
4.88
-3.65
-15.25
-28.82
-42.94
-56.14
-67.18
-75.19
-80
-82.19
-83.04
-84.15
-86.75
-91.11
-96.22
-100.04
-100.21
-94.9
-83.34
-65.96
-44.01
-19.22
6.63
31.76
54.56
73.64
88.04
97.35
101.69
101.6
97.88
91.43
83.18
74.15
65.31
57.49
51.35
47.37
45.85
46.84
49.92
54.05
57.51
58.34
55
46.96
35.06
21.3
8.11
-2.26
-8.41
-10
-7.66
-2.7
3.23
8.5
11.74
11.98
8.78
2.22
-7.04
-17.88
-28.87
-38.52
-45.68
-49.78
-50.96
-49.93
-47.78
-45.63
-44.47
-45.09
-48.05
-53.63
-61.8
-72.09
-83.54
-94.62
-103.49
-108.14
-106.93
-98.87
-83.9
-62.83
-37.21
-9.05
19.44
46
68.65
86
97.5
103.52
105.12
103.6
100.1
95.37
89.78
83.41
76.04
67.23
56.48
43.64
29.36
15.26
3.61
-3.52
-5.18
-1.9
4.55
12.02
18.77
23.99
27.68
30.12
31.39
31.06
28.34
22.61
13.94
3.28
-7.81
-17.85
-26.09
-32.86
-39.19
-46.09
-53.75
-61.21
-66.82
-69.05
-67.41
-62.75
-56.81
-51.38
-47.61
-45.79
-45.55
-46.49
-48.48
-51.79
-56.88
-64.02
-73.04
-83.32
-93.8
-103.2
-110.06
-112.96
-110.69
-102.56
-88.51
-69.16
-45.65
-19.42
7.83
34.2
57.63
76.18
88.43
93.87
93.02
87.31
78.58
68.75
59.45
51.88
46.72
44.06
43.55
44.49
46.25
48.47
51.12
54.3
57.94
61.67
64.82
66.81
67.34
66.49
64.63
62.16
59.39
56.47
53.54
50.7
48.09
45.78
43.71
41.6
39
35.5
30.8
24.95
18.29
11.36
4.56
-1.97
-8.35
-14.81
-21.33
-27.57
-32.9
-36.79
-39.18
-40.57
-42
-44.54
-48.92
-55.2
-62.85
-70.9
-78.44
-84.78
-89.66
-93.13
-95.56
-97.56
-99.93
-103.55
-109.02
-116.16
-123.67
-129.21
-130.05
-123.96
-110.08
-89.12
-63.08
-34.49
-5.84
20.77
43.62
61.39
73.26
79.11
79.68
76.53
71.58
66.64
62.91
60.78
59.79
59.06
57.67
55.14
51.67
48.01
45.17
43.91
44.46
46.5
49.33
52.18
54.3
55.11
54.18
51.3
46.64
40.74
34.42
28.49
23.42
19.22
15.45
11.58
7.19
2.2
-3.26
-8.88
-14.51
-20.15
-25.97
-32.15
-38.78
-45.88
-53.51
-61.66
-70.04
-77.77
-83.26
-84.47
-79.6
-67.79
-49.6
-26.89
-2.25
21.77
43.15
60.59
73.3
80.89
83.38
81.38
76.2
69.64
63.54
59.14
56.76
55.85
55.37
54.44
52.7
50.38
47.97
45.91
44.46
43.75
43.73
44.14
44.28
43.1
39.55
33.14
24.37
14.55
5.2
-2.67
-9.02
-14.55
-20.12
-26.21
-32.81
-39.62
-46.49
-53.48
-60.75
-68.2
-75.42
-81.79
-86.81
-90.44
-93.24
-96.22
-100.38
-106.17
-112.94
-118.85
-121.21
-117.37
-105.72
-86.31
-60.9
-32.31
-3.49
23.11
45.83
63.62
75.87
82.34
83.34
79.86
73.56
66.35
59.83
54.85
51.28
48.31
45.11
41.29
37.21
33.66
31.37
30.54
30.75
31.22
31.26
30.52
29
26.84
24.11
20.78
16.93
12.84
8.97
5.72
3.19
1.08
-1.11
-3.81
-7.24
-11.42
-16.32
-21.92
-28.14
-34.76
-41.4
-47.55
-52.94
-57.57
-61.79
-66.11
-71.05
-77.02
-84.25
-92.7
-101.85
-110.54
-116.94
-118.86
-114.33
-102.3
-83.11
-58.54
-31.39
-4.68
19.11
38.5
53.07
63.11
69.24
72.02
71.92
69.41
65.11
59.83
54.44
49.68
45.94
43.31
41.62
40.68
40.33
40.42
40.77
41.1
41.08
40.46
39.09
37
34.32
31.2
27.8
24.19
20.4
16.45
12.33
8.05
3.73
-0.52
-4.49
-8.03
-11.05
-13.61
-15.92
-18.31
-21.07
-24.3
-27.86
-31.38
-34.42
-36.75
-38.49
-40.22
-42.76
-47
-53.46
-62.07
-71.95
-81.48
-88.61
-91.25
-87.83
-77.73
-61.41
-40.31
-16.53
7.6
29.83
48.29
61.74
69.68
72.41
70.94
66.71
61.3
56.01
51.67
48.5
46.33
44.81
43.68
42.89
42.59
42.94
43.96
45.42
46.89
47.82
47.72
46.24
43.27
38.91
33.54
27.68
21.89
16.61
12.01
7.86
3.67
-1.11
-6.85
-13.55
-20.88
-28.23
-35.05
-40.94
-45.91
-50.35
-55
-60.68
-67.84
-76.22
-84.58
-90.88
-92.77
-88.36
-76.92
-59.13
-36.88
-12.7
10.94
32.13
49.74
63.29
72.79
78.5
80.83
80.28
77.47
73.16
68.12
63.14
58.82
55.5
53.28
52
51.42
51.38
51.71
52.14
52.13
50.96
47.97
42.87
36.02
28.34
20.96
14.79
10.22
7.06
4.77
2.68
0.24
-3.03
-7.39
-12.89
-19.34
-26.26
-33.05
-39.12
-44.25
-48.56
-52.66
-57.47
-64.09
-73.58
-86.56
-102.8
-120.85
-138.01
-150.76
-155.65
-150.46
-134.78
-110.15
-79.44
-46.01
-13.01
17
42.03
60.61
71.88
75.87
73.66
67.37
59.5
52.18
46.5
42.2
38.09
32.86
25.96
18.09
11.05
7
7.29
11.73
18.37
24.26
26.76
25.1
20.88
17.51
18.38
24.5
33.21
38.44
32.66
9.48
-34.11
-96.53
-171.81
-250.73
-322.71
-377.91
-409.26
-414.02
-394.19
-355.65
-306.04
-252.24
-198.44
-145.85
-93.78
-41.67
9.41
56.63
96.18
124.68
140.38
143.56
136.36
122.3
105.57
90.3
80
76.93
81.6
92.49
106.27
118.56
125.19
123.63
113.92
98.81
82.72
70.13
64.07
65.14
71.76
81.25
91.16
100.15
108.17
115.86
123.82
132.06
139.81
145.65
147.9
145.04
136.26
121.95
103.77
84.32
66.4
52.11
42.26
36.25
32.59
29.55
25.76
20.53
13.87
6.38
-1.01
-7.28
-11.73
-14.44
-16.37
-19.05
-23.87
-31.17
-39.85
-47.73
-52.58
-53.5
-51.63
-49.86
-51.54
-58.79
-71.2
-85.85
-98.4
-104.76
-102.36
-90.77
-71.23
-46.23
-19.21
5.37
22.44
27.38
17.95
-4.15
-33.08
-60.66
-79.39
-85.38
-79.43
-65.97
-50.49
-37.04
-27.13
-20.23
-15.13
-11
-7.61
-4.69
-1.34
4.03
13
26.23
42.83
60.46
76.1
87.03
91.86
90.78
85.39
77.95
70.52
64.29
59.44
55.4
51.36
46.79
41.69
36.47
31.68
27.54
23.77
19.61
14.22
7.13
-1.33
-9.99
-17.04
-20.62
-19.38
-12.95
-2.11
11.48
25.68
38.41
48.07
53.79
55.47
53.6
49.05
42.81
35.82
28.92
22.74
17.73
14.07
11.63
9.95
8.47
6.82
5.15
4.23
5.23
9.12
16.16
25.47
35.19
43.1
47.43
47.45
43.62
37.24
29.88
22.83
16.86
12.34
9.42
8.14
8.37
9.56
10.76
10.77
8.59
3.88
-2.96
-10.94
-18.99
-26.4
-33.1
-39.53
-46.28
-53.67
-61.51
-69.1
-75.35
-79.14
-79.5
-75.83
-68.06
-56.73
-42.95
-28.19
-14.03
-1.83
7.44
13.35
15.92
15.59
13.12
9.39
5.33
1.78
-0.7
-1.78
-1.44
0.25
3.18
7.36
12.86
19.69
27.68
36.46
45.51
54.16
61.69
67.35
70.52
70.75
68.04
62.82
55.94
48.4
41.06
34.4
28.47
23.02
17.72
12.35
6.89
1.46
-3.74
-8.56
-12.88
-16.64
-19.83
-22.47
-24.65
-26.39
-27.75
-28.73
-29.39
-29.83
-30.25
-30.92
-32.1
-33.93
-36.42
-39.49
-42.97
-46.77
-50.78
-54.82
-58.63
-61.85
-64.18
-65.51
-65.99
-65.96
-65.62
-64.83
-63.04
-59.5
-53.61
-45.3
-35.14
-24.17
-13.54
-4.17
3.41
9.11
13.15
15.87
17.71
19.07
20.36
21.92
24.09
27.08
31.02
35.87
41.31
46.81
51.7
55.41
57.68
58.67
58.87
58.93
59.48
61.03
64.08
69.08
76.28
85.49
95.75
105.43
112.64
115.96
114.97
110.46
103.97
97.11
90.86
85.39
80.18
74.6
68.27
61.13
53.38
45.12
36.3
26.82
16.77
6.54
-3.19
-11.64
-18.23
-22.8
-25.61
-27.18
-28.16
-29.17
-30.79
-33.56
-37.85
-43.85
-51.44
-60.26
-69.88
-79.96
-90.45
-101.42
-112.97
-124.93
-136.82
-147.76
-156.6
-162.01
-162.7
-157.72
-146.62
-129.73
-108.09
-83.34
-57.29
-31.63
-7.66
13.76
32.03
46.73
57.57
64.44
67.43
66.88
63.33
57.52
50.29
42.58
35.27
29.01
24.05
20.21
16.88
13.32
8.94
3.54
-2.71
-9.4
-16.2
-22.92
-29.58
-36.26
-42.95
-49.46
-55.4
-60.24
-63.41
-64.36
-62.71
-58.36
-51.54
-42.85
-33.11
-23.27
-14.19
-6.51
-0.56
3.71
6.79
9.51
12.9
17.81
24.61
32.95
41.87
50.21
57.13
62.38
66.29
69.35
71.58
72.56
71.65
68.44
63.15
56.83
51.16
47.96
48.58
53.23
61.15
70.88
80.79
89.53
96.26
100.79
103.35
104.33
103.65
101.15
96.83
90.91
83.64
75.24
66.02
56.49
47.44
38.61
30
22.12
15.85
11.85
10.25
10.93
13.61
17.9
21.04
20.98
17.7
13.07
9.28
7.64
8.51
11.51
15.92
17.18
11.77
-1.11
-20
-43.56
-71.65
-104.77
-142.94
-185.1
-233.52
-287.76
-343.07
-392
-428.89
-452.68
-466.51
-475.68
-455.75
-395.12
-302.26
-200.32
-108.66
-35.02
20.52
60.84
89.67
111.11
124.27
128.72
126.38
121.11
116.16
112.86
111.59
112.47
115.77
118.07
116.78
111.88
105.52
99.91
95.86
93.61
93.04
94.06
94.24
91.73
86.3
79.2
71.76
64.01
56.42
49.1
42.15
34.6
25.78
15.87
5.75
-2.42
-8.95
-13.83
-17.17
-19.09
-20.17
-20.88
-21.4
-21.64
-21.46
-21.06
-20.36
-19.43
-18.32
-17.13
-15.89
-14.64
-13.4
-12.17
-11.11
-10.12
-9.19
-8.27
-7.39
-6.54
-5.74
-4.98
-4.25
-3.67
-3.15
-2.7
-2.27
-1.88
-1.55
-1.28
-1.04
-0.85
-0.78
-0.78
-1.13
-1.58
-2.1
-2.7
-3.38
-4.1
-4.9
-5.78
-6.76
-7.82
-8.93
-10.11
-11.38
-12.73
-14.12
-15.58
-17.12
-18.75
-20.48
-22.28
-24.16
-26.14
-28.18
-30.19
-32.11
-33.88
-35.36
-36.4
-36.8
-36.39
-34.99
-32.8
-29.41
-24.79
-19.06
-12.45
-5.28
2.08
9.27
16
22.06
27.4
31.88
35.43
38.01
39.64
40.37
40.38
39.95
39.38
39.01
38.94
39.09
39.24
39.05
38.25
36.74
34.68
32.43
30.48
28.98
27.84
26.73
25.13
22.74
19.64
16.42
14.05
13.54
15.14
18.45
22.34
25.31
26.2
24.66
21.44
18.17
16.66
17.61
20.71
24.45
26.81
26.09
21.79
14.92
7.54
2.3
0.73
3.33
9.21
15.99
20.27
18.23
6.54
-16.57
-45.96
-74.77
-93.71
-93.76
-69.7
-22.45
40.62
108.22
168.69
213.38
237.54
240.81
225.6
195.6
154.99
108.12
59.38
12.86
-27.76
-60.39
-84.48
-101.64
-115.72
-131.21
-150.92
-173.65
-193.2
-200.04
-184.97
-142.68
-74.3
12.33
104.87
189.82
255.81
295.89
308.5
296.84
267.65
228.91
187.47
147.55
110.52
75.9
42.7
9.93
-23.77
-60.28
-101.26
-146.38
-191.63
-229.7
-252.82
-256.75
-243.84
-222.97
-206.18
-203.78
-221
-257.25
-308.1
-367.97
-431.5
-493.25
-546.83
-585.07
-601.77
-594.3
-565.21
-521.47
-471.77
-423.38
-380.16
-342.46
-308.54
-276.45
-245.19
-214.86
-186.08
-159.34
-134.71
-111.82
-90.26
-69.74
-50.47
-32.84
-17.38
-4.44
5.88
13.73
19.39
23.14
25.1
25.36
24.05
21.5
18.26
15.08
12.71
11.8
12.77
15.82
20.99
28.28
37.65
48.99
62.05
76.38
91.33
106.28
120.77
134.68
148.32
162.23
177.06
193.18
210.53
228.62
246.82
264.76
282.78
302.03
324.04
350.01
380.02
412.54
444.78
473.25
494.28
504.51
501.25
483.41
452.51
412.99
371.18
333.01
301.76
277.22
256.72
237.27
217.22
196.48
175.45
153.88
130.74
105.26
78.18
51.64
27.72
6.44
-14.65
-38.99
-68.32
-101.22
-133.6
-160.99
-180.81
-193.07
-199.36
-201.56
-201.24
-200.09
-200.65
-206.26
-219.73
-241.47
-268.28
-293.95
-311.55
-316.12
-306.63
-285.69
-257.94
-227.67
-197.13
-166.32
-133.88
-98.49
-59.93
-19.44
20.58
57.46
89.15
115.05
136.51
156.67
179.68
209.17
246.44
289.16
331.43
365.68
385.34
387.21
372.41
345.58
313.2
281.41
254.33
233.31
216.99
202.58
187.42
170.16
151.02
130.92
110.56
89.89
68.46
46.36
25.07
7.51
-3.15
-5.28
-0.32
7.35
12.16
9.94
-0.09
-14.95
-29.15
-37.27
-36.39
-27.5
-15.22
-5.89
-5.08
-15.85
-38.26
-70.23
-108.77
-150.73
-193.1
-232.89
-267.14
-293.39
-309.76
-315.24
-309.42
-292.23
-263.63
-223.77
-173.47
-114.84
-51.77
10.46
66.12
110.34
140.28
155.23
156.21
145.32
125.63
101.25
77.68
61.08
56.44
65.25
84.05
105.53
121.77
128.32
126.31
121.41
119.94
124.87
134.06
141.59
141.39
130.41
109.96
84.43
58.91
37.05
20.47
9.08
1.86
-2.5
-5.56
-9.31
-15.89
-27.25
-44.41
-66.93
-92.64
-117.99
-139.11
-153.54
-161.59
-166.81
-174.73
-190.52
-216.65
-251.51
-290.15
-326.03
-353.31
-368.26
-369.29
-356.42
-330.62
-293.71
-248.5
-198.78
-148.59
-100.98
-56.67
-13.92
30.04
76.46
123.54
166.62
200.46
222.27
232.96
235.93
233.91
226.62
211.48
186.96
156.19
127.31
109.57
107.36
116.32
124.64
119.71
95.99
59.08
23.33
4.21
10.18
38.34
76.26
108.34
122.79
115.63
90.31
54.37
15.84
-18.96
-46.16
-63.89
-72.33
-73.93
-73.25
-76
-86.98
-108.05
-137.37
-170.09
-200.27
-222.98
-235.87
-239.79
-238.22
-235.75
-236.44
-241.99
-250.97
-259.29
-262.03
-255.52
-238.78
-213.31
-181.59
-145.55
-105.64
-61.48
-13.19
37.1
85.1
125.36
153.08
166
165.41
155.84
143.39
133.25
127.55
125.08
122.45
116.66
107.26
96.68
88.72
85.91
87.65
90.32
89.04
80.49
64.65
44.9
26.21
12.59
5.1
1.93
-0.05
-3.2
-7.68
-11.84
-13.54
-11.59
-6.37
0.8
8.59
16.46
24.43
32.39
39.72
45.39
48.6
49.36
48.38
46.33
43.05
37.31
27.8
14.25
-1.84
-17.74
-30.98
-40.55
-47.26
-52.77
-58.56
-65.25
-72.74
-80.86
-89.99
-101.05
-115.03
-132.19
-151.36
-169.93
-184.37
-191.13
-187.81
-173.66
-149.88
-119.23
-85.01
-49.58
-13.43
24.79
66.92
113.06
160.21
202.33
232.47
245.62
240.88
221.94
195.9
170.7
152.63
144.98
147.51
157.13
169.21
178.98
182.77
178.8
167.6
151.88
136.16
125.47
123.56
131.16
144.9
157.81
161.61
149.91
121.01
79.4
34.5
-2.44
-22.53
-22.58
-6.4
16.73
35.54
41.01
29.57
4.3
-26.53
-52.84
-66.81
-65.92
-53.72
-37.91
-26.97
-26.7
-38.41
-59.27
-84.11
-107.9
-127.55
-142.67
-155.18
-167.6
-181.42
-195.84
-207.73
-212.72
-206.8
-187.57
-154.64
-109.22
-53.4
10.09
77.6
144.04
203.06
248.13
274.57
281.58
272.89
255.71
237.9
224.75
216.93
210.43
198.73
176.64
143.73
105.7
72.32
52.9
51.42
64.33
82.27
94.85
95.62
84.38
65.85
46.24
29.9
18.07
9.72
3.12
-2.96
-9.09
-15.86
-23.88
-33.32
-43.09
-50.8
-53.98
-51.68
-45.42
-38.84
-35.94
-39.53
-50.39
-67.71
-89.9
-115.06
-140.98
-165.11
-185
-199.28
-208.65
-216.14
-226.33
-243.58
-269.95
-303.97
-340.69
-373.32
-395.23
-401.92
-391.91
-366.68
-329.85
-285.74
-237.73
-187.47
-134.93
-79.84
-23.43
30.61
76.56
108.61
123.24
120.95
106.34
86.6
69.01
58.36
55.78
59.35
65.75
72.17
77.43
81.7
85.72
89.79
93.46
95.89
96.3
94.42
90.5
85.03
78.75
72.46
66.86
61.99
56.93
50.06
39.99
26.61
11.87
-0.97
-8.9
-10.99
-9.1
-6.78
-7.34
-11.95
-19.18
-26.14
-30.33
-31
-29.41
-27.85
-28.13
-30.73
-34.96
-39.98
-45.79
-53.56
-64.58
-78.87
-94.49
-108.33
-117.8
-122.39
-124.04
-126.27
-132.72
-145.46
-164.37
-187.21
-210.36
-229.81
-242.02
-244.7
-237.1
-220.5
-197.44
-170.77
-142.58
-113.48
-82.71
-48.9
-11.2
29.68
70.96
108.2
136.36
151.87
154.41
147.51
137.23
129.3
126.43
127.07
126.77
121.13
108.74
92.12
76.53
67.24
67.36
77.28
95.91
122.62
157.96
202.61
255.1
309.92
357.81
388.41
394.23
373.69
331.7
277.57
221.35
170.74
129.57
98.33
75.77
60.4
50.93
45.96
43.37
40.29
33.71
21.49
3.24
-19.77
-44.9
-69.41
-91.42
-110.48
-127.29
-143.02
-158.28
-172.57
-184.56
-192.9
-197.4
-199.41
-201.12
-204.23
-208.45
-211.09
-207.78
-194.38
-168.5
-130.15
-81.15
-24.14
37.72
100.28
157.62
202.24
226.97
228
207.14
171.78
132.26
98.06
74.84
63.74
62.73
68.84
79.6
93.2
107.78
121.19
131.42
137.64
140.83
143.03
146.03
149.87
152.47
150.59
141.65
125.16
103.19
79.44
57.84
41.29
30.84
25.7
23.71
22.08
18.01
9.4
-4.45
-22.55
-42.34
-60.3
-73.21
-79.2
-78.59
-73.76
-68.53
-66.94
-72.15
-85.45
-105.89
-130.79
-156.73
-181
-202.28
-220.97
-238.54
-256.36
-274.69
-292.14
-305.94
-312.86
-310.42
-297.74
-275.47
-245.27
-208.79
-166.8
-119.29
-66.26
-9
48.84
101.49
142.38
166.46
172.38
163.23
145.74
127.8
115.86
112.7
116.99
124.61
131.02
133.58
132.6
130.7
131.02
135.37
143.14
151.8
158.15
160
157.1
150.93
143.64
136.82
130.85
124.97
118.17
109.93
100.45
90.44
80.54
71.04
61.86
52.86
43.88
34.92
26.09
17.52
9.5
2.39
-3.49
-8.05
-11.82
-15.85
-21.12
-27.7
-34.42
-39.4
-41.43
-41.25
-41.65
-46.27
-57.85
-76.52
-99.61
-122.75
-141.86
-155.17
-163.94
-171.68
-182.3
-198.4
-220.24
-246.16
-273.41
-299.07
-320.63
-335.77
-342.35
-338.63
-323.69
-298
-263.49
-222.91
-178.86
-133.08
-86.53
-40.03
4.75
45.14
78.03
100.97
113.43
117.38
116.73
116.06
118.6
124.74
132.13
137.2
137.6
134.05
130.42
131.5
140.03
154.53
169.46
177.92
175.23
161.48
141.49
122.24
109.47
105.27
107.75
112.79
116.5
116.63
112.78
105.65
96.22
85.66
75.59
68.03
64.72
66.02
70.22
73.96
73.76
67.82
57.05
44.82
35.29
31.24
32.63
36.46
38.32
34.57
23.7
6.48
-15.1
-38.78
-62.72
-85.27
-104.89
-120.33
-131.12
-138.13
-143.7
-150.95
-162.61
-179.65
-200.74
-222.37
-240.04
-249.34
-247.09
-231.79
-203.79
-164.73
-116.9
-62.43
-3.32
57.82
116.76
167.08
201.16
212.57
198.82
163.38
115.61
68.47
34.37
21
28.55
50.36
76.32
97.76
111.19
118.65
125.09
134.07
145.26
154.95
159.11
156.69
150.25
143.85
139.81
136.88
131.26
119.68
102.32
83.23
68.14
61.01
61.77
66.08
67.94
62.67
49.32
30.99
12.69
-1.45
-10.48
-17.02
-25.48
-39.38
-59.27
-82.59
-105.37
-124.69
-140.29
-154.59
-171.17
-192.73
-219.87
-250.52
-280.72
-305.46
-319.87
-320.31
-305.18
-275.26
-233.02
-181.62
-123.99
-63.13
-2.95
50.94
91.8
113.83
114.97
98.8
73.4
47.98
28.69
16.61
8.94
2.45
-3.62
-7.45
-6.9
-2.27
3.28
5.93
4.03
-0.72
-5.05
-7.09
-8.47
-13.43
-25.92
-46.85
-73.31
-100.38
-123.63
-140.8
-151.44
-155.97
-155.07
-149.81
-142.14
-134.25
-127.32
-120.14
-109.19
-90.28
-60.54
-19.52
30.68
86.07
141.53
190.94
227.8
246.39
243.93
222.43
189
154.04
128.02
117.44
122.65
138.29
156.3
170.29
178.98
186.99
202.31
231.53
275.49
327.54
375.78
407.98
416.7
401.93
369.78
328.67
285.18
241.6
196.69
148.35
96.29
42.81
-8.32
-54.19
-94.68
-132.7
-172.88
-219.69
-275.86
-341.51
-413.68
-486.76
-553.32
-605.53
-637.18
-645.44
-631.42
-599.47
-555.42
-504.97
-452.96
-403.58
-360.84
-328.22
-307.68
-298.33
-296.09
-294.84
-288.75
-274.59
-252.65
-226.01
-198.65
-173.66
-152.23
-133.89
-117.3
-101.23
-85.05
-68.68
-52.47
-36.73
-21.49
-6.42
8.96
25.04
41.86
58.92
75.41
90.48
103.74
115.56
126.94
139.16
153.17
169.1
186.14
203
218.37
231.71
243.52
255.22
268.81
286.66
311.32
345.03
388.73
440.69
495.72
545.79
582.12
598.24
592.51
568.63
533.93
496.2
460.85
429.88
402.75
378.17
355.49
335.01
317.15
301.51
286.53
270.11
250.85
228.97
206.12
184.8
167.01
153.41
143.21
134.25
124.1
111.38
96.65
82
69.95
62.37
59.36
59.63
60.38
58.44
52.17
42.43
31.94
23.57
19.16
18.06
18.16
15.54
6.07
-12.27
-38.01
-67.43
-96.85
-123.96
-149.7
-176.43
-208.65
-251.67
-309.42
-382.6
-468.6
-562.42
-656.24
-741.95
-800.4
-811.79
-769.92
-689.41
-596.13
-511.48
-449.43
-404.07
-367.87
-335.43
-305.99
-281.46
-263.24
-249.76
-236.82
-220.19
-197.04
-168.49
-137.18
-107.45
-83.51
-67.5
-58.16
-52.05
-45.8
-37.13
-26.68
-16.07
-7.83
-4.32
-6.52
-13.31
-22.13
-30.41
-36.16
-39.12
-39.66
-38.75
-37.43
-36.35
-35.33
-33.57
-30.23
-24.63
-16.73
-6.67
5.19
18.34
32.21
46.35
60.49
74.46
88.4
102.53
117.34
133.26
150.51
168.76
187.34
205.36
221.96
236.59
249.27
260.69
272.37
286.73
306.2
331.84
361.83
390.97
412.19
419.08
408.59
381.71
342.42
295.57
245.25
194.69
147.07
105.97
74.59
54.18
42.71
35.44
27.07
14.43
-2.08
-19.44
-34.31
-45.1
-52.1
-56.03
-56.41
-51.39
-39.1
-19.72
3.67
26.37
44.31
56.31
64.37
71.81
80.8
90.7
98.45
100.58
95.44
83.93
68.69
52.27
36.17
21
7.25
-4.3
-13.45
-21.71
-32.53
-49.64
-74.35
-103.5
-130.31
-147.83
-153.42
-151.02
-149.35
-156.97
-177.43
-207.37
-238.92
-264.33
-279.92
-286.89
-288.63
-287.23
-281.42
-267.17
-240.8
-201.32
-151.45
-96.5
-41.67
9.24
54.41
92.9
123.24
143.49
152.04
149.05
137.53
122.57
109.77
102.95
102.86
107.62
113.99
119.57
123.71
127.36
131.77
136.97
141.48
143.1
140.56
134.68
128.25
124.71
126.33
133.12
142.66
151.48
156.54
156.42
151.72
144.27
136.44
130.4
127.35
127.17
127.99
126.7
120.17
106.86
88.08
67.42
49.08
35.81
27.24
20.52
12.13
0.04
-15.25
-31.56
-46.49
-59.15
-70.21
-81.55
-95.62
-114.7
-140.57
-174.15
-215.1
-261.46
-309.67
-354.43
-390.25
-412.59
-419.09
-410.1
-388.35
-358.21
-324.78
-292.64
-263.76
-238.44
-216.09
-196.09
-178.3
-162.81
-149.49
-137.93
-127.68
-115.43
-98.34
-75.25
-47.25
-17.34
11.28
36.54
57.75
75.18
94.2
119.92
155.21
199.18
247.73
296.05
340.8
380.86
416.77
456.22
506.93
573.91
657.19
752.32
853.29
955.25
1055.5
1113.1
1096.4
990.48
808.05
583.75
355.68
150.44
-20.46
-156.62
-263.43
-341.75
-392.04
-415.85
-417.76
-405.32
-386.71
-368.5
-354.93
-348.23
-344.27
-337.72
-324.48
-303.74
-278.16
-251.97
-228.75
-210.27
-196.48
-183.71
-169.08
-152.92
-139.55
-135.07
-143.48
-163.8
-190.08
-214.02
-229.19
-233.01
-227.25
-215.94
-202.4
-187.47
-170.33
-150.94
-131.65
-115.87
-105.96
-101.24
-97.86
-90.98
-77.76
-59.27
-39.75
-23.83
-13.32
-6.01
2.79
17.14
38.05
62.91
87.15
106.53
118.78
124.29
124.94
122.81
119.41
115.74
112.39
109.56
107.16
102.39
93.33
78.44
57.67
33.26
9.61
-8.32
-17.25
-17.22
-11.54
-4.89
-1.24
-2.1
-6.22
-10.75
-13.3
-13.3
-12.01
-11.45
-12.65
-15.35
-18.23
-20.07
-20.68
-21.07
-22.8
-26.9
-33.18
-40.23
-46.46
-50.99
-54.16
-57.21
-61.58
-68.08
-76.52
-85.79
-94.32
-100.61
-103.75
-103.54
-100.62
-96.49
-93.39
-93.83
-99.92
-112.52
-130.83
-152.45
-174.03
-192.35
-205.34
-212.52
-214.91
-214.34
-212.71
-211.28
-210.29
-208.94
-205.75
-198.51
-184.59
-161.53
-127.96
-84.56
-34.28
18.26
68.4
113.05
152.27
189
227.21
269.3
314.38
358.42
396.26
424.13
440.68
447.51
447.8
444.34
438.14
428.61
414.8
396.77
376.04
353.44
330.05
306.89
284.64
263.01
240.88
217.07
191.19
163.93
133.61
99.69
63.58
28.09
-4.62
-34.08
-61.02
-86.19
-109.68
-136.19
-168.78
-207.16
-247.97
-288.04
-325.92
-361.68
-395.19
-425.6
-458.65
-498.82
-546.73
-598.52
