1626687707.00
64.000000
-0.00
-0.00
-0.00
-0.00
-0.00
-0.00
-0.00
-0.00
-0.00
-0.00
0.00
0.01
0.01
-0.00
-0.03
-0.05
-0.05
0.00
0.13
0.36
0.66
1.01
1.37
1.72
2.06
2.40
2.79
3.24
3.80
4.42
5.06
5.66
6.20
6.68
7.15
7.68
8.31
9.14
10.09
11.04
11.88
12.56
13.14
13.76
14.65
15.96
17.91
20.32
22.90
25.38
27.58
29.57
31.68
34.32
37.81
42.54
48.15
54.10
59.83
64.97
69.58
74.14
79.34
85.71
93.76
103.00
112.62
121.73
129.77
136.75
143.30
150.75
157.77
166.64
177.95
191.79
206.97
220.57
228.25
225.36
208.53
176.87
132.76
80.05
23.07
-34.94
-92.44
-149.16
-205.23
-260.37
-313.74
-363.87
-409.83
-450.91
-486.50
-515.74
-537.23
-549.22
-549.96
-538.37
-514.21
-478.67
-433.88
-382.45
-327.02
-269.84
-212.63
-156.66
-102.95
-52.37
-5.90
35.58
71.43
101.35
125.50
144.38
158.69
169.15
176.37
180.75
182.57
182.07
179.51
175.23
169.65
163.18
156.15
148.81
141.30
133.69
126.02
118.33
110.69
103.16
95.80
88.68
81.83
75.25
68.95
62.95
57.25
51.86
46.78
42.03
37.59
33.45
29.61
26.07
22.81
19.83
17.11
14.67
12.48
10.54
8.83
7.35
6.07
4.97
4.05
3.27
2.62
2.09
1.65
1.30
1.01
0.79
0.61
0.47
0.37
0.29
0.23
0.18
0.15
0.14
0.13
0.13
0.15
0.16
0.19
0.22
0.25
0.29
0.33
0.38
0.42
0.47
0.51
0.56
0.62
0.67
0.73
0.79
0.86
0.93
1.01
1.10
1.20
1.31
1.44
1.57
1.73
1.90
2.10
2.32
2.55
2.82
3.11
3.43
3.78
4.17
4.59
5.04
5.54
6.06
6.64
7.25
7.90
8.60
9.34
10.13
10.96
11.83
12.76
13.73
14.76
15.85
17.01
18.22
19.48
20.76
22.00
23.14
24.08
24.70
24.87
24.50
23.46
21.72
19.26
16.12
12.36
8.13
3.59
-1.07
-5.63
-9.87
-13.59
-16.63
-18.90
-20.38
-21.11
-21.21
-20.84
-20.10
-19.11
-17.93
-16.60
-15.16
-13.65
-12.11
-10.64
-9.31
-8.11
-7.01
-5.88
-4.62
-3.17
-1.54
0.22
1.83
3.11
4.00
4.62
5.18
5.97
7.12
8.67
10.49
12.04
12.94
13.07
12.65
12.09
11.87
12.31
13.40
14.96
16.07
16.11
14.85
12.57
9.84
7.29
5.38
4.20
3.63
2.55
-0.14
-5.49
-14.38
-27.13
-43.27
-61.56
-80.58
-94.14
-99.17
-94.90
-83.05
-66.97
-50.38
-35.92
-24.67
-16.21
-9.47
-4.28
-0.72
1.08
1.30
0.62
0.04
0.33
1.76
4.07
6.06
6.85
6.21
4.57
2.79
1.70
1.71
2.71
4.20
5.33
5.60
4.95
3.70
2.19
0.64
-1.03
-3.02
-5.51
-8.59
-11.97
-15.05
-17.15
-17.75
-16.69
-14.17
-10.67
-6.79
-3.13
-0.09
2.17
3.69
4.68
5.37
6.00
6.67
7.41
8.14
8.80
9.35
9.85
10.35
10.94
11.63
12.41
13.21
13.94
14.54
14.89
14.90
14.50
13.65
12.38
10.82
9.13
7.49
6.07
4.99
4.30
3.94
3.76
3.53
3.05
2.16
0.92
-0.47
-1.73
-2.64
-3.13
-3.39
-3.71
-4.35
-5.42
-6.84
-8.38
-9.82
-11.05
-12.12
-13.19
-14.49
-16.19
-18.38
-21.04
-23.96
-26.75
-28.90
-29.86
-29.25
-26.99
-23.38
-19.02
-14.59
-10.61
-7.26
-4.49
-2.04
0.31
2.67
5.02
7.28
9.40
11.43
13.39
15.30
17.04
18.45
19.36
19.73
19.73
19.59
19.56
19.76
20.13
20.47
20.58
20.35
19.83
19.18
18.53
17.96
17.49
17.05
16.63
16.32
16.17
16.24
16.49
16.81
17.08
17.23
17.30
17.34
17.46
17.66
17.90
18.13
18.40
18.79
19.40
20.25
21.19
22.03
22.57
22.75
22.65
22.41
22.08
21.64
20.96
19.92
18.54
16.95
15.29
13.62
11.85
9.78
7.22
4.07
0.37
-3.72
-7.90
-11.80
-15.00
-17.05
-17.68
-16.79
-14.63
-11.66
-8.50
-5.66
-3.46
-1.91
-0.86
-0.03
0.76
1.56
2.29
2.79
2.92
2.63
1.95
1.01
0.01
-0.92
-1.65
-2.20
-2.62
-3.00
-3.46
-4.01
-4.68
-5.47
-6.43
-7.61
-9.08
-10.82
-12.67
-14.46
-16.02
-17.27
-18.28
-19.17
-20.03
-20.85
-21.53
-21.96
-22.17
-22.32
-22.63
-23.27
-24.28
-25.52
-26.76
-27.79
-28.53
-29.14
-29.89
-31.15
-33.16
-35.92
-39.12
-42.20
-44.50
-45.40
-44.55
-41.93
-37.89
-32.95
-27.70
-22.57
-17.83
-13.57
-9.77
-6.35
-3.24
-0.34
2.42
5.04
7.45
9.53
11.17
12.29
12.92
13.23
13.40
13.64
14.09
14.79
15.69
16.70
17.66
18.44
18.93
19.07
18.85
18.30
17.46
16.44
15.33
14.30
13.44
12.79
12.25
11.60
10.59
9.05
7.01
4.70
2.46
0.57
-0.86
-1.98
-3.08
-4.44
-6.25
-8.49
-11.01
-13.63
-16.20
-18.68
-21.12
-23.60
-26.17
-28.91
-31.83
-34.90
-37.99
-40.84
-43.05
-44.14
-43.65
-41.27
-37.02
-31.24
-24.56
-17.76
-11.50
-6.17
-1.80
1.87
5.21
8.51
11.83
15.03
17.91
20.31
22.18
23.56
24.50
25.09
25.40
25.56
25.83
26.38
27.32
28.53
29.74
30.63
30.97
30.73
30.02
29.06
28.06
27.19
26.57
26.28
26.28
26.47
26.60
26.45
25.89
24.96
23.90
22.97
22.41
22.23
22.28
22.29
22.07
21.54
20.82
20.07
19.43
18.82
18.10
17.04
15.58
13.83
12.01
10.37
9.00
7.76
6.40
4.63
2.26
-0.86
-4.73
-9.27
-14.26
-19.19
-23.38
-26.05
-26.55
-24.65
-20.58
-15.03
-8.86
-2.93
2.19
6.23
9.19
11.29
12.79
13.92
14.85
15.60
16.11
16.33
16.20
15.79
15.22
14.64
14.17
13.88
13.77
13.76
13.79
13.79
13.68
13.39
12.87
12.04
10.84
9.25
7.28
5.02
2.61
0.22
-2.00
-3.97
-5.67
-7.17
-8.55
-9.89
-11.25
-12.65
-14.10
-15.64
-17.33
-19.25
-21.42
-23.83
-26.41
-29.17
-32.21
-35.71
-39.79
-44.40
-49.17
-53.39
-56.25
-57.03
-55.33
-51.24
-45.25
-38.14
-30.68
-23.52
-17.03
-11.32
-6.33
-1.98
1.79
4.87
7.13
8.49
9.04
9.10
9.06
9.26
9.83
10.70
11.68
12.61
13.47
14.33
15.26
16.21
17.01
17.41
17.18
16.28
14.77
12.82
10.61
8.26
5.88
3.56
1.43
-0.38
-1.89
-3.19
-4.52
-6.19
-8.39
-11.16
-14.33
-17.58
-20.58
-23.14
-25.28
-27.25
-29.45
-32.31
-36.15
-40.98
-46.52
-52.15
-57.01
-60.21
-61.01
-58.97
-54.16
-47.03
-38.42
-29.23
-20.29
-12.13
-4.96
1.32
6.94
12.12
16.98
21.51
25.62
29.18
32.10
34.32
35.78
36.51
36.61
36.29
35.87
35.65
35.81
36.34
37.03
37.60
37.81
37.59
36.97
36.06
34.94
33.63
32.09
30.32
28.37
26.35
24.37
22.48
20.65
18.82
16.93
14.97
12.99
11.04
9.09
7.09
4.94
2.54
-0.10
-2.94
-5.87
-8.83
-11.83
-14.92
-18.13
-21.41
-24.63
-27.63
-30.39
-33.09
-36.16
-40.10
-45.23
-51.50
-58.30
-64.53
-68.92
-70.40
-68.40
-63.10
-55.26
-45.99
-36.36
-27.10
-18.52
-10.51
-2.82
4.80
12.42
20.03
27.43
34.43
40.89
46.69
51.89
56.71
61.57
66.78
72.26
77.36
80.94
81.89
79.73
74.92
68.80
62.93
58.44
55.53
53.62
51.91
49.86
47.55
45.40
43.76
42.60
41.49
39.89
37.53
34.52
31.27
28.21
25.64
23.52
21.58
19.49
17.02
14.13
10.93
7.59
4.28
1.05
-2.19
-5.61
-9.46
-13.97
-19.27
-25.34
-31.89
-38.34
-43.93
-47.83
-49.31
-48.01
-43.98
-37.69
-29.91
-21.49
-13.21
-5.63
0.99
6.64
11.39
15.29
18.29
20.17
20.76
20.06
18.35
16.17
14.16
12.79
12.21
12.22
12.45
12.52
12.20
11.47
10.44
9.22
7.84
6.24
4.32
2.00
-0.66
-3.51
-6.30
-8.80
-10.86
-12.44
-13.61
-14.49
-15.24
-15.96
-16.68
-17.45
-18.35
-19.50
-21.06
-23.17
-25.84
-29.06
-32.79
-37.04
-41.84
-47.12
-52.52
-57.37
-60.73
-61.66
-59.59
-54.49
-47.01
-38.17
-29.13
-20.76
-13.53
-7.47
-2.33
2.27
6.58
10.69
14.52
17.89
20.68
22.82
24.37
25.46
26.18
26.64
26.90
27.10
27.34
27.73
28.28
28.90
29.36
29.42
28.88
27.67
25.87
23.67
21.31
19.04
16.98
15.16
13.47
11.79
9.98
8.00
5.91
3.81
1.77
-0.22
-2.28
-4.51
-7.05
-9.86
-12.87
-15.90
-18.84
-21.60
-24.22
-26.84
-29.64
-32.84
-36.64
-41.20
-46.52
-52.33
-58.03
-62.70
-65.26
-64.82
-60.94
-53.88
-44.49
-34.01
-23.66
-14.37
-6.54
-0.17
5.06
9.56
13.67
17.62
21.45
25.09
28.34
31.05
33.05
34.32
34.93
35.08
35.02
34.98
35.14
35.52
36.06
36.59
36.88
36.78
36.19
35.14
33.72
32.06
30.26
28.37
26.38
24.26
21.98
19.58
17.17
14.88
12.84
11.11
9.67
8.39
7.19
5.96
4.69
3.39
2.05
0.68
-0.74
-2.22
-3.77
-5.41
-7.17
-9.16
-11.41
-13.95
-16.69
-19.54
-22.46
-25.52
-28.92
-32.87
-37.48
-42.63
-47.90
-52.64
-56.06
-57.40
-56.17
-52.22
-45.85
-37.79
-28.97
-20.31
-12.48
-5.76
-0.08
4.87
9.40
13.73
17.85
21.59
24.67
26.91
28.25
28.87
29.07
29.12
29.20
29.35
29.50
29.66
29.87
30.22
30.76
31.43
32.06
32.42
32.39
31.95
31.22
30.43
29.76
29.30
29.03
28.84
28.58
28.11
27.42
26.55
25.64
24.78
23.98
23.11
22.00
20.49
18.59
16.39
14.06
11.73
9.41
7.05
4.55
1.83
-1.18
-4.51
-8.23
-12.39
-16.90
-21.46
-25.48
-28.25
-29.12
-27.78
-24.37
-19.54
-14.14
-9.02
-4.75
-1.52
0.78
2.40
3.57
4.40
4.89
4.98
4.65
3.92
2.90
1.75
0.64
-0.31
-0.99
-1.36
-1.45
-1.28
-0.95
-0.55
-0.18
-0.01
-0.15
-0.68
-1.59
-2.80
-4.15
-5.52
-6.82
-8.05
-9.25
-10.45
-11.64
-12.76
-13.75
-14.63
-15.50
-16.50
-17.77
-19.31
-21.00
-22.58
-23.83
-24.69
-25.30
-26.02
-27.20
-29.09
-31.70
-34.72
-37.65
-39.83
-40.70
-39.79
-36.91
-32.25
-26.25
-19.64
-13.18
-7.47
-2.84
0.76
3.59
5.98
8.17
10.20
12.01
13.43
14.36
14.78
14.74
14.34
13.70
12.95
12.20
11.63
11.33
11.31
11.46
11.59
11.50
11.08
10.34
9.37
8.26
7.07
5.81
4.44
2.95
1.35
-0.29
-1.91
-3.49
-5.05
-6.66
-8.39
-10.27
-12.22
-14.16
-15.99
-17.69
-19.27
-20.77
-22.27
-23.81
-25.52
-27.60
-30.24
-33.49
-37.11
-40.50
-42.82
-43.28
-41.41
-37.25
-31.33
-24.45
-17.45
-10.98
-5.36
-0.65
3.30
6.73
9.83
12.68
15.21
17.29
18.81
19.76
20.25
20.43
20.46
20.39
20.23
19.99
19.70
19.42
19.15
18.82
18.28
17.39
16.06
14.37
12.48
10.60
8.87
7.35
5.98
4.66
3.28
1.73
-0.10
-2.29
-4.84
-7.66
-10.57
-13.28
-15.54
-17.21
-18.40
-19.37
-20.56
-22.37
-25.01
-28.37
-31.99
-35.13
-36.98
-36.87
-34.49
-29.99
-23.89
-16.95
-9.95
-3.51
1.99
6.43
9.90
12.61
14.77
16.56
18.10
19.45
20.64
21.66
22.44
22.91
23.01
22.77
22.33
21.89
21.64
21.68
21.98
22.41
22.76
22.86
22.58
21.89
20.82
19.50
18.10
16.73
15.48
14.33
13.23
12.15
11.10
10.19
9.48
8.95
8.50
7.99
7.34
6.56
5.79
5.18
4.80
4.65
4.59
4.43
3.93
2.88
1.12
-1.34
-4.28
-7.20
-9.43
-10.26
-9.27
-6.40
-2.09
2.95
7.95
12.32
15.77
18.29
20.08
21.36
22.30
23.02
23.56
23.96
24.26
24.44
24.53
24.50
24.37
24.17
23.99
23.91
24.03
24.38
24.88
25.40
25.71
25.62
24.98
23.78
22.11
20.13
18.06
16.08
14.27
12.62
11.03
9.33
7.38
5.09
2.48
-0.34
-3.19
-5.91
-8.47
-10.90
-13.44
-16.33
-19.76
-23.71
-27.97
-32.11
-35.63
-38.07
-39.09
-38.56
-36.54
-33.29
-29.16
-24.57
-19.93
-15.58
-11.80
-8.78
-6.65
-5.45
-5.13
-5.51
-6.29
-7.12
-7.70
-7.84
-7.55
-6.97
-6.21
-5.40
-4.57
-3.75
-2.97
-2.27
-1.70
-1.33
-1.20
-1.39
-1.96
-2.98
-4.42
-6.17
-8.03
-9.76
-11.19
-12.26
-13.07
-13.80
-14.66
-15.80
-17.27
-18.97
-20.75
-22.41
-23.87
-25.17
-26.57
-28.37
-30.84
-33.95
-37.35
-40.35
-42.15
-42.05
-39.75
-35.45
-29.77
-23.53
-17.50
-12.19
-7.78
-4.24
-1.40
0.87
2.69
4.14
5.27
6.19
6.97
7.71
8.41
9.09
9.71
10.26
10.74
11.19
11.62
12.03
12.44
12.81
13.11
13.27
13.22
12.90
12.30
11.47
10.49
9.43
8.35
7.27
6.20
5.13
4.03
2.87
1.62
0.28
-1.14
-2.60
-4.13
-5.72
-7.42
-9.25
-11.14
-13.02
-14.79
-16.48
-18.34
-20.71
-23.91
-27.91
-32.28
-36.17
-38.64
-38.95
-36.91
-32.82
-27.35
-21.25
-15.11
-9.38
-4.29
-0.05
3.26
5.71
7.53
9.05
10.60
12.31
14.12
15.80
17.13
18.01
18.51
18.86
19.28
19.91
20.78
21.74
22.62
23.29
23.72
24.00
24.20
24.33
24.31
24.03
23.37
22.36
21.18
20.11
19.40
19.18
19.36
19.70
19.89
19.70
19.11
18.20
17.23
16.40
15.77
15.28
14.79
14.17
13.41
12.59
11.82
11.13
10.48
9.70
8.63
7.13
5.14
2.61
-0.48
-4.11
-8.17
-12.31
-15.93
-18.28
-18.67
-16.77
-12.80
-7.47
-1.79
3.29
7.21
9.90
11.66
12.97
14.18
15.40
16.53
17.36
17.78
17.83
17.65
17.42
17.30
17.32
17.51
17.82
18.24
18.74
19.32
19.92
20.46
20.85
20.97
20.70
19.94
18.71
17.16
15.51
14.05
12.92
12.14
11.53
10.82
9.78
8.32
6.47
4.35
2.06
-0.32
-2.79
-5.33
-7.89
-10.36
-12.65
-14.74
-16.74
-18.86
-21.33
-24.36
-27.97
-31.92
-35.78
-38.97
-40.94
-41.26
-39.81
-36.73
-32.40
-27.33
-22.06
-17.07
-12.73
-9.24
-6.67
-4.97
-4.02
-3.66
-3.81
-4.33
-5.10
-5.90
-6.49
-6.67
-6.36
-5.67
-4.84
-4.09
-3.56
-3.24
-3.02
-2.82
-2.70
-2.76
-3.14
-3.84
-4.73
-5.57
-6.20
-6.61
-6.89
-7.22
-7.71
-8.37
-9.12
-9.88
-10.59
-11.28
-12.02
-12.86
-13.86
-15.02
-16.31
-17.67
-19.01
-20.25
-21.36
-22.41
-23.56
-25.08
-27.24
-30.21
-33.95
-38.15
-42.21
-45.39
-46.92
-46.27
-43.28
-38.24
-31.82
-24.94
-18.45
-13.00
-8.81
-5.69
-3.25
-1.01
1.36
3.99
6.78
9.54
12.06
14.22
15.96
17.30
18.27
18.89
19.21
19.34
19.40
19.56
19.91
20.49
21.21
21.86
22.26
22.28
21.92
21.26
20.43
19.58
18.78
18.09
17.50
16.96
16.41
15.75
14.89
13.80
12.50
11.11
9.75
8.53
7.44
6.42
5.32
4.06
2.59
1.00
-0.56
-1.94
-3.10
-4.14
-5.23
-6.58
-8.30
-10.37
-12.64
-14.91
-17.03
-18.99
-20.91
-23.00
-25.51
-28.61
-32.36
-36.58
-40.80
-44.34
-46.36
-46.15
-43.32
-38.03
-30.90
-22.87
-14.88
-7.65
-1.49
3.62
7.86
11.53
14.86
18.03
21.11
24.13
26.97
29.51
31.59
33.13
34.12
34.69
35.03
35.36
35.90
36.74
37.87
39.18
40.42
41.36
41.81
41.70
41.08
40.09
38.90
37.68
36.50
35.39
34.35
33.39
32.47
31.53
30.55
29.46
28.27
26.99
25.65
24.26
22.79
21.19
19.43
17.53
15.58
13.64
11.78
9.96
8.11
6.17
4.12
2.01
-0.08
-2.11
-4.06
-6.01
-8.12
-10.66
-13.88
-17.89
-22.60
-27.56
-32.08
-35.33
-36.62
-35.63
-32.48
-27.65
-21.83
-15.70
-9.83
-4.61
-0.30
3.01
5.33
6.74
7.38
7.43
7.05
6.42
5.75
5.22
4.95
4.99
5.25
5.63
6.07
6.50
6.96
7.40
7.76
7.89
7.63
6.90
5.68
4.05
2.11
-0.01
-2.18
-4.30
-6.24
-7.95
-9.47
-10.90
-12.40
-14.05
-15.84
-17.70
-19.53
-21.26
-22.91
-24.57
-26.32
-28.17
-30.09
-31.99
-33.81
-35.50
-37.08
-38.61
-40.24
-42.17
-44.64
-47.84
-51.73
-55.92
-59.65
-61.94
-61.89
-59.04
-53.51
-46.04
-37.64
-29.33
-21.78
-15.28
-9.75
-4.96
-0.64
3.35
7.08
10.52
13.61
16.25
18.32
19.76
20.59
20.90
20.90
20.83
20.91
21.27
21.93
22.77
23.64
24.36
24.82
24.96
24.81
24.43
23.86
23.17
22.35
21.43
20.42
19.31
18.14
16.92
15.67
14.39
13.08
11.71
10.30
8.87
7.43
5.97
4.47
2.87
1.15
-0.66
-2.47
-4.11
-5.45
-6.44
-7.17
-7.91
-8.95
-10.55
-12.80
-15.58
-18.66
-21.76
-24.75
-27.64
-30.59
-33.76
-37.31
-41.33
-45.83
-50.75
-55.75
-60.28
-63.45
-64.31
-62.15
-56.80
-48.77
-39.09
-29.03
-19.63
-11.47
-4.66
1.09
6.20
11.04
15.79
20.48
24.96
29.02
32.39
34.94
36.63
37.56
37.95
38.06
38.19
38.54
39.24
40.28
41.49
42.57
43.19
43.10
42.24
40.74
38.89
37.02
35.38
34.09
33.16
32.51
32.00
31.47
30.81
29.98
29.06
28.16
27.40
26.80
26.30
25.79
25.24
24.66
24.14
23.76
23.49
23.18
22.64
21.74
20.52
19.17
17.97
17.09
16.51
16.05
15.35
14.13
12.27
9.86
7.13
4.34
1.67
-0.86
-3.30
-5.78
-8.49
-11.59
-15.25
-19.58
-24.57
-29.94
-35.12
-39.30
-41.60
-41.31
-38.16
-32.44
-24.96
-16.80
-8.98
-2.27
2.99
6.81
9.45
11.18
12.26
12.91
13.24
13.36
13.34
13.21
13.01
12.77
12.55
12.42
12.49
12.84
13.51
14.41
15.40
16.25
16.72
16.62
15.89
14.57
12.79
10.70
8.45
6.16
3.94
1.89
0.06
-1.57
-3.07
-4.54
-6.03
-7.50
-8.86
-9.98
-10.88
-11.74
-12.82
-14.37
-16.48
-19.03
-21.71
-24.23
-26.43
-28.36
-30.20
-32.25
-34.75
-37.93
-41.92
-46.67
-51.92
-57.10
-61.39
-63.89
-63.86
-60.97
-55.40
-47.77
-38.96
-29.91
-21.36
-13.85
-7.54
-2.35
1.99
5.81
9.38
12.79
15.94
18.66
20.74
22.11
22.87
23.26
23.56
24.02
24.75
25.70
26.72
27.66
28.39
28.83
28.95
28.68
28.01
26.95
25.61
24.17
22.83
21.74
20.91
20.22
19.47
18.55
17.46
16.27
15.09
13.95
12.80
11.54
10.15
8.66
7.17
5.72
4.23
2.56
0.57
-1.75
-4.27
-6.76
-9.07
-11.20
-13.36
-15.81
-18.70
-22.02
-25.53
-28.92
-31.93
-34.54
-36.95
-39.53
-42.69
-46.68
-51.47
-56.65
-61.47
-65.00
-66.33
-64.90
-60.53
-53.60
-44.85
-35.24
-25.69
-16.96
-9.48
-3.40
1.46
5.47
9.05
12.55
16.17
19.90
23.60
27.04
30.03
32.41
34.14
35.29
36.01
36.53
37.07
37.75
38.53
39.24
39.67
39.64
39.14
38.24
37.09
35.75
34.25
32.61
30.88
29.16
27.56
26.14
24.85
23.63
22.50
21.52
20.87
20.65
20.87
21.36
21.87
22.18
22.22
22.04
21.81
21.67
21.68
21.77
21.80
21.66
21.23
20.47
19.39
18.01
16.39
14.64
12.85
11.07
9.29
7.48
5.53
3.43
1.22
-0.99
-3.12
-5.14
-7.16
-9.46
-12.35
-16.13
-20.88
-26.40
-32.17
-37.37
-41.16
-42.82
-41.94
-38.56
-33.12
-26.33
-19.00
-11.94
-5.72
-0.69
3.09
5.81
7.78
9.28
10.52
11.55
12.31
12.70
12.70
12.38
11.87
11.31
10.84
10.57
10.55
10.78
11.19
11.61
11.85
11.69
10.96
9.59
7.65
5.32
2.83
0.41
-1.78
-3.70
-5.36
-6.84
-8.18
-9.37
-10.37
-11.17
-11.80
-12.40
-13.13
-14.10
-15.33
-16.74
-18.21
-19.68
-21.15
-22.73
-24.59
-26.85
-29.64
-32.98
-36.76
-40.67
-44.19
-46.66
-47.40
-46.01
-42.43
-37.08
-30.68
-24.06
-17.90
-12.61
-8.27
-4.75
-1.82
0.73
3.03
5.15
7.10
8.84
10.32
11.48
12.30
12.86
13.30
13.82
14.56
15.57
16.76
18.01
19.17
20.14
20.86
21.25
21.20
20.62
19.50
17.97
16.26
14.61
13.08
11.63
10.07
8.22
6.05
3.67
1.26
-1.01
-3.05
-4.90
-6.66
-8.48
-10.49
-12.80
-15.47
-18.44
-21.58
-24.70
-27.64
-30.36
-32.97
-35.76
-39.05
-43.01
-47.52
-52.09
-55.89
-58.01
-57.71
-54.69
-49.19
-41.93
-33.81
-25.74
-18.37
-11.99
-6.61
-2.01
2.13
6.05
9.96
13.92
17.88
21.69
25.17
28.12
30.39
31.93
32.78
33.11
33.21
33.40
33.92
34.82
35.95
37.06
37.84
38.09
37.78
36.98
35.87
34.61
33.33
32.13
31.03
30.02
29.06
28.03
26.80
25.27
23.42
21.37
19.37
17.68
16.48
15.84
15.60
15.51
15.28
14.71
13.74
12.49
11.15
9.95
8.98
8.21
7.46
6.51
5.19
3.50
1.60
-0.25
-1.82
-3.00
-3.85
-4.52
-5.21
-6.11
-7.37
-9.06
-11.17
-13.59
-16.11
-18.53
-20.67
-22.55
-24.29
-26.09
-28.23
-30.88
-34.09
-37.70
-41.31
-44.26
-45.78
-45.16
-41.98
-36.40
-29.08
-21.09
-13.49
-7.01
-1.92
1.99
5.17
8.07
10.99
14.00
17.02
19.87
22.34
24.25
25.47
25.99
25.93
25.56
25.26
25.34
26.00
27.18
28.67
30.07
31.01
31.18
30.50
29.11
27.27
25.28
23.42
21.80
20.45
19.31
18.31
17.40
16.54
15.73
14.90
13.99
12.90
11.50
9.65
7.32
4.54
1.48
-1.69
-4.84
-7.94
-11.10
-14.47
-18.15
-22.20
-26.60
-31.31
-36.20
-41.03
-45.34
-48.52
-49.93
-49.10
-46.01
-41.04
-34.94
-28.54
-22.56
-17.37
-13.04
-9.40
-6.20
-3.28
-0.62
1.68
3.47
4.64
5.23
5.44
5.55
5.84
6.47
7.49
8.85
10.42
12.03
13.53
14.71
15.38
15.44
14.88
13.82
12.44
10.96
9.52
8.21
7.07
6.09
5.19
4.20
2.91
1.15
-1.07
-3.57
-6.06
-8.27
-10.09
-11.59
-12.95
-14.34
-15.86
-17.54
-19.37
-21.42
-23.74
-26.33
-29.13
-32.04
-34.98
-37.95
-40.96
-43.90
-46.45
-48.01
-47.94
-45.72
-41.22
-34.82
-27.24
-19.40
-12.06
-5.67
-0.35
4.07
7.84
11.23
14.45
17.54
20.48
23.08
25.17
26.57
27.27
27.38
27.16
26.86
26.63
26.54
26.54
26.58
26.61
26.61
26.51
26.21
25.56
24.48
22.97
21.19
19.39
17.81
16.58
15.69
15.05
14.52
14.03
13.60
13.33
13.24
13.29
13.34
13.20
12.77
12.04
11.11
10.14
9.26
8.49
7.85
7.27
6.71
6.17
5.68
5.28
4.96
4.70
4.45
4.17
3.84
3.46
3.02
2.50
1.85
1.03
0.04
-1.10
-2.33
-3.63
-5.01
-6.54
-8.27
-10.17
-12.15
-14.04
-15.67
-16.97
-18.02
-19.01
-20.23
-21.92
-24.22
-27.09
-30.20
-32.99
-34.78
-34.92
-33.02
-29.09
-23.54
-17.03
-10.32
-4.03
1.42
5.85
9.22
11.57
13.06
13.96
14.59
15.30
16.28
17.51
18.75
19.67
20.02
19.75
19.00
18.00
17.04
16.36
16.12
16.41
17.20
18.30
19.42
20.22
20.43
20.03
19.12
18.00
16.90
15.97
15.21
14.51
13.70
12.66
11.34
9.79
8.15
6.61
5.31
4.32
3.54
2.76
1.68
0.06
-2.20
-5.02
-8.16
-11.35
-14.34
-17.02
-19.50
-21.98
-24.74
-28.03
-31.92
-36.33
-40.96
-45.37
-48.99
-51.21
-51.54
-49.70
-45.79
-40.23
-33.74
-27.09
-20.93
-15.63
-11.24
-7.57
-4.39
-1.48
1.22
3.66
5.71
7.29
8.42
9.15
9.63
9.99
10.34
10.74
11.20
11.69
12.20
12.70
13.15
13.48
13.59
13.41
12.85
11.95
10.78
9.53
8.35
7.35
6.48
5.61
4.56
3.18
1.48
-0.43
-2.34
-4.13
-5.71
-7.12
-8.43
-9.68
-10.91
-12.16
-13.47
-14.96
-16.71
-18.72
-20.92
-23.22
-25.59
-28.12
-31.04
-34.54
-38.64
-43.06
-47.27
-50.56
-52.28
-51.99
-49.61
-45.39
-39.78
-33.34
-26.55
-19.87
-13.61
-8.05
-3.29
0.69
4.06
7.10
10.06
13.06
16.07
18.89
21.33
23.18
24.38
24.96
25.09
24.99
24.92
25.09
25.59
26.37
27.25
27.97
28.33
28.19
27.52
26.43
25.06
23.59
22.15
20.83
19.66
18.56
17.48
16.37
15.22
14.06
12.92
11.79
10.68
9.58
8.50
7.49
6.57
5.65
4.57
3.17
1.45
-0.42
-2.19
-3.56
-4.43
-4.92
-5.31
-5.92
-6.94
-8.41
-10.22
-12.23
-14.33
-16.46
-18.57
-20.53
-22.29
-23.85
-25.41
-27.32
-29.94
-33.40
-37.44
-41.35
-44.17
-45.01
-43.37
-39.26
-33.22
-26.04
-18.57
-11.50
-5.26
0.01
4.34
7.89
10.92
13.71
16.49
19.38
22.35
25.17
27.52
29.14
29.94
30.09
29.95
29.93
30.33
31.26
32.61
34.18
35.71
37.03
38.01
38.56
38.64
38.27
37.52
36.49
35.26
33.91
32.44
30.86
29.21
27.55
25.98
24.56
23.24
21.87
20.34
18.59
16.68
14.72
12.84
11.05
9.26
7.29
5.00
2.34
-0.62
-3.71
-6.79
-9.77
-12.67
-15.64
-18.80
-22.32
-26.31
-30.81
-35.71
-40.74
-45.43
-49.08
-50.96
-50.46
-47.35
-41.86
-34.74
-26.94
-19.43
-12.87
-7.55
-3.39
-0.14
2.50
4.74
6.72
8.51
10.13
11.60
12.91
14.04
14.96
15.68
16.24
16.71
17.14
17.60
18.12
18.67
19.12
19.29
18.99
18.06
16.47
14.38
12.01
9.61
7.33
5.19
3.11
0.99
-1.22
-3.48
-5.67
-7.71
-9.54
-11.26
-12.99
-14.91
-17.11
-19.55
-22.07
-24.50
-26.72
-28.78
-30.87
-33.24
-36.10
-39.55
-43.53
-47.83
-52.02
-55.55
-57.74
-57.97
-55.88
-51.48
-45.22
-37.88
-30.34
-23.30
-17.20
-12.13
-7.94
-4.31
-0.90
2.52
6.08
9.69
13.21
16.42
19.12
21.25
22.84
24.05
25.07
26.04
27.06
28.11
29.11
29.90
30.30
30.20
29.58
28.52
27.17
25.71
24.28
22.94
21.74
20.69
19.82
19.10
18.49
17.87
17.10
16.10
14.84
13.41
11.94
10.54
9.25
8.04
6.82
5.53
4.12
2.62
1.10
-0.44
-2.05
-3.83
-5.94
-8.46
-11.36
-14.49
-17.60
-20.42
-22.79
-24.73
-26.49
-28.40
-30.86
-34.17
-38.41
-43.34
-48.42
-52.87
-55.78
-56.39
-54.30
-49.57
-42.77
-34.78
-26.53
-18.81
-12.10
-6.51
-1.86
2.18
5.97
9.75
13.58
17.37
20.91
24.01
26.56
28.52
29.94
30.87
31.37
31.53
31.52
31.56
31.86
32.48
33.34
34.16
34.64
34.58
33.95
32.93
31.76
30.66
29.68
28.77
27.83
26.81
25.78
24.87
24.22
23.88
23.78
23.80
23.82
23.74
23.54
23.23
22.87
22.50
22.19
22.00
21.91
21.86
21.74
21.44
20.88
20.08
19.08
17.95
16.73
15.42
14.02
12.53
10.92
9.22
7.46
5.65
3.88
2.17
0.48
-1.32
-3.39
-5.94
-9.11
-12.95
-17.39
-22.21
-27.00
-31.23
-34.21
-35.33
-34.15
-30.67
-25.37
-19.11
-12.89
-7.50
-3.33
-0.31
1.90
3.69
5.27
6.67
7.78
8.52
8.89
9.00
9.00
9.02
9.11
9.28
9.52
9.75
9.93
10.03
10.02
9.96
9.84
9.62
9.20
8.39
7.10
5.31
3.20
1.06
-0.86
-2.38
-3.56
-4.58
-5.63
-6.85
-8.19
-9.48
-10.56
-11.34
-11.89
-12.40
-13.09
-14.07
-15.35
-16.85
-18.48
-20.21
-22.07
-24.13
-26.41
-28.86
-31.46
-34.24
-37.31
-40.75
-44.43
-47.94
-50.55
-51.50
-50.21
-46.56
-40.95
-34.14
-26.95
-20.05
-13.79
-8.26
-3.40
0.87
4.60
7.80
10.50
12.76
14.70
16.37
17.81
19.01
19.93
20.60
21.07
21.43
21.78
22.15
22.53
22.87
23.12
23.24
23.22
23.03
22.65
22.05
21.24
20.24
19.09
17.81
16.43
14.99
13.57
12.28
11.20
10.33
9.56
8.74
7.75
6.57
5.30
4.11
3.09
2.23
1.38
0.40
-0.83
-2.28
-3.84
-5.37
-6.81
-8.18
-9.62
-11.26
-13.20
-15.40
-17.73
-20.01
-22.12
-24.02
-25.78
-27.59
-29.64
-32.14
-35.20
-38.81
-42.69
-46.34
-49.00
-49.93
-48.62
-45.02
-39.57
-33.06
-26.32
-19.98
-14.34
-9.43
-5.08
-1.13
2.57
6.13
9.66
13.25
16.86
20.35
23.45
25.87
27.46
28.27
28.56
28.68
28.96
29.55
30.42
31.38
32.18
32.60
32.49
31.82
30.64
29.15
27.55
26.09
24.95
24.13
23.53
22.93
22.17
21.24
20.25
19.38
18.71
18.25
17.86
17.41
16.91
16.43
16.11
16.05
16.22
16.53
16.84
17.06
17.17
17.17
17.09
16.91
16.63
16.18
15.52
14.63
13.46
12.03
10.40
8.67
6.91
5.15
3.38
1.52
-0.48
-2.68
-5.13
-7.91
-11.14
-14.91
-19.15
-23.57
-27.61
-30.57
-31.79
-30.91
-28.03
-23.62
-18.43
-13.22
-8.55
-4.70
-1.69
0.63
2.48
4.06
5.45
6.68
7.66
8.30
8.55
8.45
8.09
7.61
7.15
6.75
6.42
6.15
5.91
5.67
5.34
4.85
4.10
3.02
1.66
0.14
-1.36
-2.68
-3.73
-4.51
-5.16
-5.82
-6.64
-7.76
-9.19
-10.84
-12.51
-13.98
-15.11
-15.90
-16.54
-17.22
-18.13
-19.28
-20.59
-21.96
-23.30
-24.67
-26.17
-28.00
-30.31
-33.22
-36.70
-40.56
-44.43
-47.72
-49.79
-50.01
-48.06
-43.97
-38.21
-31.51
-24.73
-18.56
-13.39
-9.26
-5.92
-3.01
-0.20
2.71
5.73
8.77
11.70
14.40
16.77
18.77
20.43
21.84
23.17
24.58
26.13
27.77
29.29
30.44
31.02
30.94
30.30
29.28
28.10
26.90
25.72
24.47
23.04
21.34
19.38
17.28
15.17
13.20
11.43
9.83
8.23
6.44
4.31
1.78
-1.07
-4.05
-6.95
-9.55
-11.78
-13.69
-15.43
-17.19
-19.05
-21.00
-22.93
-24.70
-26.25
-27.60
-28.86
-30.20
-31.80
-33.82
-36.36
-39.37
-42.57
-45.41
-47.17
-47.14
-44.85
-40.31
-33.98
-26.66
-19.20
-12.27
-6.24
-1.17
3.06
6.65
9.83
12.79
15.69
18.59
21.46
24.09
26.26
27.74
28.51
28.72
28.68
28.72
29.09
29.85
30.92
32.11
33.25
34.18
34.84
35.17
35.10
34.58
33.58
32.14
30.33
28.25
26.01
23.67
21.31
19.01
16.91
15.21
14.06
13.55
13.65
14.21
15.02
15.86
16.54
16.84
16.60
15.61
13.78
11.11
7.75
3.98
0.10
-3.64
-7.09
-10.25
-13.19
-15.99
-18.73
-21.37
-23.80
-25.74
-26.88
-26.91
-25.65
-23.13
-19.61
-15.52
-11.28
-7.30
-3.84
-1.06
0.95
2.14
2.46
1.95
0.76
-0.87
-2.53
-3.86
-4.52
-4.37
-3.45
-1.98
-0.24
1.46
2.92
4.00
4.67
4.94
4.83
4.36
3.53
2.36
0.90
-0.76
-2.48
-4.08
-5.46
-6.62
-7.64
-8.67
-9.79
-11.08
-12.52
-14.09
-15.78
-17.61
-19.58
-21.69
-23.95
-26.36
-28.97
-31.86
-35.13
-38.85
-42.96
-47.14
-50.81
-53.26
-53.77
-51.93
-47.79
-41.87
-34.96
-27.88
-21.25
-15.35
-10.19
-5.60
-1.38
2.70
6.84
11.13
15.58
19.97
24.01
27.34
29.77
31.30
32.17
32.68
33.09
33.49
33.81
33.91
33.64
32.92
31.75
30.12
28.06
25.63
23.00
20.38
18.04
16.21
15.00
14.26
13.74
13.06
11.92
10.17
7.88
5.30
2.72
0.31
-1.85
-3.88
-5.94
-8.12
-10.40
-12.66
-14.72
-16.47
-17.94
-19.31
-20.90
-23.02
-25.92
-29.64
-33.95
-38.36
-42.19
-44.75
-45.49
-44.12
-40.70
-35.63
-29.52
-23.05
-16.85
-11.38
-6.78
-2.93
0.55
4.05
7.91
12.17
16.66
20.99
24.77
27.68
29.60
30.56
30.75
30.42
29.86
29.35
29.11
29.24
29.72
30.39
31.04
31.46
31.50
31.10
30.28
29.14
27.78
26.37
25.05
23.98
23.23
22.83
22.68
22.60
22.38
21.84
20.99
19.98
19.02
18.32
17.94
17.81
17.73
17.53
17.09
16.46
15.73
15.07
14.60
14.36
14.23
13.99
13.33
11.95
9.73
6.79
3.43
0.10
-2.87
-5.33
-7.32
-9.10
-10.96
-13.21
-16.03
-19.46
-23.26
-26.95
-29.85
-31.22
-30.50
-27.54
-22.70
-16.75
-10.63
-5.14
-0.79
2.40
4.66
6.42
8.02
9.64
11.23
12.57
13.38
13.50
12.92
11.87
10.71
9.74
9.16
8.98
9.03
9.14
9.12
8.86
8.30
7.38
6.11
4.53
2.76
0.95
-0.78
-2.35
-3.76
-5.01
-6.13
-7.15
-8.07
-8.95
-9.87
-10.90
-12.06
-13.28
-14.45
-15.48
-16.36
-17.17
-18.07
-19.24
-20.73
-22.55
-24.64
-26.99
-29.67
-32.77
-36.26
-39.85
-42.92
-44.70
-44.49
-41.96
-37.35
-31.38
-25.00
-19.02
-13.91
-9.73
-6.25
-3.14
-0.16
2.76
5.57
8.19
10.52
12.50
14.07
15.23
15.94
16.26
16.29
16.21
16.21
16.44
16.93
17.59
18.23
18.65
18.73
18.47
17.90
17.13
16.22
15.17
13.98
12.64
11.20
9.73
8.34
7.07
6.03
5.22
4.64
4.21
3.77
3.10
2.01
0.48
-1.39
-3.38
-5.29
-7.07
-8.82
-10.72
-12.86
-15.13
-17.26
-18.92
-19.97
-20.53
-20.98
-21.81
-23.39
-25.88
-29.24
-33.26
-37.62
-41.90
-45.52
-47.79
-48.06
-45.92
-41.38
-34.95
-27.47
-19.90
-13.00
-7.26
-2.76
0.69
3.44
5.88
8.34
11.03
13.96
17.00
19.89
22.32
24.07
25.08
25.43
25.35
25.14
25.08
25.34
25.95
26.78
27.60
28.17
28.33
27.97
27.12
25.85
24.29
22.61
20.98
19.56
18.44
17.61
16.98
16.39
15.72
14.92
14.04
13.21
12.54
12.08
11.81
11.62
11.41
11.08
10.54
9.78
8.78
7.56
6.24
4.94
3.84
3.04
2.52
2.10
1.52
0.56
-0.84
-2.55
-4.30
-5.81
-6.93
-7.71
-8.37
-9.22
-10.59
-12.65
-15.41
-18.63
-21.81
-24.24
-25.21
-24.21
-21.10
-16.25
-10.42
-4.55
0.56
4.46
7.12
8.80
9.92
10.81
11.70
12.70
13.83
15.12
16.46
17.71
18.58
18.88
18.53
17.69
16.70
15.92
15.61
15.78
16.24
16.69
16.87
16.68
16.12
15.29
14.26
13.07
11.70
10.13
8.36
6.44
4.46
2.52
0.74
-0.79
-2.06
-3.14
-4.17
-5.37
-6.90
-8.84
-11.13
-13.62
-16.13
-18.53
-20.86
-23.28
-25.99
-29.18
-32.88
-36.95
-41.06
-44.68
-47.24
-48.13
-46.95
-43.61
-38.42
-32.08
-25.44
-19.31
-14.21
-10.23
-7.13
-4.54
-2.12
0.25
2.52
4.47
5.92
6.74
6.98
6.82
6.48
6.20
6.15
6.39
6.91
7.65
8.50
9.34
10.04
10.45
10.44
9.99
9.20
8.31
7.67
7.58
8.14
9.25
10.55
11.59
12.00
11.56
10.35
8.56
6.47
4.28
2.09
-0.08
-2.25
-4.43
-6.65
-8.98
-11.48
-14.18
-17.02
-19.81
-22.42
-24.79
-27.07
-29.55
-32.56
-36.23
-40.34
-44.33
-47.31
-48.45
-47.13
-43.28
-37.36
-30.20
-22.79
-15.94
-10.08
-5.27
-1.29
2.19
5.42
8.55
11.61
14.58
17.38
19.90
21.98
23.46
24.24
24.34
23.97
23.43
23.03
23.02
23.41
24.04
24.58
24.70
24.21
23.14
21.70
20.21
18.95
18.06
17.47
17.06
16.64
16.12
15.51
14.80
14.05
13.23
12.32
11.30
10.15
8.91
7.58
6.21
4.80
3.37
1.90
0.38
-1.18
-2.82
-4.51
-6.25
-8.05
-9.90
-11.79
-13.68
-15.49
-17.21
-18.86
-20.61
-22.68
-25.22
-28.26
-31.51
-34.46
-36.41
-36.69
-34.87
-30.92
-25.24
-18.59
-11.82
-5.63
-0.45
3.69
7.01
9.88
12.56
15.24
17.94
20.58
23.04
25.19
26.93
28.20
29.05
29.55
29.81
29.98
30.17
30.46
30.90
31.47
32.09
32.60
32.84
32.67
32.05
31.06
29.88
28.73
27.72
26.88
26.10
25.26
24.28
23.14
21.91
20.66
19.43
18.21
16.90
15.40
13.61
11.48
9.03
6.35
3.59
0.84
-1.82
-4.44
-7.08
-9.86
-12.89
-16.18
-19.76
-23.61
-27.71
-31.85
-35.69
-38.67
-40.16
-39.70
-37.19
-33.00
-27.84
-22.52
-17.66
-13.59
-10.29
-7.60
-5.31
-3.36
-1.75
-0.57
0.17
0.51
0.59
0.59
0.65
0.88
1.30
1.91
2.66
3.52
4.38
5.15
5.65
5.71
5.21
4.21
2.91
1.57
0.49
-0.28
-0.86
-1.52
-2.53
-3.93
-5.56
-7.11
-8.30
-9.04
-9.48
-9.85
-10.37
-11.15
-12.15
-13.31
-14.62
-16.13
-17.91
-19.94
-22.19
-24.58
-27.10
-29.86
-33.00
-36.58
-40.45
-44.15
-47.02
-48.30
-47.38
-44.11
-38.81
-32.21
-25.24
-18.71
-13.10
-8.53
-4.79
-1.53
1.52
4.54
7.56
10.53
13.34
15.85
17.94
19.50
20.49
20.97
21.07
20.95
20.74
20.56
20.50
20.61
20.92
21.41
21.96
22.38
22.45
22.01
21.05
19.72
18.27
16.95
15.88
15.03
14.24
13.30
12.06
10.46
8.48
6.22
3.77
1.29
-1.06
-3.19
-5.04
-6.71
-8.33
-10.09
-12.10
-14.41
-16.94
-19.55
-22.09
-24.45
-26.66
-28.85
-31.31
-34.32
-38.01
-42.20
-46.37
-49.71
-51.39
-50.81
-47.78
-42.59
-35.87
-28.43
-20.99
-14.12
-8.13
-3.12
1.06
4.70
8.11
11.57
15.21
18.92
22.47
25.53
27.83
29.20
29.69
29.52
29.04
28.65
28.75
29.54
31.04
33.00
35.09
36.92
38.21
38.83
38.85
38.41
37.77
37.12
36.65
36.46
36.52
36.75
36.99
37.06
36.83
36.20
35.14
33.72
32.06
30.30
28.54
26.75
24.80
22.49
19.65
16.26
12.46
8.51
4.70
1.24
-1.71
-4.16
-6.24
-8.22
-10.52
-13.60
-17.82
-23.21
-29.40
-35.55
-40.58
-43.41
-43.25
-39.87
-33.60
-25.29
-16.08
-7.10
0.75
7.02
11.70
15.11
17.64
19.56
20.95
21.70
21.69
20.96
19.71
18.31
17.10
16.32
16.02
16.05
16.18
16.21
15.95
15.35
14.37
13.04
11.35
9.31
6.88
4.07
0.96
-2.31
-5.52
-8.47
-11.03
-13.17
-15.03
-16.80
-18.73
-21.01
-23.71
-26.72
-29.78
-32.57
-34.88
-36.66
-38.12
-39.62
-41.56
-44.22
-47.63
-51.71
-56.20
-60.77
-64.96
-68.20
-69.83
-69.15
-65.72
-59.44
-50.68
-40.22
-28.96
-17.62
-6.46
4.57
15.40
25.52
33.87
39.22
40.78
38.79
34.53
29.79
26.14
24.24
23.87
24.32
24.98
25.73
26.79
28.45
30.54
32.49
33.58
33.33
31.74
29.31
26.69
24.49
22.90
21.74
20.62
19.23
17.44
15.42
13.45
11.79
10.45
9.25
7.89
6.18
4.10
1.85
-0.34
-2.28
-3.98
-5.58
-7.34
-9.47
-12.09
-15.13
-18.45
-21.78
-24.91
-27.72
-30.24
-32.67
-35.34
-38.61
-42.70
-47.64
-53.06
-58.28
-62.29
-64.05
-62.76
-58.11
-50.49
-40.87
-30.56
-20.79
-12.37
-5.49
0.18
5.24
10.19
15.31
20.53
25.59
30.21
34.15
37.32
39.68
41.21
41.95
42.03
41.67
41.20
40.95
41.08
41.57
42.19
42.60
42.56
41.97
40.88
39.45
37.84
36.17
34.51
32.93
31.48
30.23
29.20
28.38
27.65
26.92
26.08
25.14
24.16
23.26
22.56
22.13
21.93
21.82
21.58
21.06
20.20
19.09
17.92
16.90
16.16
15.65
15.24
14.75
14.04
13.05
11.85
10.60
9.46
8.56
7.92
7.41
6.83
5.98
4.70
3.03
1.09
-0.94
-2.95
-4.98
-7.21
-9.86
-13.17
-17.22
-21.90
-26.87
-31.56
-35.23
-37.17
-36.85
-34.13
-29.30
-23.06
-16.33
-9.98
-4.59
-0.42
2.59
4.70
6.23
7.46
8.60
9.77
10.94
12.03
12.93
13.53
13.83
13.87
13.77
13.62
13.47
13.32
13.19
13.04
12.93
12.85
12.75
12.49
11.90
10.87
9.41
7.68
5.93
4.38
3.17
2.25
1.43
0.50
-0.70
-2.17
-3.80
-5.42
-6.87
-8.10
-9.15
-10.09
-11.03
-12.05
-13.19
-14.46
-15.89
-17.44
-19.10
-20.87
-22.72
-24.67
-26.83
-29.31
-32.25
-35.76
-39.78
-44.06
-48.11
-51.22
-52.62
-51.74
-48.41
-42.98
-36.24
-29.20
-22.72
-17.28
-12.87
-9.20
-5.86
-2.58
0.71
3.92
6.86
9.40
11.47
13.06
14.18
14.90
15.31
15.57
15.84
16.21
16.69
17.23
17.72
18.05
18.16
18.02
17.59
16.90
16.01
15.08
14.28
13.74
13.42
13.14
12.65
11.77
10.53
9.16
7.98
7.21
6.89
6.79
6.60
6.08
5.12
3.86
2.49
1.19
0.05
-1.05
-2.23
-3.65
-5.34
-7.17
-8.93
-10.42
-11.57
-12.44
-13.24
-14.20
-15.48
-17.10
-18.93
-20.81
-22.59
-24.23
-25.82
-27.48
-29.41
-31.76
-34.63
-37.97
-41.52
-44.83
-47.24
-48.08
-46.85
-43.41
-38.09
-31.62
-24.86
-18.62
-13.38
-9.22
-5.92
-3.10
-0.37
2.53
5.65
8.88
12.01
14.77
16.99
18.60
19.64
20.24
20.55
20.71
20.82
21.00
21.32
21.81
22.42
22.99
23.33
23.28
22.77
21.92
20.95
20.11
19.57
19.33
19.25
19.11
18.76
18.18
17.46
16.77
16.26
16.02
16.05
16.26
16.57
16.96
17.39
17.83
18.27
18.65
18.89
18.94
18.75
18.36
17.81
17.23
16.72
16.34
16.06
15.78
15.38
14.85
14.18
13.45
12.64
11.67
10.40
8.74
6.69
4.44
2.21
0.18
-1.61
-3.36
-5.38
-8.03
-11.52
-15.73
-20.18
-24.11
-26.66
-27.19
-25.51
-21.91
-17.10
-11.94
-7.22
-3.41
-0.71
0.99
1.97
2.59
3.17
3.87
4.72
5.56
6.23
6.61
6.69
6.59
6.39
6.15
5.87
5.54
5.19
4.91
4.74
4.66
4.57
4.33
3.87
3.21
2.50
1.90
1.48
1.20
0.88
0.35
-0.47
-1.53
-2.69
-3.80
-4.81
-5.74
-6.67
-7.69
-8.79
-9.98
-11.22
-12.51
-13.92
-15.46
-17.14
-18.91
-20.73
-22.59
-24.57
-26.77
-29.28
-32.20
-35.54
-39.21
-42.99
-46.47
-49.06
-50.13
-49.23
-46.27
-41.59
-35.86
-29.84
-24.14
-19.05
-14.55
-10.51
-6.87
-3.69
-1.13
0.74
2.01
2.92
3.75
4.62
5.56
6.44
7.16
7.70
8.15
8.62
9.20
9.91
10.72
11.58
12.42
13.15
13.64
13.77
13.46
12.74
11.73
10.55
9.27
7.91
6.43
4.86
3.33
1.97
0.91
0.14
-0.49
-1.14
-1.95
-2.93
-4.01
-5.12
-6.27
-7.55
-9.09
-10.91
-12.89
-14.87
-16.67
-18.27
-19.82
-21.61
-23.91
-26.90
-30.53
-34.57
-38.60
-42.11
-44.50
-45.26
-44.08
-40.91
-36.11
-30.28
-24.14
-18.33
-13.24
-9.00
-5.49
-2.45
0.44
3.46
6.76
10.26
13.71
16.79
19.20
20.85
21.86
22.49
22.96
23.40
23.79
24.08
24.30
24.55
24.97
25.58
26.26
26.75
26.79
26.25
25.19
23.84
22.44
21.23
20.27
19.52
18.82
18.05
17.15
16.14
15.15
14.31
13.68
13.18
12.70
12.07
11.15
9.92
8.44
6.86
5.31
3.89
2.66
1.59
0.59
-0.42
-1.56
-2.87
-4.36
-5.97
-7.63
-9.25
-10.73
-12.06
-13.31
-14.72
-16.63
-19.34
-22.96
-27.19
-31.35
-34.48
-35.70
-34.48
-30.86
-25.39
-18.99
-12.52
-6.66
-1.73
2.31
5.68
8.63
11.39
14.05
16.64
19.11
21.40
23.40
24.99
26.05
26.52
26.45
26.04
25.58
25.36
25.56
26.17
27.01
27.76
28.15
28.00
27.33
26.33
25.23
24.24
23.39
22.58
21.62
20.36
18.75
16.86
14.82
12.75
10.74
8.78
6.84
4.85
2.75
0.48
-2.00
-4.68
-7.50
-10.33
-13.04
-15.62
-18.20
-21.03
-24.39
-28.38
-32.84
-37.28
-41.01
-43.33
-43.73
-42.01
-38.37
-33.35
-27.58
-21.75
-16.37
-11.72
-7.86
-4.64
-1.85
0.69
3.05
5.15
6.83
7.93
8.48
8.63
8.70
8.95
9.53
10.39
11.40
12.40
13.29
14.03
14.61
14.96
14.95
14.45
13.42
11.97
10.33
8.79
7.52
6.51
5.60
4.56
3.24
1.59
-0.31
-2.33
-4.41
-6.54
-8.77
-11.16
-13.65
-16.12
-18.41
-20.40
-22.11
-23.71
-25.47
-27.71
-30.66
-34.36
-38.62
-43.01
-46.86
-49.44
-50.07
-48.33
-44.23
-38.25
-31.19
-23.93
-17.18
-11.28
-6.25
-1.86
2.18
6.08
9.96
13.81
17.54
20.99
23.92
26.08
27.32
27.67
27.35
26.71
26.12
25.84
25.93
26.37
27.01
27.70
28.29
28.63
28.61
28.19
27.42
26.43
25.40
24.45
23.62
22.93
22.32
21.78
21.24
20.62
19.79
18.65
17.20
15.59
14.03
12.73
11.76
10.99
10.21
9.23
7.96
6.49
5.03
3.74
2.69
1.81
0.95
-0.06
-1.32
-2.80
-4.42
-6.04
-7.59
-9.10
-10.63
-12.23
-13.90
-15.54
-17.06
-18.41
-19.61
-20.75
-21.87
-22.98
-24.05
-25.13
-26.44
-28.28
-30.93
-34.44
-38.49
-42.35
-45.09
-45.86
-44.17
-40.01
-33.86
-26.55
-18.94
-11.75
-5.39
0.02
4.59
8.53
12.10
15.50
18.86
22.23
25.56
28.68
31.34
33.27
34.34
34.59
34.30
33.87
33.69
34.00
34.86
36.12
37.52
38.81
39.79
40.33
40.39
39.99
39.15
37.93
36.46
34.87
33.25
31.66
30.10
28.54
26.94
25.29
23.68
22.18
20.87
19.81
19.02
18.47
18.14
17.94
17.76
17.45
16.90
16.00
14.78
13.34
11.78
10.18
8.57
6.89
5.05
3.02
0.80
-1.57
-3.98
-6.40
-8.79
-11.16
-13.56
-16.05
-18.77
-21.83
-25.27
-29.01
-32.73
-35.91
-37.89
-38.09
-36.23
-32.40
-27.14
-21.23
-15.50
-10.59
-6.80
-4.10
-2.27
-0.99
-0.00
0.82
1.51
2.03
2.31
2.31
1.99
1.36
0.51
-0.38
-1.10
-1.45
-1.36
-0.87
-0.18
0.49
0.95
1.12
0.96
0.52
-0.20
-1.21
-2.50
-4.01
-5.60
-7.06
-8.26
-9.21
-10.05
-11.01
-12.26
-13.82
-15.53
-17.15
-18.51
-19.56
-20.42
-21.28
-22.31
-23.58
-25.05
-26.67
-28.36
-30.13
-31.98
-33.99
-36.25
-38.83
-41.82
-45.17
-48.72
-52.09
-54.74
-56.03
-55.42
-52.65
-47.84
-41.50
-34.36
-27.26
-20.80
-15.29
-10.67
-6.68
-2.97
0.65
4.25
7.72
10.92
13.69
15.96
17.73
19.06
20.04
20.79
21.38
21.91
22.40
22.87
23.35
23.89
24.53
25.27
26.01
26.56
26.72
26.37
25.53
24.39
23.19
22.13
21.32
20.70
20.16
19.58
18.92
18.19
17.43
16.62
15.69
14.58
13.31
11.96
10.68
9.61
8.76
8.03
7.22
6.17
4.81
3.18
1.43
-0.32
-1.99
-3.59
-5.16
-6.81
-8.56
-10.50
-12.64
-14.97
-17.45
-19.92
-22.24
-24.34
-26.19
-27.95
-29.82
-32.07
-34.88
-38.38
-42.44
-46.75
-50.66
-53.40
-54.17
-52.45
-48.20
-41.86
-34.27
-26.34
-18.83
-12.20
-6.59
-1.92
2.01
5.40
8.49
11.49
14.60
17.86
21.20
24.37
27.04
28.99
30.17
30.78
31.15
31.58
32.24
33.08
33.92
34.63
35.21
35.72
36.25
36.76
37.06
37.00
36.50
35.71
34.89
34.29
33.97
33.78
33.46
32.81
31.82
30.65
29.57
28.74
28.18
27.77
27.29
26.60
25.66
24.54
23.31
22.06
20.81
19.53
18.19
16.78
15.32
13.85
12.32
10.70
8.88
6.83
4.55
2.19
-0.13
-2.33
-4.48
-6.76
-9.44
-12.72
-16.63
-20.98
-25.38
-29.29
-32.10
-33.31
-32.62
-30.07
-26.03
-21.13
-16.09
-11.46
-7.55
-4.39
-1.87
0.18
1.83
3.08
3.91
4.31
4.33
4.08
3.67
3.27
2.99
2.98
3.30
3.96
4.87
5.88
6.81
7.48
7.78
7.62
6.99
5.91
4.49
2.88
1.23
-0.36
-1.89
-3.39
-4.94
-6.57
-8.23
-9.86
-11.38
-12.79
-14.12
-15.46
-16.90
-18.48
-20.17
-21.91
-23.57
-25.06
-26.39
-27.68
-29.15
-31.07
-33.67
-36.96
-40.66
-44.21
-46.85
-47.88
-46.83
-43.61
-38.56
-32.30
-25.56
-19.03
-13.22
-8.40
-4.58
-1.60
0.88
3.17
5.50
7.94
10.40
12.68
14.60
16.05
16.99
17.47
17.54
17.38
17.16
17.12
17.43
18.12
19.01
19.80
20.17
19.90
19.00
17.66
16.18
14.78
13.59
12.57
11.60
10.59
9.51
8.38
7.21
5.96
4.54
2.92
1.07
-0.95
-3.02
-5.05
-6.98
-8.79
-10.48
-12.09
-13.68
-15.29
-16.92
-18.55
-20.13
-21.66
-23.25
-25.15
-27.67
-30.98
-35.07
-39.56
-43.80
-47.02
-48.50
-47.77
-44.71
-39.59
-32.97
-25.64
-18.37
-11.72
-5.97
-1.09
3.17
7.10
10.95
14.83
18.70
22.44
25.83
28.64
30.66
31.77
32.01
31.58
30.85
30.20
29.93
30.11
30.64
31.23
31.61
31.57
31.10
30.29
29.27
28.16
26.99
25.76
24.50
23.31
22.37
21.82
21.70
21.87
22.13
22.26
22.21
22.10
22.14
22.47
23.08
23.78
24.31
24.44
24.12
23.47
22.71
22.06
21.60
21.32
21.03
20.54
19.63
18.20
16.25
13.88
11.31
8.78
6.45
4.34
2.31
0.10
-2.59
-6.00
-10.17
-14.96
-20.01
-24.84
-28.85
-31.50
-32.31
-31.08
-27.90
-23.26
-17.85
-12.45
-7.68
-3.87
-1.05
1.00
2.55
3.84
5.01
6.07
6.99
7.73
8.26
8.53
8.56
8.31
7.81
7.10
6.32
5.66
5.24
5.10
5.06
4.85
4.14
2.75
0.78
-1.53
-3.83
-5.85
-7.50
-8.88
-10.15
-11.42
-12.67
-13.78
-14.65
-15.23
-15.66
-16.11
-16.76
-17.67
-18.81
-20.05
-21.26
-22.36
-23.32
-24.20
-25.11
-26.17
-27.59
-29.56
-32.25
-35.66
-39.53
-43.36
-46.42
-48.00
-47.56
-44.89
-40.27
-34.31
-27.85
-21.66
-16.26
-11.82
-8.18
-5.09
-2.27
0.41
2.96
5.31
7.37
9.06
10.33
11.18
11.66
11.94
12.22
12.67
13.38
14.32
15.39
16.49
17.56
18.58
19.46
20.10
20.37
20.19
19.58
18.69
17.70
16.76
15.89
15.02
14.01
12.80
11.41
9.96
8.59
7.40
6.41
5.52
4.58
3.41
1.95
0.22
-1.64
-3.50
-5.24
-6.86
-8.44
-10.11
-11.95
-13.97
-16.14
-18.38
-20.60
-22.73
-24.74
-26.69
-28.73
-31.04
-33.82
-37.12
-40.78
-44.36
-47.24
-48.77
-48.43
-45.98
-41.58
-35.70
-29.04
-22.38
-16.30
-11.16
-6.92
-3.32
-0.01
3.30
6.72
10.20
13.63
16.88
19.82
22.29
24.15
25.30
25.80
25.90
25.92
26.19
26.82
27.76
28.82
29.77
30.51
30.99
31.23
31.19
30.85
30.20
29.34
28.42
27.59
26.93
26.40
25.85
25.20
24.43
23.64
23.01
22.62
22.45
22.38
22.25
21.97
21.52
21.00
20.52
20.18
20.03
20.06
20.18
20.22
20.04
19.49
18.53
17.26
15.85
14.49
13.27
12.18
11.09
9.89
8.54
7.11
5.71
4.37
3.00
1.44
-0.45
-2.73
-5.36
-8.28
-11.52
-15.21
-19.43
-24.03
-28.48
-31.99
-33.74
-33.21
-30.41
-25.79
-20.10
-14.12
-8.48
-3.55
0.44
3.46
5.56
6.91
7.74
8.28
8.65
8.87
8.89
8.65
8.19
7.62
7.07
6.66
6.46
6.46
6.63
6.91
7.23
7.48
7.52
7.18
6.34
4.99
3.23
1.33
-0.48
-2.01
-3.21
-4.15
-4.98
-5.81
-6.71
-7.64
-8.54
-9.39
-10.20
-11.02
-11.84
-12.68
-13.54
-14.49
-15.65
-17.14
-18.99
-21.10
-23.26
-25.28
-27.08
-28.74
-30.51
-32.69
-35.49
-39.00
-43.01
-47.08
-50.54
-52.61
-52.62
-50.20
-45.46
-38.94
-31.50
-24.04
-17.26
-11.55
-6.96
-3.27
-0.17
2.65
5.43
8.28
11.13
13.79
16.01
17.60
18.55
19.00
19.22
19.46
19.83
20.36
20.95
21.48
21.91
22.20
22.32
22.23
21.88
21.27
20.43
19.48
18.50
17.55
16.60
15.56
14.37
12.96
11.40
9.76
8.19
6.78
5.62
4.73
4.06
3.48
2.82
1.90
0.59
-1.07
-2.93
-4.74
-6.23
-7.29
-8.03
-8.76
-9.83
-11.48
-13.70
-16.32
-19.02
-21.57
-23.88
-26.07
-28.36
-31.00
-34.21
-38.05
-42.44
-47.05
-51.28
-54.41
-55.64
-54.42
-50.56
-44.37
-36.56
-28.05
-19.77
-12.39
-6.28
-1.48
2.26
5.29
8.05
10.81
13.75
16.84
19.94
22.82
25.27
27.14
28.36
29.01
29.24
29.27
29.31
29.55
30.01
30.64
31.28
31.72
31.76
31.32
30.46
29.32
28.16
27.20
26.58
26.29
26.21
26.12
25.82
25.22
24.33
23.25
22.15
21.14
20.29
19.58
19.00
18.53
18.18
17.96
17.79
17.56
17.16
16.54
15.77
15.01
14.38
13.93
13.53
12.95
11.99
10.50
8.54
6.23
3.80
1.43
-0.72
-2.61
-4.32
-6.06
-8.15
-10.91
-14.53
-18.91
-23.65
-28.09
-31.46
-33.07
-32.53
-29.76
-25.12
-19.21
-12.81
-6.69
-1.42
2.66
5.55
7.47
8.74
9.68
10.46
11.20
11.86
12.40
12.77
12.94
12.90
12.65
12.24
11.76
11.30
10.99
10.84
10.78
10.63
10.23
9.44
8.29
6.88
5.39
3.97
2.71
1.60
0.60
-0.35
-1.30
-2.32
-3.47
-4.81
-6.36
-8.05
-9.76
-11.39
-12.89
-14.32
-15.81
-17.45
-19.27
-21.12
-22.92
-24.60
-26.31
-28.28
-30.79
-33.99
-37.83
-42.00
-46.07
-49.50
-51.68
-52.12
-50.45
-46.55
-40.66
-33.38
-25.58
-18.14
-11.76
-6.75
-2.98
-0.03
2.61
5.34
8.31
11.43
14.43
17.01
18.93
20.08
20.55
20.57
20.44
20.46
20.81
21.54
22.56
23.66
24.63
25.32
25.64
25.58
25.21
24.57
23.74
22.78
21.72
20.60
19.42
18.13
16.64
14.90
12.97
11.00
9.21
7.83
6.87
6.21
5.53
4.55
3.09
1.18
-1.01
-3.24
-5.33
-7.15
-8.72
-10.09
-11.39
-12.71
-14.17
-15.84
-17.77
-19.95
-22.36
-24.91
-27.59
-30.39
-33.33
-36.43
-39.66
-42.84
-45.63
-47.54
-48.00
-46.60
-43.16
-37.87
-31.30
-24.23
-17.44
-11.52
-6.73
-2.97
0.12
3.00
6.03
9.42
13.13
16.94
20.48
23.41
25.44
26.49
26.70
26.36
25.87
25.59
25.71
26.27
27.16
28.18
29.11
29.79
30.09
29.94
29.34
28.37
27.19
26.03
25.09
24.50
24.21
24.03
23.72
23.18
22.41
21.61
21.00
20.70
20.70
20.83
20.84
20.60
20.10
19.47
18.92
18.58
18.46
18.43
18.28
17.86
17.11
16.13
15.07
14.09
13.22
12.39
11.50
10.40
9.03
7.35
5.35
3.05
0.51
-2.09
-4.60
-6.85
-8.81
-10.63
-12.58
-14.98
-18.01
-21.59
-25.34
-28.62
-30.70
-30.97
-29.14
-25.38
-20.25
-14.57
-9.12
-4.50
-0.91
1.69
3.51
4.81
5.81
6.66
7.46
8.22
8.87
9.29
9.32
8.89
8.07
7.06
6.16
5.58
5.48
5.84
6.47
7.10
7.44
7.26
6.46
5.11
3.42
1.63
-0.07
-1.63
-3.05
-4.41
-5.80
-7.26
-8.84
-10.57
-12.41
-14.26
-15.94
-17.23
-18.02
-18.37
-18.52
-18.76
-19.31
-20.24
-21.45
-22.80
-24.22
-25.78
-27.64
-29.97
-32.87
-36.27
-39.95
-43.53
-46.58
-48.63
-49.23
-48.11
-45.15
-40.53
-34.67
-28.20
-21.78
-15.93
-10.93
-6.77
-3.17
0.19
3.57
7.00
10.32
13.29
15.69
17.44
18.59
19.25
19.58
19.71
19.81
20.02
20.46
21.16
22.04
22.93
23.59
23.86
23.67
23.10
22.27
21.36
20.47
19.68
18.95
18.22
17.40
16.46
15.44
14.41
13.44
12.56
11.73
10.89
9.98
9.02
8.02
7.02
5.99
4.88
3.66
2.34
1.03
-0.18
-1.21
-2.09
-2.97
-3.96
-5.14
-6.52
-8.03
-9.63
-11.34
-13.18
-15.17
-17.31
-19.51
-21.66
-23.72
-25.70
-27.69
-29.88
-32.47
-35.62
-39.35
-43.45
-47.39
-50.42
-51.79
-50.89
-47.60
-42.26
-35.63
-28.58
-21.89
-16.03
-11.15
-7.11
-3.61
-0.31
3.12
6.84
10.87
15.00
18.87
22.07
24.27
25.41
25.67
25.49
25.26
25.30
25.70
26.39
27.23
28.08
28.90
29.61
30.12
30.32
30.11
29.53
28.67
27.72
26.80
25.95
25.10
24.18
23.22
22.29
21.57
21.16
21.04
21.08
21.16
21.15
21.02
20.82
20.60
20.39
20.21
20.05
19.90
19.75
19.60
19.44
19.26
19.03
18.68
18.10
17.19
15.90
14.31
12.57
10.86
9.30
7.86
6.37
4.63
2.55
0.17
-2.32
-4.72
-6.90
-8.92
-10.98
-13.38
-16.40
-20.16
-24.59
-29.39
-34.00
-37.74
-39.92
-40.03
-37.91
-33.78
-28.26
-22.17
-16.33
-11.34
-7.42
-4.50
-2.35
-0.63
0.85
2.21
3.43
4.42
5.09
5.42
5.45
5.26
4.99
4.75
4.62
4.65
4.88
5.28
5.77
6.19
6.37
6.10
5.31
4.11
2.69
1.31
0.18
-0.63
-1.13
-1.43
-1.69
-2.07
-2.65
-3.46
-4.42
-5.39
-6.20
-6.73
-6.99
-7.13
-7.35
-7.85
-8.72
-9.93
-11.36
-12.89
-14.41
-15.90
-17.39
-18.93
-20.55
-22.23
-23.90
-25.53
-27.19
-29.08
-31.49
-34.71
-38.80
-43.48
-48.07
-51.65
-53.31
-52.49
-49.12
-43.66
-36.95
-29.96
-23.45
-17.82
-13.11
-9.08
-5.40
-1.82
1.80
5.39
8.83
11.99
14.77
17.11
18.98
20.35
21.18
21.59
21.73
21.88
22.27
23.03
24.14
25.41
26.55
27.36
27.66
27.44
26.73
25.60
24.15
22.42
20.49
18.44
16.37
14.40
12.61
11.07
9.76
8.60
7.52
6.52
5.69
5.14
4.98
5.12
5.41
5.59
5.53
5.30
5.06
5.03
5.23
5.54
5.70
5.46
4.72
3.54
2.11
0.63
-0.75
-2.00
-3.18
-4.44
-5.86
-7.54
-9.47
-11.59
-13.80
-15.98
-18.04
-19.96
-21.74
-23.43
-25.14
-27.05
-29.44
-32.54
-36.43
-40.96
-45.61
-49.57
-51.98
-52.08
-49.51
-44.43
-37.48
-29.58
-21.63
-14.33
-8.02
-2.79
1.52
5.17
8.45
11.60
14.81
18.10
21.34
24.34
26.89
28.87
30.26
31.19
31.83
32.37
32.98
33.82
34.98
36.40
37.91
39.20
39.98
40.09
39.55
38.53
37.24
35.85
34.45
33.07
31.73
30.42
29.19
28.04
27.01
26.11
25.34
24.68
24.06
23.37
22.51
21.37
19.93
18.18
16.15
13.87
11.37
8.76
6.17
3.72
1.46
-0.69
-2.92
-5.43
-8.30
-11.39
-14.45
-17.23
-19.67
-21.93
-24.38
-27.41
-31.23
-35.79
-40.71
-45.38
-49.06
-51.06
-50.91
-48.45
-43.87
-37.72
-30.76
-23.72
-17.23
-11.62
-7.02
-3.32
-0.36
2.05
4.06
5.76
7.16
8.26
9.10
9.76
10.33
10.91
11.54
12.23
12.91
13.59
14.27
14.99
15.75
16.49
17.05
17.25
16.97
16.16
14.92
13.40
11.76
10.15
8.63
7.22
5.87
4.51
3.04
1.38
-0.50
-2.56
-4.67
-6.67
-8.41
-9.82
-10.94
-11.92
-12.94
-14.20
-15.86
-17.96
-20.45
-23.20
-26.05
-28.85
-31.58
-34.36
-37.37
-40.87
-44.93
-49.47
-54.03
-57.90
-60.26
-60.31
-57.67
-52.39
-45.12
-36.79
-28.44
-20.84
-14.37
-9.00
-4.49
-0.50
3.23
6.83
10.41
13.98
17.48
20.73
23.50
25.57
26.85
27.49
27.79
28.12
28.78
29.86
31.25
32.76
34.18
35.29
35.95
36.01
35.42
34.20
32.51
30.63
28.84
27.35
26.23
25.42
24.77
24.14
23.43
22.63
21.73
20.71
19.58
18.36
17.11
15.92
14.88
14.03
13.33
12.66
11.88
10.94
9.86
8.80
7.85
7.03
6.20
5.16
3.73
1.88
-0.28
-2.50
-4.56
-6.36
-7.91
-9.35
-10.85
-12.54
-14.50
-16.70
-19.05
-21.39
-23.59
-25.65
-27.66
-29.92
-32.74
-36.37
-40.80
-45.63
-50.10
-53.27
-54.23
-52.44
-47.89
-41.08
-32.92
-24.41
-16.39
-9.39
-3.62
1.05
4.86
8.17
11.32
14.55
18.01
21.61
25.13
28.25
30.69
32.32
33.18
33.48
33.49
33.46
33.60
34.02
34.74
35.70
36.78
37.75
38.40
38.57
38.20
37.41
36.41
35.42
34.60
33.92
33.26
32.43
31.29
29.83
28.13
26.33
24.53
22.84
21.26
19.79
18.42
17.10
15.76
14.27
12.47
10.28
7.70
4.87
1.99
-0.70
-3.14
-5.35
-7.55
-9.94
-12.69
-15.83
-19.19
-22.56
-25.73
-28.64
-31.41
-34.31
-37.64
-41.56
-45.99
-50.55
-54.62
-57.51
-58.52
-57.22
-53.44
-47.45
-39.84
-31.48
-23.27
-15.91
-9.81
-5.00
-1.15
2.10
5.10
7.94
10.56
12.76
14.39
15.44
16.00
16.31
16.57
16.91
17.38
17.98
18.71
19.66
20.81
22.11
23.35
24.22
24.39
23.71
22.24
20.25
18.11
16.16
14.55
13.26
12.17
11.14
10.11
9.12
8.21
7.42
6.75
6.13
5.45
4.63
3.61
2.37
0.90
-0.76
-2.54
-4.36
-6.11
-7.68
-9.04
-10.22
-11.33
-12.54
-14.01
-15.87
-18.18
-20.89
-23.88
-26.98
-30.06
-33.05
-36.05
-39.27
-42.95
-47.18
-51.71
-55.95
-59.04
-60.17
-58.83
-54.96
-48.95
-41.50
-33.43
-25.43
-18.06
-11.60
-6.12
-1.47
2.64
6.53
10.47
14.51
18.51
22.22
25.36
27.71
29.20
29.90
30.02
29.82
29.59
29.55
29.80
30.34
31.07
31.88
32.63
33.22
33.54
33.50
33.09
32.28
31.17
29.89
28.58
27.38
26.36
25.54
24.86
24.25
23.64
22.97
22.24
21.42
20.51
19.49
18.40
17.34
16.38
15.60
14.99
14.46
13.87
13.09
12.15
11.11
10.12
9.29
8.63
8.09
7.57
7.02
6.42
5.79
5.13
4.40
3.49
2.30
0.77
-1.08
-3.13
-5.23
-7.21
-9.02
-10.71
-12.47
-14.48
-16.98
-20.07
-23.82
-28.17
-32.93
-37.74
-42.02
-45.00
-45.97
-44.45
-40.46
-34.54
-27.62
-20.71
-14.64
-9.84
-6.29
-3.69
-1.65
0.15
1.86
3.54
5.09
6.43
7.44
8.04
8.16
7.81
7.12
6.36
5.82
5.80
6.41
7.53
8.89
10.12
10.91
11.10
10.73
9.99
9.22
8.74
8.82
9.55
10.86
12.51
14.16
15.47
16.18
16.18
15.52
14.36
12.91
11.34
9.75
8.18
6.63
5.12
3.72
2.50
1.49
0.64
-0.21
-1.25
-2.61
-4.27
-6.10
-7.85
-9.40
-10.77
-12.18
-13.88
-16.04
-18.56
-21.19
-23.65
-25.84
-27.92
-30.25
-33.17
-36.90
-41.37
-46.25
-51.06
-55.19
-58.00
-58.90
-57.42
-53.41
-47.16
-39.37
-30.99
-22.98
-15.98
-10.21
-5.53
-1.52
2.24
5.99
9.75
13.33
16.46
18.94
20.75
22.00
22.88
23.61
24.28
24.97
25.68
26.44
27.33
28.34
29.39
30.28
30.74
30.51
29.54
27.92
25.93
23.91
22.11
20.69
19.64
18.86
18.19
17.48
16.63
15.58
14.39
13.09
11.77
10.46
9.22
8.07
6.98
5.91
4.74
3.32
1.58
-0.47
-2.72
-5.02
-7.25
-9.40
-11.54
-13.76
-16.08
-18.46
-20.80
-23.04
-25.19
-27.36
-29.71
-32.33
-35.28
-38.59
-42.35
-46.58
-51.19
-55.78
-59.65
-61.92
-61.83
-58.98
-53.58
-46.30
-38.09
-29.85
-22.20
-15.48
-9.72
-4.84
-0.61
3.24
7.10
11.29
15.95
20.92
25.77
29.91
32.84
34.38
34.72
34.34
33.77
33.45
33.57
34.10
34.84
35.57
36.10
36.26
36.00
35.28
34.18
32.82
31.40
30.08
29.00
28.26
27.83
27.65
27.60
27.53
27.30
26.81
26.05
25.14
24.19
23.31
22.57
21.96
21.42
20.94
20.50
20.04
19.50
18.75
17.65
16.19
14.43
12.54
10.72
9.02
7.41
5.74
3.85
1.68
-0.73
-3.24
-5.77
-8.26
-10.79
-13.52
-16.60
-20.18
-24.31
-28.93
-33.85
-38.69
-42.84
-45.62
-46.38
-44.77
-40.87
-35.23
-28.71
-22.20
-16.37
-11.51
-7.56
-4.27
-1.38
1.27
3.71
5.87
7.69
9.13
10.16
10.78
10.98
10.84
10.48
10.09
9.83
9.81
10.05
10.46
10.90
11.24
11.34
11.12
10.52
9.55
8.31
6.94
5.61
4.43
3.43
2.54
1.66
0.71
-0.36
-1.53
-2.73
-3.90
-5.01
-6.03
-7.00
-8.01
-9.16
-10.54
-12.22
-14.21
-16.44
-18.86
-21.34
-23.82
-26.21
-28.51
-30.83
-33.34
-36.30
-39.88
-43.99
-48.28
-52.05
-54.47
-54.83
-52.76
-48.36
-42.16
-34.98
-27.66
-20.88
-14.98
-9.95
-5.55
-1.45
2.68
6.99
11.47
15.98
20.23
23.96
26.94
29.09
30.46
31.27
31.78
32.18
32.63
33.13
33.64
34.08
34.38
34.50
34.37
33.92
33.07
31.82
30.26
28.55
26.87
25.40
24.14
23.04
21.94
20.71
19.31
17.79
16.31
15.05
14.12
13.51
13.15
12.82
12.36
11.66
10.73
9.65
8.54
7.49
6.51
5.50
4.37
3.09
1.72
0.40
-0.67
-1.40
-1.79
-2.03
-2.28
-2.68
-3.30
-4.12
-5.10
-6.21
-7.41
-8.67
-9.95
-11.22
-12.50
-13.89
-15.48
-17.37
-19.56
-21.98
-24.46
-26.85
-29.07
-31.20
-33.45
-36.09
-39.35
-43.30
-47.69
-51.99
-55.42
-57.16
-56.64
-53.66
-48.49
-41.79
-34.37
-26.97
-20.11
-14.00
-8.61
-3.72
0.89
5.42
9.93
14.36
18.58
22.39
25.61
28.09
29.81
30.87
31.48
31.95
32.52
33.38
34.51
35.79
37.02
38.07
38.80
39.16
39.12
38.65
37.81
36.70
35.49
34.36
33.43
32.64
31.88
31.02
29.99
28.80
27.58
26.43
25.38
24.42
23.45
22.42
21.29
20.11
18.97
17.92
17.01
16.16
15.30
14.29
13.06
11.53
9.68
7.51
5.07
2.43
-0.33
-3.09
-5.78
-8.39
-10.93
-13.44
-15.96
-18.47
-20.96
-23.48
-26.12
-29.11
-32.69
-37.01
-41.97
-47.13
-51.75
-54.93
-55.98
-54.62
-51.07
-45.96
-40.10
-34.18
-28.65
-23.72
-19.43
-15.73
-12.52
-9.71
-7.17
-4.78
-2.50
-0.36
1.54
3.16
4.53
5.74
6.85
7.85
8.72
9.44
10.12
10.90
11.90
13.03
14.06
14.67
14.64
14.01
13.04
12.06
11.33
10.88
10.58
10.24
9.73
9.04
8.25
7.43
6.63
5.84
5.04
4.27
3.56
2.95
2.39
1.75
0.87
-0.41
-2.13
-4.22
-6.50
-8.77
-10.92
-12.94
-14.91
-16.96
-19.13
-21.35
-23.54
-25.66
-27.77
-30.07
-32.79
-36.08
-39.92
-44.06
-48.00
-51.12
-52.81
-52.63
-50.39
-46.28
-40.78
-34.56
-28.27
-22.40
-17.20
-12.67
-8.64
-4.88
-1.17
2.59
6.42
10.21
13.80
16.99
19.63
21.64
23.00
23.75
23.98
23.84
23.53
23.28
23.31
23.80
24.75
26.01
27.26
28.17
28.49
28.19
27.42
26.44
25.46
24.55
23.66
22.67
21.53
20.29
19.06
17.99
17.10
16.38
15.73
15.09
14.41
13.74
13.13
12.65
12.35
12.21
12.14
12.01
11.65
10.99
10.11
9.20
8.51
8.17
8.13
8.16
8.01
7.48
6.57
5.44
4.29
3.29
2.46
1.68
0.83
-0.20
-1.42
-2.76
-4.14
-5.50
-6.81
-8.09
-9.36
-10.63
-11.94
-13.41
-15.22
-17.61
-20.74
-24.60
-28.94
-33.21
-36.70
-38.71
-38.71
-36.52
-32.38
-26.89
-20.79
-14.82
-9.46
-4.89
-1.05
2.25
5.13
7.67
9.87
11.80
13.57
15.32
17.11
18.85
20.34
21.35
21.79
21.69
21.29
20.87
20.67
20.81
21.26
21.90
22.54
23.02
23.20
23.03
22.49
21.63
20.60
19.49
18.42
17.45
16.55
15.66
14.71
13.68
12.65
11.72
10.96
10.34
9.70
8.82
7.51
5.70
3.45
0.94
-1.65
-4.17
-6.57
-8.88
-11.22
-13.72
-16.48
-19.53
-22.78
-26.10
-29.29
-32.17
-34.68
-36.81
-38.72
-40.63
-42.85
-45.62
-48.98
-52.72
-56.31
-59.03
-60.17
-59.21
-56.01
-50.80
-44.14
-36.74
-29.28
-22.33
-16.27
-11.17
-6.93
-3.32
-0.08
2.91
5.62
7.92
9.68
10.89
11.68
12.27
12.89
13.67
14.62
15.72
16.90
18.16
19.43
20.65
21.66
22.30
22.45
22.12
21.39
20.44
19.38
18.27
17.11
15.89
14.61
13.32
12.08
10.90
9.79
8.68
7.56
6.43
5.33
4.34
3.52
2.86
2.30
1.67
0.85
-0.27
-1.65
-3.18
-4.74
-6.22
-7.63
-9.04
-10.55
-12.21
-14.02
-16.00
-18.14
-20.44
-22.90
-25.43
-27.89
-30.23
-32.54
-35.10
-38.29
-42.31
-47.03
-51.83
-55.73
-57.74
-57.15
-53.82
-48.17
-40.98
-33.13
-25.29
-17.89
-11.11
-4.97
0.50
5.32
9.54
13.28
16.75
20.10
23.39
26.49
29.21
31.32
32.70
33.41
33.64
33.67
33.79
34.15
34.83
35.77
36.81
37.74
38.38
38.61
38.43
37.93
37.24
36.48
35.71
34.94
34.14
33.32
32.47
31.65
30.93
30.39
30.05
29.88
29.80
29.67
29.35
28.78
27.99
27.06
26.10
25.13
24.10
22.89
21.44
19.74
17.92
16.12
14.42
12.76
10.98
8.93
6.50
3.80
0.99
-1.73
-4.25
-6.64
-9.05
-11.63
-14.53
-17.83
-21.64
-26.04
-31.02
-36.36
-41.60
-46.02
-48.84
-49.47
-47.69
-43.72
-38.14
-31.68
-25.11
-19.00
-13.74
-9.49
-6.16
-3.59
-1.51
0.29
1.93
3.40
4.55
5.24
5.45
5.26
4.93
4.71
4.76
5.06
5.45
5.75
5.81
5.64
5.27
4.79
4.17
3.38
2.36
1.15
-0.13
-1.32
-2.30
-3.10
-3.79
-4.51
-5.38
-6.43
-7.59
-8.77
-9.89
-10.91
-11.87
-12.90
-14.15
-15.76
-17.77
-20.16
-22.79
-25.51
-28.21
-30.85
-33.47
-36.15
-38.95
-41.87
-44.84
-47.78
-50.57
-53.04
-54.92
-55.81
-55.23
-52.70
-47.97
-41.14
-32.73
-23.58
-14.64
-6.71
-0.25
4.65
8.29
11.14
13.75
16.53
19.71
23.24
26.85
30.12
32.64
34.15
34.69
34.50
34.00
33.59
33.50
33.82
34.49
35.36
36.26
37.03
37.51
37.57
37.10
36.10
34.65
32.93
31.13
29.36
27.67
26.04
24.42
22.79
21.17
19.64
18.24
17.00
15.87
14.78
13.64
12.40
11.06
9.65
8.17
6.63
4.97
3.13
1.04
-1.26
-3.66
-6.00
-8.10
-9.92
-11.57
-13.25
-15.27
-17.86
-21.08
-24.83
-28.80
-32.62
-36.05
-39.01
-41.76
-44.76
-48.46
-53.10
-58.39
-63.54
-67.40
-68.74
-66.57
-60.40
-50.36
-37.35
-22.95
-9.09
2.41
10.45
15.03
17.16
18.43
20.26
23.37
27.58
32.16
36.26
39.38
41.50
42.83
43.63
44.04
44.08
43.82
43.45
43.24
43.47
44.25
45.45
46.72
47.64
47.81
47.10
45.59
43.62
41.58
39.81
38.46
37.44
36.58
35.68
34.61
33.39
32.05
30.69
29.33
27.97
26.57
25.09
23.44
21.60
19.49
17.12
14.59
12.01
9.53
7.22
5.02
2.80
0.37
-2.36
-5.38
-8.55
-11.74
-14.83
-17.83
-20.83
-24.01
-27.62
-31.87
-36.95
-42.84
-49.16
-55.19
-59.92
-62.29
-61.65
-57.89
-51.59
-43.78
-35.64
-28.09
-21.63
-16.30
-11.83
-7.90
-4.31
-1.06
1.71
3.81
5.20
5.94
6.24
6.30
6.28
6.23
6.22
6.33
6.70
7.43
8.50
9.72
10.77
11.39
11.44
11.01
10.28
9.49
8.78
8.20
7.69
7.16
6.53
5.69
4.62
3.26
1.68
-0.01
-1.68
-3.21
-4.58
-5.82
-7.01
-8.23
-9.61
-11.29
-13.36
-15.87
-18.72
-21.72
-24.64
-27.33
-29.79
-32.17
-34.72
-37.69
-41.28
-45.55
-50.42
-55.54
-60.31
-63.90
-65.39
-64.08
-59.72
-52.65
-43.72
-34.04
-24.58
-15.93
-8.26
-1.40
4.90
10.82
16.39
21.56
26.28
30.55
34.37
37.64
40.21
41.84
42.41
42.02
40.98
39.80
38.93
38.64
38.88
39.37
39.75
39.65
38.90
37.53
35.70
33.63
31.52
29.51
27.71
26.17
24.91
23.87
22.99
22.14
21.21
20.14
18.94
17.64
16.32
15.05
13.89
12.87
11.94
10.96
9.81
8.41
6.82
5.17
3.61
2.23
0.98
-0.24
-1.58
-3.07
-4.65
-6.20
-7.64
-8.94
-10.18
-11.43
-12.79
-14.29
-15.95
-17.79
-19.78
-21.88
-24.02
-26.12
-28.14
-30.19
-32.55
-35.58
-39.64
-44.82
-50.80
-56.80
-61.68
-64.25
-63.67
-59.67
-52.67
-43.56
-33.48
-23.38
-13.93
-5.43
2.12
8.82
14.87
20.42
25.61
30.46
34.93
38.90
42.21
44.76
46.55
47.66
48.26
48.52
48.61
48.70
48.89
49.27
49.83
50.45
50.92
51.00
50.49
49.37
47.74
45.82
43.80
41.85
40.01
38.29
36.68
35.10
33.49
31.75
29.77
27.52
25.04
22.48
20.00
17.71
15.59
13.49
11.27
8.84
6.27
3.73
1.44
-0.51
-2.15
-3.68
-5.32
-7.25
-9.58
-12.27
-15.19
-18.15
-20.99
-23.64
-26.20
-28.91
-32.16
-36.26
-41.34
-47.18
-53.21
-58.58
-62.43
-64.01
-62.92
-59.19
-53.29
-45.98
-38.19
-30.72
-24.16
-18.76
-14.42
-10.90
-7.86
-5.12
-2.62
-0.42
1.44
2.99
4.31
5.50
6.61
7.62
8.49
9.20
9.84
10.55
11.46
12.56
13.70
14.62
15.09
14.96
14.24
13.06
11.60
10.03
8.50
7.07
5.79
4.65
3.60
2.58
1.52
0.36
-0.89
-2.19
-3.47
-4.66
-5.73
-6.77
-7.89
-9.23
-10.86
-12.75
-14.81
-16.87
-18.80
-20.56
-22.21
-23.90
-25.78
-28.04
-30.81
-34.19
-38.18
-42.67
-47.29
-51.46
-54.43
-55.46
-54.08
-50.21
-44.29
-37.11
-29.63
-22.60
-16.47
-11.28
-6.77
-2.62
1.45
5.54
9.59
13.44
16.94
19.97
22.48
24.44
25.86
26.78
27.32
27.64
27.96
28.42
29.06
29.78
30.36
30.56
30.21
29.30
27.99
26.55
25.24
24.27
23.67
23.34
23.06
22.61
21.84
20.71
19.35
17.93
16.62
15.47
14.42
13.33
12.09
10.73
9.35
8.12
7.15
6.38
5.64
4.71
3.48
1.98
0.36
-1.16
-2.45
-3.54
-4.54
-5.62
-6.87
-8.32
-9.91
-11.64
-13.48
-15.49
-17.71
-20.06
-22.42
-24.62
-26.59
-28.45
-30.49
-33.06
-36.36
-40.26
-44.23
-47.48
-49.16
-48.66
-45.82
-40.91
-34.55
-27.48
-20.34
-13.60
-7.47
-2.03
2.77
7.08
11.05
14.88
18.69
22.49
26.14
29.39
31.99
33.77
34.75
35.11
35.12
35.08
35.18
35.52
36.08
36.74
37.37
37.83
38.06
38.03
37.80
37.44
36.98
36.41
35.63
34.61
33.36
31.98
30.60
29.30
28.06
26.81
25.47
24.07
22.70
21.50
20.54
19.76
18.97
17.93
16.45
14.46
12.02
9.31
6.53
3.86
1.41
-0.85
-3.07
-5.44
-8.11
-11.13
-14.37
-17.67
-20.91
-24.05
-27.18
-30.42
-33.89
-37.70
-41.87
-46.36
-50.96
-55.27
-58.70
-60.52
-60.12
-57.28
-52.30
-45.92
-39.08
-32.61
-26.93
-22.06
-17.77
-13.85
-10.24
-7.07
-4.51
-2.61
-1.23
-0.08
1.09
2.37
3.71
4.96
6.03
6.99
8.01
9.23
10.68
12.18
13.42
14.07
13.97
13.20
11.99
10.66
9.47
8.52
7.79
7.22
6.71
6.25
5.78
5.25
4.62
3.83
2.94
2.06
1.30
0.67
0.02
-0.83
-2.07
-3.71
-5.61
-7.54
-9.31
-10.86
-12.30
-13.79
-15.48
-17.43
-19.62
-21.96
-24.39
-26.97
-29.81
-33.11
-36.99
-41.46
-46.36
-51.28
-55.63
-58.73
-59.96
-58.91
-55.51
-50.09
-43.25
-35.79
-28.48
-21.83
-16.12
-11.26
-6.98
-2.96
1.06
5.17
9.33
13.37
17.13
20.46
23.27
25.51
27.11
28.09
28.56
28.69
28.74
28.93
29.37
30.04
30.80
31.49
31.95
32.13
32.02
31.68
31.17
30.53
29.80
28.99
28.09
27.07
25.94
24.70
23.40
22.14
21.00
20.03
19.21
18.49
17.84
17.22
16.58
15.88
15.02
13.96
12.70
11.36
10.13
9.14
8.43
7.86
7.18
6.15
4.70
2.96
1.21
-0.23
-1.17
-1.64
-1.87
-2.22
-2.98
-4.34
-6.25
-8.52
-10.89
-13.14
-15.15
-16.88
-18.40
-19.90
-21.64
-23.94
-27.10
-31.20
-35.96
-40.68
-44.40
-46.20
-45.47
-42.14
-36.67
-29.88
-22.63
-15.64
-9.37
-4.03
0.37
3.93
6.84
9.37
11.83
14.45
17.36
20.43
23.40
25.91
27.65
28.51
28.60
28.18
27.67
27.43
27.70
28.56
29.84
31.28
32.56
33.39
33.65
33.36
32.61
31.54
30.25
28.83
27.32
25.80
24.29
22.80
21.28
19.67
17.90
15.98
13.93
11.76
9.45
6.98
4.34
1.57
-1.26
-4.08
-6.90
-9.83
-12.99
-16.50
-20.35
-24.40
-28.42
-32.19
-35.56
-38.56
-41.36
-44.26
-47.58
-51.49
-55.87
-60.27
-63.95
-66.05
-65.85
-62.98
-57.57
-50.22
-41.77
-33.12
-25.01
-17.88
-11.89
-6.93
-2.86
0.53
3.40
5.86
7.98
9.82
11.42
12.78
13.90
14.84
15.74
16.72
17.91
19.28
20.71
21.99
22.96
23.52
23.70
23.61
23.32
22.89
22.29
21.50
20.56
19.51
18.42
17.31
16.15
14.88
13.44
11.86
10.20
8.58
7.05
5.60
4.13
2.54
0.75
-1.20
-3.22
-5.21
-7.11
-8.99
-10.99
-13.31
-16.04
-19.15
-22.48
-25.82
-29.00
-31.98
-34.89
-37.97
-41.50
-45.69
-50.58
-55.91
-61.13
-65.47
-68.04
-68.13
-65.38
-59.92
-52.34
-43.53
-34.45
-25.89
-18.30
-11.76
-6.09
-0.93
4.06
9.11
14.30
19.53
24.52
28.95
32.54
35.09
36.56
37.11
37.08
36.85
36.80
37.14
37.92
38.96
40.02
40.83
41.19
41.02
40.37
39.36
38.20
37.11
36.27
35.73
35.44
35.23
34.87
34.25
33.33
32.22
31.06
29.98
29.02
28.17
27.34
26.48
25.56
24.61
23.67
22.77
21.89
20.92
19.72
18.21
16.37
14.33
12.31
10.51
9.02
7.77
6.53
5.07
3.23
1.01
-1.48
-4.12
-6.82
-9.58
-12.50
-15.70
-19.35
-23.63
-28.64
-34.25
-40.01
-45.19
-48.86
-50.20
-48.77
-44.67
-38.54
-31.31
-23.87
-16.91
-10.77
-5.50
-0.99
2.95
6.44
9.56
12.36
14.78
16.79
18.27
19.20
19.59
19.60
19.43
19.27
19.23
19.35
19.58
19.83
19.99
20.00
19.80
19.32
18.55
17.50
16.22
14.77
13.20
11.56
9.90
8.19
6.40
4.45
2.31
0.01
-2.34
-4.56
-6.46
-7.95
-9.10
-10.14
-11.35
-12.94
-15.03
-17.55
-20.31
-23.12
-25.84
-28.46
-31.09
-33.96
-37.27
-41.15
-45.58
-50.27
-54.76
-58.44
-60.74
-61.13
-59.35
-55.38
-49.52
-42.27
-34.31
-26.25
-18.62
-11.70
-5.52
0.03
5.16
10.01
14.60
18.81
22.49
25.49
27.78
29.44
30.58
31.34
31.78
31.97
32.02
32.05
32.23
32.61
33.11
33.50
33.50
32.94
31.83
30.35
28.75
27.22
25.83
24.53
23.23
21.90
20.56
19.25
17.99
16.72
15.34
13.80
12.11
10.38
8.76
7.40
6.36
5.58
4.91
4.13
3.09
1.68
-0.06
-2.06
-4.13
-6.12
-7.95
-9.65
-11.38
-13.29
-15.50
-17.97
-20.58
-23.18
-25.68
-28.12
-30.64
-33.36
-36.39
-39.77
-43.52
-47.62
-51.97
-56.24
-59.88
-62.13
-62.26
-59.82
-54.83
-47.81
-39.58
-31.07
-22.96
-15.65
-9.12
-3.16
2.49
8.05
13.62
19.12
24.34
28.99
32.76
35.51
37.23
38.12
38.44
38.49
38.50
38.58
38.77
39.07
39.44
39.85
40.18
40.30
40.05
39.39
38.39
37.27
36.26
35.48
34.89
34.35
33.70
32.88
31.98
31.18
30.65
30.45
30.52
30.72
30.94
31.12
31.27
31.40
31.48
31.41
31.06
30.34
29.24
27.89
26.51
25.26
24.25
23.45
22.70
21.80
20.58
18.93
16.86
14.46
11.83
9.14
6.55
4.11
1.84
-0.38
-2.71
-5.27
-8.10
-11.13
-14.23
-17.29
-20.32
-23.45
-26.87
-30.76
-35.19
-39.99
-44.73
-48.75
-51.33
-51.82
-49.96
-45.98
-40.54
-34.52
-28.73
-23.69
-19.55
-16.19
-13.33
-10.74
-8.29
-5.99
-3.89
-2.06
-0.51
0.75
1.74
2.47
2.93
3.12
3.10
2.91
2.62
2.24
1.79
1.21
0.53
-0.26
-1.09
-1.94
-2.82
-3.77
-4.83
-5.97
-7.10
-8.04
-8.62
-8.76
-8.54
-8.16
-7.87
-7.88
-8.30
-9.06
-9.98
-10.88
-11.61
-12.17
-12.65
-13.18
-13.93
-15.00
-16.43
-18.20
-20.20
-22.30
-24.33
-26.21
-27.95
-29.67
-31.60
-33.97
-36.95
-40.57
-44.56
-48.43
-51.51
-53.08
-52.59
-49.81
-44.92
-38.50
-31.36
-24.31
-17.95
-12.53
-7.96
-3.95
-0.11
3.80
7.82
11.83
15.56
18.78
21.36
23.31
24.72
25.72
26.41
26.86
27.10
27.17
27.14
27.09
27.12
27.26
27.47
27.58
27.43
26.87
25.90
24.66
23.41
22.34
21.57
20.99
20.42
19.64
18.58
17.29
15.96
14.76
13.78
13.00
12.32
11.60
10.75
9.77
8.72
7.69
6.74
5.91
5.16
4.42
3.60
2.62
1.45
0.10
-1.34
-2.80
-4.19
-5.51
-6.81
-8.18
-9.72
-11.43
-13.28
-15.14
-16.89
-18.51
-20.05
-21.65
-23.52
-25.86
-28.77
-32.26
-36.11
-39.86
-42.85
-44.34
-43.73
-40.79
-35.72
-29.09
-21.72
-14.37
-7.63
-1.83
2.95
6.86
10.14
13.09
16.00
19.00
22.08
25.04
27.59
29.52
30.72
31.31
31.49
31.54
31.68
32.04
32.67
33.52
34.49
35.43
36.13
36.41
36.18
35.47
34.47
33.42
32.50
31.75
31.02
30.03
28.61
26.70
24.45
22.17
20.10
18.35
16.85
15.43
13.87
12.09
10.06
7.83
5.49
3.06
0.56
-2.05
-4.78
-7.65
-10.66
-13.77
-16.93
-20.10
-23.23
-26.32
-29.45
-32.73
-36.32
-40.36
-44.85
-49.58
-54.03
-57.54
-59.40
-59.08
-56.44
-51.72
-45.50
-38.51
-31.46
-24.86
-19.06
-14.18
-10.20
-7.00
-4.38
-2.21
-0.39
1.11
2.31
3.24
3.99
4.70
5.50
6.45
7.59
8.84
10.12
11.34
12.45
13.40
14.13
14.60
14.75
14.52
13.87
12.84
11.48
9.90
8.27
6.79
5.59
4.75
4.19
3.74
3.21
2.47
1.51
0.43
-0.68
-1.78
-2.89
-4.10
-5.45
-6.95
-8.57
-10.32
-12.22
-14.36
-16.75
-19.33
-21.98
-24.59
-27.20
-30.00
-33.30
-37.28
-41.87
-46.59
-50.61
-53.07
-53.30
-51.08
-46.72
-40.90
-34.43
-28.04
-22.17
-16.98
-12.43
-8.35
-4.54
-0.80
3.02
6.94
10.88
14.65
17.99
20.71
22.69
23.98
24.77
25.30
25.79
26.33
26.93
27.49
27.92
28.20
28.34
28.37
28.29
28.05
27.57
26.81
25.82
24.69
23.56
22.56
21.72
21.04
20.44
19.83
19.13
18.23
17.14
15.89
14.58
13.35
12.31
11.49
10.81
10.13
9.28
8.17
6.80
5.25
3.63
2.06
0.56
-0.88
-2.36
-3.97
-5.79
-7.85
-10.09
-12.46
-14.85
-17.19
-19.50
-21.86
-24.44
-27.44
-31.00
-35.12
-39.49
-43.56
-46.56
-47.76
-46.60
-42.95
-37.12
-29.83
-22.00
-14.47
-7.82
-2.24
2.43
6.53
10.41
14.27
18.14
21.84
25.14
27.85
29.90
31.32
32.27
32.88
33.25
33.46
33.57
33.69
33.96
34.50
35.38
36.52
37.70
38.63
39.04
38.79
37.95
36.70
35.32
33.95
32.64
31.34
29.98
28.52
27.03
25.59
24.21
22.83
21.34
19.60
17.58
15.35
13.03
10.76
8.57
6.46
4.35
2.17
-0.12
-2.53
-5.03
-7.59
-10.21
-12.93
-15.87
-19.11
-22.73
-26.80
-31.35
-36.36
-41.64
-46.77
-51.13
-53.95
-54.61
-52.81
-48.75
-43.06
-36.59
-30.15
-24.27
-19.18
-14.88
-11.29
-8.33
-5.95
-4.12
-2.75
-1.77
-1.03
-0.38
0.34
1.26
2.46
3.88
5.43
6.93
8.27
9.38
10.27
10.91
11.29
11.34
11.03
10.39
9.55
8.64
7.76
6.92
6.09
5.21
4.28
3.32
2.39
1.50
0.64
-0.20
-1.04
-1.87
-2.70
-3.55
-4.45
-5.42
-6.49
-7.68
-9.00
-10.48
-12.14
-14.03
-16.19
-18.63
-21.28
-24.01
-26.71
-29.34
-32.05
-35.15
-38.95
-43.53
-48.51
-53.05
-56.07
-56.66
-54.37
-49.43
-42.63
-34.97
-27.40
-20.57
-14.72
-9.82
-5.60
-1.71
2.19
6.32
10.75
15.33
19.73
23.59
26.61
28.68
29.90
30.46
30.64
30.72
30.90
31.29
31.90
32.61
33.23
33.58
33.54
33.11
32.40
31.50
30.51
29.46
28.38
27.34
26.42
25.67
25.07
24.51
23.85
23.04
22.12
21.21
20.46
19.94
19.59
19.33
19.02
18.58
17.94
17.10
16.04
14.81
13.46
12.06
10.69
9.41
8.24
7.18
6.20
5.26
4.34
3.38
2.38
1.26
0.05
-1.24
-2.57
-3.93
-5.40
-7.19
-9.60
-12.86
-17.03
-21.85
-26.68
-30.66
-32.96
-32.98
-30.58
-26.10
-20.23
-13.82
-7.64
-2.22
2.19
5.62
8.31
10.55
12.65
14.87
17.32
19.98
22.68
25.17
27.17
28.49
29.13
29.19
28.95
28.66
28.51
28.59
28.79
28.99
29.04
28.87
28.50
28.01
27.46
26.83
26.08
25.10
23.78
22.06
19.96
17.62
15.19
12.83
10.63
8.60
6.67
4.73
2.65
0.32
-2.39
-5.58
-9.25
-13.36
-17.75
-22.20
-26.54
-30.69
-34.74
-38.92
-43.48
-48.56
-54.10
-59.70
-64.71
-68.38
-70.01
-69.23
-66.03
-60.81
-54.21
-46.96
-39.69
-32.84
-26.67
-21.28
-16.67
-12.85
-9.75
-7.29
-5.35
-3.78
-2.43
-1.15
0.18
1.62
3.23
5.00
6.92
8.92
10.92
12.81
14.45
15.71
16.47
16.71
16.41
15.72
14.71
13.49
12.03
10.29
8.21
5.81
3.21
0.61
-1.78
-3.85
-5.57
-7.04
-8.45
-9.95
-11.69
-13.74
-16.06
-18.55
-21.06
-23.47
-25.72
-27.87
-30.12
-32.73
-35.96
-39.90
-44.36
-48.78
-52.37
-54.27
-53.86
-50.91
-45.72
-38.91
-31.27
-23.56
-16.26
-9.67
-3.86
1.21
5.68
9.76
13.64
17.44
21.12
24.49
27.33
29.46
30.85
31.60
31.88
31.89
31.71
31.43
31.10
30.76
30.46
30.21
29.91
29.36
28.37
26.79
24.64
22.13
19.51
17.03
14.81
12.75
10.68
8.37
5.71
2.70
-0.52
-3.78
-6.94
-9.91
-12.69
-15.32
-17.95
-20.81
-24.18
-28.29
-33.19
-38.65
-44.06
-48.59
-51.38
-51.79
-49.61
-45.11
-38.91
-31.78
-24.43
-17.33
-10.73
-4.65
1.01
6.40
11.62
16.72
21.58
26.06
29.98
33.23
35.76
37.61
38.85
39.55
39.79
39.68
39.33
38.90
38.43
37.89
37.17
36.08
34.52
32.53
30.22
27.81
25.49
23.38
21.50
19.82
18.24
16.64
14.89
12.90
10.64
8.18
5.63
3.13
0.76
-1.47
-3.63
-5.77
-7.93
-10.05
-12.11
-14.08
-16.09
-18.32
-21.03
-24.34
-28.22
-32.36
-36.19
-38.96
-39.96
-38.67
-35.03
-29.44
-22.73
-15.80
-9.43
-4.04
0.37
4.10
7.54
10.99
14.52
18.03
21.33
24.21
26.52
28.27
29.54
30.46
31.14
31.64
31.98
32.17
32.32
32.62
33.26
34.29
35.51
36.48
36.72
35.96
34.31
32.23
30.33
29.09
28.60
28.62
28.69
28.46
27.80
26.81
25.69
24.62
23.64
22.74
21.90
21.18
20.65
20.36
20.27
20.27
20.20
19.89
19.23
18.18
16.72
14.88
12.69
10.12
7.13
3.66
-0.25
-4.43
-8.53
-12.09
-14.60
-15.71
-15.29
-13.48
-10.63
-7.19
-3.65
-0.39
2.29
4.29
5.57
6.26
6.48
6.42
6.15
5.72
5.06
4.14
2.97
1.60
0.21
-1.03
-2.01
-2.69
-3.14
-3.51
-3.90
-4.42
-5.13
-6.09
-7.36
-9.01
-11.07
-13.48
-16.06
-18.58
-20.85
-22.75
-24.31
-25.64
-26.86
-28.06
-29.24
-30.38
-31.44
-32.39
-33.23
-33.92
-34.50
-35.00
-35.55
-36.35
-37.65
-39.58
-42.07
-44.80
-47.20
-48.68
-48.69
-46.99
-43.64
-39.00
-33.63
-28.06
-22.74
-17.94
-13.75
-10.11
-6.92
-4.06
-1.44
1.00
3.28
5.44
7.43
9.23
10.75
11.94
12.77
13.27
13.59
13.87
14.25
14.75
15.31
15.76
15.95
15.76
15.20
14.33
13.27
12.12
10.94
9.82
8.77
7.81
6.92
6.09
5.25
4.35
3.37
2.31
1.23
0.18
-0.80
-1.73
-2.72
-3.89
-5.37
-7.20
-9.35
-11.70
-14.05
-16.19
-17.95
-19.34
-20.49
-21.69
-23.27
-25.47
-28.25
-31.30
-34.03
-35.73
-35.86
-34.18
-30.90
-26.56
-21.82
-17.24
-13.12
-9.50
-6.27
-3.25
-0.35
2.44
5.11
7.61
9.91
11.96
13.66
14.95
15.77
16.16
16.29
16.34
16.49
16.85
17.40
18.04
18.64
19.10
19.34
19.36
19.18
18.80
18.28
17.64
16.94
16.23
15.53
14.84
14.18
13.58
13.10
12.82
12.77
12.89
13.06
13.18
13.21
13.22
13.34
13.64
14.09
14.54
14.81
14.78
14.46
13.96
13.42
12.98
12.69
12.51
12.33
12.04
11.55
10.84
10.00
9.20
8.56
8.12
7.76
7.27
6.40
4.98
2.90
0.15
-3.12
-6.67
-10.01
-12.50
-13.53
-12.70
-10.07
-6.12
-1.68
2.43
5.65
7.75
8.86
9.27
9.31
9.22
9.12
9.08
9.12
9.23
9.41
9.64
9.85
9.99
10.02
9.95
9.92
10.12
10.74
11.87
13.41
15.08
16.47
17.27
17.35
16.79
15.86
14.83
13.91
13.15
12.48
11.83
11.12
10.32
9.42
8.39
7.16
5.67
3.94
2.07
0.21
-1.46
-2.92
-4.26
-5.67
-7.37
-9.46
-11.87
-14.44
-16.97
-19.32
-21.48
-23.58
-25.78
-28.31
-31.28
-34.72
-38.51
-42.40
-46.05
-49.03
-50.95
-51.48
-50.43
-47.84
-43.88
-38.98
-33.68
-28.56
-24.13
-20.63
-18.03
-16.08
-14.46
-12.95
-11.49
-10.17
-9.14
-8.45
-8.00
-7.58
-6.94
-5.93
-4.54
-2.88
-1.14
0.48
1.87
2.98
3.79
4.31
4.53
4.46
4.12
3.62
3.07
2.60
2.27
2.04
1.80
1.46
0.98
0.40
-0.18
-0.66
-1.01
-1.27
-1.52
-1.85
-2.29
-2.85
-3.52
-4.29
-5.14
-6.11
-7.19
-8.36
-9.62
-10.95
-12.38
-13.95
-15.68
-17.58
-19.65
-21.96
-24.63
-27.80
-31.50
-35.50
-39.30
-42.19
-43.53
-42.94
-40.50
-36.65
-32.03
-27.29
-22.88
-18.99
-15.63
-12.68
-9.95
-7.25
-4.43
-1.41
1.78
4.99
7.98
10.52
12.44
13.77
14.64
15.31
16.03
16.96
18.17
19.58
21.01
22.28
23.25
23.86
24.17
24.27
24.21
24.01
23.60
22.97
22.15
21.28
20.49
19.90
19.53
19.28
19.05
18.75
18.37
17.95
17.52
17.10
16.66
16.21
15.80
15.57
15.62
15.98
16.50
16.96
17.14
16.93
16.39
15.66
14.86
14.06
13.20
12.22
11.08
9.79
8.44
7.09
5.76
4.41
2.92
1.16
-1.05
-3.85
-7.34
-11.46
-15.92
-20.28
-23.93
-26.32
-27.03
-25.88
-23.03
-18.88
-14.01
-9.01
-4.42
-0.58
2.39
4.58
6.25
7.68
9.11
10.64
12.23
13.71
14.89
15.62
15.87
15.71
15.31
14.89
14.64
14.69
15.06
15.73
16.59
17.54
18.46
19.30
19.97
20.37
20.40
19.94
19.00
17.65
16.15
14.74
13.54
12.56
11.64
10.54
9.12
7.34
5.29
3.11
0.88
-1.39
-3.79
-6.40
-9.26
-12.34
-15.54
-18.76
-21.88
-24.85
-27.69
-30.48
-33.40
-36.68
-40.53
-45.04
-50.03
-55.07
-59.46
-62.42
-63.33
-61.91
-58.27
-52.89
-46.42
-39.53
-32.74
-26.38
-20.62
-15.56
-11.18
-7.45
-4.28
-1.54
0.85
2.99
4.91
6.64
8.23
9.69
11.07
12.40
13.71
15.05
16.40
17.71
18.88
19.82
20.42
20.65
20.48
19.89
18.86
17.46
15.84
14.22
12.85
11.87
11.19
10.55
9.60
8.11
6.13
3.88
1.75
-0.05
-1.51
-2.84
-4.38
-6.34
-8.79
-11.55
-14.43
-17.26
-20.01
-22.78
-25.68
-28.83
-32.29
-36.15
-40.49
-45.38
-50.70
-56.04
-60.70
-63.80
-64.51
-62.42
-57.61
-50.70
-42.58
-34.18
-26.15
-18.79
-12.10
-5.94
-0.15
5.35
10.58
15.49
20.08
24.28
27.98
31.03
33.28
34.66
35.28
35.40
35.34
35.37
35.63
36.12
36.78
37.49
38.13
38.58
38.67
38.26
37.31
35.89
34.21
32.52
31.00
29.68
28.48
27.24
25.89
24.46
23.02
21.65
20.34
19.06
17.73
16.36
14.97
13.58
12.16
10.64
8.93
7.00
4.89
2.65
0.34
-2.08
-4.65
-7.38
-10.23
-13.08
-15.78
-18.28
-20.57
-22.80
-25.16
-27.89
-31.21
-35.28
-40.11
-45.42
-50.65
-54.87
-57.10
-56.57
-52.98
-46.63
-38.34
-29.15
-20.01
-11.60
-4.18
2.34
8.22
13.79
19.32
24.88
30.44
35.75
40.55
44.65
47.92
50.42
52.30
53.83
55.34
57.12
59.40
62.23
65.47
68.74
71.44
72.82
72.22
69.31
64.27
57.91
51.35
45.73
41.66
39.18
37.74
36.64
35.32
33.63
31.70
29.72
27.82
25.97
24.10
22.19
20.31
18.50
16.68
14.74
12.45
9.76
6.77
3.78
1.16
-0.81
-2.01
-2.58
-2.82
-3.13
-3.79
-5.02
-6.80
-8.97
-11.31
-13.59
-15.67
-17.58
-19.51
-21.71
-24.51
-28.10
-32.47
-37.29
-41.99
-45.85
-48.16
-48.40
-46.36
-42.22
-36.47
-29.78
-22.89
-16.43
-10.85
-6.39
-3.04
-0.67
0.92
1.89
2.36
2.36
1.96
1.27
0.48
-0.18
-0.48
-0.32
0.32
1.31
2.47
3.64
4.65
5.41
5.85
5.94
5.64
4.96
3.92
2.65
1.30
0.06
-0.94
-1.61
-2.01
-2.27
-2.60
-3.17
-4.09
-5.30
-6.61
-7.77
-8.59
-9.10
-9.48
-10.09
-11.25
-13.06
-15.38
-17.88
-20.24
-22.33
-24.23
-26.22
-28.61
-31.57
-35.14
-39.15
-43.30
-47.15
-50.12
-51.60
-51.07
-48.30
-43.48
-37.16
-30.12
-23.09
-16.62
-10.91
-5.85
-1.17
3.44
8.12
12.81
17.24
21.07
24.04
26.12
27.46
28.38
29.15
29.88
30.54
31.05
31.33
31.43
31.43
31.38
31.23
30.85
30.14
29.02
27.59
26.03
24.57
23.44
22.70
22.28
21.97
21.55
20.80
19.67
18.25
16.72
15.26
14.01
12.99
12.17
11.43
10.71
9.94
9.11
8.21
7.23
6.15
4.95
3.64
2.30
1.07
0.08
-0.63
-1.14
-1.63
-2.31
-3.35
-4.73
-6.30
-7.86
-9.25
-10.47
-11.63
-12.95
-14.54
-16.44
-18.52
-20.59
-22.45
-24.04
-25.39
-26.69
-28.16
-30.04
-32.50
-35.51
-38.86
-42.08
-44.56
-45.66
-44.94
-42.29
-37.94
-32.43
-26.41
-20.45
-14.93
-9.97
-5.52
-1.41
2.55
6.49
10.48
14.50
18.44
22.14
25.38
27.96
29.80
30.93
31.51
31.81
32.14
32.70
33.59
34.76
36.08
37.36
38.38
39.01
39.19
38.91
38.26
37.36
36.33
35.27
34.27
33.34
32.45
31.57
30.65
29.68
28.67
27.66
26.72
25.89
25.14
24.40
23.58
22.59
21.44
20.21
19.00
17.90
16.91
15.95
14.87
13.63
12.30
10.98
9.75
8.52
7.07
5.11
2.45
-0.86
-4.55
-8.23
-11.58
-14.53
-17.19
-19.85
-22.79
-26.19
-30.10
-34.43
-38.92
-43.14
-46.56
-48.58
-48.77
-47.00
-43.53
-38.97
-34.06
-29.52
-25.76
-22.93
-20.90
-19.40
-18.15
-16.89
-15.49
-13.93
-12.33
-10.88
-9.71
-8.88
-8.32
-7.84
-7.28
-6.56
-5.72
-4.84
-4.03
-3.34
-2.84
-2.56
-2.57
-2.94
-3.67
-4.68
-5.78
-6.73
-7.36
-7.65
-7.65
-7.52
-7.42
-7.42
-7.52
-7.61
-7.64
-7.58
-7.50
-7.49
-7.63
-7.96
-8.44
-9.05
-9.75
-10.55
-11.43
-12.39
-13.38
-14.40
-15.48
-16.69
-18.11
-19.75
-21.58
-23.55
-25.70
-28.11
-30.87
-33.93
-37.03
-39.69
-41.34
-41.54
-40.08
-37.06
-32.84
-27.96
-22.96
-18.31
-14.34
-11.14
-8.53
-6.18
-3.72
-0.88
2.32
5.68
8.81
11.40
13.35
14.73
15.75
16.57
17.30
17.94
18.46
18.89
19.26
19.65
20.04
20.38
20.58
20.59
20.40
20.02
19.45
18.71
17.80
16.77
15.75
14.94
14.46
14.34
14.42
14.44
14.13
13.42
12.41
11.34
10.50
9.98
9.68
9.39
8.95
8.32
7.65
7.08
6.62
6.11
5.28
3.95
2.19
0.26
-1.47
-2.77
-3.61
-4.18
-4.81
-5.69
-6.88
-8.32
-9.86
-11.38
-12.83
-14.23
-15.61
-16.97
-18.33
-19.76
-21.38
-23.39
-25.95
-29.07
-32.46
-35.53
-37.50
-37.69
-35.76
-31.84
-26.53
-20.61
-14.80
-9.53
-4.93
-0.88
2.78
6.21
9.45
12.52
15.42
18.17
20.79
23.25
25.49
27.42
28.95
30.10
30.96
31.69
32.45
33.34
34.37
35.42
36.34
36.99
37.32
37.33
37.06
36.57
35.91
35.14
34.32
33.51
32.75
32.01
31.21
30.26
29.12
27.86
26.59
25.43
24.42
23.50
22.53
21.41
20.08
18.58
16.93
15.15
13.18
10.96
8.48
5.81
3.13
0.57
-1.78
-4.05
-6.41
-9.07
-12.13
-15.50
-18.96
-22.22
-25.11
-27.70
-30.30
-33.32
-37.07
-41.61
-46.62
-51.51
-55.54
-58.06
-58.63
-57.13
-53.69
-48.70
-42.68
-36.19
-29.71
-23.63
-18.14
-13.31
-9.07
-5.33
-2.02
0.90
3.43
5.61
7.49
9.13
10.63
12.02
13.29
14.44
15.41
16.14
16.59
16.72
16.54
16.02
15.17
13.99
12.52
10.82
8.93
6.94
4.92
2.93
1.01
-0.83
-2.60
-4.37
-6.21
-8.13
-10.13
-12.07
-13.81
-15.25
-16.39
-17.35
-18.34
-19.61
-21.27
-23.31
-25.55
-27.80
-29.89
-31.78
-33.64
-35.74
-38.43
-41.98
-46.44
-51.50
-56.53
-60.63
-62.92
-62.71
-59.76
-54.38
-47.28
-39.37
-31.48
-24.16
-17.63
-11.83
-6.61
-1.75
2.89
7.41
11.80
15.96
19.76
22.99
25.49
27.17
28.11
28.46
28.49
28.46
28.56
28.91
29.51
30.28
31.06
31.69
32.05
32.12
31.91
31.46
30.81
29.97
28.96
27.83
26.64
25.43
24.22
23.00
21.73
20.39
19.02
17.69
16.43
15.27
14.12
12.94
11.68
10.37
9.05
7.79
6.58
5.38
4.07
2.53
0.74
-1.27
-3.34
-5.34
-7.16
-8.79
-10.32
-11.86
-13.54
-15.42
-17.56
-19.89
-22.31
-24.67
-26.87
-28.86
-30.81
-33.02
-35.91
-39.77
-44.64
-50.13
-55.52
-59.89
-62.35
-62.30
-59.45
-53.96
-46.27
-37.12
-27.35
-17.82
-9.18
-1.75
4.52
9.93
14.90
19.75
24.63
29.49
34.17
38.54
42.47
45.95
48.95
51.41
53.31
54.67
55.59
56.24
56.83
57.48
58.21
58.91
59.39
59.44
58.95
57.89
56.41
54.70
52.99
51.40
49.96
48.54
47.04
45.37
43.60
41.84
40.22
38.80
37.52
36.25
34.88
33.33
31.63
29.83
27.92
25.90
23.67
21.21
18.46
15.39
11.93
8.05
3.72
-0.96
-5.76
-10.45
-14.82
-18.86
-22.72
-26.63
-30.83
-35.44
-40.41
-45.56
-50.45
-54.53
-57.10
-57.50
-55.35
-50.74
-44.25
-36.89
-29.71
-23.52
-18.65
-15.03
-12.27
-9.95
-7.81
-5.72
-3.74
-1.97
-0.51
0.61
1.45
2.11
2.74
3.51
4.53
5.90
7.63
9.63
11.72
13.58
14.90
15.37
14.87
13.44
11.31
8.76
6.06
3.36
0.68
-2.02
-4.75
-7.50
-10.15
-12.57
-14.65
-16.42
-18.02
-19.70
-21.69
-24.15
-27.08
-30.31
-33.62
-36.79
-39.74
-42.59
-45.64
-49.26
-53.76
-59.18
-65.18
-71.01
-75.55
-77.68
-76.55
-71.87
-64.01
-53.94
-42.89
-32.07
-22.34
-14.08
-7.26
-1.49
3.68
8.58
13.31
17.79
21.76
25.01
27.46
29.13
30.21
30.88
31.30
31.59
31.83
32.12
32.55
33.16
33.89
34.61
35.13
35.33
35.14
34.61
33.84
32.92
31.93
30.87
29.74
28.51
27.17
25.77
24.36
22.99
21.62
20.16
18.46
16.39
13.87
10.96
7.74
4.38
0.95
-2.51
-6.05
-9.67
-13.32
-16.93
-20.32
-23.37
-26.03
-28.41
-30.76
-33.44
-36.79
-41.09
-46.42
-52.55
-58.92
-64.64
-68.60
-69.73
-67.35
-61.39
-52.56
-42.09
-31.39
-21.63
-13.43
-6.82
-1.35
3.51
8.27
13.20
18.40
23.82
29.30
34.53
39.11
42.65
44.91
45.92
46.00
45.62
45.26
45.20
45.46
45.84
46.00
45.63
44.55
42.70
40.26
37.53
34.86
32.65
31.15
30.47
30.50
30.97
31.54
31.91
31.88
31.44
30.72
29.90
29.20
28.74
28.53
28.48
28.49
28.44
28.27
27.91
27.30
26.35
24.98
23.24
21.30
19.47
18.06
17.26
17.00
16.95
16.68
15.81
14.21
12.04
9.65
7.46
5.70
4.43
3.52
2.70
1.70
0.32
-1.53
-3.84
-6.43
-9.11
-11.71
-14.19
-16.67
-19.42
-22.74
-26.89
-31.91
-37.58
-43.34
-48.33
-51.57
-52.20
-49.75
-44.30
-36.56
-27.66
-18.85
-11.18
-5.27
-1.21
1.35
3.03
4.48
6.18
8.28
10.63
12.87
14.62
15.71
16.19
16.32
16.40
16.59
16.92
17.31
17.61
17.73
17.60
17.17
16.32
14.94
12.96
10.48
7.76
5.17
3.00
1.38
0.18
-0.92
-2.19
-3.75
-5.49
-7.16
-8.52
-9.49
-10.19
-10.86
-11.75
-13.01
-14.64
-16.55
-18.64
-20.84
-23.14
-25.62
-28.37
-31.54
-35.22
-39.42
-43.91
-48.20
-51.59
-53.27
-52.67
-49.56
-44.20
-37.23
-29.45
-21.65
-14.38
-7.94
-2.41
2.25
6.19
9.63
12.76
15.80
18.85
21.90
24.76
27.21
29.02
30.07
30.39
30.13
29.52
28.81
28.20
27.82
27.63
27.47
27.11
26.32
24.97
23.08
20.84
18.51
16.41
14.75
13.60
12.90
12.47
12.11
11.64
10.97
10.04
8.82
7.30
5.47
3.36
1.08
-1.20
-3.33
-5.26
-7.12
-9.14
-11.51
-14.26
-17.25
-20.18
-22.83
-25.09
-27.12
-29.18
-31.59
-34.58
-38.25
-42.49
-46.97
-51.16
-54.38
-55.88
-55.10
-51.82
-46.32
-39.29
-31.66
-24.28
-17.77
-12.33
-7.85
-3.99
-0.36
3.37
7.29
11.31
15.15
18.52
21.17
23.05
24.26
24.97
25.37
25.61
25.77
25.99
26.35
26.93
27.71
28.51
29.08
29.18
28.66
27.56
26.00
24.21
22.35
20.60
19.02
17.70
16.63
15.79
15.11
14.53
14.02
13.59
13.24
12.98
12.78
12.58
12.29
11.82
11.11
10.17
9.11
8.06
7.22
6.74
6.62
6.81
7.15
7.51
7.80
8.04
8.27
8.48
8.62
8.62
8.38
7.87
7.10
6.11
4.96
3.70
2.36
0.93
-0.59
-2.23
-4.01
-5.98
-8.24
-10.93
-14.13
-17.85
-21.88
-25.74
-28.77
-30.28
-29.77
-27.17
-22.87
-17.61
-12.22
-7.43
-3.63
-0.91
0.95
2.23
3.24
4.17
5.11
6.02
6.75
7.16
7.10
6.53
5.55
4.33
3.15
2.20
1.60
1.40
1.50
1.77
2.05
2.13
1.84
1.05
-0.28
-2.06
-4.06
-6.00
-7.55
-8.58
-9.08
-9.22
-9.26
-9.46
-9.98
-10.82
-11.88
-12.96
-13.88
-14.53
-14.95
-15.29
-15.71
-16.40
-17.41
-18.69
-20.13
-21.59
-23.01
-24.39
-25.80
-27.35
-29.18
-31.40
-34.13
-37.36
-40.95
-44.51
-47.43
-49.05
-48.76
-46.31
-41.83
-35.82
-29.01
-22.14
-15.79
-10.24
-5.54
-1.54
1.96
5.13
8.01
10.57
12.73
14.44
15.75
16.75
17.55
18.21
18.72
19.03
19.10
18.99
18.81
18.71
18.75
18.90
19.02
19.00
18.75
18.27
17.64
16.96
16.35
15.85
15.48
15.18
14.86
14.38
13.62
12.59
11.39
10.21
9.25
8.56
8.07
7.60
7.04
6.33
5.57
4.83
4.13
3.39
2.44
1.16
-0.51
-2.52
-4.77
-7.14
-9.59
-12.07
-14.59
-17.10
-19.56
-21.90
-24.03
-25.96
-27.75
-29.56
-31.64
-34.25
-37.52
-41.41
-45.58
-49.50
-52.45
-53.68
-52.60
-49.02
-43.20
-35.84
-27.88
-20.24
-13.54
-7.99
-3.45
0.41
3.92
7.28
10.54
13.66
16.55
19.15
21.44
23.36
24.84
25.81
26.20
26.06
25.58
25.05
24.78
24.95
25.54
26.35
27.13
27.69
28.02
28.22
28.48
28.87
29.38
29.95
30.49
30.96
31.34
31.63
31.79
31.75
31.49
31.04
30.53
30.15
30.05
30.33
30.88
31.56
32.18
32.58
32.68
32.44
31.88
30.97
29.70
28.08
26.14
24.02
21.84
19.74
17.74
15.80
13.82
11.65
9.24
6.59
3.80
1.03
-1.57
-3.99
-6.34
-8.91
-12.07
-16.12
-21.13
-26.86
-32.72
-37.93
-41.71
-43.45
-42.91
-40.21
-35.85
-30.52
-24.95
-19.73
-15.20
-11.48
-8.50
-6.09
-4.12
-2.51
-1.25
-0.39
0.04
-0.06
-0.64
-1.61
-2.74
-3.72
-4.36
-4.56
-4.46
-4.27
-4.20
-4.33
-4.63
-5.06
-5.63
-6.42
-7.52
-8.90
-10.37
-11.67
-12.55
-12.87
-12.68
-12.20
-11.69
-11.44
-11.59
-12.13
-12.92
-13.73
-14.34
-14.68
-14.82
-14.96
-15.34
-16.12
-17.32
-18.89
-20.68
-22.56
-24.43
-26.25
-28.06
-29.99
-32.22
-34.96
-38.33
-42.24
-46.32
-49.92
-52.27
-52.68
-50.77
-46.57
-40.53
-33.35
-25.74
-18.31
-11.47
-5.44
-0.28
4.03
7.65
10.79
13.66
16.40
19.02
21.40
23.38
24.81
25.63
25.91
25.79
25.51
25.29
25.38
25.88
26.73
27.75
28.63
29.15
29.17
28.71
27.86
26.78
25.59
24.38
23.23
22.14
21.15
20.19
19.25
18.33
17.50
16.81
16.30
15.92
15.52
14.95
14.06
12.82
11.28
9.53
7.66
5.76
3.85
1.97
0.16
-1.54
-3.12
-4.61
-6.10
-7.75
-9.72
-12.09
-14.85
-17.84
-20.83
-23.55
-25.83
-27.70
-29.38
-31.24
-33.73
-37.10
-41.35
-46.07
-50.44
-53.48
-54.21
-52.09
-47.11
-39.83
-31.24
-22.43
-14.26
-7.21
-1.37
3.49
7.69
11.59
15.46
19.46
23.56
27.63
31.39
34.60
37.07
38.80
39.96
40.79
41.53
42.34
43.29
44.34
45.42
46.41
47.21
47.69
47.77
47.41
46.64
45.55
44.21
42.70
41.07
39.35
37.56
35.75
33.92
32.12
30.41
28.91
27.71
26.90
26.41
26.05
25.56
24.72
23.41
21.71
19.80
17.91
16.23
14.77
13.42
11.96
10.19
7.97
5.35
2.49
-0.39
-3.11
-5.61
-7.98
-10.34
-12.83
-15.58
-18.75
-22.49
-26.97
-32.10
-37.53
-42.53
-46.16
-47.56
-46.30
-42.56
-37.06
-30.82
-24.83
-19.79
-15.94
-13.18
-11.21
-9.69
-8.44
-7.40
-6.65
-6.27
-6.33
-6.76
-7.36
-7.89
-8.09
-7.84
-7.11
-6.00
-4.66
-3.26
-1.92
-0.70
0.27
0.93
1.22
1.15
0.81
0.34
-0.11
-0.42
-0.61
-0.71
-0.84
-1.04
-1.35
-1.71
-2.09
-2.46
-2.90
-3.53
-4.50
-5.84
-7.47
-9.18
-10.74
-12.02
-13.10
-14.20
-15.54
-17.23
-19.20
-21.28
-23.31
-25.25
-27.17
-29.21
-31.44
-33.92
-36.69
-39.87
-43.56
-47.71
-51.99
-55.66
-57.82
-57.62
-54.65
-49.08
-41.63
-33.29
-25.01
-17.48
-11.00
-5.57
-0.96
3.15
7.11
11.13
15.26
19.34
23.06
26.10
28.29
29.63
30.33
30.64
30.79
30.92
31.12
31.45
31.94
32.54
33.13
33.47
33.33
32.59
31.35
29.87
28.45
27.30
26.47
25.82
25.17
24.39
23.46
22.46
21.48
20.53
19.56
18.48
17.27
16.02
14.81
13.75
12.79
11.83
10.73
9.43
7.95
6.45
5.09
3.98
3.17
2.57
2.04
1.42
0.59
-0.46
-1.73
-3.11
-4.54
-5.99
-7.47
-9.06
-10.81
-12.76
-14.84
-16.98
-19.04
-20.96
-22.74
-24.47
-26.32
-28.48
-31.11
-34.25
-37.80
-41.51
-44.89
-47.29
-48.01
-46.49
-42.50
-36.26
-28.41
-19.85
-11.45
-3.88
2.55
7.90
12.43
16.47
20.26
23.91
27.33
30.37
32.82
34.53
35.45
35.63
35.22
34.45
33.63
33.05
32.99
33.58
34.72
36.17
37.52
38.42
38.61
38.06
36.94
35.47
33.94
32.56
31.44
30.54
29.71
28.77
27.54
25.99
24.27
22.60
21.22
20.21
19.48
18.81
17.93
16.71
15.13
13.24
11.15
8.92
6.57
4.17
1.79
-0.45
-2.50
-4.44
-6.47
-8.82
-11.61
-14.87
-18.40
-21.99
-25.46
-28.82
-32.22
-35.94
-40.22
-45.07
-50.24
-55.11
-58.86
-60.69
-60.03
-56.79
-51.37
-44.55
-37.23
-30.18
-23.85
-18.43
-13.90
-10.20
-7.26
-5.00
-3.27
-1.88
-0.64
0.55
1.71
2.76
3.68
4.48
5.32
6.34
7.69
9.32
11.01
12.52
13.56
14.06
14.12
13.96
13.80
13.77
13.76
13.58
13.03
12.04
10.67
9.14
7.67
6.38
5.28
4.27
3.24
2.08
0.78
-0.62
-2.06
-3.47
-4.81
-6.06
-7.24
-8.36
-9.53
-10.86
-12.44
-14.34
-16.55
-18.99
-21.56
-24.18
-26.79
-29.43
-32.19
-35.19
-38.56
-42.37
-46.50
-50.63
-54.15
-56.30
-56.41
-54.05
-49.29
-42.65
-34.96
-27.12
-19.79
-13.37
-7.87
-3.10
1.27
5.52
9.85
14.29
18.70
22.78
26.19
28.65
30.07
30.57
30.45
30.05
29.65
29.43
29.46
29.79
30.37
31.10
31.76
32.09
31.86
31.03
29.77
28.38
27.20
26.39
25.95
25.65
25.21
24.43
23.22
21.70
20.08
18.61
17.49
16.76
16.31
15.96
15.50
14.82
13.97
13.08
12.30
11.70
11.28
10.97
10.70
10.43
10.16
9.91
9.70
9.45
9.11
8.57
7.76
6.71
5.45
4.05
2.57
1.03
-0.59
-2.36
-4.41
-6.92
-10.08
-14.04
-18.77
-23.92
-28.86
-32.75
-34.74
-34.26
-31.20
-25.96
-19.27
-12.04
-5.06
1.15
6.36
10.63
14.09
16.92
19.18
20.93
22.12
22.76
22.88
22.57
21.91
20.95
19.83
18.66
17.61
16.79
16.26
15.96
15.75
15.52
15.15
14.62
13.92
13.04
11.96
10.65
9.09
7.32
5.44
3.52
1.60
-0.36
-2.42
-4.58
-6.74
-8.71
-10.31
-11.44
-12.20
-12.88
-13.84
-15.31
-17.36
-19.82
-22.43
-25.00
-27.49
-30.01
-32.69
-35.68
-39.02
-42.72
-46.76
-51.00
-55.13
-58.61
-60.79
-61.00
-58.90
-54.47
-48.13
-40.51
-32.31
-24.18
-16.55
-9.68
-3.67
1.48
5.86
9.57
12.67
15.20
17.20
18.71
19.83
20.65
21.29
21.84
22.37
22.95
23.63
24.42
25.25
25.99
26.45
26.45
25.89
24.81
23.31
21.58
19.78
18.07
16.50
15.10
13.87
12.84
12.04
11.47
11.09
10.78
10.38
9.79
8.97
7.96
6.81
5.51
4.02
2.29
0.30
-1.88
-4.17
-6.52
-8.91
-11.39
-13.97
-16.59
-19.16
-21.52
-23.69
-25.76
-27.98
-30.65
-34.01
-38.11
-42.81
-47.69
-52.16
-55.48
-56.92
-55.93
-52.34
-46.39
-38.75
-30.33
-22.00
-14.36
-7.63
-1.72
3.65
8.68
13.46
17.93
21.96
25.47
28.44
30.90
32.86
34.31
35.26
35.75
35.93
36.01
36.23
36.79
37.72
38.90
40.07
40.92
41.21
40.92
40.18
39.26
38.43
37.82
37.40
37.01
36.47
35.73
34.87
34.05
33.45
33.16
33.18
33.44
33.85
34.29
34.60
34.62
34.25
33.47
32.39
31.22
30.14
29.19
28.28
27.19
25.76
23.96
21.91
19.80
17.73
15.73
13.68
11.48
9.05
6.43
3.66
0.76
-2.25
-5.43
-8.81
-12.40
-16.21
-20.28
-24.70
-29.54
-34.75
-40.02
-44.81
-48.38
-50.03
-49.34
-46.32
-41.39
-35.28
-28.79
-22.58
-17.07
-12.45
-8.72
-5.78
-3.51
-1.83
-0.65
0.06
0.33
0.23
-0.17
-0.75
-1.41
-2.07
-2.64
-3.00
-3.06
-2.71
-1.98
-1.08
-0.32
-0.04
-0.40
-1.34
-2.55
-3.70
-4.53
-4.99
-5.21
-5.41
-5.76
-6.37
-7.23
-8.27
-9.42
-10.57
-11.63
-12.51
-13.16
-13.59
-13.87
-14.17
-14.65
-15.49
-16.75
-18.37
-20.18
-21.91
-23.43
-24.75
-26.09
-27.83
-30.33
-33.80
-38.12
-42.78
-47.00
-49.86
-50.58
-48.70
-44.24
-37.74
-30.06
-22.15
-14.80
-8.42
-3.06
1.49
5.54
9.29
12.84
16.14
19.15
21.79
24.01
25.78
27.05
27.79
28.08
28.11
28.14
28.44
29.14
30.18
31.30
32.19
32.59
32.41
31.69
30.58
29.21
27.66
25.92
23.99
21.90
19.73
17.61
15.59
13.66
11.73
9.73
7.64
5.55
3.56
1.81
0.29
-1.13
-2.59
-4.17
-5.86
-7.48
-8.88
-9.99
-10.90
-11.83
-13.08
-14.81
-17.08
-19.74
-22.56
-25.28
-27.73
-29.91
-31.98
-34.19
-36.84
-40.01
-43.56
-47.04
-49.74
-50.93
-50.04
-46.91
-41.77
-35.23
-28.05
-20.98
-14.53
-8.93
-4.16
-0.05
3.67
7.25
10.82
14.42
17.95
21.19
23.89
25.83
26.85
27.04
26.68
26.20
26.07
26.54
27.63
29.03
30.25
30.93
30.91
30.38
29.68
29.13
28.91
28.97
29.15
29.33
29.41
29.43
29.38
29.21
28.86
28.26
27.47
26.64
25.92
25.45
25.19
25.01
24.69
24.07
23.14
22.02
20.94
20.05
19.34
18.58
17.45
15.67
13.15
10.08
6.76
3.47
0.34
-2.72
-5.91
-9.46
-13.50
-17.99
-22.76
-27.45
-31.56
-34.52
-35.77
-34.98
-32.16
-27.74
-22.42
-16.97
-12.00
-7.86
-4.65
-2.33
-0.83
-0.10
-0.13
-0.81
-1.95
-3.32
-4.71
-6.03
-7.24
-8.39
-9.42
-10.17
-10.38
-9.88
-8.61
-6.79
-4.86
-3.26
-2.31
-2.09
-2.44
-3.08
-3.80
-4.48
-5.13
-5.83
-6.64
-7.56
-8.55
-9.60
-10.64
-11.68
-12.70
-13.71
-14.74
-15.85
-17.07
-18.39
-19.78
-21.14
-22.43
-23.67
-25.00
-26.68
-28.94
-32.00
-35.88
-40.39
-45.09
-49.30
-52.22
-53.14
-51.65
-47.79
-42.09
-35.35
-28.46
-22.10
-16.62
-12.02
-8.08
-4.49
-1.02
2.39
5.67
8.66
11.26
13.38
15.03
16.24
17.07
17.63
18.03
18.46
19.10
20.06
21.29
22.59
23.62
24.09
23.86
23.02
21.84
20.66
19.73
19.14
18.78
18.46
17.98
17.21
16.12
14.74
13.17
11.53
9.90
8.33
6.77
5.16
3.43
1.56
-0.42
-2.43
-4.45
-6.51
-8.69
-11.08
-13.65
-16.32
-18.92
-21.36
-23.60
-25.74
-27.93
-30.38
-33.29
-36.75
-40.73
-44.95
-48.88
-51.81
-53.05
-52.13
-48.93
-43.72
-37.11
-29.82
-22.52
-15.72
-9.65
-4.31
0.51
5.04
9.51
13.94
18.23
22.19
25.56
28.21
30.06
31.15
31.58
31.52
31.15
30.76
30.64
31.02
31.94
33.25
34.63
35.75
36.41
36.60
36.54
36.42
36.39
36.42
36.38
36.07
35.42
34.49
33.44
32.50
31.84
31.46
31.29
31.16
30.97
30.70
30.39
30.12
29.89
29.61
29.14
28.38
27.34
26.15
24.92
23.72
22.50
21.13
19.46
17.45
15.13
12.58
9.91
7.17
4.41
1.65
-1.10
-3.92
-7.00
-10.55
-14.81
-19.79
-25.26
-30.67
-35.33
-38.50
-39.63
-38.50
-35.28
-30.50
-24.92
-19.29
-14.17
-9.85
-6.31
-3.38
-0.89
1.28
3.11
4.54
5.56
6.16
6.37
6.27
5.92
5.39
4.78
4.20
3.76
3.49
3.38
3.35
3.25
2.96
2.35
1.35
-0.04
-1.73
-3.59
-5.41
-7.04
-8.37
-9.38
-10.15
-10.81
-11.48
-12.26
-13.15
-14.14
-15.14
-16.10
-16.98
-17.82
-18.68
-19.65
-20.82
-22.22
-23.82
-25.61
-27.62
-29.99
-32.95
-36.69
-41.22
-46.22
-50.98
-54.56
-56.06
-54.93
-51.15
-45.25
-38.06
-30.52
-23.32
-16.84
-11.09
-5.94
-1.20
3.26
7.42
11.26
14.71
17.76
20.40
22.66
24.52
25.96
26.95
27.50
27.67
27.57
27.40
27.30
27.40
27.67
28.00
28.18
28.03
27.46
26.51
25.33
24.09
22.86
21.61
20.23
18.63
16.81
14.87
12.99
11.29
9.87
8.69
7.68
6.71
5.71
4.63
3.45
2.16
0.74
-0.82
-2.48
-4.22
-5.99
-7.75
-9.54
-11.39
-13.40
-15.63
-18.08
-20.69
-23.32
-25.82
-28.10
-30.22
-32.39
-34.96
-38.25
-42.42
-47.26
-52.21
-56.38
-58.84
-58.86
-56.13
-50.90
-43.81
-35.70
-27.41
-19.59
-12.61
-6.55
-1.26
3.53
8.09
12.57
16.97
21.12
24.82
27.86
30.17
31.78
32.82
33.45
33.81
34.01
34.15
34.32
34.56
34.84
35.06
35.08
34.80
34.20
33.38
32.51
31.75
31.19
30.83
30.54
30.21
29.75
29.17
28.51
27.87
27.37
27.03
26.88
26.80
26.68
26.39
25.85
25.05
24.08
23.06
22.11
21.32
20.72
20.33
20.16
20.17
20.25
20.28
20.07
19.48
18.53
17.33
16.13
15.16
14.54
14.14
13.68
12.85
11.41
9.33
6.77
3.99
1.18
-1.59
-4.37
-7.29
-10.54
-14.24
-18.49
-23.29
-28.49
-33.65
-38.12
-41.11
-41.93
-40.26
-36.28
-30.67
-24.34
-18.21
-12.92
-8.71
-5.46
-2.92
-0.81
1.02
2.60
3.92
4.91
5.54
5.81
5.73
5.35
4.73
3.98
3.24
2.62
2.15
1.82
1.53
1.18
0.65
-0.14
-1.17
-2.34
-3.51
-4.48
-5.13
-5.45
-5.55
-5.61
-5.77
-6.11
-6.59
-7.10
-7.62
-8.13
-8.71
-9.37
-10.11
-10.84
-11.54
-12.21
-12.95
-13.89
-15.15
-16.77
-18.66
-20.71
-22.80
-24.89
-27.02
-29.29
-31.84
-34.80
-38.30
-42.39
-46.98
-51.69
-55.90
-58.72
-59.35
-57.30
-52.63
-45.97
-38.30
-30.64
-23.67
-17.64
-12.45
-7.79
-3.40
0.84
4.91
8.71
12.17
15.22
17.81
19.91
21.49
22.56
23.19
23.54
23.84
24.27
24.94
25.80
26.71
27.44
27.83
27.84
27.54
27.07
26.54
26.00
25.39
24.64
23.69
22.49
21.11
19.66
18.26
16.97
15.80
14.68
13.53
12.28
10.92
9.52
8.13
6.80
5.46
4.02
2.41
0.63
-1.19
-2.88
-4.36
-5.69
-7.06
-8.73
-10.86
-13.42
-16.26
-19.14
-21.88
-24.41
-26.78
-29.05
-31.31
-33.68
-36.31
-39.47
-43.35
-47.98
-52.99
-57.63
-60.93
-62.01
-60.39
-56.13
-49.77
-42.10
-33.93
-25.90
-18.43
-11.75
-5.91
-0.83
3.72
8.02
12.32
16.71
21.12
25.27
28.85
31.62
33.52
34.65
35.18
35.34
35.31
35.26
35.35
35.69
36.29
37.05
37.83
38.42
38.71
38.71
38.50
38.14
37.70
37.12
36.39
35.54
34.68
33.97
33.49
33.23
33.06
32.85
32.52
32.07
31.60
31.18
30.81
30.41
29.85
29.04
27.95
26.67
25.30
23.96
22.67
21.36
19.89
18.09
15.81
13.00
9.77
6.35
2.97
-0.17
-3.04
-5.79
-8.65
-11.91
-15.78
-20.37
-25.66
-31.43
-37.20
-42.31
-45.93
-47.35
-46.23
-42.71
-37.39
-31.15
-24.81
-18.98
-13.90
-9.59
-5.94
-2.84
-0.26
1.81
3.39
4.48
5.14
5.45
5.55
5.60
5.77
6.11
6.59
7.08
7.40
7.44
7.15
6.58
5.78
4.78
3.55
2.05
0.32
-1.53
-3.31
-4.82
-5.96
-6.84
-7.65
-8.63
-9.93
-11.52
-13.19
-14.67
-15.79
-16.53
-17.09
-17.78
-18.87
-20.49
-22.53
-24.76
-26.89
-28.72
-30.26
-31.73
-33.46
-35.81
-39.03
-43.16
-48.00
-53.08
-57.69
-61.00
-62.23
-60.80
-56.61
-49.96
-41.59
-32.42
-23.35
-15.11
-8.06
-2.24
2.61
6.86
10.88
14.91
18.88
22.56
25.61
27.78
28.99
29.42
29.38
29.24
29.22
29.42
29.79
30.24
30.69
31.13
31.51
31.75
31.71
31.24
30.27
28.89
27.30
25.72
24.27
22.95
21.63
20.15
18.46
16.60
14.70
12.87
11.09
9.32
7.45
5.44
3.38
1.39
-0.43
-2.03
-3.55
-5.23
-7.29
-9.87
-12.97
-16.41
-19.98
-23.47
-26.78
-29.90
-32.92
-36.07
-39.60
-43.74
-48.59
-53.92
-59.19
-63.58
-66.18
-66.27
-63.53
-58.07
-50.45
-41.43
-31.81
-22.29
-13.38
-5.40
1.55
7.58
12.96
18.04
23.08
28.11
32.93
37.11
40.21
41.99
42.51
42.11
41.27
40.47
40.00
39.93
40.18
40.56
40.92
41.15
41.23
41.15
40.90
40.42
39.65
38.53
37.14
35.59
34.11
32.83
31.80
30.94
30.10
29.18
28.10
26.90
25.66
24.45
23.34
22.40
21.65
21.11
20.70
20.32
19.79
18.99
17.90
16.62
15.32
14.13
13.15
12.40
11.81
11.22
10.43
9.21
7.40
4.98
2.11
-0.94
-3.91
-6.65
-9.20
-11.82
-14.83
-18.57
-23.21
-28.69
-34.55
-40.02
-44.11
-45.90
-44.85
-40.98
-34.88
-27.53
-19.92
-12.86
-6.78
-1.82
2.12
5.21
7.67
9.74
11.64
13.46
15.12
16.39
17.02
16.85
15.97
14.68
13.32
12.21
11.49
11.18
11.24
11.57
12.02
12.38
12.35
11.66
10.17
7.98
5.40
2.84
0.69
-0.87
-1.89
-2.59
-3.30
-4.26
-5.57
-7.12
-8.66
-10.01
-11.04
-11.86
-12.68
-13.80
-15.40
-17.48
-19.95
-22.54
-25.06
-27.39
-29.57
-31.79
-34.27
-37.21
-40.73
-44.83
-49.33
-53.88
-57.93
-60.77
-61.72
-60.24
-56.18
-49.82
-41.81
-33.03
-24.29
-16.17
-8.90
-2.43
3.42
8.81
13.80
18.26
22.04
24.97
27.01
28.29
29.04
29.47
29.76
30.03
30.31
30.67
31.14
31.71
32.29
32.75
32.95
32.79
32.24
31.34
30.13
28.65
26.94
25.06
23.11
21.18
19.36
17.64
15.98
14.33
12.71
11.19
9.88
8.83
8.03
7.36
6.66
5.74
4.51
2.88
0.88
-1.40
-3.84
-6.26
-8.56
-10.69
-12.76
-14.88
-17.18
-19.65
-22.21
-24.71
-27.07
-29.27
-31.44
-33.78
-36.49
-39.74
-43.63
-48.17
-53.16
-58.17
-62.49
-65.26
-65.69
-63.28
-58.11
-50.72
-42.01
-32.94
-24.30
-16.52
-9.73
-3.79
1.49
6.34
10.87
15.15
19.20
22.98
26.39
29.31
31.60
33.18
34.05
34.35
34.35
34.38
34.72
35.53
36.75
38.17
39.50
40.52
41.11
41.28
41.11
40.70
40.13
39.46
38.69
37.81
36.81
35.73
34.63
33.63
32.83
32.27
31.92
31.65
31.34
30.89
30.29
29.57
28.77
27.91
26.95
25.86
24.62
23.26
21.80
20.26
18.63
16.88
14.96
12.79
10.34
7.55
4.45
1.15
-2.15
-5.28
-8.20
-11.02
-14.00
-17.44
-21.57
-26.41
-31.78
-37.27
-42.29
-46.20
-48.35
-48.30
-45.93
-41.50
-35.61
-29.06
-22.62
-16.86
-12.06
-8.19
-5.07
-2.44
-0.13
1.95
3.83
5.45
6.79
7.80
8.44
8.64
8.39
7.76
6.93
6.14
5.58
5.29
5.14
4.89
4.27
3.20
1.69
-0.08
-1.92
-3.64
-5.10
-6.25
-7.07
-7.64
-8.10
-8.57
-9.17
-9.90
-10.75
-11.61
-12.45
-13.34
-14.37
-15.70
-17.35
-19.32
-21.45
-23.60
-25.65
-27.58
-29.52
-31.66
-34.28
-37.56
-41.55
-46.00
-50.34
-53.76
-55.37
-54.49
-50.92
-44.98
-37.44
-29.23
-21.14
-13.65
-6.92
-0.90
4.55
9.53
14.05
18.07
21.51
24.33
26.44
27.83
28.53
28.66
28.42
28.08
27.88
27.98
28.41
29.11
29.90
30.60
31.05
31.11
30.70
29.80
28.45
26.83
25.13
23.60
22.32
21.25
20.22
18.99
17.42
15.56
13.55
11.65
10.06
8.84
7.86
6.93
5.83
4.45
2.77
0.84
-1.22
-3.32
-5.44
-7.59
-9.79
-12.05
-14.36
-16.71
-19.11
-21.56
-24.12
-26.79
-29.53
-32.31
-35.08
-37.92
-40.97
-44.46
-48.48
-52.87
-57.15
-60.54
-62.17
-61.37
-57.91
-52.08
-44.62
-36.40
-28.16
-20.33
-12.99
-6.07
0.58
6.98
13.09
18.81
24.05
28.72
32.72
35.94
38.25
39.57
40.01
39.84
39.53
39.54
40.13
41.26
42.58
43.61
43.94
43.46
42.34
40.96
39.63
38.53
37.62
36.78
35.93
35.08
34.31
33.63
32.96
32.19
31.23
30.09
28.96
28.04
27.51
27.38
27.61
28.04
28.47
28.76
28.74
28.32
27.43
26.07
24.31
22.27
20.12
18.01
16.01
14.13
12.29
10.37
8.26
5.90
3.29
0.51
-2.39
-5.30
-8.16
-10.95
-13.72
-16.64
-19.96
-23.93
-28.69
-34.15
-39.84
-45.04
-48.86
-50.53
-49.60
-46.17
-40.79
-34.29
-27.55
-21.24
-15.73
-11.08
-7.15
-3.83
-1.01
1.35
3.24
4.67
5.65
6.20
6.33
6.03
5.33
4.35
3.30
2.40
1.86
1.76
2.01
2.38
2.59
2.44
1.86
0.93
-0.17
-1.26
-2.22
-3.01
-3.69
-4.37
-5.20
-6.23
-7.46
-8.86
-10.33
-11.86
-13.39
-14.90
-16.29
-17.43
-18.25
-18.79
-19.26
-19.94
-21.09
-22.73
-24.66
-26.56
-28.17
-29.46
-30.72
-32.45
-35.08
-38.84
-43.55
-48.67
-53.39
-56.86
-58.27
-57.19
-53.50
-47.57
-40.11
-32.00
-24.05
-16.79
-10.39
-4.77
0.29
4.97
9.34
13.35
16.94
20.07
22.71
24.87
26.53
27.70
28.43
28.84
29.14
29.49
30.07
30.88
31.83
32.71
33.30
33.45
33.10
32.26
31.02
29.44
27.62
25.66
23.68
21.85
20.27
18.98
17.92
16.99
16.07
15.13
14.19
13.25
12.31
11.31
10.22
8.99
7.70
6.38
5.09
3.81
2.54
1.24
-0.09
-1.42
-2.77
-4.12
-5.46
-6.80
-8.12
-9.44
-10.84
-12.41
-14.29
-16.55
-19.12
-21.86
-24.57
-27.06
-29.33
-31.52
-33.98
-37.06
-41.00
-45.69
-50.61
-54.91
-57.57
-57.77
-55.13
-49.84
-42.54
-34.17
-25.62
-17.57
-10.36
-4.08
1.44
6.38
10.94
15.24
19.31
23.15
26.64
29.73
32.34
34.45
36.06
37.20
37.92
38.33
38.56
38.82
39.26
39.98
40.92
41.91
42.73
43.16
43.09
42.50
41.52
40.29
38.96
37.61
36.25
34.88
33.48
32.03
30.59
29.19
27.92
26.84
25.91
25.05
24.11
22.91
21.37
19.50
17.41
15.26
13.15
11.08
8.97
6.68
4.09
1.18
-1.98
-5.29
-8.63
-11.96
-15.25
-18.51
-21.78
-25.09
-28.50
-32.11
-36.02
-40.25
-44.65
-48.87
-52.36
-54.52
-54.84
-53.09
-49.41
-44.27
-38.39
-32.43
-26.91
-22.08
-17.96
-14.45
-11.44
-8.84
-6.59
-4.71
-3.21
-2.07
-1.31
-0.83
-0.51
-0.17
0.40
1.32
2.62
4.19
5.88
7.51
8.91
9.97
10.56
10.59
10.07
9.08
7.83
6.50
5.27
4.18
3.20
2.22
1.19
0.09
-1.07
-2.21
-3.31
-4.35
-5.29
-6.13
-6.92
-7.77
-8.90
-10.51
-12.70
-15.39
-18.28
-21.00
-23.31
-25.23
-27.02
-29.13
-32.00
-35.83
-40.52
-45.68
-50.64
-54.65
-56.97
-57.05
-54.65
-49.89
-43.28
-35.58
-27.60
-20.05
-13.37
-7.68
-2.79
1.60
5.83
10.05
14.22
18.08
21.33
23.76
25.35
26.27
26.75
27.01
27.15
27.17
27.06
26.84
26.68
26.73
27.06
27.57
27.97
27.92
27.18
25.75
23.87
21.94
20.30
19.16
18.45
17.94
17.32
16.38
15.13
13.73
12.44
11.43
10.71
10.10
9.35
8.27
6.82
5.17
3.52
2.06
0.78
-0.45
-1.87
-3.63
-5.76
-8.16
-10.61
-12.94
-15.08
-17.08
-19.07
-21.22
-23.71
-26.65
-30.06
-33.80
-37.54
-40.74
-42.73
-42.87
-40.77
-36.39
-30.12
-22.64
-14.73
-7.13
-0.32
5.46
10.17
13.95
17.03
19.71
22.24
24.82
27.47
30.05
32.31
33.98
34.93
35.20
35.02
34.73
34.64
34.98
35.78
36.93
38.14
39.10
39.54
39.28
38.27
36.64
34.59
32.39
30.29
28.45
26.91
25.54
24.10
22.35
20.11
17.43
14.52
11.66
9.06
6.77
4.63
2.44
0.09
-2.44
-5.04
-7.64
-10.26
-13.03
-16.17
-19.83
-24.08
-28.84
-34.00
-39.29
-44.33
-48.63
-51.55
-52.54
-51.25
-47.79
-42.65
-36.60
-30.39
-24.54
-19.28
-14.57
-10.32
-6.47
-3.09
-0.35
1.62
2.80
3.30
3.41
3.43
3.65
4.23
5.21
6.51
7.98
9.47
10.80
11.80
12.32
12.24
11.55
10.34
8.80
7.16
5.58
4.11
2.68
1.16
-0.55
-2.47
-4.57
-6.76
-8.96
-11.13
-13.32
-15.55
-17.89
-20.30
-22.72
-25.07
-27.25
-29.29
-31.28
-33.48
-36.17
-39.56
-43.70
-48.31
-52.75
-56.15
-57.64
-56.61
-52.88
-46.81
-39.14
-30.72
-22.33
-14.47
-7.42
-1.21
4.30
9.28
13.92
18.29
22.36
25.93
28.82
30.87
32.12
32.75
33.04
33.26
33.57
34.00
34.54
35.09
35.56
35.87
35.97
35.82
35.44
34.85
34.06
33.06
31.84
30.37
28.66
26.78
24.77
22.69
20.56
18.40
16.18
13.94
11.71
9.53
7.43
5.33
3.16
0.79
-1.84
-4.67
-7.57
-10.37
-12.98
-15.41
-17.80
-20.28
-22.92
-25.66
-28.36
-30.94
-33.41
-35.99
-38.94
-42.52
-46.70
-51.09
-54.92
-57.20
-57.02
-53.86
-47.75
-39.16
-28.81
-17.43
-5.73
5.51
15.49
23.41
28.85
31.94
33.44
34.39
35.69
37.70
40.16
42.46
44.13
45.04
45.49
45.94
46.67
47.67
48.64
49.26
49.33
48.93
48.30
47.74
47.40
47.18
46.84
46.04
44.59
42.55
40.19
37.88
35.91
34.36
33.11
31.90
30.50
28.80
26.85
24.80
22.81
20.96
19.24
17.56
15.78
13.81
11.59
9.10
6.38
3.47
0.50
-2.46
-5.34
-8.09
-10.73
-13.39
-16.28
-19.64
-23.66
-28.36
-33.48
-38.48
-42.61
-45.14
-45.60
-43.92
-40.44
-35.79
-30.68
-25.67
-21.08
-17.01
-13.43
-10.28
-7.56
-5.28
-3.51
-2.27
-1.51
-1.13
-1.00
-0.99
-0.96
-0.84
-0.51
0.07
0.93
2.03
3.25
4.39
5.24
5.61
5.42
4.73
3.67
2.46
1.23
0.08
-0.97
-1.92
-2.80
-3.62
-4.42
-5.28
-6.27
-7.39
-8.58
-9.68
-10.58
-11.27
-11.84
-12.50
-13.49
-14.96
-16.89
-19.15
-21.51
-23.75
-25.76
-27.50
-29.15
-30.98
-33.37
-36.61
-40.81
-45.64
-50.42
-54.15
-55.86
-54.91
-51.21
-45.19
-37.75
-29.85
-22.31
-15.58
-9.79
-4.74
-0.12
4.36
8.90
13.49
17.94
22.02
25.54
28.41
30.60
32.13
33.01
33.26
32.98
32.41
31.87
31.63
31.77
32.17
32.56
32.65
32.25
31.32
29.97
28.34
26.56
24.80
23.16
21.78
20.67
19.83
19.12
18.44
17.71
16.96
16.27
15.69
15.23
14.85
14.44
13.93
13.26
12.49
11.65
10.82
10.02
9.24
8.44
7.61
6.74
5.83
4.88
3.90
2.90
1.86
0.76
-0.42
-1.68
-2.94
-4.08
-5.02
-5.77
-6.48
-7.40
-8.71
-10.44
-12.43
-14.35
-16.00
-17.38
-18.74
-20.50
-23.06
-26.55
-30.72
-34.97
-38.43
-40.25
-39.81
-36.90
-31.85
-25.40
-18.44
-11.84
-6.15
-1.60
1.91
4.66
6.99
9.19
11.43
13.79
16.22
18.55
20.59
22.13
23.11
23.57
23.68
23.68
23.77
24.09
24.70
25.59
26.65
27.72
28.62
29.19
29.41
29.30
28.93
28.38
27.59
26.55
25.27
23.84
22.44
21.20
20.07
18.91
17.50
15.73
13.69
11.66
9.92
8.59
7.57
6.58
5.34
3.66
1.58
-0.74
-3.11
-5.46
-7.85
-10.42
-13.31
-16.53
-20.02
-23.57
-26.98
-30.10
-32.88
-35.38
-37.71
-40.03
-42.48
-45.18
-48.28
-51.86
-55.84
-59.93
-63.56
-65.89
-66.15
-63.82
-58.91
-51.96
-43.88
-35.64
-27.97
-21.24
-15.46
-10.50
-6.15
-2.35
0.88
3.47
5.33
6.52
7.14
7.42
7.62
7.95
8.55
9.40
10.46
11.64
12.88
14.12
15.26
16.19
16.77
16.89
16.55
15.79
14.78
13.67
12.63
11.74
11.02
10.45
9.97
9.52
9.04
8.45
7.67
6.65
5.45
4.20
3.14
2.47
2.34
2.71
3.38
4.11
4.67
4.93
4.89
4.58
4.04
3.28
2.26
0.91
-0.77
-2.80
-5.14
-7.69
-10.32
-12.88
-15.27
-17.43
-19.39
-21.21
-23.01
-24.96
-27.23
-30.04
-33.54
-37.72
-42.35
-46.86
-50.45
-52.35
-51.98
-49.26
-44.55
-38.58
-32.18
-26.05
-20.58
-15.80
-11.55
-7.55
-3.61
0.37
4.36
8.32
12.14
15.76
19.10
22.04
24.51
26.41
27.77
28.69
29.38
30.09
31.04
32.31
33.83
35.32
36.48
37.05
36.97
36.40
35.65
35.05
34.83
35.02
35.52
36.20
36.90
37.59
38.24
38.84
39.40
39.90
40.32
40.64
40.78
40.68
40.23
39.40
38.21
36.71
35.06
33.36
31.67
30.00
28.28
26.48
24.58
22.61
20.65
18.73
16.81
14.81
12.59
10.04
7.12
3.87
0.41
-3.12
-6.58
-9.88
-13.03
-16.19
-19.62
-23.60
-28.34
-33.73
-39.30
-44.27
-47.73
-48.97
-47.70
-44.19
-39.08
-33.23
-27.35
-21.95
-17.28
-13.40
-10.28
-7.87
-6.09
-4.86
-4.09
-3.68
-3.56
-3.64
-3.89
-4.24
-4.68
-5.20
-5.79
-6.40
-6.90
-7.22
-7.33
-7.32
-7.40
-7.79
-8.64
-9.93
-11.48
-13.00
-14.26
-15.13
-15.66
-16.01
-16.37
-16.90
-17.61
-18.45
-19.29
-20.02
-20.61
-21.12
-21.62
-22.19
-22.87
-23.67
-24.61
-25.70
-27.03
-28.66
-30.68
-33.07
-35.79
-38.82
-42.13
-45.74
-49.57
-53.33
-56.46
-58.25
-57.97
-55.24
-50.15
-43.26
-35.45
-27.58
-20.27
-13.78
-8.08
-3.06
1.41
5.39
8.88
11.91
14.57
16.91
18.98
20.72
22.07
23.03
23.68
24.19
24.72
25.39
26.16
26.90
27.41
27.52
27.19
26.46
25.43
24.23
22.94
21.61
20.24
18.83
17.36
15.87
14.39
12.95
11.59
10.29
8.99
7.69
6.35
4.99
3.59
2.10
0.44
-1.47
-3.68
-6.20
-9.02
-12.10
-15.38
-18.80
-22.28
-25.77
-29.26
-32.83
-36.70
-41.04
-45.86
-50.84
-55.30
-58.33
-59.05
-56.98
-52.15
-45.18
-36.97
-28.47
-20.37
-13.02
-6.46
-0.50
5.02
10.26
15.27
20.07
24.58
28.70
32.24
35.04
36.97
38.06
38.52
38.66
38.83
39.23
39.90
40.76
41.64
42.37
42.81
42.90
42.60
41.92
40.93
39.73
38.49
37.39
36.59
36.13
35.93
35.82
35.58
35.07
34.31
33.43
32.64
32.04
31.57
31.02
30.15
28.82
27.08
25.15
23.26
21.54
19.92
18.17
16.06
13.42
10.25
6.70
3.00
-0.64
-4.11
-7.46
-10.84
-14.48
-18.58
-23.30
-28.61
-34.21
-39.48
-43.56
-45.59
-44.99
-41.69
-36.22
-29.54
-22.70
-16.49
-11.26
-6.92
-3.12
0.47
3.99
7.43
10.60
13.29
15.31
16.50
16.88
16.55
15.82
14.99
14.38
14.15
14.32
14.78
15.35
15.85
16.08
15.85
15.02
13.49
11.30
8.58
5.59
2.56
-0.34
-3.02
-5.45
-7.56
-9.33
-10.78
-12.02
-13.29
-14.79
-16.67
-18.91
-21.29
-23.51
-25.37
-26.86
-28.17
-29.67
-31.74
-34.64
-38.40
-42.87
-47.64
-52.14
-55.72
-57.68
-57.49
-54.92
-50.12
-43.59
-36.07
-28.31
-20.86
-13.96
-7.55
-1.47
4.51
10.46
16.23
21.55
26.03
29.36
31.41
32.30
32.40
32.18
32.08
32.38
33.19
34.45
36.03
37.76
39.45
40.86
41.72
41.80
41.03
39.52
37.58
35.53
33.66
32.04
30.55
29.03
27.27
25.21
22.88
20.47
18.13
16.04
14.17
12.37
10.39
8.01
5.18
2.03
-1.15
-4.10
-6.72
-9.18
-11.78
-14.79
-18.29
-22.03
-25.62
-28.70
-31.17
-33.27
-35.53
-38.49
-42.59
-47.93
-54.23
-60.85
-66.84
-71.02
-72.14
-69.28
-62.19
-51.69
-39.48
-27.69
-18.11
-11.53
-7.54
-4.88
-2.11
1.75
6.91
12.94
19.17
24.99
30.10
34.33
37.60
39.80
40.85
40.86
40.12
39.16
38.49
38.57
39.50
41.05
42.73
43.98
44.36
43.75
42.34
40.54
38.76
37.26
36.09
35.13
34.18
33.12
31.90
30.62
29.41
28.44
27.85
27.70
28.00
28.62
29.42
30.14
30.58
30.60
30.15
29.31
28.25
27.21
26.36
25.82
25.56
25.49
25.40
25.06
24.30
23.01
21.23
19.11
16.85
14.66
12.60
10.57
8.32
5.63
2.37
-1.38
-5.34
-9.20
-12.72
-15.85
-18.76
-21.75
-25.14
-29.23
-34.08
-39.57
-45.24
-50.43
-54.36
-56.33
-55.88
-53.00
-48.09
-41.86
-35.18
-28.82
-23.27
-18.72
-15.05
-12.03
-9.40
-7.03
-4.91
-3.14
-1.78
-0.84
-0.27
-0.02
-0.01
-0.19
-0.53
-0.91
-1.21
-1.29
-1.05
-0.48
0.31
1.08
1.59
1.63
1.19
0.37
-0.59
-1.46
-2.08
-2.38
-2.43
-2.33
-2.17
-2.06
-2.06
-2.25
-2.72
-3.55
-4.72
-6.15
-7.65
-9.08
-10.40
-11.72
-13.20
-15.01
-17.16
-19.53
-21.90
-24.09
-26.08
-28.02
-30.18
-32.81
-36.05
-39.86
-43.99
-48.06
-51.49
-53.67
-54.05
-52.30
-48.41
-42.75
-35.92
-28.64
-21.48
-14.85
-8.92
-3.67
1.04
5.38
9.47
13.39
17.09
20.43
23.26
25.45
26.97
27.91
28.39
28.54
28.40
28.04
27.53
27.03
26.69
26.62
26.78
26.95
26.89
26.41
25.52
24.39
23.32
22.50
22.00
21.68
21.30
20.68
19.79
18.69
17.57
16.58
15.76
15.06
14.36
13.57
12.65
11.63
10.62
9.69
8.85
8.06
7.20
6.17
4.85
3.23
1.38
-0.55
-2.35
-3.88
-5.09
-6.08
-7.05
-8.20
-9.70
-11.58
-13.79
-16.18
-18.62
-20.97
-23.13
-25.11
-27.02
-29.05
-31.44
-34.35
-37.70
-41.12
-43.97
-45.49
-45.07
-42.40
-37.61
-31.26
-24.07
-16.81
-10.09
-4.24
0.66
4.75
8.26
11.49
14.68
17.97
21.38
24.78
27.95
30.65
32.74
34.16
34.99
35.37
35.44
35.35
35.22
35.15
35.20
35.38
35.60
35.75
35.71
35.47
35.04
34.50
33.90
33.17
32.24
31.02
29.51
27.83
26.13
24.54
23.12
21.84
20.69
19.62
18.65
17.77
16.95
16.09
15.05
13.70
11.99
9.90
7.55
5.03
2.45
-0.15
-2.75
-5.36
-8.00
-10.66
-13.35
-16.01
-18.64
-21.25
-23.92
-26.82
-30.17
-34.14
-38.78
-43.84
-48.79
-52.92
-55.52
-56.07
-54.43
-50.89
-45.99
-40.41
-34.73
-29.35
-24.52
-20.31
-16.76
-13.85
-11.55
-9.75
-8.31
-7.08
-5.97
-4.99
-4.18
-3.54
-3.02
-2.43
-1.61
-0.46
0.94
2.41
3.71
4.65
5.17
5.30
5.12
4.70
4.08
3.27
2.26
1.11
-0.11
-1.30
-2.41
-3.43
-4.40
-5.39
-6.42
-7.45
-8.43
-9.28
-10.03
-10.82
-11.80
-13.13
-14.83
-16.81
-18.90
-20.90
-22.69
-24.25
-25.68
-27.17
-28.99
-31.38
-34.51
-38.29
-42.34
-46.06
-48.67
-49.55
-48.31
-45.00
-40.03
-34.10
-27.92
-22.11
-16.95
-12.47
-8.43
-4.56
-0.65
3.32
7.15
10.60
13.42
15.52
16.97
17.93
18.57
19.04
19.45
19.90
20.44
21.12
21.90
22.71
23.40
23.82
23.87
23.56
22.97
22.24
21.52
20.92
20.44
19.98
19.44
18.66
17.60
16.28
14.83
13.39
12.04
10.81
9.64
8.44
7.11
5.65
4.09
2.50
0.96
-0.48
-1.77
-2.94
-4.07
-5.33
-6.85
-8.71
-10.89
-13.24
-15.58
-17.82
-19.99
-22.23
-24.79
-27.85
-31.53
-35.73
-40.20
-44.47
-47.94
-49.93
-49.86
-47.42
-42.66
-36.07
-28.41
-20.49
-12.98
-6.22
-0.22
5.23
10.37
15.41
20.41
25.29
29.90
34.05
37.60
40.47
42.60
44.04
44.92
45.41
45.74
46.09
46.54
47.09
47.62
48.00
48.13
47.96
47.46
46.67
45.61
44.33
42.83
41.19
39.47
37.75
36.10
34.52
32.96
31.34
29.60
27.71
25.71
23.68
21.71
19.86
18.15
16.52
14.90
13.18
11.30
9.18
6.83
4.21
1.35
-1.74
-5.03
-8.50
-12.16
-16.08
-20.34
-25.06
-30.26
-35.78
-41.19
-45.79
-48.81
-49.65
-48.09
-44.33
-38.95
-32.71
-26.34
-20.42
-15.28
-11.08
-7.83
-5.46
-3.74
-2.48
-1.49
-0.64
0.05
0.51
0.68
0.55
0.28
0.08
0.16
0.70
1.67
2.87
3.99
4.70
4.77
4.13
2.86
1.13
-0.88
-3.00
-5.10
-7.01
-8.64
-9.89
-10.81
-11.46
-11.99
-12.49
-12.97
-13.47
-14.02
-14.74
-15.78
-17.24
-19.09
-21.23
-23.48
-25.73
-27.96
-30.32
-33.01
-36.28
-40.25
-44.89
-49.91
-54.76
-58.62
-60.65
-60.20
-57.00
-51.33
-43.89
-35.61
-27.37
-19.74
-12.99
-7.03
-1.65
3.41
8.33
13.11
17.65
21.78
25.26
27.96
29.81
30.90
31.39
31.55
31.63
31.85
32.34
33.10
34.05
35.01
35.80
36.25
36.25
35.73
34.70
33.20
31.35
29.34
27.36
25.59
24.08
22.76
21.50
20.19
18.82
17.47
16.28
15.30
14.47
13.64
12.63
11.32
9.72
7.92
6.04
4.15
2.18
0.03
-2.45
-5.32
-8.55
-11.99
-15.48
-18.84
-21.99
-24.89
-27.53
-29.96
-32.29
-34.72
-37.56
-41.10
-45.52
-50.71
-56.20
-61.13
-64.51
-65.42
-63.33
-58.26
-50.78
-41.83
-32.44
-23.40
-15.11
-7.61
-0.65
6.03
12.62
19.12
25.40
31.24
36.37
40.57
43.64
45.52
46.29
46.24
45.78
45.33
45.26
45.73
46.73
48.05
49.38
50.40
50.83
50.56
49.66
48.38
47.01
45.87
45.09
44.66
44.44
44.19
43.74
42.99
41.97
40.80
39.64
38.60
37.70
36.91
36.15
35.39
34.60
33.76
32.80
31.61
30.09
28.19
25.99
23.68
21.43
19.34
17.38
15.41
13.24
10.75
7.90
4.79
1.51
-1.84
-5.22
-8.61
-12.04
-15.59
-19.39
-23.65
-28.58
-34.25
-40.49
-46.80
-52.35
-56.19
-57.50
-55.88
-51.47
-44.96
-37.34
-29.62
-22.57
-16.62
-11.80
-7.89
-4.62
-1.81
0.59
2.46
3.69
4.25
4.17
3.65
2.84
1.95
1.12
0.49
0.16
0.20
0.58
1.15
1.64
1.77
1.35
0.33
-1.18
-2.91
-4.62
-6.06
-7.09
-7.65
-7.82
-7.77
-7.74
-7.90
-8.38
-9.14
-10.09
-11.09
-12.08
-13.13
-14.38
-15.98
-17.96
-20.25
-22.69
-25.12
-27.45
-29.71
-31.96
-34.35
-36.97
-39.95
-43.38
-47.31
-51.64
-55.97
-59.59
-61.59
-61.10
-57.65
-51.36
-42.92
-33.38
-23.79
-14.90
-7.08
-0.28
5.72
11.21
16.37
21.33
26.10
30.64
34.81
38.43
41.30
43.26
44.30
44.61
44.57
44.61
45.10
46.18
47.72
49.37
50.53
50.69
49.40
46.53
42.19
36.81
31.00
25.42
20.62
16.89
14.22
12.33
10.90
9.70
8.81
8.51
9.16
10.98
13.88
17.51
21.43
25.41
29.46
33.83
38.70
43.89
48.82
52.63
54.62
54.65
53.39
52.21
52.63
55.60
61.05
67.76
73.96
78.10
79.66
79.40
79.09
80.79
86.08
95.63
109.09
125.40
143.02
160.18
175.08
186.10
192.18
193.35
190.96
187.53
185.94
188.21
194.40
202.25
208.01
208.02
200.35
185.63
166.56
146.38
127.35
110.04
93.77
77.75
62.05
47.67
35.72
26.50
18.94
11.10
1.21
-11.37
-25.76
-40.02
-52.03
-60.33
-64.62
-65.66
-64.88
-63.83
-63.61
-64.57
-66.26
-67.60
-67.47
-65.24
-61.22
-56.75
-53.76
-54.08
-58.74
-67.54
-79.21
-92.10
-104.95
-117.61
-131.20
-147.87
-170.30
-201.22
-242.90
-296.31
-359.97
-429.13
-495.97
-551.15
-586.58
-598.09
-586.69
-557.73
-518.33
-474.46
-429.14
-382.42
-332.89
-279.72
-223.98
-168.65
-117.54
-73.90
-39.32
-13.53
5.12
18.71
28.79
35.98
40.26
41.68
40.96
39.64
39.49
41.66
46.03
51.21
55.23
56.52
54.65
50.52
45.92
42.77
42.24
44.38
48.12
51.75
53.59
52.58
48.59
42.37
35.20
28.32
22.52
17.83
13.55
8.59
2.01
-6.61
-16.86
-27.56
-37.11
-43.80
-46.17
-43.11
-34.27
-20.31
-3.15
14.29
28.87
38.28
41.94
41.17
38.44
36.20
35.80
37.17
39.34
41.22
42.35
43.00
43.71
44.78
46.01
46.86
46.90
46.12
44.97
44.09
44.02
44.82
46.02
46.87
46.62
44.85
41.71
37.84
34.10
31.18
29.35
28.29
27.36
25.81
23.23
19.67
15.58
11.51
7.86
4.67
1.68
-1.44
-4.97
-9.00
-13.49
-18.39
-23.60
-28.88
-33.75
-37.43
-39.03
-37.82
-33.65
-26.96
-18.80
-10.34
-2.55
4.08
9.60
14.31
18.50
22.17
25.06
26.76
27.09
26.20
24.63
23.10
22.26
22.38
23.31
24.83
26.76
29.24
32.61
36.97
42.01
46.99
51.13
53.95
55.35
55.38
53.82
50.21
44.01
35.20
24.58
13.62
3.86
-3.78
-9.23
-13.20
-16.49
-19.61
-22.62
-25.47
-28.27
-31.46
-35.68
-41.33
-48.17
-55.24
-61.06
-63.92
-62.60
-56.73
-46.94
-34.69
-21.79
-9.78
0.49
8.90
15.90
22.03
27.64
32.82
37.39
41.20
44.14
46.27
47.68
48.51
48.87
48.84
48.57
48.25
48.01
47.89
47.84
47.72
47.42
46.90
46.17
45.23
44.00
42.33
40.05
37.09
33.57
29.78
26.04
22.61
19.56
16.78
14.06
11.18
7.97
4.36
0.40
-3.80
-8.07
-12.13
-15.77
-18.93
-21.78
-24.79
-28.56
-33.57
-39.90
-47.04
-53.87
-58.94
-60.90
-58.91
-52.92
-43.70
-32.50
-20.74
-9.53
0.60
9.61
17.89
26.00
34.46
43.43
52.49
60.60
66.31
68.35
66.21
60.50
52.87
45.36
39.62
36.35
35.25
35.46
36.08
36.61
36.91
37.02
36.83
36.09
34.54
32.12
29.12
26.03
23.27
21.16
19.63
18.38
17.01
15.21
12.84
10.00
6.93
3.92
1.16
-1.22
-3.30
-5.20
-7.13
-9.29
-11.86
-14.96
-18.60
-22.75
-27.22
-31.69
-35.68
-38.54
-39.59
-38.36
-34.64
-28.72
-21.22
-13.02
-4.94
2.35
8.50
13.38
17.09
19.76
21.56
22.65
23.15
23.21
22.93
22.43
21.85
21.33
20.97
20.85
20.95
21.20
21.45
21.51
21.23
20.45
19.12
17.27
14.99
12.50
10.01
7.72
5.72
3.96
2.25
0.35
-1.94
-4.69
-7.75
-10.86
-13.76
-16.27
-18.42
-20.44
-22.70
-25.50
-28.98
-32.99
-37.04
-40.39
-42.23
-41.93
-39.18
-34.18
-27.56
-20.15
-12.81
-6.15
-0.45
4.29
8.22
11.54
14.36
16.70
18.48
19.64
20.19
20.22
19.89
19.34
18.69
17.96
17.19
16.43
15.84
15.60
15.82
16.46
17.28
17.92
18.05
17.46
16.15
14.23
11.91
9.41
6.90
4.53
2.34
0.34
-1.61
-3.64
-5.85
-8.29
-10.89
-13.49
-15.94
-18.10
-19.98
-21.69
-23.50
-25.71
-28.56
-32.15
-36.27
-40.43
-43.86
-45.73
-45.36
-42.45
-37.13
-30.01
-21.92
-13.76
-6.26
0.10
5.22
9.26
12.51
15.31
17.85
20.21
22.30
23.99
25.10
25.57
25.45
24.89
24.16
23.49
23.07
22.96
23.12
23.41
23.67
23.77
23.63
23.24
22.63
21.80
20.73
19.42
17.92
16.38
14.97
13.80
12.95
12.29
11.63
10.81
9.72
8.42
7.02
5.70
4.46
3.28
2.03
0.62
-0.92
-2.53
-4.09
-5.57
-7.02
-8.50
-10.07
-11.68
-13.29
-14.91
-16.70
-18.97
-21.92
-25.53
-29.35
-32.59
-34.34
-33.88
-30.92
-25.68
-18.84
-11.26
-3.76
3.05
8.86
13.63
17.48
20.60
23.11
25.12
26.68
27.85
28.71
29.34
29.81
30.17
30.44
30.65
30.90
31.32
32.04
33.09
34.39
35.63
36.49
36.65
35.97
34.55
32.64
30.55
28.42
26.29
24.07
21.72
19.27
16.83
14.46
12.14
9.72
7.03
4.02
0.75
-2.57
-5.72
-8.61
-11.28
-13.93
-16.77
-20.02
-23.77
-28.03
-32.72
-37.62
-42.43
-46.72
-49.98
-51.71
-51.57
-49.51
-45.78
-40.92
-35.59
-30.35
-25.57
-21.38
-17.78
-14.73
-12.25
-10.40
-9.21
-8.60
-8.40
-8.32
-8.11
-7.60
-6.78
-5.71
-4.45
-3.07
-1.60
-0.12
1.26
2.38
3.13
3.42
3.28
2.81
2.09
1.18
0.13
-1.03
-2.25
-3.46
-4.63
-5.75
-6.87
-8.05
-9.35
-10.78
-12.31
-13.90
-15.49
-17.05
-18.56
-20.05
-21.59
-23.25
-25.15
-27.43
-30.25
-33.74
-37.89
-42.36
-46.51
-49.48
-50.41
-48.81
-44.69
-38.67
-31.68
-24.69
-18.40
-13.12
-8.71
-4.82
-1.09
2.74
6.63
10.40
13.79
16.63
18.91
20.72
22.21
23.41
24.33
24.96
25.34
25.67
26.15
26.94
28.03
29.24
30.26
30.86
30.91
30.42
29.52
28.40
27.24
26.24
25.54
25.17
25.11
25.22
25.32
25.23
24.88
24.23
23.32
22.23
21.04
19.81
18.55
17.29
16.01
14.65
13.21
11.72
10.33
9.20
8.47
8.05
7.59
6.53
4.28
0.48
-4.73
-10.71
-16.44
-20.81
-22.90
-22.23
-18.79
-13.07
-5.80
2.12
9.89
16.88
22.81
27.61
31.33
34.01
35.64
36.17
35.68
34.41
32.77
31.09
29.62
28.37
27.31
26.38
25.61
25.08
24.86
24.93
25.14
25.27
25.13
24.57
23.53
21.99
20.01
17.66
15.05
12.30
9.52
6.81
4.22
1.79
-0.48
-2.65
-4.77
-6.96
-9.28
-11.76
-14.32
-16.90
-19.41
-21.87
-24.36
-27.07
-30.20
-33.88
-38.10
-42.68
-47.27
-51.39
-54.50
-56.06
-55.69
-53.23
-48.89
-43.19
-36.88
-30.68
-25.15
-20.54
-16.83
-13.86
-11.48
-9.63
-8.36
-7.73
-7.65
-7.94
-8.24
-8.23
-7.68
-6.54
-4.94
-3.13
-1.35
0.17
1.34
2.13
2.59
2.74
2.62
2.21
1.54
0.65
-0.36
-1.43
-2.49
-3.52
-4.54
-5.56
-6.58
-7.62
-8.72
-9.96
-11.42
-13.13
-15.04
-17.05
-19.01
-20.84
-22.54
-24.16
-25.90
-27.98
-30.65
-34.04
-38.07
-42.37
-46.25
-48.86
-49.45
-47.57
-43.33
-37.28
-30.26
-23.16
-16.64
-11.03
-6.36
-2.39
1.24
4.81
8.49
12.19
15.73
18.82
21.27
23.02
24.18
24.92
25.50
26.10
26.82
27.73
28.83
30.09
31.40
32.57
33.39
33.69
33.45
32.81
32.09
31.60
31.53
31.83
32.19
32.22
31.64
30.54
29.32
28.55
28.61
29.50
30.74
31.66
31.70
30.70
28.96
27.04
25.60
25.11
25.83
27.73
30.36
32.85
33.85
31.87
25.74
15.18
1.16
-14.27
-28.63
-39.83
-46.89
-50.15
-50.78
-50.10
-48.82
-46.79
-43.21
-37.15
-28.17
-16.63
-3.66
9.35
21.09
30.73
37.96
42.78
45.36
46.06
45.39
44.13
43.05
42.61
42.66
42.58
41.57
39.28
36.13
33.09
31.24
31.16
32.66
35.05
37.64
40.05
42.19
43.94
45.07
45.35
44.93
44.64
45.69
49.29
55.83
64.75
74.64
83.91
91.42
96.82
100.47
103.06
105.23
107.32
109.29
110.78
111.21
109.99
106.79
101.68
95.25
88.34
81.61
75.36
69.25
62.56
54.48
44.53
32.68
19.32
5.10
-9.43
-23.81
-37.76
-51.03
-63.38
-74.61
-84.60
-93.40
-101.21
-108.33
-115.07
-121.83
-129.08
-137.47
-147.69
-160.15
-174.53
-189.49
-202.75
-211.61
-213.90
-208.83
-197.32
-181.76
-165.03
-149.55
-136.56
-126.08
-117.46
-110.00
-103.37
-97.58
-92.69
-88.43
-84.15
-79.04
-72.59
-64.89
-56.67
-49.06
-42.98
-38.76
-35.92
-33.46
-30.30
-25.81
-20.13
-13.96
-8.12
-3.07
1.37
5.71
10.40
15.30
19.74
22.81
23.94
23.23
21.44
19.55
18.34
18.10
18.85
20.55
23.41
27.91
34.56
43.54
54.57
67.03
80.17
93.45
106.65
119.79
133.00
146.22
159.17
171.51
183.16
194.63
207.14
222.24
241.24
264.50
291.09
318.83
344.78
365.93
379.81
384.95
381.02
368.72
349.61
325.77
299.43
271.96
244.44
217.99
193.60
171.83
152.63
135.52
119.82
104.94
89.75
73.62
56.71
39.83
23.77
8.85
-5.00
-18.05
-30.52
-44.25
-60.21
-77.79
-95.06
-110.19
-122.33
-131.49
-138.14
-142.83
-150.77
-165.29
-185.56
-207.27
-226.20
-240.46
-250.18
-256.30
-259.71
-270.74
-295.80
-332.80
-372.68
-406.77
-431.21
-446.37
-454.33
-457.17
-471.83
-509.06
-566.03
-628.95
-684.64
-727.71
-759.50
-784.04
-805.34
-846.51
-922.29
-1029.67
-1151.08
-1269.35
-1376.76
-1473.74
-1564.07
-1523.11
-1291.94
-910.51
-489.57
-121.27
162.99
374.21
536.08
667.76
778.56
849.73
866.98
835.10
776.68
716.60
670.10
640.86
627.04
624.42
613.76
582.66
532.57
475.41
421.93
375.96
336.46
302.11
273.45
242.66
205.14
163.26
125.10
96.19
78.52
71.12
72.21
79.66
86.22
86.08
77.75
64.07
49.12
36.02
26.26
20.48
18.57
18.41
18.33
17.98
18.20
19.98
24.06
30.89
40.80
53.78
69.18
85.77
102.28
117.78
132.21
146.28
160.85
176.41
192.98
210.42
228.46
246.40
262.41
273.39
275.76
267.08
247.54
220.45
191.07
164.46
143.46
128.01
116.06
105.30
94.58
84.16
74.94
67.35
60.85
54.20
46.35
37.09
27.10
17.46
9.19
2.61
-2.65
-7.35
-12.25
-17.74
-23.72
-29.76
-35.29
-39.96
-43.79
-47.11
-50.43
-54.22
-58.68
-63.72
-69.00
-74.15
-78.93
-83.48
-88.24
-93.83
-100.66
-108.62
-116.84
-123.84
-127.83
-127.33
-121.68
-111.19
-97.05
-80.88
-64.29
-48.50
-34.21
-21.66
-10.74
-1.22
7.21
14.78
21.63
27.77
33.10
37.58
41.21
44.15
46.63
48.88
51.11
53.41
55.87
58.51
61.33
64.23
67.00
69.34
70.94
71.62
71.37
70.38
68.95
67.38
65.84
64.34
62.78
61.00
58.85
56.31
53.42
50.31
47.12
43.94
40.75
37.47
34.02
30.33
26.41
22.28
18.00
13.62
9.16
4.64
0.01
-4.76
-9.71
-14.89
-20.28
-25.77
-31.19
-36.36
-41.21
-45.94
-50.97
-56.91
-64.27
-73.21
-83.24
-93.21
-101.43
-106.13
-105.93
-100.24
-89.50
-74.98
-58.44
-41.69
-26.12
-12.53
-1.15
8.25
16.10
22.90
28.99
34.59
39.67
44.08
47.57
49.95
51.25
51.65
51.52
51.26
51.17
51.44
52.08
53.00
54.04
55.04
55.79
56.06
55.64
54.40
52.35
49.66
46.58
43.39
40.32
37.45
34.80
32.28
29.80
27.26
24.62
21.90
19.15
16.42
13.76
11.17
8.62
5.97
3.16
0.10
-3.21
-6.69
-10.24
-13.76
-17.19
-20.52
-23.80
-27.16
-30.84
-35.14
-40.32
-46.41
-53.04
-59.35
-64.12
-66.07
-64.23
-58.33
-48.82
-36.81
-23.67
-10.68
1.24
11.61
20.27
27.31
32.85
37.02
39.91
41.63
42.37
42.43
42.23
42.23
42.90
44.51
47.12
50.51
54.28
58.03
61.49
64.60
67.53
70.48
73.60
76.85
80.02
82.93
85.51
88.00
90.83
94.48
99.27
105.18
111.83
118.72
125.32
131.31
136.57
141.35
146.29
152.54
161.45
174.15
190.90
210.70
231.33
249.82
263.29
269.64
267.97
258.62
242.94
222.83
200.48
177.95
156.96
138.63
123.38
111.06
101.16
93.05
86.21
80.26
75.08
70.82
67.83
66.49
66.98
69.14
72.39
76.00
79.40
82.55
85.91
90.24
96.09
103.33
110.93
117.12
119.84
117.32
108.53
93.08
71.16
43.03
8.66
-32.28
-80.38
-136.43
-201.10
-274.40
-354.90
-438.90
-520.34
-591.50
-644.69
-674.42
-679.08
-661.35
-627.21
-583.89
-537.77
-493.15
-452.03
-414.85
-381.35
-351.15
-323.84
-298.79
-275.11
-251.84
-228.37
-204.85
-182.19
-162.01
-145.72
-133.92
-125.99
-120.20
-114.17
-105.67
-93.33
-76.98
-57.62
-36.92
-16.66
1.82
17.90
31.64
43.59
54.35
64.30
73.47
81.61
88.31
93.26
96.42
98.00
98.41
98.09
97.37
96.40
95.24
93.93
92.60
91.43
90.58
90.01
89.53
88.78
87.42
85.31
82.55
79.43
76.30
73.37
70.65
67.99
65.22
62.23
59.07
55.86
52.73
49.78
47.02
44.41
41.92
39.53
37.21
34.93
32.62
30.21
27.63
24.79
21.62
18.09
14.22
10.14
6.06
2.17
-1.41
-4.71
-7.94
-11.33
-15.15
-19.61
-24.84
-30.83
-37.35
-43.83
-49.28
-52.55
-52.57
-48.76
-41.31
-31.09
-19.44
-7.72
3.03
12.19
19.56
25.21
29.30
32.02
33.55
34.13
33.99
33.41
32.68
32.04
31.68
31.71
32.13
32.90
33.92
35.06
36.20
37.13
37.64
37.51
36.57
34.73
32.11
28.91
25.46
22.09
19.09
16.60
14.61
12.91
11.18
9.14
6.59
3.51
0.01
-3.67
-7.31
-10.72
-13.79
-16.53
-19.04
-21.55
-24.43
-28.05
-32.69
-38.36
-44.67
-50.81
-55.71
-58.30
-57.76
-53.83
-46.83
-37.66
-27.49
-17.47
-8.47
-0.90
5.26
10.35
14.78
18.90
22.84
26.52
29.74
32.28
34.04
35.04
35.42
35.37
35.09
34.75
34.50
34.49
34.79
35.40
36.21
36.95
37.34
37.13
36.25
34.78
32.94
30.95
29.00
27.15
25.36
23.58
21.79
20.01
18.28
16.61
14.98
13.30
11.47
9.38
7.03
4.46
1.78
-0.90
-3.50
-6.01
-8.45
-10.85
-13.26
-15.68
-18.15
-20.65
-23.18
-25.76
-28.42
-31.29
-34.52
-38.31
-42.68
-47.35
-51.70
-54.85
-55.83
-53.94
-48.98
-41.36
-32.01
-22.16
-12.96
-5.25
0.67
5.00
8.27
11.12
14.04
17.23
20.58
23.79
26.55
28.66
30.10
30.95
31.36
31.40
31.20
30.79
30.32
29.91
29.69
29.67
29.79
29.90
29.86
29.57
29.00
28.18
27.16
26.01
24.77
23.52
22.31
21.19
20.15
19.14
18.07
16.88
15.60
14.28
13.00
11.81
10.66
9.48
8.21
6.86
5.51
4.28
3.23
2.32
1.43
0.40
-0.85
-2.32
-3.86
-5.30
-6.55
-7.58
-8.54
-9.62
-11.00
-12.72
-14.68
-16.69
-18.46
-19.84
-20.81
-21.48
-22.11
-23.05
-24.61
-27.07
-30.47
-34.51
-38.55
-41.71
-43.04
-41.89
-38.08
-32.02
-24.53
-16.66
-9.33
-3.17
1.59
5.06
7.52
9.31
10.70
11.84
12.78
13.51
13.95
14.12
14.03
13.77
13.44
13.14
12.93
12.83
12.86
13.00
13.22
13.50
13.77
13.90
13.77
13.30
12.45
11.30
9.99
8.68
7.49
6.42
5.38
4.21
2.79
1.07
-0.82
-2.70
-4.38
-5.82
-7.10
-8.42
-9.97
-11.84
-13.95
-16.12
-18.11
-19.78
-21.16
-22.43
-23.85
-25.70
-28.16
-31.29
-34.90
-38.64
-41.96
-44.21
-44.75
-43.11
-39.20
-33.33
-26.24
-18.87
-12.12
-6.58
-2.39
0.71
3.18
5.49
7.87
10.29
12.52
14.31
15.50
16.12
16.36
16.43
16.50
16.64
16.81
16.96
17.12
17.35
17.75
18.34
18.99
19.48
19.53
19.01
17.98
16.68
15.43
14.41
13.63
12.94
12.14
11.14
10.01
8.94
8.08
7.47
6.99
6.45
5.70
4.73
3.60
2.39
1.16
-0.13
-1.54
-3.06
-4.64
-6.17
-7.58
-8.91
-10.28
-11.84
-13.64
-15.65
-17.73
-19.75
-21.60
-23.28
-24.86
-26.47
-28.28
-30.50
-33.30
-36.76
-40.65
-44.48
-47.50
-48.88
-48.03
-44.79
-39.48
-32.79
-25.60
-18.69
-12.62
-7.65
-3.74
-0.64
1.99
4.47
7.00
9.62
12.23
14.62
16.59
17.99
18.80
19.09
19.02
18.79
18.59
18.63
19.03
19.80
20.82
21.83
22.55
22.78
22.47
21.77
20.94
20.20
19.67
19.33
19.07
18.77
18.38
17.87
17.24
16.51
15.70
14.83
13.98
13.23
12.60
12.03
11.39
10.54
9.45
8.20
7.01
6.08
5.49
5.19
4.92
4.37
3.27
1.49
-0.90
-3.72
-6.68
-9.58
-12.25
-14.69
-16.96
-19.21
-21.68
-24.56
-27.99
-31.93
-36.06
-39.84
-42.53
-43.45
-42.12
-38.47
-32.88
-26.02
-18.71
-11.73
-5.63
-0.69
3.09
5.86
7.86
9.32
10.38
11.11
11.57
11.79
11.81
11.67
11.38
11.04
10.75
10.72
11.07
11.88
13.03
14.24
15.22
15.67
15.49
14.73
13.54
12.10
10.54
8.91
7.22
5.48
3.72
1.99
0.36
-1.09
-2.36
-3.43
-4.37
-5.29
-6.30
-7.51
-9.00
-10.80
-12.89
-15.20
-17.63
-20.03
-22.28
-24.36
-26.35
-28.50
-31.15
-34.60
-38.96
-43.97
-48.95
-52.94
-54.92
-54.19
-50.52
-44.30
-36.39
-27.81
-19.52
-12.14
-5.90
-0.72
3.68
7.60
11.30
14.90
18.44
21.82
24.88
27.40
29.18
30.12
30.31
30.00
29.55
29.31
29.54
30.27
31.40
32.65
33.73
34.39
34.50
34.06
33.15
31.90
30.48
28.97
27.49
26.09
24.83
23.68
22.58
21.41
20.07
18.50
16.81
15.14
13.64
12.35
11.21
10.07
8.77
7.27
5.60
3.88
2.21
0.60
-1.03
-2.79
-4.80
-7.11
-9.69
-12.42
-15.14
-17.71
-20.04
-22.14
-24.15
-26.31
-28.86
-32.01
-35.75
-39.79
-43.54
-46.24
-47.03
-45.31
-40.87
-33.99
-25.42
-16.14
-7.12
0.90
7.58
12.95
17.29
20.98
24.32
27.48
30.44
33.09
35.31
37.02
38.26
39.11
39.66
40.02
40.24
40.42
40.63
40.97
41.47
42.08
42.64
42.98
42.95
42.50
41.69
40.64
39.43
38.11
36.69
35.20
33.66
32.14
30.62
29.09
27.42
25.52
23.36
20.99
18.54
16.20
14.07
12.17
10.40
8.60
6.60
4.33
1.77
-0.98
-3.81
-6.60
-9.37
-12.19
-15.22
-18.61
-22.47
-26.81
-31.49
-36.18
-40.38
-43.44
-44.73
-43.84
-40.74
-35.83
-29.86
-23.66
-17.91
-13.02
-9.06
-5.94
-3.57
-1.92
-0.99
-0.77
-1.13
-1.83
-2.59
-3.13
-3.30
-3.03
-2.37
-1.42
-0.34
0.73
1.70
2.50
3.09
3.46
3.54
3.30
2.77
2.04
1.29
0.71
0.32
0.03
-0.39
-1.12
-2.22
-3.55
-4.90
-6.05
-6.94
-7.63
-8.30
-9.10
-10.10
-11.32
-12.74
-14.35
-16.12
-18.03
-19.99
-21.86
-23.58
-25.20
-26.98
-29.23
-32.22
-35.97
-40.06
-43.80
-46.27
-46.72
-44.77
-40.54
-34.58
-27.67
-20.62
-14.03
-8.27
-3.47
0.45
3.68
6.48
9.11
11.74
14.42
17.05
19.38
21.15
22.22
22.64
22.66
22.59
22.74
23.27
24.18
25.37
26.69
27.99
29.14
30.08
30.77
31.25
31.61
31.97
32.42
33.01
33.74
34.57
35.48
36.52
37.72
39.10
40.63
42.25
43.92
45.70
47.72
50.17
53.23
56.95
61.23
65.85
70.45
74.67
78.30
81.28
83.77
86.08
88.57
91.58
95.33
99.97
105.47
111.63
118.02
124.00
128.95
132.46
134.42
134.99
