27.38
29.4
31.24
32.74
33.46
32.9
30.96
28.32
26.48
27.28
32.42
43.02
59.49
81.54
108.1
137.23
166.17
191.76
211.16
222.66
226.07
222.54
213.84
201.42
185.91
167.15
144.57
117.62
86.19
50.68
12.21
-27.11
-64.18
-95.38
-117.61
-129.63
-132.63
-129.83
-125.2
-121.82
-120.96
-122.19
-124.38
-126.67
-129.15
-132.45
-137
-142.48
-147.82
-151.84
-153.96
-154.61
-154.93
-156.18
-159.07
-163.53
-168.9
-174.25
-178.66
-181.4
-181.8
-179.24
-173.13
-163.16
-149.28
-131.94
-111.91
-90.19
-67.88
-46.03
-25.51
-6.98
9.21
22.96
34.38
43.67
51.03
56.66
60.72
63.5
65.3
66.37
66.89
66.95
66.61
65.91
65.02
64.09
63.25
62.48
61.62
60.44
58.7
56.29
53.24
49.66
45.69
41.45
36.93
32.11
26.9
21.21
15
8.31
1.26
-5.93
-12.97
-19.63
-25.79
-31.53
-37.13
-42.96
-49.41
-56.69
-64.69
-72.97
-80.67
-86.69
-89.84
-89.1
-83.85
-74.04
-60.21
-43.39
-24.87
-5.94
12.28
28.93
43.38
55.26
64.33
70.61
74.29
75.77
75.67
74.66
73.42
72.39
71.75
71.36
70.96
70.31
69.32
68.08
66.74
65.42
64.06
62.41
60.24
57.36
53.81
49.83
45.7
41.58
37.44
33.04
28.12
22.49
16.24
9.64
3.09
-3.12
-8.89
-14.3
-19.64
-25.19
-31.15
-37.61
-44.48
-51.51
-58.17
-63.63
-66.92
-67.04
-63.29
-55.47
-44.01
-29.82
-14.06
2.06
17.53
31.46
43.14
52.01
57.66
59.98
59.27
56.23
51.86
47.19
43.06
39.89
37.72
36.3
35.28
34.39
33.49
32.52
31.42
30.09
28.38
26.11
23.13
19.37
14.89
9.79
4.28
-1.38
-6.99
-12.43
-17.72
-23
-28.45
-34.27
-40.57
-47.39
-54.64
-61.98
-68.8
-74.16
-76.95
-76.12
-70.96
-61.43
-48.14
-32.23
-15.06
2.12
18.28
32.72
44.87
54.32
60.75
64.05
64.48
62.59
59.14
54.96
50.67
46.62
42.92
39.53
36.43
33.63
31.21
29.25
27.73
26.54
25.44
24.15
22.4
20.05
17.05
13.55
9.78
5.91
2.02
-1.97
-6.23
-10.94
-16.2
-22.01
-28.37
-35.27
-42.76
-50.79
-59.03
-66.71
-72.66
-75.6
-74.46
-68.78
-58.81
-45.41
-29.78
-13.12
3.54
19.46
34.01
46.66
56.9
64.35
68.84
70.55
69.92
67.6
64.23
60.33
56.31
52.42
48.85
45.76
43.21
41.12
39.26
37.3
34.91
31.9
28.23
24.04
19.52
14.81
9.91
4.74
-0.81
-6.77
-13.03
-19.41
-25.68
-31.69
-37.4
-42.87
-48.31
-53.96
-60.06
-66.69
-73.61
-80.22
-85.51
-88.3
-87.53
-82.52
-73.23
-60.23
-44.55
-27.44
-10.15
6.28
21.05
33.58
43.52
50.68
55.06
56.89
56.58
54.68
51.8
48.5
45.17
42.08
39.27
36.72
34.33
32.04
29.83
27.71
25.69
23.66
21.45
18.76
15.37
11.23
6.47
1.36
-3.79
-8.82
-13.73
-18.65
-23.76
-29.22
-35.1
-41.45
-48.2
-55.17
-61.87
-67.54
-71.15
-71.7
-68.49
-61.36
-50.73
-37.53
-22.89
-7.96
6.32
19.12
29.82
37.9
43.03
45.18
44.68
42.22
38.67
34.85
31.39
28.59
26.47
24.89
23.66
22.58
21.53
20.39
19.06
17.45
15.47
13.01
10.01
6.43
2.24
-2.48
-7.63
-13.04
-18.48
-23.78
-28.87
-33.83
-38.91
-44.42
-50.63
-57.67
-65.35
-73.11
-80.13
-85.31
-87.58
-86.02
-80.19
-70.25
-56.94
-41.39
-24.85
-8.41
7.19
21.48
34.12
44.78
53.12
58.88
62.02
62.83
61.86
59.73
56.99
54.02
51.03
48.15
45.49
43.18
41.29
39.75
38.35
36.78
34.73
32.06
28.78
25.07
21.11
16.97
12.58
7.72
2.17
-4.14
-11.07
-18.26
-25.29
-31.77
-37.56
-42.74
-47.59
-52.49
-57.8
-63.75
-70.29
-77.07
-83.31
-87.94
-89.77
-87.78
-81.45
-70.95
-57.05
-40.96
-23.93
-7.04
8.94
23.48
36.15
46.54
54.31
59.31
61.72
61.99
60.79
58.77
56.41
53.96
51.53
49.18
46.99
45.11
43.64
42.63
41.97
41.47
40.86
39.92
38.48
36.51
34.08
31.34
28.49
25.63
22.76
19.76
16.42
12.62
8.37
3.84
-0.67
-4.82
-8.36
-11.25
-13.65
-15.95
-18.67
-22.33
-27.33
-33.75
-41.22
-48.92
-55.71
-60.3
-61.62
-59.04
-52.56
-42.74
-30.62
-17.41
-4.3
7.74
17.98
25.86
31.04
33.38
33
30.32
26.06
21.08
16.22
12.11
9.09
7.19
6.15
5.65
5.27
4.74
3.89
2.76
1.5
0.26
-0.92
-2.23
-3.96
-6.42
-9.73
-13.76
-18.2
-22.69
-27.04
-31.28
-35.57
-40.16
-45.21
-50.76
-56.74
-62.9
-68.86
-73.9
-77.1
-77.42
-74.03
-66.56
-55.26
-40.94
-24.78
-8.02
8.27
23.22
36.18
46.68
54.4
59.28
61.54
61.67
60.32
58.09
55.43
52.57
49.58
46.48
43.4
40.53
38.07
36.15
34.68
33.43
32.02
30.12
27.53
24.22
20.3
15.95
11.3
6.45
1.39
-3.93
-9.56
-15.47
-21.59
-27.71
-33.63
-39.14
-44.18
-48.92
-53.71
-59.02
-65.2
-72.27
-79.77
-86.8
-92.15
-94.57
-93.1
-87.25
-77.08
-63.24
-46.74
-28.78
-10.48
7.25
23.72
38.39
50.8
60.54
67.3
71.06
72.16
71.2
68.93
65.95
62.69
59.32
55.93
52.66
49.77
47.46
45.86
44.85
44.14
43.35
42.13
40.25
37.58
34.14
29.97
25.14
19.8
14.09
8.19
2.21
-3.77
-9.77
-15.8
-21.84
-27.78
-33.45
-38.71
-43.51
-48
-52.48
-57.35
-62.9
-69.19
-75.87
-82.15
-86.89
-88.89
-87.22
-81.4
-71.68
-58.76
-43.76
-27.8
-11.88
3.18
16.78
28.38
37.52
43.82
47.11
47.52
45.54
41.97
37.73
33.66
30.35
28.01
26.53
25.66
25.08
24.57
23.94
23.11
21.95
20.35
18.2
15.42
12.01
7.99
3.46
-1.47
-6.65
-11.93
-17.13
-22.15
-26.95
-31.63
-36.38
-41.45
-46.96
-52.79
-58.53
-63.41
-66.48
-66.8
-63.67
-56.78
-46.32
-32.93
-17.61
-1.55
14.09
28.29
40.3
49.68
56.2
59.87
60.9
59.64
56.62
52.43
47.73
43.03
38.75
35.06
32.01
29.5
27.38
25.5
23.71
21.87
19.88
17.68
15.19
12.38
9.14
5.41
1.13
-3.67
-8.89
-14.39
-20.01
-25.62
-31.21
-36.83
-42.65
-48.84
-55.58
-62.9
-70.54
-77.96
-84.21
-88.19
-88.81
-85.31
-77.49
-65.72
-50.88
-34.12
-16.65
0.47
16.4
30.49
42.28
51.44
57.8
61.38
62.45
61.53
59.28
56.33
53.2
50.13
47.22
44.43
41.73
39.13
36.63
34.24
31.88
29.43
26.69
23.53
19.84
15.61
10.89
5.79
0.41
-5.17
-10.91
-16.8
-22.84
-29.01
-35.33
-41.86
-48.75
-56.09
-63.81
-71.5
-78.28
-83.01
-84.5
-81.91
-74.99
-64.09
-50.05
-33.95
-16.88
0.16
16.23
30.5
42.21
50.86
56.27
58.67
58.63
56.87
54.13
50.95
47.61
44.24
40.86
37.56
34.53
31.96
29.98
28.45
27.03
25.18
22.49
18.71
13.96
8.56
2.93
-2.63
-8.03
-13.3
-18.59
-24.03
-29.78
-35.95
-42.62
-49.74
-57
-63.75
-69.02
-71.67
-70.69
-65.51
-56.2
-43.46
-28.41
-12.33
3.59
18.31
31
40.98
47.79
51.27
51.69
49.67
46.11
41.89
37.72
33.96
30.7
27.91
25.54
23.55
21.9
20.45
18.97
17.13
14.61
11.23
6.95
1.94
-3.56
-9.26
-14.96
-20.57
-26.12
-31.77
-37.79
-44.41
-51.78
-59.72
-67.61
-74.4
-78.78
-79.5
-75.72
-67.28
-54.71
-39.07
-21.64
-3.66
13.82
29.95
43.98
55.32
63.52
68.39
70.13
69.26
66.54
62.74
58.46
54.09
49.78
45.6
41.66
38.06
34.94
32.3
30.01
27.82
25.4
22.47
18.88
14.59
9.64
4.14
-1.77
-7.98
-14.34
-20.75
-27.13
-33.49
-39.99
-46.82
-54.16
-61.92
-69.58
-76.16
-80.4
-81.03
-77.19
-68.68
-55.97
-40.04
-22.11
-3.42
14.91
31.94
46.86
58.97
67.81
73.2
75.29
74.53
71.61
67.26
62.14
56.73
51.37
46.25
41.5
37.2
33.37
29.94
26.7
23.33
19.52
15.01
9.68
3.52
-3.34
-10.72
-18.38
-26.03
-33.38
-40.22
-46.55
-52.61
-58.83
-65.66
-73.46
-82.32
-92.13
-102.54
-113
-122.7
-130.56
-135.3
-135.73
-131.06
-121.23
-106.98
-89.66
-70.79
-51.69
-33.34
-16.36
-1.15
11.97
22.85
31.54
38.39
44
49.08
54.38
60.62
68.48
78.58
91.26
106.45
123.46
141.15
158.14
173.32
186.14
196.73
205.73
213.93
221.88
229.75
237.39
244.41
250.43
254.99
257.51
257.21
253.21
244.78
231.68
214.43
194.3
173.08
152.62
134.35
118.95
106.18
94.92
83.38
69.21
49.82
22.88
-12.83
-56.69
-105.79
-155.23
-199.37
-233.35
-254.69
-263.78
-263.36
-257.12
-248.17
-238.19
-227.48
-215.65
-202.45
-188.17
-173.49
-158.96
-144.7
-130.42
-115.81
-100.93
-86.39
-73.15
-62.15
-53.83
-48.04
-44.12
-41.34
-39.17
-37.46
-36.4
-36.26
-37.24
-39.32
-42.25
-45.66
-49.28
-53.04
-57.13
-61.97
-67.96
-75.27
-83.56
-91.91
-98.87
-102.86
-102.54
-97.25
-87.24
-73.45
-57.28
-40.12
-23.1
-6.91
8.04
21.45
33.03
42.46
49.52
54.25
56.92
58.04
58.15
57.68
56.91
55.97
54.92
53.86
52.96
52.35
52.09
52.08
52.04
51.64
50.63
48.93
46.61
43.85
40.84
37.7
34.44
31.02
27.42
23.66
19.75
15.73
11.59
7.31
2.94
-1.44
-5.66
-9.64
-13.38
-17.02
-20.79
-24.87
-29.32
-34.04
-38.83
-43.54
-48.14
-52.72
-57.54
-62.84
-68.88
-75.73
-83.17
-90.62
-97.07
-101.25
-101.87
-97.99
-89.34
-76.36
-60.07
-41.81
-22.91
-4.48
12.68
28
41.12
51.77
59.77
65.08
67.91
68.73
68.28
67.33
66.55
66.26
66.38
66.59
66.53
65.98
64.96
63.62
62.14
60.57
58.83
56.77
54.34
51.53
48.42
45.1
41.59
37.84
33.81
29.45
24.79
19.9
14.92
9.92
4.95
0.03
-4.87
-9.78
-14.7
-19.6
-24.46
-29.23
-33.95
-38.78
-43.96
-49.74
-56.18
-62.92
-69.16
-73.72
-75.37
-73.17
-66.77
-56.57
-43.47
-28.68
-13.39
1.47
15.17
27.19
37.11
44.57
49.33
51.37
50.95
48.63
45.19
41.41
37.96
35.21
33.22
31.87
30.88
30.04
29.18
28.22
27.1
25.67
23.77
21.21
17.88
13.79
9.16
4.23
-0.74
-5.64
-10.46
-15.34
-20.38
-25.64
-31.07
-36.54
-41.98
-47.37
-52.82
-58.45
-64.19
-69.65
-74
-76.15
-75
-69.78
-60.41
-47.48
-32.13
-15.67
0.73
16.22
30.19
42.22
51.9
58.89
63.03
64.41
63.5
60.99
57.68
54.3
51.24
48.64
46.33
44.07
41.69
39.19
36.67
34.22
31.81
29.26
26.32
22.86
18.91
14.61
10.08
5.3
0.16
-5.45
-11.44
-17.56
-23.5
-29.04
-34.24
-39.38
-44.84
-50.94
-57.86
-65.6
-73.94
-82.44
-90.27
-96.32
-99.38
-98.38
-92.9
-83.19
-70.21
-55.31
-39.88
-25.1
-11.79
-0.46
8.71
15.69
20.62
23.71
25.16
25.18
24.02
22
19.5
17
14.92
13.7
13.65
14.97
17.66
21.49
25.95
30.37
34.09
36.65
37.95
38.18
37.65
36.56
34.94
32.72
29.96
26.86
23.8
21.06
18.69
16.47
13.94
10.65
6.29
0.79
-5.57
-12.17
-18.03
-21.9
-22.59
-19.22
-11.58
-0.13
14.08
29.7
45.31
59.59
71.23
79.02
81.94
79.45
71.66
59.45
44.21
27.59
11.15
-3.89
-16.71
-26.84
-34.14
-38.75
-40.93
-41.08
-39.56
-36.7
-32.73
-27.92
-22.55
-17
-11.58
-6.57
-2.08
1.87
5.36
8.37
10.88
12.77
13.82
13.81
12.51
9.75
5.53
0.12
-5.83
-11.36
-15.27
-16.44
-14.12
-8.14
1.03
12.5
25.15
37.86
49.72
59.99
68.04
73.24
75.01
73.08
67.52
58.9
48.09
36.09
23.79
11.82
0.53
-9.95
-19.52
-28
-35.17
-40.94
-45.29
-48.31
-50.14
-51.08
-51.43
-51.43
-51.26
-51.08
-51
-50.74
-49.38
-45.76
-39.02
-29.12
-16.79
-3.57
8.81
18.85
26.43
33.38
42.59
56.49
76.12
100.84
128.3
155.04
176.92
190.92
196.36
194.5
187.32
177.02
165.76
154.45
142.34
126.14
101.99
67.78
23.8
-27.66
-82.76
-136.61
-183.22
-211.62
-216.37
-202.3
-178.75
-152.75
-128.01
-108.24
-92.27
-79.72
-70.61
-65.64
-64.79
-66.65
-68.15
-67.73
-65.06
-60.33
-54.59
-49.03
-45.39
-44.73
-46.74
-50.28
-54.5
-58.93
-63.09
-66.91
-70.18
-72.76
-74.07
-72.81
-67.61
-57.91
-44.09
-27.09
-8.48
10.13
27.24
41.84
53.62
62.68
69.12
73.04
74.69
74.38
72.52
69.53
65.76
61.59
57.3
53.09
49.12
45.6
42.64
40.29
38.45
36.93
35.43
33.64
31.26
28.12
24.25
19.86
15.29
10.84
6.6
2.42
-2.03
-7.06
-12.75
-18.88
-25
-30.66
-35.62
-39.9
-43.82
-47.81
-52.18
-57.14
-62.73
-68.82
-75.03
-80.66
-84.68
-85.88
-83.18
-76.04
-64.63
-49.89
-33.17
-15.91
0.67
15.74
28.76
39.38
47.31
52.41
54.64
54.26
51.74
47.79
43.18
38.62
34.63
31.45
29.05
27.26
25.84
24.58
23.37
22.12
20.72
19.04
16.89
14.17
10.81
6.9
2.59
-1.92
-6.43
-10.81
-15.01
-19.09
-23.19
-27.52
-32.27
-37.51
-43.07
-48.51
-53.12
-56.04
-56.44
-53.7
-47.59
-38.31
-26.41
-12.73
1.77
16.1
29.39
40.87
49.98
56.37
59.96
60.94
59.77
57.1
53.62
49.98
46.66
43.9
41.71
39.93
38.36
36.75
34.95
32.87
30.46
27.72
24.66
21.35
17.86
14.26
10.56
6.66
2.42
-2.34
-7.62
-13.32
-19.18
-24.92
-30.38
-35.61
-40.87
-46.52
-52.89
-60.02
-67.57
-74.69
-80.23
-82.92
-81.75
-76.25
-66.58
-53.53
-38.22
-21.87
-5.55
9.95
24.06
36.39
46.65
54.62
60.14
63.2
63.97
62.82
60.31
57.03
53.55
50.27
47.37
44.86
42.65
40.64
38.77
37.01
35.31
33.53
31.49
29
25.9
22.15
17.78
12.94
7.81
2.52
-2.81
-8.11
-13.33
-18.45
-23.46
-28.42
-33.47
-38.79
-44.6
-50.99
-57.83
-64.64
-70.56
-74.51
-75.39
-72.44
-65.47
-54.92
-41.76
-27.16
-12.21
2.2
15.52
27.32
37.25
45.01
50.33
53.17
53.72
52.41
49.79
46.44
42.85
39.35
36.15
33.33
30.86
28.64
26.61
24.73
22.99
21.34
19.6
17.53
14.86
11.41
7.23
2.55
-2.37
-7.29
-12.14
-16.96
-21.82
-26.75
-31.74
-36.81
-42.02
-47.44
-52.97
-58.2
-62.39
-64.61
-63.99
-60.04
-52.79
-42.8
-30.99
-18.41
-6.02
5.35
15.15
22.95
28.49
31.7
32.7
31.84
29.69
26.9
24.06
21.55
19.48
17.76
16.23
14.77
13.4
12.24
11.33
10.55
9.65
8.25
6.03
2.87
-1.16
-5.76
-10.58
-15.29
-19.65
-23.57
-27.21
-30.85
-34.9
-39.67
-45.23
-51.22
-56.9
-61.17
-62.94
-61.35
-56.01
-47.12
-35.35
-21.68
-7.19
7.12
20.42
32.1
41.71
49.02
53.91
56.47
56.93
55.65
53.14
49.94
46.55
43.34
40.51
38.07
35.91
33.89
31.89
29.85
27.68
25.28
22.48
19.17
15.3
10.94
6.25
1.4
-3.47
-8.29
-13.03
-17.66
-22.1
-26.37
-30.5
-34.65
-39.05
-43.91
-49.28
-54.85
-59.98
-63.74
-65.07
-63.11
-57.39
-48.08
-35.86
-21.79
-7.05
7.31
20.49
31.92
41.24
48.23
52.82
55.17
55.58
54.58
52.72
50.48
48.17
45.91
43.67
41.39
39.12
36.92
34.93
33.19
31.62
30.04
28.2
25.96
23.26
20.16
16.74
13.03
9.01
4.58
-0.26
-5.45
-10.77
-15.96
-20.83
-25.35
-29.65
-33.98
-38.62
-43.8
-49.56
-55.7
-61.75
-66.93
-70.28
-70.8
-67.71
-60.77
-50.36
-37.47
-23.42
-9.49
3.31
14.37
23.37
30.14
34.58
36.68
36.59
34.68
31.56
27.9
24.25
20.98
18.23
15.98
14.17
12.72
11.55
10.56
9.56
8.36
6.72
4.51
1.67
-1.74
-5.55
-9.57
-13.57
-17.39
-20.97
-24.36
-27.71
-31.33
-35.49
-40.36
-45.8
-51.33
-56.11
-59.16
-59.57
-56.76
-50.6
-41.39
-29.85
-16.86
-3.42
9.53
21.2
31.01
38.58
43.78
46.63
47.31
46.13
43.56
40.17
36.59
33.37
30.82
28.94
27.49
26.11
24.51
22.55
20.25
17.7
14.95
12
8.75
5.11
1
-3.55
-8.47
-13.63
-18.91
-24.2
-29.47
-34.7
-39.91
-45.2
-50.69
-56.5
-62.6
-68.65
-73.92
-77.36
-77.88
-74.66
-67.48
-56.81
-43.68
-29.35
-14.95
-1.33
10.99
21.76
30.79
37.94
43.09
46.2
47.44
47.15
45.85
44.13
42.51
41.39
40.86
40.82
40.97
41.05
40.85
40.32
39.43
38.14
36.35
33.9
30.7
26.86
22.59
18.2
13.89
9.7
5.47
0.95
-4.09
-9.67
-15.7
-21.95
-28.27
-34.67
-41.34
-48.49
-56.16
-64.01
-71.23
-76.7
-79.31
-78.3
-73.53
-65.41
-54.74
-42.42
-29.26
-15.91
-2.94
9.06
19.5
27.87
33.84
37.38
38.76
38.47
37.11
35.21
33.24
31.51
30.22
29.43
29.06
28.89
28.66
28.11
27.16
25.92
24.67
23.69
23.17
23.08
23.27
23.46
23.33
22.63
21.14
18.79
15.66
12
8.07
3.98
-0.35
-5.26
-11.16
-18.24
-26.25
-34.45
-41.75
-47.05
-49.52
-48.77
-44.89
-38.27
-29.51
-19.24
-8.21
2.78
12.83
21.05
26.74
29.59
29.76
27.83
24.65
21.05
17.6
14.6
12.02
9.76
7.73
5.96
4.54
3.56
3.01
2.74
2.49
1.98
0.97
-0.7
-3.1
-6.2
-9.85
-13.77
-17.59
-21.04
-23.98
-26.58
-29.26
-32.54
-36.8
-42.04
-47.71
-52.81
-56.09
-56.43
-53.13
-46.19
-36.19
-24.09
-10.98
2.21
14.78
26.18
35.96
43.69
49.11
52.17
53.16
52.66
51.33
49.72
48.22
46.95
45.98
45.32
45.01
45.06
45.42
45.98
46.63
47.27
47.85
48.31
48.46
48
46.58
43.91
39.89
34.63
28.33
21.25
13.55
5.34
-3.31
-12.31
-21.61
-31.2
-41.09
-51.22
-61.3
-70.69
-78.35
-83.13
-84.03
-80.58
-72.99
-62.07
-48.95
-34.76
-20.47
-6.75
5.85
16.87
25.92
32.75
37.34
39.89
40.75
40.31
38.94
36.94
34.53
31.94
29.33
26.82
24.45
22.21
20.06
17.93
15.71
13.26
10.46
7.17
3.35
-0.95
-5.6
-10.48
-15.4
-20.24
-24.87
-29.18
-33.07
-36.49
-39.44
-41.98
-44.3
-46.69
-49.46
-52.78
-56.56
-60.29
-63.02
-63.64
-61.13
-54.95
-45.18
-32.51
-18.01
-2.85
11.94
25.59
37.5
47.31
54.75
59.68
62.19
62.57
61.34
59.13
56.59
54.19
52.16
50.48
48.98
47.45
45.79
44
42.19
40.45
38.8
37.15
35.26
32.89
29.84
26.05
21.6
16.65
11.41
6.02
0.54
-5.07
-10.87
-16.92
-23.24
-29.81
-36.53
-43.28
-49.82
-55.69
-60.19
-62.47
-61.74
-57.53
-49.86
-39.32
-26.86
-13.6
-0.59
11.26
21.23
28.77
33.5
35.28
34.23
30.84
25.82
20.02
14.24
9.08
4.87
1.68
-0.6
-2.15
-3.1
-3.56
-3.58
-3.31
-3.01
-3
-3.57
-4.88
-6.9
-9.48
-12.48
-15.81
-19.49
-23.62
-28.29
-33.59
-39.55
-46.18
-53.35
-60.67
-67.45
-72.66
-75.16
-74.07
-69.01
-60.21
-48.47
-34.81
-20.3
-5.85
7.77
19.86
29.8
37.12
41.64
43.56
43.41
41.92
39.79
37.48
35.21
32.97
30.7
28.42
26.26
24.46
23.19
22.41
21.87
21.13
19.79
17.6
14.59
10.96
6.94
2.72
-1.65
-6.18
-10.87
-15.62
-20.32
-24.85
-29.22
-33.61
-38.3
-43.6
-49.66
-56.38
-63.36
-69.83
-74.81
-77.24
-76.28
-71.42
-62.7
-50.63
-36.12
-20.25
-4.07
11.46
25.62
37.85
47.82
55.33
60.3
62.83
63.14
61.63
58.83
55.28
51.53
47.97
44.86
42.27
40.11
38.16
36.2
33.96
31.32
28.25
24.78
21
17.01
12.85
8.53
3.99
-0.85
-6.06
-11.64
-17.47
-23.37
-29.12
-34.66
-40.05
-45.54
-51.46
-58.08
-65.39
-73.09
-80.54
-86.83
-90.92
-91.84
-88.87
-81.76
-70.85
-57.03
-41.52
-25.7
-10.78
2.3
12.95
20.92
26.26
29.26
30.32
29.9
28.38
26.09
23.37
20.51
17.86
15.74
14.36
13.81
13.9
14.22
14.33
13.91
12.84
11.16
8.92
6.13
2.75
-1.36
-6.35
-12.14
-18.35
-24.48
-29.97
-34.6
-38.3
-41.09
-43.02
-44.09
-43.8
-41.08
-34.68
-23.5
-7.13
14.39
40.73
70.77
102.43
133.42
161.82
185.87
204.35
215.93
220.2
218
210.6
199.14
185.5
172.19
161.16
153.39
147.48
141.21
132.43
118.53
96.25
63.8
21.66
-27.94
-81.26
-135.22
-186.49
-226.93
-245.73
-240.07
-217.92
-190.51
-170.02
-155.84
-146.28
-140.08
-136.7
-134.68
-134.79
-137
-139.45
-139.4
-133.91
-122.34
-105.17
-83.53
-59.6
-36.55
-16.52
0.16
14.09
26.45
37.06
45.47
51.38
54.36
53.78
49.96
44.27
38.48
34.16
31.55
30.31
29.9
29.75
29.15
27.83
25.98
23.88
21.76
19.37
16.47
12.97
8.92
4.26
-0.95
-6.6
-12.54
-18.57
-24.56
-30.37
-35.88
-41.07
-46.18
-51.58
-57.76
-65.04
-73.3
-81.86
-89.43
-94.38
-95.14
-90.59
-80.41
-65.09
-45.81
-24.11
-1.6
20.3
40.43
57.89
72.07
82.66
89.68
93.45
94.55
93.61
91.2
87.75
83.57
78.91
74.05
69.3
64.99
61.41
58.76
57.1
56.27
55.88
55.3
53.88
51.14
46.94
41.55
35.48
29.23
23.07
16.93
10.53
3.58
-3.96
-11.92
-19.93
-27.62
-34.76
-41.39
-47.77
-54.35
-61.54
-69.54
-78.12
-86.52
-93.47
-97.47
-97.11
-91.48
-80.42
-64.57
-45.21
-23.96
-2.43
17.97
36.16
51.41
63.25
71.52
76.33
78.05
77.28
74.72
71.06
66.94
62.89
59.26
56.3
54.1
52.59
51.54
50.66
49.61
48.16
46.18
43.62
40.47
36.69
32.21
27.05
21.26
15.03
8.58
2.12
-4.24
-10.46
-16.63
-22.81
-29.09
-35.5
-42.14
-49.12
-56.49
-64.05
-71.2
-76.91
-79.84
-78.74
-72.78
-61.92
-46.89
-29.03
-9.93
8.94
26.39
41.6
53.95
63.04
68.65
70.79
69.82
66.43
61.52
56.06
50.92
46.65
43.49
41.32
39.79
38.5
37.12
35.45
33.43
31.06
28.32
25.16
21.45
17.05
11.91
6.09
-0.27
-6.93
-13.61
-20.06
-26.06
-31.6
-36.86
-42.23
-48.26
-55.4
-63.84
-73.28
-82.84
-91.16
-96.66
-97.89
-93.92
-84.61
-70.65
-53.4
-34.48
-15.47
2.4
18.34
31.88
42.75
50.77
55.89
58.29
58.41
57.02
55.02
53.31
52.57
53.14
54.95
57.63
60.53
63.02
64.54
64.71
63.34
60.45
56.18
50.82
44.85
38.78
33.09
28.01
23.45
19.03
14.24
8.67
2.16
-5.14
-12.9
-20.76
-28.47
-35.88
-42.96
-49.79
-56.6
-63.74
-71.51
-79.99
-88.8
-97.03
-103.37
-106.43
-105.1
-98.8
-87.57
-72.01
-53.13
-32.13
-10.31
11.08
30.99
48.54
63.08
74.21
81.69
85.54
86.01
83.63
79.06
73
66.04
58.6
51.03
43.67
36.91
31.14
26.63
23.47
21.48
20.33
19.65
19.07
18.34
17.24
15.64
13.52
10.93
8.02
4.87
1.51
-2.16
-6.33
-11.12
-16.5
-22.27
-28.14
-33.82
-39.19
-44.37
-49.6
-55.17
-61.15
-67.24
-72.66
-76.29
-76.96
-73.82
-66.62
-55.84
-42.48
-27.74
-12.8
1.43
14.24
25.09
33.45
38.9
41.27
40.77
38.06
34.11
29.99
26.52
24.16
22.9
22.49
22.58
22.95
23.56
24.42
25.51
26.58
27.19
26.81
25.03
21.73
17.08
11.52
5.52
-0.54
-6.57
-12.65
-18.96
-25.62
-32.64
-39.91
-47.23
-54.38
-61.02
-66.62
-70.42
-71.49
-68.95
-62.34
-51.83
-38.31
-23.2
-8.08
5.7
17.23
26.11
32.33
36.11
37.67
37.25
35.22
32.08
28.46
25
22.21
20.41
19.67
19.7
19.98
19.94
19.17
17.53
15.16
12.3
9.27
6.18
2.75
-1.48
-6.83
-13.25
-20.33
-27.51
-34.33
-40.23
-45.08
-49.31
-53.76
-59.19
-65.88
-73.46
-81.04
-87.36
-90.3
-88.14
-80.35
-67.87
-52.46
-35.98
-19.97
-5.57
6.56
17.46
28.33
39.52
50.2
59.16
65.56
69.2
70.42
70.13
71.37
77.14
88.99
106.36
127.56
150.83
174.66
197.79
209
200.57
173.76
138.75
106.26
81.7
65.41
54.77
46.32
37.19
28.39
21.24
17.17
16.61
19.02
23.3
27.62
29.48
25.89
15
-3.3
-29.03
-61.13
-96.44
-129.58
-154.59
-167.08
-165.85
-152.31
-130.36
-105.09
-81.19
-61.57
-47.14
-37.51
-31.88
-29.5
-29.14
-29.39
-28.86
-26.57
-22.14
-15.92
-8.96
-2.66
1.81
4.03
4.36
3.57
2.43
1.35
0.26
-1.32
-4.02
-8.24
-13.94
-20.61
-27.51
-33.92
-39.49
-44.26
-48.65
-53.21
-58.33
-64.12
-70.42
-76.93
-83.41
-89.74
-95.91
-101.85
-107.2
-111.19
-112.74
-110.75
-104.54
-94.11
-80.16
-63.89
-46.63
-29.52
-13.44
0.97
13.21
22.86
29.67
33.69
35.3
35.19
34.11
32.71
31.42
30.38
29.6
29
28.5
28.04
27.61
27.17
26.72
26.18
25.45
24.33
22.65
20.25
17.07
13.18
8.73
3.95
-0.96
-5.86
-10.68
-15.49
-20.43
-25.71
-31.51
-37.87
-44.53
-50.88
-55.96
-58.66
-58.08
-53.77
-45.91
-35.24
-22.8
-9.6
3.54
16.02
27.36
37.04
44.54
49.44
51.7
51.73
50.3
48.34
46.56
45.31
44.5
43.84
43.01
41.88
40.49
38.94
37.33
35.64
33.72
31.45
28.73
25.49
21.71
17.34
12.33
6.69
0.56
-5.81
-12.16
-18.33
-24.33
-30.35
-36.73
-43.73
-51.39
-59.45
-67.22
-73.65
-77.51
-77.69
-73.47
-64.79
-52.26
-37.02
-20.38
-3.51
12.68
27.62
40.89
52.12
60.97
67.19
70.73
71.82
70.91
68.62
65.54
62.22
59.03
56.23
53.92
52.09
50.58
49.19
47.67
45.79
43.42
40.48
36.99
33.03
28.74
24.24
19.55
14.62
9.34
3.65
-2.43
-8.73
-15.05
-21.18
-27.04
-32.66
-38.21
-43.95
-50.09
-56.74
-63.74
-70.51
-76.1
-79.3
-78.94
-74.28
-65.21
-52.31
-36.67
-19.57
-2.24
14.32
29.36
42.31
52.74
60.42
65.33
67.69
67.97
66.75
64.63
62.13
59.6
57.22
55.06
53.16
51.51
50.15
49.04
48.02
46.85
45.24
42.97
40.03
36.5
32.58
28.39
23.97
19.19
13.93
8.15
1.95
-4.46
-10.8
-16.84
-22.47
-27.68
-32.63
-37.53
-42.67
-48.34
-54.65
-61.51
-68.39
-74.36
-78.23
-78.78
-75.17
-67.21
-55.48
-41.07
-25.38
-9.71
4.91
17.77
28.4
36.43
41.65
44.02
43.83
41.65
38.28
34.48
30.82
27.59
24.83
22.45
20.35
18.52
16.99
15.8
14.89
14.05
12.97
11.29
8.77
5.35
1.19
-3.43
-8.18
-12.83
-17.31
-21.66
-25.99
-30.46
-35.21
-40.33
-45.85
-51.62
-57.22
-61.89
-64.62
-64.41
-60.54
-52.79
-41.53
-27.59
-12.06
3.95
19.38
33.34
45.08
54.06
59.98
62.86
63.07
61.21
58.03
54.23
50.41
47
44.15
41.89
40.04
38.41
36.83
35.19
33.41
31.39
28.95
25.86
21.98
17.29
11.99
6.38
0.79
-4.61
-9.84
-15.05
-20.45
-26.12
-32
-37.94
-43.8
-49.55
-55.33
-61.4
-67.92
-74.81
-81.53
-87.1
-90.28
-89.9
-85.15
-75.88
-62.63
-46.44
-28.62
-10.44
7.04
23.04
37.03
48.66
57.73
64.13
67.94
69.4
68.94
67.11
64.5
61.59
58.71
56.03
53.6
51.45
49.6
48.06
46.86
45.87
44.88
43.59
41.69
38.99
35.47
31.31
26.79
22.17
17.6
13.05
8.37
3.41
-1.94
-7.65
-13.58
-19.57
-25.44
-31.05
-36.33
-41.23
-45.82
-50.25
-54.82
-59.94
-65.92
-72.84
-80.29
-87.32
-92.53
-94.49
-92.08
-84.9
-73.34
-58.47
-41.66
-24.23
-7.19
8.74
23.05
35.34
45.2
52.32
56.63
58.34
57.95
56.09
53.35
50.2
46.96
43.79
40.8
38.1
35.73
33.71
31.96
30.34
28.69
26.89
24.84
22.51
19.87
16.87
13.5
9.74
5.66
1.34
-3.14
-7.69
-12.3
-16.97
-21.73
-26.55
-31.46
-36.53
-41.89
-47.69
-53.93
-60.38
-66.42
-71.12
-73.46
-72.58
-68.03
-59.9
-48.76
-35.58
-21.43
-7.42
5.47
16.46
24.95
30.58
33.29
33.26
30.99
27.12
22.46
17.73
13.48
10
7.31
5.22
3.49
1.9
0.32
-1.32
-3.07
-5.03
-7.31
-10.05
-13.32
-17.08
-21.14
-25.13
-28.58
-31.04
-32.27
-32.42
-32.01
-31.8
-32.54
-34.63
-38.08
-42.53
-47.35
-51.78
-54.95
-55.94
-53.91
-48.32
-39.18
-27.2
-13.62
0.11
12.79
23.7
32.68
39.89
45.56
49.81
52.63
53.99
54.06
53.26
52.18
51.39
51.21
51.64
52.4
53.1
53.4
53.12
52.16
50.48
48.01
44.7
40.57
35.71
30.2
24.04
17.11
9.23
0.39
-9.19
-19.02
-28.53
-37.25
-44.97
-51.84
-58.18
-64.41
-70.87
-77.75
-85
-92.28
-98.92
-103.97
-106.34
-105.04
-99.52
-89.78
-76.46
-60.62
-43.53
-26.38
-10.14
4.46
16.96
27.08
34.73
40.1
43.6
45.96
48.06
50.72
54.53
59.62
65.67
72.03
77.97
82.93
86.62
89.07
90.49
91.04
90.8
89.63
87.4
84.02
79.55
74.26
68.49
62.53
56.5
50.34
43.8
36.64
28.7
20.05
11.04
2.13
-6.18
-13.59
-20.14
-26.19
-32.32
-39.19
-47.18
-56.26
-65.87
-75
-82.44
-87.05
-87.96
-84.76
-77.57
-66.95
-53.87
-39.51
-25.11
-11.74
-0.13
9.3
16.51
21.66
25.05
27.01
27.83
27.83
27.3
26.51
25.67
24.9
24.21
23.56
22.91
22.24
21.54
20.78
19.87
18.63
16.85
14.31
10.95
6.85
2.25
-2.57
-7.38
-12.02
-16.51
-20.86
-25.1
-29.15
-32.82
-35.88
-38.1
-39.46
-40.15
-40.59
-41.32
-42.8
-45.17
-48.1
-50.74
-51.95
-50.62
-46.07
-38.21
-27.59
-15.15
-1.94
11.19
23.58
34.75
44.23
51.54
56.27
58.22
57.54
54.75
50.67
46.16
41.99
38.66
36.31
34.8
33.76
32.76
31.47
29.77
27.75
25.61
23.49
21.3
18.75
15.48
11.26
6.13
0.5
-5.14
-10.36
-15.01
-19.28
-23.59
-28.34
-33.82
-40.08
-46.97
-54.24
-61.48
-68.12
-73.39
-76.33
-76.02
-71.79
-63.48
-51.51
-36.78
-20.47
-3.73
12.43
27.23
40.03
50.32
57.8
62.37
64.26
63.99
62.23
59.61
56.65
53.65
50.74
47.98
45.4
43.06
41.01
39.24
37.6
35.84
33.64
30.69
26.9
22.36
17.47
12.68
8.34
4.46
0.74
-3.3
-8.07
-13.69
-19.92
-26.32
-32.41
-37.95
-42.92
-47.59
-52.29
-57.35
-62.87
-68.73
-74.49
-79.45
-82.76
-83.54
-81.12
-75.16
-65.79
-53.56
-39.32
-24.13
-9.01
5.12
17.58
27.96
36.04
41.81
45.36
46.95
46.88
45.54
43.37
40.74
37.98
35.37
33.1
31.27
29.95
29.04
28.4
27.81
27.03
25.89
24.29
22.27
19.95
17.46
14.93
12.42
9.91
7.32
4.56
1.58
-1.65
-5.11
-8.76
-12.59
-16.59
-20.81
-25.33
-30.32
-35.9
-42.12
-48.78
-55.38
-61.11
-64.96
-66.03
-63.7
-57.87
-48.95
-37.68
-24.99
-11.74
1.28
13.35
23.79
31.93
37.28
39.68
39.42
37.19
33.88
30.37
27.21
24.65
22.61
20.94
19.54
18.37
17.45
16.81
16.32
15.8
15.03
13.79
11.98
9.56
6.61
3.25
-0.38
-4.14
-8
-11.99
-16.2
-20.7
-25.58
-30.84
-36.41
-42.17
-47.88
-53.19
-57.52
-60.21
-60.59
-58.19
-52.89
-44.94
-34.9
-23.47
-11.37
0.73
12.16
22.29
30.52
36.4
39.76
40.72
39.76
37.58
34.9
32.35
30.34
29.01
28.27
27.91
27.62
27.17
26.45
25.47
24.33
23.12
21.86
20.41
18.56
16.07
12.79
8.75
4.09
-1
-6.38
-12.02
-18.05
-24.57
-31.73
-39.51
-47.83
-56.44
-64.91
-72.59
-78.57
-81.8
-81.38
-76.79
-68.14
-56.19
-42.2
-27.52
-13.38
-0.66
10.09
18.5
24.36
27.62
28.43
27.25
24.78
21.76
18.83
16.31
14.15
12.1
9.89
7.51
5.11
2.88
0.98
-0.48
-1.54
-2.45
-3.54
-5.08
-7.1
-9.45
-11.78
-13.65
-14.47
-13.94
-12.17
-9.6
-6.86
-4.39
-2.64
-2.01
-2.71
-4.24
-6.03
-7.85
-9.8
-12.2
-14.67
-16.77
-17.9
-17.18
-12.76
-3.51
9.86
25.07
39.09
50.47
58.18
62.12
63.27
64.71
68.78
75.31
82.24
86.51
87.69
85.62
81.08
76.36
76.57
85.69
104.06
128.94
155.2
180.05
199.73
211.22
201.32
165.62
113.68
63.15
32.07
16.05
7.84
-1.75
-21.1
-54.05
-98.02
-147.63
-197.9
-244.55
-285.84
-305.93
-295.37
-259.04
-211.84
-165.63
-124.86
-93.99
-68.72
-47.91
-30.17
-16.69
-8.54
-3.01
3.83
15.08
30.88
49.41
66.46
79.6
86.28
85.59
79.22
70.78
63.7
59.35
57.65
56.63
55.03
51.3
44.67
35.83
26.44
18.13
11.5
6.49
1.95
-2.99
-9.23
-17.17
-26.36
-35.83
-44.58
-52.05
-58.03
-62.94
-67.29
-71.73
-76.78
-82.62
-89.07
-95.53
-101.12
-104.71
-105.29
-102.17
-95.12
-84.48
-71
-55.68
-39.5
-23.26
-7.64
6.78
19.48
30.01
38.02
43.43
46.44
47.52
47.35
46.61
45.77
45.06
44.48
43.97
43.53
43.28
43.39
43.9
44.58
44.99
44.59
43.01
40.18
36.35
31.96
27.43
23.02
18.78
14.58
10.22
5.5
0.32
-5.3
-11.2
-17.08
-22.61
-27.53
-31.74
-35.41
-38.91
-42.74
-47.35
-52.96
-59.41
-66.13
-72.16
-76.33
-77.5
-74.83
-68.01
-57.29
-43.47
-27.65
-10.98
5.57
21.29
35.69
48.41
59.09
67.44
73.34
76.87
78.4
78.44
77.5
75.98
74.09
71.96
69.67
67.38
65.27
63.47
61.98
60.64
59.18
57.33
54.95
52.04
48.7
45.11
41.41
37.67
33.9
30.08
26.14
22.03
17.7
13.09
8.19
3.03
-2.3
-7.62
-12.73
-17.5
-21.93
-26.12
-30.27
-34.59
-39.28
-44.51
-50.31
-56.59
-63.03
-69.02
-73.68
-76.07
-75.39
-71.22
-63.71
-53.53
-41.64
-29.03
-16.51
-4.64
6.18
15.58
23.19
28.64
31.82
32.88
32.31
30.8
29.01
27.36
26.03
24.97
24.07
23.26
22.53
21.9
21.33
20.72
19.88
18.67
17
14.89
12.4
9.61
6.59
3.42
0.14
-3.15
-6.43
-9.68
-12.96
-16.36
-19.95
-23.76
-27.77
-31.94
-36.19
-40.32
-43.94
-46.43
-47
-44.93
-39.78
-31.62
-21.04
-9.01
3.41
15.32
26.06
35.25
42.63
48.05
51.41
52.78
52.43
50.87
48.65
46.27
43.98
41.81
39.65
37.35
34.87
32.33
29.91
27.76
25.97
24.42
22.89
21.1
18.88
16.21
13.22
10.16
7.22
4.47
1.73
-1.29
-4.9
-9.2
-14.09
-19.23
-24.21
-28.71
-32.63
-36.15
-39.65
-43.57
-48.32
-53.97
-60.25
-66.45
-71.58
-74.57
-74.56
-71.11
-64.29
-54.66
-43.04
-30.37
-17.47
-4.99
6.59
16.93
25.79
32.98
38.38
41.93
43.67
43.71
42.31
39.77
36.44
32.7
28.92
25.45
22.58
20.48
19.14
18.41
18.01
17.65
17.13
16.35
15.26
13.86
12.12
10
7.51
4.68
1.6
-1.67
-5.1
-8.72
-12.55
-16.5
-20.46
-24.23
-27.65
-30.65
-33.31
-35.82
-38.46
-41.53
-45.32
-50.06
-55.79
-62.32
-69.14
-75.48
-80.36
-82.86
-82.25
-78.18
-70.73
-60.38
-47.95
-34.4
-20.71
-7.61
4.41
15.1
24.35
32.01
37.89
41.83
43.87
44.37
44.01
43.55
43.62
44.54
46.26
48.56
51.1
53.65
56
57.99
59.4
60.14
60.13
59.38
57.93
55.75
52.72
48.71
43.67
37.73
31.2
24.46
17.77
11.17
4.45
-2.67
-10.38
-18.62
-27.12
-35.53
-43.41
-50.35
-55.88
-59.47
-60.59
-58.88
-54.27
-47.09
-38.05
-27.97
-17.73
-8.04
0.57
7.68
12.94
16.1
17.18
16.45
14.43
11.65
8.59
5.71
3.36
1.76
0.89
0.58
0.49
0.16
-0.82
-2.74
-5.53
-8.94
-12.8
-17.05
-21.67
-26.58
-31.6
-36.52
-41.27
-45.45
-48.93
-52.11
-55.7
-60.27
-65.89
-71.99
-77.67
-81.93
-82.86
-79.04
-70.14
-57.13
-41.51
-24.68
-7.86
7.92
21.66
34.23
46.5
58.48
69.09
77.15
82.17
84.52
84.97
84.53
86.4
93.34
106.38
124.5
145.88
169
193.11
217.77
229.49
219.15
187.39
144.9
103.19
68.45
42.01
23.02
9.63
-0.45
-7.42
-11.92
-15.14
-18.89
-23.83
-30.76
-39.25
-48.59
-58.35
-66.98
-74.29
-81.18
-89.29
-99.52
-111.16
-122.07
-130.28
-135.33
-132.88
-122.66
-106.78
-88.64
-71.17
-56.02
-43.48
-33.41
-25.75
-19.95
-16.05
-13.68
-12.16
-10.64
-8.38
-4.96
-0.52
4.52
9.95
15.37
20.76
26.24
31.89
37.56
42.88
47.34
50.46
52.07
51.91
50.22
47.47
44.15
40.63
37.06
33.32
29.15
24.31
18.5
11.67
4.03
-4.08
-12.3
-20.35
-28.12
-35.61
-42.97
-50.52
-58.56
-67.33
-76.78
-86.44
-95.33
-102.14
-105.59
-104.79
-99.57
-90.41
-78.27
-64.28
-49.4
-34.36
-19.63
-5.63
7.26
18.58
27.88
34.8
39.18
41.09
40.92
39.3
37.02
34.79
33.11
32.13
31.71
31.54
31.27
30.71
29.8
28.56
27.03
25.19
22.97
20.25
16.98
13.19
8.95
4.38
-0.4
-5.34
-10.39
-15.49
-20.57
-25.58
-30.53
-35.53
-40.8
-46.52
-52.71
-59.06
-64.9
-69.23
-70.98
-69.3
-63.77
-54.54
-42.23
-27.87
-12.56
2.61
16.7
28.93
38.73
45.71
49.73
50.95
49.85
47.16
43.75
40.38
37.63
35.73
34.58
33.92
33.45
32.95
32.31
31.55
30.62
29.44
27.82
25.5
22.24
17.91
12.6
6.6
0.33
-5.78
-11.48
-16.77
-21.92
-27.32
-33.33
-40.13
-47.62
-55.35
-62.58
-68.27
-71.3
-70.61
-65.54
-56
-42.56
-26.34
-8.75
8.82
25.28
39.87
52.19
62.02
69.24
73.83
75.91
75.76
73.85
70.78
67.11
63.31
59.7
56.42
53.52
50.92
48.53
46.24
43.98
41.64
39.13
36.3
32.98
29.04
24.43
19.22
13.57
7.67
1.6
-4.63
-11.01
-17.49
-23.88
-29.96
-35.55
-40.71
-45.72
-51.03
-57.06
-63.9
-71.14
-77.77
-82.43
-83.68
-80.5
-72.55
-60.31
-44.86
-27.55
-9.66
7.79
24.07
38.64
51.03
60.85
67.81
71.84
73.14
72.21
69.71
66.38
62.83
59.46
56.45
53.81
51.51
49.48
47.71
46.11
44.52
42.66
40.25
37.08
33.12
28.6
23.83
19.06
14.44
9.87
5.19
0.22
-5.06
-10.55
-16.08
-21.48
-26.65
-31.64
-36.58
-41.71
-47.23
-53.33
-60.05
-67.17
-74.09
-79.83
-83.2
-83.07
-78.78
-70.38
-58.6
-44.63
-29.74
-14.97
-1.01
11.68
22.76
31.82
38.49
42.58
44.15
43.68
41.83
39.34
36.8
34.57
32.81
31.45
30.37
29.35
28.24
26.89
25.23
23.29
21.09
18.63
15.85
12.62
8.84
4.49
-0.32
-5.4
-10.53
-15.54
-20.38
-25.03
-29.52
-33.92
-38.32
-42.89
-47.73
-52.78
-57.66
-61.61
-63.63
-62.73
-58.32
-50.37
-39.45
-26.59
-12.92
0.51
12.96
23.94
33.12
40.3
45.33
48.16
48.98
48.18
46.3
43.95
41.6
39.54
37.85
36.49
35.34
34.34
33.41
32.52
31.56
30.35
28.66
26.28
23.1
19.14
14.53
9.46
4.12
-1.37
-6.97
-12.61
-18.18
-23.55
-28.61
-33.39
-37.99
-42.63
-47.56
-52.97
-58.93
-65.36
-71.89
-77.85
-82.29
-84.15
-82.57
-77.14
-68.11
-56.19
-42.39
-27.71
-12.96
1.21
14.24
25.63
34.99
42.07
46.91
49.78
51.1
51.32
50.83
49.9
48.7
47.37
46.03
44.86
44.03
43.71
43.95
44.7
45.74
46.77
47.49
47.67
47.23
46.2
44.7
42.85
40.68
38.16
35.14
31.53
27.24
22.33
16.96
11.32
5.6
-0.08
-5.72
-11.35
-16.99
-22.61
-28.14
-33.41
-38.29
-42.66
-46.48
-49.85
-52.96
-56.1
-59.58
-63.65
-68.42
-73.69
-78.95
-83.34
-85.8
-85.35
-81.33
-73.67
-62.91
-50.01
-36.12
-22.28
-9.23
2.59
12.88
21.43
28.09
32.78
35.63
36.97
37.26
36.97
36.38
35.65
34.77
33.78
32.72
31.76
31.03
30.64
30.56
30.61
30.6
30.31
29.59
28.4
26.76
24.74
22.4
19.79
16.92
13.8
10.39
6.64
2.55
-1.88
-6.54
-11.28
-15.87
-20.14
-24
-27.56
-31.05
-34.77
-39.02
-43.94
-49.42
-55.11
-60.44
-64.63
-66.87
-66.46
-63.03
-56.57
-47.53
-36.64
-24.8
-12.9
-1.7
8.22
16.43
22.63
26.67
28.62
28.76
27.62
25.84
24.06
22.73
22.02
21.89
22.11
22.48
22.88
23.28
23.67
23.98
23.98
23.39
22.02
19.83
16.97
13.73
10.36
6.96
3.46
-0.3
-4.47
-9.09
-14.05
-19.13
-24.11
-28.79
-33.09
-37.08
-40.95
-45
-49.51
-54.63
-60.11
-65.32
-69.25
-70.78
-69
-63.57
-54.76
-43.44
-30.71
-17.7
-5.24
6.17
16.23
24.77
31.64
36.71
39.97
41.58
41.92
41.42
40.53
39.55
38.62
37.71
36.78
35.8
34.84
34.03
33.45
33.11
32.87
32.49
31.71
30.35
28.38
25.9
23.14
20.28
17.41
14.47
11.29
7.65
3.44
-1.38
-6.68
-12.26
-17.89
-23.42
-28.78
-34.08
-39.5
-45.31
-51.66
-58.5
-65.37
-71.45
-75.65
-76.9
-74.45
-68.12
-58.33
-45.99
-32.2
-18.01
-4.23
8.6
20.11
30.01
38.07
44.04
47.83
49.57
49.62
48.54
46.92
45.21
43.65
42.26
40.93
39.55
38.11
36.72
35.5
34.5
33.56
32.38
30.62
28.05
24.68
20.82
16.91
13.35
10.31
7.6
4.87
1.69
-2.14
-6.55
-11.16
-15.55
-19.36
-22.47
-24.97
-27.16
-29.38
-32.04
-35.42
-39.62
-44.42
-49.18
-52.88
-54.4
-52.85
-47.85
-39.72
-29.28
-17.62
-5.81
5.39
15.47
24.12
31.08
36.07
38.87
39.41
37.87
34.71
30.6
26.22
22.11
18.62
15.84
13.71
12.13
11.02
10.35
10.05
9.99
9.92
9.55
8.57
6.8
4.17
0.8
-3.1
-7.23
-11.34
-15.24
-18.91
-22.49
-26.19
-30.29
-35.05
-40.59
-46.76
-53.05
-58.56
-62.15
-62.69
-59.49
-52.5
-42.37
-30.19
-17.13
-4.12
8.29
19.78
30.02
38.56
44.88
48.62
49.83
49.03
47.02
44.65
42.55
40.94
39.72
38.63
37.44
36.05
34.5
32.87
31.18
29.33
27.08
24.17
20.42
15.77
10.36
4.43
-1.77
-8.01
-14.19
-20.22
-26.07
-31.74
-37.29
-42.86
-48.55
-54.4
-60.21
-65.46
-69.34
-70.85
-69.15
-63.72
-54.58
-42.32
-27.92
-12.58
2.57
16.62
28.97
39.27
47.31
52.98
56.24
57.23
56.31
54.02
50.95
47.64
44.39
41.24
38.09
34.87
31.62
28.49
25.66
23.21
21
18.75
16.1
12.82
8.84
4.31
-0.52
-5.4
-10.21
-14.89
-19.47
-23.98
-28.41
-32.78
-37.13
-41.66
-46.52
-51.81
-57.39
-62.8
-67.31
-70.05
-70.21
-67.26
-61.04
-51.8
-40.14
-26.94
-13.16
0.22
12.37
22.7
30.9
36.91
40.94
43.24
44.11
43.75
42.36
40.14
37.35
34.37
31.59
29.37
27.95
27.39
27.56
28.2
28.94
29.44
29.39
28.61
27.07
24.85
22.11
19.04
15.84
12.61
9.42
6.23
2.93
-0.65
-4.68
-9.33
-14.7
-20.78
-27.47
-34.5
-41.4
-47.5
-52.02
-54.19
-53.5
-49.75
-43.16
-34.27
-23.82
-12.69
-1.71
8.39
17.04
23.9
28.84
31.9
33.24
33.13
31.86
29.79
27.35
24.99
23.05
21.7
20.91
20.45
20.05
19.45
18.52
17.21
15.55
13.54
11.15
8.4
5.34
2.17
-0.86
-3.55
-5.85
-7.92
-10.1
-12.84
-16.51
-21.31
-27.19
-33.77
-40.38
-46.14
-50.12
-51.51
-49.84
-45.02
-37.41
-27.66
-16.57
-4.93
6.54
17.21
26.59
34.27
40.03
43.82
45.76
46.12
45.2
43.38
40.98
38.3
35.64
33.21
31.15
29.47
28.12
27
25.99
24.96
23.75
22.16
20.04
17.35
14.19
10.73
7.1
3.32
-0.71
-5.13
-10.01
-15.23
-20.58
-25.78
-30.66
-35.21
-39.48
-43.56
-47.47
-51.26
-55.01
-58.88
-63
-67.34
-71.51
-74.69
-75.81
-73.84
-68.17
-58.81
-46.45
-32.19
-17.25
-2.65
10.95
23.2
33.92
42.97
50.13
55.21
58.16
59.15
58.6
57.09
55.15
53.19
51.41
49.89
48.6
47.44
46.32
45.09
43.61
41.8
39.7
37.42
35.09
32.78
30.45
28
25.32
22.4
19.33
16.16
12.89
9.42
5.54
1.13
-3.81
-9.06
-14.34
-19.38
-24.06
-28.39
-32.47
-36.42
-40.35
-44.43
-48.87
-53.88
-59.51
-65.53
-71.26
-75.78
-78.13
-77.59
-73.88
-67.2
-58.06
-47.13
-35.14
-22.83
-10.91
-0.08
9.15
16.49
21.91
25.69
28.21
29.8
30.67
30.81
30.17
28.74
26.65
24.2
21.97
20.49
20.12
20.82
22.15
23.47
24.17
23.88
22.57
20.59
18.39
16.21
13.93
11.28
7.96
3.75
-1.43
-7.6
-14.41
-21.47
-28.58
-35.84
-43.38
-51.15
-59.04
-66.84
-74.29
-80.29
-83.61
-83.43
-79.86
-73.41
-64.76
-54.67
-43.93
-33.27
-22.23
-10.27
2.39
14.27
23.95
30.79
34.97
37.2
38.43
41.07
47.45
58.82
74.49
93.67
115.74
140.01
165.31
181.8
181.47
163.58
135.73
106.32
80.7
60.63
45.71
34.67
25.92
19.29
14.15
9.5
0.75
-15.03
-38.03
-65.74
-94.12
-119.05
-136.43
-144.87
-140.28
-127.05
-111.44
-97.73
-86.68
-76.87
-68.34
-58.69
-47.2
-34.41
-22.35
-11.78
-2.28
6.87
16.07
24.48
31.54
36.64
39.55
39.75
37.84
35.02
32.33
30.17
28.33
26.72
25.13
23.67
22.27
21.38
21.48
22.65
24.37
25.75
26.1
24.93
22.32
18.51
14.16
9.87
5.89
2
-2.24
-7.18
-12.96
-19.34
-25.95
-32.33
-38.21
-43.65
-48.94
-54.52
-60.66
-67.49
-74.93
-82.65
-90.05
-96.25
-100.21
-100.82
-97.26
-89.22
-77.03
-61.62
-44.25
-26.2
-8.46
8.33
23.82
37.72
49.68
59.29
66.15
70.11
71.4
70.63
68.6
66.08
63.56
61.27
59.2
57.28
55.47
53.8
52.24
50.67
48.91
46.72
43.91
40.43
36.29
31.59
26.4
20.81
14.86
8.59
2.06
-4.66
-11.45
-18.19
-24.72
-30.98
-37
-42.92
-49.03
-55.57
-62.53
-69.55
-75.82
-80.3
-81.96
-80.09
-74.45
-65.3
-53.29
-39.22
-23.96
-8.46
6.36
19.5
30.09
37.56
41.8
43.22
42.64
41.05
39.36
38.3
38.25
39.37
41.57
44.66
48.35
52.33
56.37
60.3
64.03
67.45
70.32
72.33
73.09
72.33
70
66.28
61.5
55.91
49.59
42.41
34.14
24.57
13.7
1.72
-10.87
-23.34
-34.73
-43.93
-49.84
-51.55
-48.59
-41.06
-29.68
-15.69
-0.64
13.83
26.3
35.69
41.41
43.38
42.01
38.07
32.51
26.3
20.25
14.91
10.55
7.19
4.65
2.68
0.97
-0.77
-2.78
-5.18
-8.04
-11.36
-15.18
-19.55
-24.53
-30.07
-36.02
-42.07
-47.92
-53.39
-58.56
-63.72
-69.11
-74.79
-80.33
-84.85
-87.19
-86.23
-81.16
-71.71
-58.19
-41.48
-22.86
-3.91
13.78
28.71
39.78
46.37
48.45
46.51
41.47
34.44
26.49
18.49
11.03
4.41
-1.22
-5.87
-9.61
-12.55
-14.91
-16.94
-18.84
-20.73
-22.55
-24.12
-25.27
-25.97
-26.4
-26.9
-27.92
-29.89
-33.19
-37.98
-44.09
-50.94
-57.44
-62.18
-63.69
-60.92
-53.5
-41.91
-27.33
-11.26
4.79
19.6
32.27
42.2
49.06
52.78
53.61
52.1
49.06
45.34
41.67
38.51
36.01
34.11
32.66
31.45
30.28
28.87
26.98
24.41
21.08
17.08
12.62
7.86
2.9
-2.35
-8.11
-14.61
-22.09
-30.55
-39.65
-48.61
-56.23
-61.03
-61.62
-57.06
-47.17
-32.62
-14.77
4.66
24.01
41.94
57.46
69.97
79.08
84.6
86.55
85.24
81.32
75.65
69.2
62.8
57.02
52.12
48.18
45.16
42.98
41.51
40.5
39.54
38.14
35.82
32.3
27.54
21.72
15.08
7.84
0.06
-8.29
-17.34
-27.24
-38.17
-50.21
-63.24
-76.72
-89.56
-100.21
-106.85
-107.92
-102.49
-90.57
-73.07
-51.55
-27.82
-3.65
19.53
40.6
58.75
73.42
84.29
91.25
94.47
94.37
91.51
86.56
80.21
73.05
65.6
58.25
51.26
44.78
38.88
33.56
28.73
24.21
19.79
15.26
10.45
5.37
0.16
-5.04
-10.1
-15.06
-20.04
-25.13
-30.32
-35.44
-40.27
-44.64
-48.5
-52.05
-55.55
-59.38
-63.93
-69.47
-76.06
-83.3
-90.23
-95.44
-97.28
-94.38
-86.02
-72.42
-54.69
-34.45
-13.46
6.76
25.16
41.03
53.97
63.8
70.45
74.12
75.21
74.35
72.22
69.43
66.41
63.39
60.47
57.65
54.96
52.43
50.04
47.75
45.39
42.7
39.39
35.26
30.21
24.38
18.11
11.88
6.13
1.13
-3.01
-6.37
-9.08
-11.25
-12.98
-14.37
-15.62
-17.03
-19.02
-22.07
-26.62
-32.97
-41.11
-50.6
-60.56
-69.72
-76.61
-79.88
-78.57
-72.36
-61.64
-47.41
-31.03
-13.91
2.66
17.76
30.75
41.29
49.2
54.42
57.03
57.35
55.84
53.17
49.99
46.85
44.09
41.88
40.21
38.95
37.89
36.73
35.13
32.74
29.34
24.82
19.23
12.7
5.37
-2.54
-10.79
-19.01
-26.81
-33.89
-40.17
-45.78
-51.05
-56.27
-61.57
-66.92
-72.18
-77.3
-82.33
-87.33
-92.21
-96.61
-99.87
-101.09
-99.47
-94.47
-86.03
-74.61
-61.13
-46.74
-32.58
-19.62
-8.5
0.45
7.2
11.95
15.07
17.07
18.57
20.18
22.39
25.4
29.1
33.06
36.73
39.63
41.53
42.47
42.71
42.5
41.96
40.99
39.44
37.19
34.31
31.04
27.69
24.43
21.26
17.98
14.38
10.35
5.9
1.17
-3.67
-8.44
-12.89
-16.62
-19.07
-19.57
-17.52
-12.57
-4.75
5.54
17.56
30.42
43.17
54.94
64.97
72.73
77.9
80.48
80.66
78.8
75.36
70.7
65.14
58.89
52.13
45.07
37.98
31.1
24.66
18.76
13.31
8.09
2.75
-2.98
-9.32
-16.24
-23.57
-31.07
-38.44
-45.52
-52.25
-58.68
-64.99
-71.4
-78.09
-85.04
-91.95
-98.1
-102.56
-104.33
-102.62
-97.15
-88.13
-76.26
-62.56
-48.2
-34.36
-22.01
-11.89
-4.36
0.56
3.06
3.51
2.29
-0.2
-3.55
-7.41
-11.42
-15.28
-18.72
-21.48
-23.29
-23.94
-23.35
-21.64
-19.18
-16.48
-14.05
-12.3
-11.42
-11.4
-12.11
-13.38
-15.14
-17.37
-20.17
-23.57
-27.51
-31.73
-35.73
-38.84
-40.31
-39.45
-35.8
-29.24
-20.05
-8.91
3.22
15.26
26.13
34.91
40.96
44.03
44.21
42.01
38.17
33.48
28.66
24.18
20.3
17.1
14.63
12.88
11.82
11.26
10.89
10.37
9.38
7.76
5.52
2.79
-0.26
-3.49
-6.82
-10.23
-13.74
-17.4
-21.32
-25.59
-30.28
-35.27
-40.25
-44.66
-47.74
-48.75
-47.08
-42.4
-34.79
-24.74
-13.02
-0.63
11.41
22.2
31.03
37.51
41.53
43.26
43.09
41.53
39.17
36.5
33.97
31.89
30.44
29.66
29.44
29.57
29.79
29.89
29.71
29.23
28.48
27.47
26.16
24.44
22.27
19.63
16.58
13.22
9.63
5.84
1.87
-2.29
-6.67
-11.39
-16.64
-22.49
-28.76
-34.84
-39.76
-42.39
-41.85
-37.78
-30.46
-20.67
-9.35
2.56
14.31
25.2
34.58
41.84
46.48
48.34
47.62
44.88
40.85
36.21
31.51
27.11
23.22
19.94
17.27
15.19
13.61
12.35
11.18
9.81
7.95
5.34
1.86
-2.45
-7.49
-13.03
-18.82
-24.57
-30
-34.88
-39.04
-42.51
-45.54
-48.53
-51.88
-55.72
-59.78
-63.27
-65.11
-64.14
-59.48
-50.83
-38.51
-23.46
-6.99
9.45
24.57
37.41
47.36
54.19
57.94
58.88
57.39
53.93
48.98
43.06
36.66
30.26
24.23
18.85
14.22
10.28
6.85
3.69
0.59
-2.61
-6
-9.63
-13.51
-17.56
-21.65
-25.61
-29.31
-32.71
-35.98
-39.46
-43.5
-48.33
-53.79
-59.21
-63.53
-65.44
-63.81
-57.93
-47.77
-33.95
-17.6
-0.14
16.96
32.38
45.02
54.16
59.46
61.06
59.5
55.63
50.41
44.67
39.02
33.83
29.23
25.24
21.81
18.78
15.93
12.94
9.51
5.4
0.56
-4.89
-10.71
-16.66
-22.55
-28.34
-34.07
-39.83
-45.76
-51.95
-58.4
-64.94
-71.11
-76.19
-79.24
-79.32
-75.68
-68.01
-56.52
-41.94
-25.42
-8.34
7.89
22.04
33.21
40.89
45.07
46.16
44.99
42.61
40.15
38.55
38.38
39.72
42.16
45.02
47.54
49.17
49.65
49.05
47.6
45.61
43.27
40.65
37.71
34.32
30.39
25.9
20.9
15.52
9.9
4.07
-1.95
-8.11
-14.2
-19.65
-23.68
-25.37
-24.01
-19.29
-11.35
-0.67
12.17
26.58
41.95
57.47
72.06
84.35
92.93
96.68
95.15
88.66
78.3
65.65
52.49
40.39
30.39
22.91
17.6
13.7
10.26
6.49
1.94
-3.5
-9.78
-16.82
-24.6
-33.12
-42.26
-51.77
-61.25
-70.26
-78.4
-85.48
-91.43
-96.32
-100.25
-103.33
-105.53
-106.56
-105.85
-102.53
-95.61
-84.35
-68.48
-48.51
-25.62
-1.51
21.96
43.11
60.7
73.93
82.38
85.92
84.68
79.11
70.04
58.71
46.65
35.3
25.77
18.52
13.4
9.87
7.29
5.22
3.53
2.24
1.37
0.75
0.04
-1.21
-3.31
-6.36
-10.16
-14.4
-18.74
-22.99
-27.16
-31.42
-35.98
-40.94
-46.17
-51.24
-55.45
-57.88
-57.59
-53.76
-45.94
-34.14
-18.87
-1.13
17.8
36.46
53.5
67.79
78.63
85.71
89.21
89.57
87.46
83.5
78.26
72.19
65.66
58.99
52.43
46.1
40
33.99
27.93
21.7
15.25
8.51
1.4
-6.22
-14.46
-23.25
-32.28
-40.98
-48.63
-54.63
-58.64
-60.78
-61.55
-61.75
-62.26
-63.79
-66.62
-70.45
-74.34
-76.85
-76.4
-71.7
-62.2
-48.26
-31.08
-12.34
6.27
23.4
38.22
50.3
59.46
65.62
68.7
68.84
66.42
62.12
56.79
51.26
46.13
41.73
38.08
34.99
32.18
29.39
26.38
23.02
19.25
14.98
10.16
4.7
-1.46
-8.3
-15.68
-23.37
-31.1
-38.68
-46.06
-53.29
-60.44
-67.38
-73.71
-78.61
-81.07
-80.02
-74.69
-64.75
-50.49
-32.76
-12.77
8.07
28.36
46.9
62.71
75.05
83.46
87.73
88.01
84.82
79.07
71.91
64.63
58.23
53.23
49.53
46.52
43.4
39.55
34.74
29.17
23.33
17.66
12.37
7.29
2.04
-3.73
-10.13
-16.97
-23.84
-30.38
-36.48
-42.4
-48.63
-55.63
-63.56
-72.12
-80.52
-87.66
-92.33
-93.45
-90.29
-82.59
-70.65
-55.22
-37.38
-18.36
0.67
18.61
34.47
47.38
56.66
62.07
63.84
62.72
59.76
56.07
52.55
49.78
48.04
47.31
47.45
48.06
48.69
48.79
47.94
45.95
42.91
39.08
34.74
30.04
25
19.56
13.77
7.74
1.76
-3.9
-9.05
-13.64
-17.8
-21.82
-26.08
-30.96
-36.7
-43.21
-49.92
-55.77
-59.36
-59.37
-54.94
-45.99
-33.25
-18.02
-1.81
13.96
28.17
39.9
48.53
53.64
55.18
53.55
49.54
44.27
38.81
34.02
30.33
27.8
26.18
25.15
24.43
23.88
23.47
23.15
22.77
22.01
20.41
17.62
13.45
8.09
2
-4.22
-10.05
-15.25
-19.91
-24.37
-29.11
-34.57
-41.06
-48.58
-56.73
-64.7
-71.3
-75.23
-75.31
-70.86
-61.88
-49.12
-33.92
-17.84
-2.33
11.57
23.26
32.44
38.95
42.62
43.35
41.3
36.94
31.18
25.12
19.82
16
13.96
13.58
14.41
15.88
17.38
18.45
18.81
18.46
17.6
16.52
15.4
14.25
12.79
10.74
7.96
4.59
1
-2.39
-5.32
-7.85
-10.38
-13.55
-18.06
-24.43
-32.84
-42.88
-53.54
-63.3
-70.44
-73.46
-71.44
-64.26
-52.6
-37.71
-21.12
-4.34
11.36
25.06
36.29
44.98
51.45
56.16
59.62
62.27
64.35
65.91
66.84
66.84
65.56
62.74
58.39
52.88
46.86
41.06
35.96
31.59
27.52
23.11
17.91
11.88
5.51
-0.53
-5.64
-9.67
-12.96
-16.19
-20.1
-25.24
-31.82
-39.78
-48.77
-58.3
-67.63
-75.86
-81.96
-84.98
-84.32
-79.87
-72.07
-61.75
-49.97
-37.82
-26.26
-16.18
-8.25
-2.98
-0.56
-0.84
-3.33
-7.3
-11.88
-16.22
-19.65
-21.69
-22.18
-21.21
-19.18
-16.65
-14.35
-12.92
-12.88
-14.41
-17.37
-21.32
-25.72
-30.1
-34.22
-38.16
-42.21
-46.74
-51.98
-57.92
-64.16
-69.97
-74.28
-75.87
-73.65
-66.93
-55.7
-40.67
-23.13
-4.69
13.2
29.45
43.41
54.83
63.48
69.24
71.96
71.75
69.04
64.69
59.8
55.41
52.25
50.53
50.03
50.2
50.39
49.97
48.44
45.46
40.91
34.92
27.89
20.4
13.09
6.42
0.52
-4.84
-10.23
-16.38
-23.97
-33.34
-44.29
-55.9
-66.65
-74.7
-78.32
-76.36
-68.61
-55.8
-39.35
-21.01
-2.45
14.99
30.37
43.05
52.64
58.87
61.74
61.48
58.66
54.09
48.68
43.25
38.33
34.1
30.54
27.53
25.01
23.02
21.66
20.97
20.86
21.03
21.05
20.52
19.1
16.54
12.74
7.62
1.18
-6.49
-15.26
-24.9
-35.21
-46.09
-57.47
-69.29
-81.25
-92.67
-102.49
-109.37
-112.02
-109.56
-101.75
-89.08
-72.69
-54.08
-34.83
-16.37
0.19
14.14
25.15
33.23
38.71
42.16
44.4
46.34
48.85
52.54
57.59
63.75
70.42
76.89
82.55
87.05
90.3
92.34
93.3
93.2
91.98
89.47
85.47
79.85
72.61
63.91
54.06
43.43
32.36
21.03
9.49
-2.39
-14.81
-27.93
-41.73
-55.87
-69.62
-81.89
-91.33
-96.62
-96.81
-91.6
-81.49
-67.69
-51.84
-35.71
-20.81
-8.3
1.07
6.92
9.25
8.35
4.92
-0.12
-5.73
-10.95
-15.11
-17.87
-19.15
-19.06
-17.77
-15.55
-12.75
-9.89
-7.53
-6.15
-6
-6.97
-8.7
-10.71
-12.66
-14.49
-16.41
-18.88
-22.42
-27.44
-34.13
-42.25
-51.1
-59.39
-65.48
-67.63
-64.44
-55.28
-40.46
-21.24
0.5
22.62
43.2
60.72
74.25
83.44
88.4
89.57
87.59
83.24
77.39
70.84
64.33
58.36
53.14
48.59
44.5
40.6
36.76
33.02
29.44
25.99
22.48
18.5
13.65
7.68
0.63
-7.13
-15.06
-22.64
-29.63
-36.11
-42.51
-49.42
-57.31
-66.32
-76.06
-85.48
-93.04
-96.88
-95.33
-87.36
-72.94
-53.17
-29.97
-5.63
17.73
38.51
55.7
68.84
77.74
82.44
83.18
80.47
75.09
68.04
60.31
52.81
46.1
40.45
35.82
31.97
28.61
25.5
22.51
19.6
16.71
13.66
10.12
5.78
0.45
-5.79
-12.59
-19.5
-26.15
-32.4
-38.38
-44.35
-50.65
-57.53
-65.13
-73.33
-81.63
-89.03
-94.09
-95.22
-91.14
-81.28
-66.11
-46.97
-25.73
-4.31
15.64
32.94
46.8
56.71
62.47
64.13
62.22
57.66
51.65
45.46
40.07
36.05
33.51
32.27
32.06
32.64
33.84
35.47
37.22
38.66
39.25
38.5
36.15
32.2
26.93
20.73
14
6.96
-0.37
-8.11
-16.44
-25.43
-34.89
-44.31
-52.82
-59.27
-62.45
-61.33
-55.37
-44.74
-30.32
-13.57
3.71
19.83
33.35
43.28
49.11
50.79
48.67
43.47
36.14
27.75
19.32
11.66
5.3
0.43
-2.96
-5.07
-6.12
-6.4
-6.23
-5.98
-6.13
-7.13
-9.35
-12.96
-17.82
-23.52
-29.59
-35.62
-41.5
-47.46
-53.97
-61.55
-70.48
-80.55
-90.83
-99.82
-105.63
-106.5
-101.2
-89.43
-71.94
-50.34
-26.8
-3.5
17.69
35.48
49.15
58.43
63.38
64.28
61.58
55.99
48.42
39.94
31.62
24.24
18.24
13.65
10.25
7.77
6
4.85
4.21
3.87
3.48
2.63
0.99
-1.61
-5.1
-9.26
-13.84
-18.63
-23.56
-28.62
-33.85
-39.32
-45.09
-51.17
-57.37
-63.18
-67.65
-69.5
-67.38
-60.3
-47.97
-30.97
-10.6
11.36
33.13
53.2
70.43
84.12
93.84
99.46
101.13
99.36
94.92
88.75
81.82
74.89
68.49
62.82
57.85
53.48
49.62
46.16
43.07
40.2
37.39
34.4
31.05
27.23
22.93
18.2
13.1
7.64
1.8
-4.39
-10.8
-17.2
-23.34
-29.08
-34.48
-39.82
-45.52
-51.99
-59.42
-67.57
-75.75
-82.77
-87.25
-87.88
-83.81
-74.81
-61.32
-44.26
-24.9
-4.54
15.5
34.06
50.13
62.95
72.07
77.48
79.55
78.92
76.4
72.74
68.53
64.23
60.11
56.38
53.11
50.32
47.88
45.57
43.09
40.15
36.55
32.2
27.18
21.67
15.91
10.11
4.37
-1.35
-7.17
-13.23
-19.56
-26.11
-32.73
-39.25
-45.54
-51.51
-57.13
-62.41
-67.48
-72.6
-78.03
-83.9
-89.93
-95.33
-98.82
-98.99
-94.69
-85.35
-71.16
-52.98
-32.16
-10.26
11.2
30.86
47.73
61.18
70.96
77.16
80.1
80.34
78.55
75.49
71.92
68.45
65.51
63.3
61.82
60.93
60.43
60.04
59.46
58.38
56.54
53.75
49.97
45.25
39.72
33.52
26.7
19.3
11.28
2.59
-6.76
-16.64
-26.71
-36.49
-45.4
-52.96
-59.04
-63.88
-68.07
-72.32
-77.2
-82.96
-89.37
-95.78
-101.24
-104.64
-104.86
-100.98
-92.45
-79.35
-62.45
-43.21
-23.53
-5.34
9.75
20.73
27.25
29.54
28.24
24.22
18.45
11.92
5.56
0.14
-3.79
-5.93
-6.21
-4.7
-1.62
2.75
7.98
13.54
18.8
23.16
26.09
27.28
26.62
24.19
20.26
15.13
9.16
2.62
-4.36
-11.8
-19.88
-28.81
-38.67
-49.25
-59.89
-69.53
-76.79
-80.26
-78.77
-71.75
-59.41
-42.71
-23.24
-2.82
16.83
34.36
48.85
59.76
66.82
69.99
69.48
65.86
60.02
53.06
46.06
39.82
34.77
30.94
28.16
26.2
24.81
23.78
22.78
21.42
19.28
16.01
11.53
6.04
-0.06
-6.29
-12.3
-17.91
-23.23
-28.45
-33.89
-39.8
-46.38
-53.74
-61.7
-69.74
-76.88
-81.73
-82.82
-78.98
-69.7
-55.4
-37.3
-17.08
3.48
22.85
39.85
53.65
63.66
69.55
71.3
69.28
64.28
57.37
49.79
42.56
36.38
31.5
27.75
24.73
21.97
19.15
16.13
12.92
9.57
6.04
2.21
-2.1
-7.01
-12.43
-18.09
-23.62
-28.7
-33.21
-37.31
-41.32
-45.67
-50.72
-56.62
-63.19
-69.92
-75.93
-80.12
-81.28
-78.46
-71.14
-59.44
-44.13
-26.52
-8.21
9.25
24.56
36.83
45.6
50.77
52.53
51.41
48.13
43.6
38.73
34.27
30.66
27.99
26.21
25.14
24.74
25.01
26
27.61
29.58
31.48
32.84
33.25
32.51
30.67
27.97
24.69
21.02
17
12.45
7.05
0.46
-7.56
-17.03
-27.66
-38.71
-49.05
-57.24
-61.8
-61.51
-55.8
-44.93
-29.92
-12.37
5.91
23.26
38.3
50.02
57.77
61.21
60.43
55.91
48.6
39.71
30.5
22.04
14.93
9.38
5.26
2.33
0.37
-0.81
-1.39
-1.64
-1.93
-2.63
-4.05
-6.26
-9.14
-12.46
-15.94
-19.4
-22.8
-26.27
-30.08
-34.5
-39.7
-45.53
-51.41
-56.35
-59.1
-58.47
-53.76
-44.95
-32.76
-18.53
-3.78
10.07
21.95
31.17
37.45
40.76
41.28
39.38
35.62
30.72
25.48
20.69
16.89
14.38
13.13
12.86
13.13
13.47
13.52
13
11.83
10.02
7.69
5
2.06
-1.13
-4.75
-9.21
-14.98
-22.49
-31.84
-42.62
-53.86
-64.23
-72.23
-76.57
-76.41
-71.51
-62.22
-49.37
-34.07
-17.51
-0.82
15.08
29.44
41.81
51.93
59.85
65.79
70.15
73.4
75.89
77.94
79.68
81.26
82.8
84.39
86.03
87.47
88.2
87.51
84.66
79.14
70.88
60.28
48.16
35.43
22.85
10.83
-0.66
-11.97
-23.55
-35.67
-48.2
-60.46
-71.25
-79.03
-82.29
-79.98
-71.91
-58.9
-42.6
-25.09
-8.37
6.06
17.35
25.25
29.91
31.63
30.7
27.42
22.1
15.14
7.1
-1.34
-9.38
-16.29
-21.56
-24.96
-26.61
-26.86
-26.21
-25.11
-23.99
-23.18
-22.99
-23.62
-25.08
-27.21
-29.67
-32.14
-34.47
-36.8
-39.52
-43.04
-47.52
-52.72
-57.89
-61.89
-63.5
-61.55
-55.26
-44.41
-29.44
-11.37
8.3
27.95
46.04
61.41
73.27
81.28
85.4
85.86
83.16
78.04
71.45
64.35
57.57
51.62
46.65
42.5
38.87
35.44
32.05
28.63
25.23
21.86
18.44
14.79
10.72
6.12
1.07
-4.23
-9.47
-14.47
-19.21
-23.88
-28.88
-34.62
-41.46
-49.56
-58.72
-68.29
-77.15
-83.82
-86.71
-84.51
-76.64
-63.4
-46
-26.16
-5.7
13.82
31.31
46.07
57.67
65.81
70.42
71.68
70.14
66.67
62.21
57.58
53.29
49.43
45.92
42.57
39.28
36.04
32.95
30.06
27.31
24.45
21.1
16.84
11.44
4.93
-2.31
-9.74
-16.8
-23.2
-28.95
-34.35
-39.82
-45.71
-52.26
-59.52
-67.36
-75.39
-82.87
-88.72
-91.62
-90.3
-83.94
-72.4
-56.4
-37.27
-16.73
3.6
22.38
38.72
52.14
62.4
69.46
73.41
74.54
73.33
70.45
66.68
62.75
59.21
56.36
54.24
52.72
51.57
50.54
49.4
47.96
46.07
43.65
40.66
37.15
33.15
28.75
24.03
19.05
13.83
8.37
2.64
-3.33
-9.49
-15.73
-21.95
-28.11
-34.34
-40.94
-48.32
-56.78
-66.28
-76.19
-85.24
-91.76
-94.04
-90.88
-81.96
-67.94
-50.19
-30.45
-10.35
8.88
26.38
41.61
54.14
63.62
69.91
73.12
73.75
72.59
70.51
68.31
66.42
64.96
63.76
62.54
61.05
59.11
56.65
53.63
50
45.71
40.71
34.97
28.56
21.61
14.34
6.98
-0.28
-7.37
-14.28
-21.11
-27.92
-34.78
-41.74
-48.85
-56.17
-63.69
-71.22
-78.4
-84.85
-90.35
-95.08
-99.6
-104.47
-109.86
-115.23
-119.23
-120.14
-116.52
-107.79
-94.58
-78.58
-61.98
-46.81
-34.39
-25.12
-18.58
-13.89
-10.06
-6.25
-1.85
3.54
10.1
17.82
26.42
35.33
43.77
50.93
56.13
59
59.46
57.77
54.36
49.74
44.38
38.63
32.62
26.36
19.73
12.62
5
-3.01
-11.2
-19.21
-26.52
-32.42
-36.05
-36.52
-33.18
-25.85
-14.96
-1.55
12.96
27.11
39.65
49.61
56.42
59.86
60.02
57.34
52.53
46.4
39.74
33.11
26.85
21.1
15.92
11.37
7.5
4.29
1.54
-1.06
-3.9
-7.27
-11.25
-15.66
-20.23
-24.68
-28.87
-32.88
-36.94
-41.37
-46.45
-52.28
-58.7
-65.24
-71.15
-75.45
-77.15
-75.37
-69.57
-59.65
-46
-29.5
-11.39
6.9
23.97
38.61
50
57.78
62.01
63.11
61.73
58.62
54.52
50.07
45.75
41.85
38.5
35.63
33.09
30.7
28.29
25.75
22.96
19.79
16.06
11.59
6.21
-0.09
-7.13
-14.56
-22.01
-29.2
-36.13
-43.11
-50.57
-58.91
-68.09
-77.57
-86.19
-92.45
-94.82
-92.16
-83.98
-70.61
-53.11
-33.01
-12.03
8.3
26.77
42.63
55.43
65
71.32
74.55
74.99
73.17
69.68
65.19
60.28
55.44
50.96
47.02
43.65
40.74
38.17
35.76
33.37
30.84
28.01
24.6
20.33
15.01
8.58
1.23
-6.65
-14.64
-22.42
-29.87
-37.07
-44.27
-51.76
-59.78
-68.44
-77.53
-86.49
-94.31
-99.71
-101.31
-98.01
-89.3
-75.43
-57.4
-36.82
-15.47
4.95
23.08
38.01
49.19
56.43
59.76
59.52
56.33
51.03
44.63
38.05
31.98
26.79
22.52
19.04
16.2
14.01
12.51
11.81
11.81
12.17
12.36
11.77
10
6.97
2.98
-1.44
-5.82
-9.94
-13.94
-18.25
-23.42
-29.91
-37.85
-46.92
-56.3
-64.69
-70.54
-72.28
-68.81
-59.77
-45.76
-28.14
-8.76
10.51
28.16
43.12
54.81
63
67.69
69.13
67.77
64.35
59.79
55.04
50.93
47.88
45.93
44.83
44.2
43.72
43.2
42.52
41.62
40.34
38.49
35.86
32.28
27.71
22.16
15.79
8.81
1.48
-5.89
-13.07
-19.96
-26.65
-33.36
-40.44
-48.2
-56.78
-66.1
-75.72
-84.86
-92.43
-97.18
-97.88
-93.6
-83.95
-69.27
-50.58
-29.52
-7.91
12.47
30.22
44.51
54.93
61.48
64.38
64.01
60.94
55.9
49.79
43.47
37.69
32.89
29.16
26.34
24.12
22.19
20.31
18.41
16.51
14.63
12.74
10.69
8.29
5.39
1.91
-1.99
-6.1
-10.1
-13.74
-16.9
-19.61
-22.05
-24.57
-27.57
-31.45
-36.45
-42.44
-48.79
-54.41
-57.9
-57.89
-53.46
-44.39
-31.22
-15.11
2.5
20.2
36.86
51.67
64.15
74.01
81.07
85.28
86.7
85.58
82.36
77.65
72.13
66.42
61.05
56.34
52.34
48.93
45.85
42.77
39.37
35.44
30.83
25.48
19.39
12.55
5.03
-3.03
-11.41
-19.83
-28.11
-36.2
-44.22
-52.35
-60.68
-69.18
-77.62
-85.7
-93.35
-100.68
-108.03
-115.64
-123.43
-130.73
-136.37
-138.97
-137.32
-130.75
-119.24
-103.39
-84.21
-62.93
-40.87
-19.31
0.55
17.8
31.91
42.81
50.87
56.75
61.08
64.4
67.05
69.17
70.84
72.08
72.94
73.43
73.53
73.15
72.13
70.27
67.36
63.35
58.39
52.82
47.19
42.01
37.66
34.25
31.61
29.42
27.31
24.87
21.77
17.74
12.63
6.48
-0.41
-7.59
-14.56
-20.98
-26.73
-31.98
-37.04
-42.21
-47.71
-53.52
-59.36
-64.68
-68.64
-70.28
-68.71
-63.38
-54.25
-41.8
-26.96
-10.87
5.31
20.54
33.91
44.7
52.46
57.04
58.62
57.67
54.79
50.58
45.61
40.41
35.43
31.12
27.71
25.23
23.43
21.87
20.14
18
15.37
12.29
8.78
4.82
0.36
-4.48
-9.3
-13.53
-16.6
-18.3
-18.92
-19.24
-20.29
-22.94
-27.63
-34.14
-41.66
-49.01
-54.8
-57.8
-57.1
-52.32
-43.67
-31.94
-18.42
-4.61
7.96
17.97
24.54
27.22
26.08
21.69
14.95
6.98
-1.23
-8.93
-15.8
-21.83
-27.13
-31.71
-35.33
-37.57
-38.06
-36.62
-33.5
-29.2
-24.36
-19.45
-14.7
-10.03
-5.26
-0.25
4.95
10.05
14.54
17.83
19.32
18.59
15.51
10.33
3.73
-3.21
-9.2
-13.02
-13.83
-11.36
-5.98
1.45
9.82
18.08
25.35
31.08
34.94
36.79
36.62
34.55
30.91
26.18
21
16.05
11.88
8.83
7.05
6.48
6.96
8.33
10.49
13.42
17.05
21.24
25.65
29.82
33.33
35.81
37.19
37.55
37.11
35.99
34.1
31.22
27.1
21.66
15.21
8.47
2.43
-1.88
-3.7
-2.71
0.85
6.36
12.95
19.77
26.19
31.73
36.1
39.04
40.25
39.41
36.25
30.66
22.76
12.89
1.66
-10.26
-22.16
-33.46
-43.77
-52.9
-60.79
-67.49
-73.09
-77.72
-81.49
-84.57
-87.07
-89.11
-90.78
-92.1
-93.12
-93.85
-94.23
-94.08
-92.96
-90.15
-84.77
-75.97
-63.31
-46.96
-27.77
-7.06
13.73
33.38
51.05
66.25
78.64
87.91
93.74
95.92
94.5
89.88
82.77
74.06
64.68
55.43
46.89
39.42
33.1
27.75
23.05
18.66
14.33
9.96
5.54
1.09
-3.44
-8.16
-13.22
-18.82
-25.13
-32.28
-40.32
-49.05
-57.92
-65.92
-71.74
-74.04
-71.86
-64.94
-53.81
-39.62
-23.79
-7.68
7.68
21.65
33.91
44.29
52.67
58.89
62.83
64.45
63.9
61.53
57.84
53.34
48.44
43.38
38.22
32.99
27.68
22.31
16.9
11.4
5.78
0.02
-5.82
-11.59
-17.13
-22.37
-27.32
-32.12
-37
-42.12
-47.47
-52.78
-57.37
-60.32
-60.63
-57.54
-50.77
-40.69
-28.14
-14.27
-0.22
13.07
24.91
34.84
42.61
48.14
51.58
53.33
53.95
54
53.9
53.83
53.73
53.41
52.64
51.28
49.24
46.54
43.18
39.18
34.49
29.05
22.82
15.78
8.05
-0.19
-8.67
-17.1
-25.37
-33.51
-41.8
-50.54
-59.9
-69.58
-78.81
-86.3
-90.63
-90.61
-85.64
-75.87
-62.04
-45.3
-26.88
-7.97
10.33
27.06
41.35
52.55
60.31
64.7
66.13
65.25
62.75
59.3
55.37
51.33
47.4
43.7
40.25
36.92
33.51
29.79
25.55
20.69
15.19
9.15
2.64
-4.25
-11.47
-19
-26.88
-35.22
-44.09
-53.49
-63.16
-72.39
-80.12
-85.03
-85.97
-82.29
-74.02
-61.88
-46.99
-30.61
-13.91
2.16
16.82
29.37
39.33
46.34
50.37
51.66
50.62
47.85
43.91
39.36
34.73
30.48
27.01
24.47
22.76
21.51
20.2
18.33
15.57
11.8
7.09
1.65
-4.35
-10.72
-17.36
-24.28
-31.62
-39.7
-48.83
-59.04
-69.9
-80.34
-88.82
-93.7
-93.67
-88.18
-77.44
-62.4
-44.4
-24.92
-5.35
13.17
29.72
43.69
54.7
62.62
67.57
69.82
69.86
68.21
65.42
61.97
58.14
54.08
49.81
45.33
40.68
35.94
31.21
26.46
21.56
16.33
10.65
4.59
-1.55
-7.39
-12.56
-16.99
-20.91
-24.86
-29.48
-35.3
-42.48
-50.69
-59.06
-66.27
-70.8
-71.32
-67.06
-58
-44.95
-29.31
-12.64
3.7
18.76
32.01
43.19
52.19
58.83
63.01
64.71
64.14
61.72
58.01
53.62
49.06
44.71
40.78
37.39
34.61
32.45
30.88
29.79
28.97
28.05
26.64
24.36
20.98
16.49
11.08
5.03
-1.4
-8.07
-15.01
-22.27
-29.91
-37.86
-46.03
-54.4
-62.98
-71.83
-80.74
-89.08
-95.72
-99.25
-98.44
-92.6
-81.82
-66.91
-49.1
-29.73
-9.99
9.14
26.8
42.22
54.79
64.08
69.99
72.72
72.78
70.87
67.7
63.97
60.17
56.61
53.4
50.46
47.62
44.72
41.66
38.41
35.01
31.46
27.68
23.52
18.75
13.2
6.83
-0.21
-7.64
-15.11
-22.29
-28.99
-35.16
-40.9
-46.4
-51.93
-57.76
-64.04
-70.6
-76.85
-81.77
-84.17
-82.96
-77.57
-68.05
-55.08
-39.68
-22.99
-6.03
10.27
25.11
37.66
47.2
53.22
55.67
55
52.14
48.2
44.19
40.75
38.12
36.15
34.58
33.16
31.75
30.3
28.68
26.71
24.07
20.51
15.86
10.15
3.64
-3.36
-10.51
-17.56
-24.38
-30.95
-37.32
-43.59
-49.95
-56.64
-63.82
-71.43
-78.94
-85.37
-89.38
-89.68
-85.44
-76.5
-63.45
-47.29
-29.27
-10.55
7.82
24.92
39.97
52.32
61.59
67.71
70.91
71.61
70.34
67.63
64.03
60.05
56.16
52.66
49.61
46.9
44.25
41.42
38.24
34.71
30.86
26.74
22.3
17.44
12.06
6.13
-0.26
-6.9
-13.58
-20.1
-26.37
-32.36
-38.16
-43.9
-49.79
-56.07
-62.98
-70.59
-78.72
-86.77
-93.71
-98.19
-98.89
-94.87
-85.81
-72.16
-54.97
-35.55
-15.27
4.72
23.48
40.18
54.1
64.68
71.6
74.92
75.13
73.04
69.5
65.29
60.95
56.78
52.94
49.48
46.4
43.63
41.01
38.34
35.41
32.11
28.41
24.39
20.14
15.7
11.06
6.12
0.85
-4.73
-10.49
-16.28
-21.95
-27.5
-33
-38.65
-44.62
-51.12
-58.23
-65.87
-73.62
-80.69
-85.9
-87.96
-85.79
-78.86
-67.36
-52.13
-34.4
-15.55
3.24
20.95
36.78
50.09
60.37
67.35
71.06
71.84
70.31
67.18
63.19
58.88
54.66
50.73
47.21
44.14
41.5
39.18
37.03
34.79
32.26
29.29
25.86
22.01
17.81
13.29
8.35
2.95
-2.92
-9.15
-15.49
-21.7
-27.59
-33.15
-38.54
-44.1
-50.16
-56.91
-64.26
-71.72
-78.38
-83.06
-84.55
-81.91
-74.74
-63.29
-48.35
-31.09
-12.85
5.07
21.5
35.44
46.16
53.22
56.59
56.64
54.11
49.88
44.82
39.6
34.54
29.71
25.06
20.55
16.28
12.48
9.37
6.95
4.94
2.85
0.21
-3.25
-7.45
-12.12
-16.94
-21.73
-26.54
-31.53
-36.87
-42.6
-48.68
-54.97
-61.35
-67.51
-72.92
-76.75
-77.94
-75.56
-69.01
-58.35
-44.18
-27.59
-9.86
7.73
24
37.96
48.82
56.07
59.6
59.73
57.19
52.95
47.99
43.12
38.76
35.03
31.79
28.83
25.95
23.05
20.12
17.16
14.14
10.96
7.49
3.58
-0.8
-5.62
-10.74
-16
-21.26
-26.52
-31.91
-37.7
-44.21
-51.61
-59.79
-68.11
-75.51
-80.65
-82.28
-79.61
-72.46
-61.25
-46.82
-30.18
-12.34
5.72
23
38.51
51.34
60.85
66.83
69.51
69.54
67.71
64.82
61.47
58.07
54.86
51.93
49.33
47.04
44.96
42.95
40.8
38.29
35.25
31.5
26.96
21.65
15.63
9.08
2.19
-4.92
-12.23
-19.85
-28.01
-36.97
-46.85
-57.59
-68.75
-79.52
-88.81
-95.31
-97.84
-95.56
-88.17
-76.03
-60.03
-41.49
-21.87
-2.55
15.33
30.92
43.67
53.29
59.73
63.17
64.02
62.89
60.48
57.43
54.17
50.92
47.71
44.53
41.44
38.6
36.14
34.1
32.31
30.42
27.97
24.56
19.97
14.22
7.57
0.43
-6.75
-13.63
-20.09
-26.29
-32.55
-39.28
-46.71
-54.83
-63.22
-71.08
-77.36
-80.89
-80.65
-75.98
-66.72
-53.28
-36.6
-17.96
1.17
19.41
35.62
48.99
59.1
65.83
69.34
69.97
68.23
64.74
60.18
55.22
50.42
46.2
42.76
40.07
37.98
36.26
34.7
33.14
31.51
29.76
27.79
25.41
22.43
18.63
14.02
8.71
3.02
-2.78
-8.5
-14.17
-20
-26.27
-33.25
-41.09
-49.67
-58.55
-66.96
-73.81
-77.86
-77.99
-73.52
-64.36
-51.12
-34.94
-17.24
0.51
17.01
31.26
42.55
50.5
55.06
56.5
55.37
52.41
48.42
44.09
39.95
36.24
32.98
30.06
27.33
24.7
22.15
19.7
17.32
14.95
12.42
9.53
6.13
2.11
-2.44
-7.36
-12.47
-17.63
-22.95
-28.68
-35.16
-42.63
-51.05
-59.99
-68.67
-76.04
-80.98
-82.48
-79.81
-72.67
-61.31
-46.54
-29.63
-12.07
4.71
19.5
31.54
40.4
46.02
48.57
48.47
46.32
42.83
38.69
34.51
30.68
27.39
24.65
22.35
20.37
18.56
16.77
14.86
12.65
9.92
6.5
2.27
-2.7
-8.18
-13.92
-19.66
-25.29
-30.85
-36.53
-42.63
-49.45
-57.14
-65.53
-73.97
-81.33
-86.18
-87.14
-83.28
-74.39
-61.06
-44.49
-26.09
-7.25
10.9
27.5
41.88
53.61
62.46
68.38
71.58
72.44
71.44
69.12
65.93
62.29
58.5
54.77
51.27
48.02
45.01
42.1
39.11
35.92
32.41
28.52
24.25
19.54
14.34
8.56
2.24
-4.49
-11.38
-18.17
-24.66
-30.86
-36.91
-43.06
-49.55
-56.55
-64.03
-71.68
-78.85
-84.51
-87.48
-86.62
-81.18
-71.02
-56.67
-39.24
-20.14
-0.82
17.49
33.88
47.79
58.93
67.2
72.64
75.41
75.79
74.24
71.38
67.89
64.43
61.46
59.19
57.55
56.33
55.35
54.48
53.76
53.23
52.86
52.47
51.73
50.35
48.15
45.18
41.68
37.94
34.1
30.16
25.98
21.42
16.47
11.24
5.91
0.61
-4.61
-9.79
-15.01
-20.3
-25.69
-31.16
-36.73
-42.34
-47.92
-53.35
-58.49
-63.29
-67.78
-72.11
-76.5
-81.24
-86.58
-92.58
-99.01
-105.18
-110
-112.12
-110.31
-103.8
-92.54
-77.18
-58.91
-39.09
-18.99
0.35
18.14
33.76
46.74
56.78
63.8
67.96
69.66
69.48
68.06
66
63.84
61.91
60.39
59.3
58.5
57.84
57.14
56.29
55.14
53.59
51.54
48.93
45.84
42.42
38.91
35.48
32.17
28.88
25.39
21.54
17.23
12.53
7.53
2.36
-2.89
-8.14
-13.31
-18.31
-23.07
-27.56
-31.79
-35.84
-39.78
-43.74
-47.94
-52.63
-58.03
-64.15
-70.59
-76.57
-80.94
-82.51
-80.39
-74.23
-64.25
-51.19
-36.07
-19.99
-4.02
10.93
24.04
34.74
42.65
47.7
50.15
50.49
49.33
47.24
44.69
41.97
39.25
36.62
34.24
32.26
30.83
30
29.66
29.56
29.35
28.74
27.55
25.77
23.48
20.85
18.03
15.12
12.13
9.06
5.81
2.31
-1.51
-5.69
-10.18
-14.86
-19.61
-24.34
-29.07
-33.94
-39.11
-44.75
-50.82
-57.08
-63.03
-67.98
-71.1
-71.6
-68.9
-62.78
-53.48
-41.68
-28.39
-14.76
-1.85
9.46
18.65
25.44
29.8
31.9
32.06
30.69
28.34
25.55
22.83
20.52
18.76
17.46
16.44
15.46
14.36
13.08
11.62
9.97
8.12
6.01
3.57
0.77
-2.42
-6.04
-10.07
-14.47
-19.12
-23.85
-28.48
-32.92
-37.23
-41.64
-46.48
-52.03
-58.36
-65.17
-71.75
-77.09
-80.11
-79.84
-75.76
-67.76
-56.22
-41.85
-25.63
-8.62
8.09
23.5
36.84
47.6
55.62
60.95
63.84
64.62
63.68
61.43
58.34
54.84
51.27
47.89
44.8
42.06
39.61
37.36
35.18
32.88
30.27
27.24
23.81
20.04
16.06
11.95
7.66
3.08
-1.89
-7.28
-13.01
-18.88
-24.7
-30.33
-35.77
-41.15
-46.69
-52.61
-59.02
-65.86
-72.78
-79.1
-83.91
-86.17
-84.95
-79.69
-70.36
-57.46
-41.89
-24.78
-7.3
9.55
24.93
38.2
48.89
56.72
61.69
64.04
64.26
63.02
60.96
58.61
56.27
54.05
51.93
49.87
47.86
45.95
44.17
42.46
40.7
38.7
36.3
33.43
30.09
26.37
22.35
18.14
13.8
9.34
4.71
-0.17
-5.34
-10.79
-16.36
-21.86
-27.09
-31.95
-36.52
-40.98
-45.63
-50.76
-56.54
-63
-69.87
-76.53
-82.05
-85.33
-85.32
-81.35
-73.29
-61.6
-47.18
-31.09
-14.39
1.99
17.25
30.72
41.87
50.4
56.26
59.67
61.02
60.84
59.62
57.77
55.63
53.44
51.33
49.33
47.39
45.44
43.42
41.36
39.29
37.21
35.02
32.51
29.51
25.99
22.08
18.06
14.17
10.48
6.85
2.97
-1.41
-6.35
-11.66
-16.96
-21.9
-26.3
-30.28
-34.14
-38.33
-43.2
-48.91
-55.34
-62.02
-68.22
-73.05
-75.58
-75
-70.81
-62.9
-51.64
-37.81
-22.46
-6.68
8.53
22.35
34.15
43.47
50.02
53.7
54.72
53.55
50.89
47.54
44.19
41.35
39.22
37.75
36.72
35.82
34.76
33.35
31.58
29.56
27.41
25.25
23.04
20.69
18.08
15.14
11.93
8.5
4.91
1.14
-2.85
-7.07
-11.46
-15.89
-20.3
-24.76
-29.52
-34.89
-41.04
-47.74
-54.23
-59.35
-61.86
-60.86
-56.08
-47.99
-37.57
-25.97
-14.22
-3.09
6.86
15.14
21.33
25.08
26.32
25.35
22.82
19.51
16.17
13.25
10.93
9.15
7.78
6.7
5.86
5.27
4.87
4.58
4.2
3.44
2.02
-0.24
-3.34
-7.06
-11.06
-14.99
-18.63
-21.97
-25.18
-28.54
-32.34
-36.83
-42.12
-48.04
-54.13
-59.58
-63.33
-64.34
-61.85
-55.56
-45.74
-33.14
-18.76
-3.67
11.1
24.62
36.2
45.36
51.91
55.89
57.55
57.27
55.46
52.59
49.17
45.64
42.41
39.7
37.49
35.63
33.84
31.88
29.6
26.98
24.07
20.92
17.55
13.96
10.12
6.02
1.67
-2.9
-7.66
-12.54
-17.47
-22.37
-27.2
-31.98
-36.86
-41.98
-47.6
-53.83
-60.62
-67.57
-73.87
-78.47
-80.2
-78.16
-71.91
-61.63
-48.08
-32.36
-15.72
0.71
15.95
29.33
40.36
48.81
54.68
58.15
59.62
59.57
58.49
56.79
54.69
52.3
49.71
47.03
44.46
42.26
40.57
39.39
38.54
37.71
36.62
35.04
32.89
30.19
27.01
23.41
19.46
15.23
10.76
6.09
1.28
-3.67
-8.72
-13.82
-18.91
-23.89
-28.7
-33.37
-38.05
-43.02
-48.58
-54.93
-61.93
-69.05
-75.32
-79.56
-80.68
-77.96
-71.23
-60.85
-47.57
-32.35
-16.21
-0.12
15.06
28.54
39.77
48.39
54.34
57.85
59.33
59.32
58.3
56.69
54.71
52.53
50.24
47.94
45.76
43.87
42.3
41.01
39.82
38.49
36.86
34.83
32.47
29.9
27.25
24.61
21.98
19.3
16.42
13.28
9.84
6.13
2.22
-1.86
-6.11
-10.53
-15.09
-19.7
-24.25
-28.64
-32.84
-36.94
-41.12
-45.63
-50.67
-56.27
-62.25
-68.11
-73.1
-76.29
-76.78
-73.88
-67.34
-57.37
-44.69
-30.28
-15.26
-0.62
12.81
24.47
34.04
41.41
46.61
49.85
51.4
51.6
50.85
49.51
47.9
46.3
44.87
43.73
42.88
42.25
41.7
41.04
40.07
38.66
36.73
34.25
31.23
27.75
23.85
19.62
15.19
10.7
6.29
2.07
-1.99
-5.95
-10.02
-14.37
-19.19
-24.57
-30.53
-36.94
-43.52
-49.82
-55.27
-59.18
-60.9
-59.95
-56.12
-49.57
-40.8
-30.53
-19.55
-8.63
1.66
10.86
18.57
24.4
28.07
29.48
28.88
26.9
24.36
22.08
20.58
19.95
19.97
20.2
20.27
19.94
19.14
17.86
16.09
13.83
11.06
7.83
4.16
0.08
-4.45
-9.41
-14.69
-19.98
-24.94
-29.24
-32.78
-35.84
-38.99
-42.88
-47.95
-54.22
-61.18
-67.87
-73.17
-76
-75.57
-71.56
-64.07
-53.66
-41.17
-27.55
-13.72
-0.47
11.66
22.25
31.01
37.72
42.29
44.81
45.54
44.9
43.39
41.39
39.17
36.86
34.55
32.32
30.26
28.39
26.7
25.11
23.47
21.69
19.64
17.25
14.38
10.96
6.94
2.4
-2.47
-7.45
-12.4
-17.24
-21.99
-26.7
-31.37
-36.01
-40.68
-45.58
-50.99
-57.06
-63.69
-70.24
-75.71
-78.92
-78.9
-75.22
-68.05
-58.01
-46.02
-32.96
-19.61
-6.61
5.55
16.43
25.64
32.97
38.41
42.09
44.35
45.57
46.13
46.36
46.44
46.44
46.3
45.92
45.19
44.13
42.84
41.44
40.07
38.74
37.33
35.65
33.54
30.95
27.95
24.73
21.39
17.97
14.36
10.32
5.69
0.35
-5.62
-12.02
-18.55
-24.97
-31.1
-36.97
-42.8
-48.92
-55.71
-63.42
-72.05
-81.24
-90.26
-98.15
-103.84
-106.43
-105.33
-100.41
-92.03
-80.95
-68.2
-54.86
-41.9
-30.05
-19.86
-11.72
-5.89
-2.44
-1.19
-1.61
-2.86
-3.96
-3.97
-2.28
1.32
6.65
13.33
20.88
28.89
37.04
45.13
52.94
60.24
66.74
72.12
76.1
78.49
79.22
78.36
76.09
72.61
68.16
62.93
57.12
50.84
44.15
37.08
29.58
21.63
13.22
4.39
-4.79
-14.23
-23.87
-33.65
-43.49
-53.17
-62.24
-69.94
-75.26
-77.18
-74.86
-68
-56.82
-42.14
-25.08
-6.87
11.33
28.57
44.08
57.27
67.72
75.18
79.76
81.84
82.12
81.43
80.48
79.78
79.52
79.63
80
80.48
81
81.5
81.86
81.91
81.49
80.55
79.12
77.36
75.42
73.42
71.34
69.11
66.61
63.71
60.31
56.3
51.56
45.97
39.43
31.85
23.12
13.14
1.83
-10.69
-24.03
-37.36
-49.6
-59.5
-65.98
-68.42
-66.74
-61.51
-53.69
-44.41
-34.71
-25.46
-17.23
-10.41
-5.22
-1.76
0.02
0.32
-0.56
-2.25
-4.37
-6.6
-8.65
-10.31
-11.39
-11.83
-11.68
-11.13
-10.51
-10.16
-10.39
-11.41
-13.27
-15.91
-19.24
-23.14
-27.54
-32.38
-37.57
-43.01
-48.55
-54.07
-59.5
-64.94
-70.56
-76.56
-83.03
-89.86
-96.68
-102.78
-107.28
-109.14
-107.4
-101.39
-90.91
-76.3
-58.51
-38.85
-18.69
0.7
18.38
33.76
46.5
56.44
63.52
67.86
69.76
69.69
68.22
65.91
63.17
60.32
57.56
55.08
53.02
51.52
50.62
50.22
50.08
49.88
49.24
47.85
45.49
42.05
37.54
32.01
25.52
18.11
9.84
0.81
-8.79
-18.74
-28.79
-38.74
-48.41
-57.69
-66.53
-74.99
-83.15
-91.11
-98.76
-105.6
-110.75
-113.02
-111.3
-104.86
-93.64
-78.31
-60.03
-40.27
-20.39
-1.52
15.5
30.13
42.01
50.97
57.08
60.56
61.88
61.61
60.33
58.57
56.67
54.78
52.95
51.19
49.55
48.09
46.87
45.85
44.87
43.69
42.05
39.73
36.67
32.91
28.62
24.03
19.32
14.59
9.86
4.97
-0.27
-6
-12.22
-18.68
-24.99
-30.77
-35.84
-40.34
-44.68
-49.37
-54.77
-60.88
-67.3
-73.26
-77.78
-79.9
-78.76
-73.78
-64.76
-51.96
-36.13
-18.43
-0.26
17.03
32.36
45.01
54.72
61.51
65.59
67.22
66.72
64.48
60.94
56.65
52.14
47.9
44.23
41.32
39.14
37.57
36.34
35.2
33.9
32.23
30.05
27.31
24.04
20.29
16.21
11.94
7.64
3.42
-0.72
-4.85
-9.08
-13.52
-18.16
-22.92
-27.71
-32.53
-37.51
-42.86
-48.64
-54.63
-60.12
-64.1
-65.42
-63.17
-56.99
-47.09
-34.28
-19.69
-4.54
10.02
23.09
34
42.3
47.77
50.41
50.47
48.43
44.96
40.77
36.52
32.64
29.31
26.51
24.15
22.16
20.52
19.24
18.26
17.45
16.58
15.41
13.72
11.37
8.31
4.54
0.17
-4.64
-9.68
-14.81
-19.93
-25.01
-30.04
-35.02
-39.91
-44.74
-49.66
-54.92
-60.67
-66.81
-72.77
-77.55
-79.91
-78.77
-73.51
-64.14
-51.35
-36.2
-19.94
-3.71
11.56
25.2
36.75
45.94
52.64
56.87
58.81
58.85
57.48
55.26
52.64
49.92
47.22
44.6
42.12
39.84
37.91
36.37
35.12
33.87
32.2
29.78
26.46
22.35
17.81
13.26
9
5.11
1.38
-2.45
-6.65
-11.29
-16.27
-21.38
-26.42
-31.36
-36.33
-41.57
-47.31
-53.7
-60.61
-67.65
-74.07
-78.89
-81.03
-79.54
-73.87
-64.04
-50.64
-34.74
-17.58
-0.42
15.64
29.77
41.39
50.16
55.99
59.08
59.86
58.91
56.89
54.35
51.7
49.11
46.68
44.37
42.17
40.1
38.19
36.46
34.91
33.43
31.9
30.17
28.1
25.63
22.76
19.5
15.91
12.06
7.99
3.68
-0.86
-5.6
-10.46
-15.29
-19.93
-24.3
-28.39
-32.36
-36.45
-40.88
-45.8
-51.13
-56.54
-61.48
-65.2
-66.88
-65.8
-61.47
-53.82
-43.24
-30.53
-16.73
-2.87
10.12
21.6
31.1
38.34
43.19
45.67
45.99
44.59
42.06
39.05
36.11
33.6
31.63
30.08
28.78
27.53
26.25
24.9
23.48
21.95
20.18
18.02
15.3
11.98
8.12
3.89
-0.5
-4.9
-9.2
-13.43
-17.72
-22.3
-27.36
-33.08
-39.48
-46.39
-53.42
-59.92
-65.09
-68.06
-68.08
-64.67
-57.74
-47.7
-35.33
-21.74
-8.08
4.6
15.44
23.89
29.71
32.98
34.02
33.36
31.6
29.37
27.17
25.3
23.82
22.6
21.39
19.96
18.24
16.3
14.32
12.39
10.47
8.33
5.67
2.3
-1.79
-6.39
-11.22
-16.03
-20.74
-25.47
-30.47
-35.99
-42.19
-49.02
-56.14
-62.96
-68.66
-72.38
-73.27
-70.79
-64.68
-55.12
-42.69
-28.33
-13.15
1.73
15.38
27.17
36.78
44.15
49.32
52.43
53.66
53.27
51.61
49.1
46.14
43.03
39.99
37.14
34.52
32.17
30
27.91
25.75
23.42
20.79
17.82
14.46
10.67
6.41
1.69
-3.4
-8.71
-14.11
-19.53
-25.03
-30.73
-36.81
-43.4
-50.48
-57.83
-64.88
-70.8
-74.58
-75.25
-72.16
-65.15
-54.62
-41.38
-26.45
-10.88
4.43
18.72
31.4
41.98
50.13
55.75
58.93
60.01
59.42
57.66
55.15
52.23
49.19
46.22
43.43
40.91
38.61
36.38
34.02
31.3
28.1
24.42
20.42
16.34
12.38
8.64
5.01
1.32
-2.63
-6.94
-11.51
-16.19
-20.76
-25.15
-29.45
-33.88
-38.71
-44.16
-50.24
-56.79
-63.36
-69.3
-73.75
-75.77
-74.53
-69.55
-60.84
-49
-35.02
-20.02
-5.01
9.24
22.19
33.4
42.48
49.13
53.22
54.95
54.81
53.47
51.6
49.65
47.82
46.12
44.51
42.98
41.6
40.42
39.44
38.53
37.45
35.96
33.91
31.19
27.9
24.13
20.07
15.84
11.5
7.11
2.64
-1.9
-6.55
-11.31
-16.17
-21.04
-25.86
-30.57
-35.18
-39.85
-44.83
-50.38
-56.64
-63.43
-70.16
-75.88
-79.44
-79.74
-76.06
-68.26
-56.82
-42.69
-27.06
-11.13
4.17
18.16
30.38
40.52
48.36
53.81
56.93
58.01
57.46
55.82
53.52
50.94
48.33
45.88
43.75
42.07
40.87
40.06
39.43
38.69
37.55
35.8
33.38
30.33
26.81
23.04
19.21
15.44
11.73
7.97
4.05
-0.11
-4.45
-8.8
-12.97
-16.89
-20.66
-24.57
-28.98
-34.19
-40.29
-47.02
-53.84
-59.94
-64.41
-66.4
-65.25
-60.68
-52.79
-42.1
-29.43
-15.74
-2.02
10.84
22.05
30.99
37.23
40.59
41.25
39.73
36.82
33.34
29.98
27.12
24.84
22.97
21.29
19.62
17.92
16.24
14.67
13.25
11.92
10.49
8.72
6.36
3.29
-0.46
-4.7
-9.14
-13.53
-17.74
-21.79
-25.85
-30.16
-34.95
-40.36
-46.3
-52.38
-57.91
-61.96
-63.55
-61.85
-56.47
-47.55
-35.76
-22.06
-7.53
6.82
20.19
31.89
41.34
48.07
51.79
52.48
50.54
46.7
41.93
37.12
32.94
29.7
27.33
25.55
23.99
22.37
20.53
18.43
16.11
13.55
10.67
7.36
3.52
-0.84
-5.61
-10.58
-15.54
-20.33
-24.97
-29.59
-34.37
-39.52
-45.15
-51.31
-57.92
-64.78
-71.44
-77.18
-81.04
-81.96
-79.1
-72
-60.9
-46.58
-30.24
-13.17
3.47
18.78
32.12
43.08
51.4
56.97
59.91
60.55
59.39
57.01
53.97
50.72
47.53
44.55
41.8
39.22
36.71
34.2
31.66
29.09
26.54
23.99
21.36
18.49
15.17
11.24
6.66
1.54
-3.84
-9.18
-14.27
-19.06
-23.74
-28.55
-33.77
-39.55
-45.92
-52.81
-60.03
-67.27
-73.98
-79.32
-82.21
-81.6
-76.78
-67.61
-54.73
-39.29
-22.67
-6.08
9.6
23.83
36.26
46.56
54.37
59.46
61.84
61.83
60.09
57.32
54.17
51.06
48.19
45.62
43.34
41.31
39.48
37.72
35.84
33.65
30.98
27.78
24.11
20.09
15.88
11.54
7.04
2.31
-2.67
-7.9
-13.21
-18.47
-23.58
-28.59
-33.67
-39.08
-45.05
-51.69
-58.92
-66.4
-73.45
-79.12
-82.22
-81.68
-76.77
-67.42
-54.22
-38.32
-21.09
-3.81
12.52
27.21
39.78
49.83
57.07
61.35
62.83
61.97
59.48
56.18
52.73
49.56
46.8
44.37
42.09
39.81
37.51
35.27
33.18
31.28
29.47
27.48
24.93
21.53
17.15
11.92
6.14
0.2
-5.6
-11.13
-16.47
-21.78
-27.27
-33.12
-39.46
-46.27
-53.36
-60.26
-66.17
-70.07
-70.86
-67.72
-60.31
-48.95
-34.5
-18.21
-1.46
14.5
28.62
40.1
48.4
53.26
54.75
53.3
49.64
44.72
39.47
34.6
30.48
27.12
24.27
21.69
19.2
16.77
14.48
12.29
10.06
7.46
4.11
-0.23
-5.58
-11.71
-18.19
-24.51
-30.34
-35.56
-40.29
-44.88
-49.71
-55.14
-61.23
-67.82
-74.37
-79.99
-83.58
-83.95
-80.15
-71.7
-58.78
-42.24
-23.49
-4.11
14.4
30.81
44.22
54.1
60.26
62.88
62.46
59.82
55.87
51.45
47.11
43.14
39.58
36.37
33.48
30.84
28.4
26.03
23.54
20.71
17.4
13.52
9.04
4.02
-1.51
-7.45
-13.67
-20.01
-26.35
-32.62
-38.95
-45.6
-52.91
-61.09
-70.03
-79.11
-87.15
-92.59
-93.84
-89.73
-79.84
-64.64
-45.45
-23.97
-2
18.99
37.9
54.03
66.92
76.28
81.99
84.2
83.42
80.4
76.1
71.33
66.69
62.42
58.55
55.03
51.86
49.11
46.78
44.72
42.64
40.14
36.89
32.79
27.93
22.54
16.85
11
5.03
-1.08
-7.38
-13.86
-20.46
-27.08
-33.64
-40.07
-46.35
-52.58
-58.96
-65.75
-73.15
-81.09
-89.11
-96.22
-101.05
-102.07
-98.03
-88.36
-73.32
-54.01
-32.07
-9.31
12.64
32.54
49.52
63.09
73.02
79.3
82.21
82.23
80.02
76.37
71.98
67.42
63.05
59.05
55.51
52.45
49.9
47.8
46.11
44.64
43.2
41.53
39.39
36.53
32.86
28.38
23.27
17.84
12.39
7.14
2.09
-2.94
-8.22
-13.94
-20.14
-26.61
-33.01
-39.04
-44.48
-49.41
-54.11
-59.06
-64.74
-71.45
-79.14
-87.23
-94.7
-100.14
-102.13
-99.51
-91.72
-78.9
-61.85
-41.85
-20.39
1
21.02
38.58
52.95
63.69
70.75
74.38
75.12
73.63
70.63
66.76
62.52
58.28
54.35
50.9
48.08
45.91
44.31
43.1
42.01
40.71
38.9
36.34
32.92
28.71
23.88
18.69
13.35
7.99
2.63
-2.77
-8.24
-13.81
-19.44
-25.01
-30.38
-35.47
-40.24
-44.83
-49.5
-54.59
-60.4
-66.96
-73.91
-80.41
-85.26
-87.1
-84.78
-77.67
-65.86
-50.17
-31.89
-12.55
6.43
23.88
38.9
50.81
59.18
63.81
64.87
62.89
58.77
53.51
48.04
42.96
38.56
34.77
31.46
28.47
25.74
23.26
21.01
18.92
16.88
14.74
12.32
9.52
6.22
2.33
-2.14
-7.09
-12.34
-17.65
-22.79
-27.72
-32.55
-37.58
-43.14
-49.42
-56.3
-63.23
-69.31
-73.37
-74.27
-71.18
-63.73
-52.18
-37.35
-20.46
-2.91
13.95
28.93
41.13
49.93
55.03
56.5
54.78
50.62
44.99
38.92
33.3
28.72
25.42
23.25
21.84
20.67
19.34
17.62
15.51
13.11
10.52
7.7
4.46
0.55
-4.13
-9.53
-15.38
-21.31
-27.09
-32.66
-38.21
-44.06
-50.52
-57.78
-65.81
-74.34
-82.8
-90.28
-95.64
-97.58
-94.98
-87.17
-74.2
-56.92
-36.76
-15.52
5.11
23.73
39.39
51.64
60.32
65.58
67.73
67.27
64.84
61.16
56.89
52.57
48.48
44.72
41.22
37.92
34.81
31.93
29.34
26.94
24.52
21.76
18.33
14.04
8.88
3.02
-3.26
-9.71
-16.12
-22.41
-28.58
-34.75
-41.13
-47.95
-55.41
-63.46
-71.69
-79.24
-84.84
-87.15
-84.97
-77.64
-65.3
-48.82
-29.6
-9.31
10.46
28.43
43.71
55.75
64.32
69.4
71.18
70.11
66.79
62.03
56.61
51.2
46.25
41.99
38.39
35.34
32.74
30.45
28.43
26.59
24.79
22.81
20.36
17.19
13.15
8.22
2.56
-3.58
-9.88
-16.08
-21.99
-27.57
-32.99
-38.54
-44.65
-51.68
-59.72
-68.44
-76.98
-84.06
-88.23
-88.13
-82.94
-72.53
-57.49
-39.06
-18.75
1.89
21.53
39.13
53.92
65.32
73.03
77.01
77.58
75.43
71.44
66.5
61.31
56.31
51.67
47.42
43.57
40.11
37.05
34.33
31.88
29.54
27.15
24.55
21.55
17.99
13.76
8.84
3.38
-2.39
-8.19
-13.84
-19.33
-24.8
-30.5
-36.76
-43.8
-51.66
-60.06
-68.3
-75.28
-79.67
-80.23
-76.14
-67.24
-54.11
-37.85
-19.87
-1.57
15.79
31.19
43.85
53.15
58.78
60.74
59.43
55.63
50.4
44.76
39.52
35.1
31.55
28.69
26.31
24.23
22.37
20.62
18.79
16.68
14.05
10.8
6.94
2.55
-2.27
-7.5
-13.1
-19.04
-25.26
-31.71
-38.41
-45.44
-52.99
-61.09
-69.58
-77.96
-85.32
-90.45
-92.14
-89.42
-81.85
-69.57
-53.25
-33.89
-12.66
9.14
30.2
49.15
64.71
75.98
82.63
84.95
83.78
80.16
75.13
69.48
63.8
58.51
53.88
50.09
47.11
44.77
42.76
40.73
38.38
35.54
32.12
28.1
23.53
18.44
12.89
6.97
0.71
-5.82
-12.54
-19.37
-26.2
-32.92
-39.42
-45.69
-51.82
-58.06
-64.71
-71.99
-79.85
-87.79
-94.74
-99.3
-99.93
-95.48
-85.52
-70.47
-51.51
-30.25
-8.38
12.64
31.71
48.07
61.26
71.03
77.33
80.32
80.37
78.11
74.27
69.63
64.88
60.5
56.7
53.49
50.74
48.38
46.36
44.69
43.31
42.01
40.42
38.15
34.92
30.71
25.77
20.48
15.18
10.06
5.08
0.05
-5.26
-10.99
-17.15
-23.59
-30.03
-36.19
-41.88
-47.06
-51.93
-56.89
-62.43
-68.92
-76.4
-84.39
-91.87
-97.4
-99.42
-96.68
-88.53
-75.16
-57.55
-37.21
-15.82
5.07
24.26
40.96
54.65
65.08
72.17
76.04
76.99
75.56
72.44
68.38
64.06
59.94
56.25
53
50.16
47.69
45.62
44
42.8
41.82
40.73
39.12
36.67
33.29
29.14
24.55
19.83
15.18
10.57
5.86
0.88
-4.49
-10.2
-16.12
-22.05
-27.86
-33.47
-38.9
-44.25
-49.73
-55.57
-61.93
-68.83
-75.9
-82.4
-87.17
-88.96
-86.64
-79.65
-68.11
-52.88
-35.29
-16.86
1.01
17.17
30.74
41.1
47.88
51.03
50.85
48.05
43.58
38.45
33.49
29.27
26.02
23.72
22.22
21.3
20.7
20.18
19.56
18.69
17.49
15.9
13.88
11.36
8.26
4.52
0.12
-4.86
-10.27
-15.94
-21.75
-27.65
-33.69
-39.99
-46.67
-53.8
-61.37
-69.19
-76.82
-83.46
-88.04
-89.36
-86.34
-78.41
-65.73
-49.18
-30.19
-10.35
8.89
26.33
41.13
52.71
60.78
65.32
66.68
65.53
62.68
58.94
54.9
50.92
47.2
43.89
41.12
38.98
37.46
36.41
35.53
34.53
33.17
31.31
28.89
25.9
22.32
18.2
13.64
8.8
3.81
-1.27
-6.55
-12.17
-18.27
-24.81
-31.6
-38.35
-44.76
-50.68
-56.16
-61.43
-66.88
-72.85
-79.52
-86.62
-93.4
-98.67
-101.02
-99.19
-92.39
-80.58
-64.43
-45.13
-24.14
-2.88
17.39
35.65
51.12
63.23
71.7
76.54
78.06
76.88
73.77
69.6
65.11
60.89
57.28
54.43
52.32
50.84
49.83
49.11
48.42
47.53
46.18
44.22
41.58
38.28
34.45
30.21
25.65
20.81
15.75
10.53
5.28
0.16
-4.81
-9.72
-14.77
-20.18
-26.01
-32.12
-38.21
-43.93
-49.14
-53.91
-58.58
-63.62
-69.42
-76.18
-83.73
-91.47
-98.42
-103.3
-104.75
-101.67
-93.46
-80.21
-62.72
-42.32
-20.63
0.77
20.54
37.69
51.58
61.93
68.73
72.25
72.96
71.53
68.66
65.05
61.3
57.76
54.69
52.14
50.12
48.55
47.31
46.2
44.93
43.24
40.95
38
34.45
30.44
26.08
21.43
16.45
11.12
5.41
-0.61
-6.85
-13.18
-19.47
-25.62
-31.61
-37.52
-43.56
-49.97
-56.91
-64.25
-71.47
-77.71
-81.79
-82.55
-79.1
-71.05
-58.69
-42.92
-25.08
-6.68
10.83
26.29
38.81
47.77
52.9
54.22
52.17
47.57
41.54
35.17
29.32
24.43
20.51
17.33
14.65
12.33
10.39
8.86
7.72
6.79
5.72
4.14
1.72
-1.74
-6.27
-11.69
-17.7
-23.94
-30.1
-36.01
-41.71
-47.47
-53.66
-60.56
-68.14
-75.85
-82.6
-86.95
-87.41
-82.85
-72.79
-57.62
-38.44
-16.9
5.19
26.13
44.51
59.3
69.84
75.77
77.16
74.51
68.78
61.22
53.2
45.81
39.61
34.69
30.73
27.29
24.08
20.99
18.07
15.41
13.02
10.78
8.49
5.89
2.75
-1.1
-5.74
-11.17
-17.26
-23.82
-30.69
-37.84
-45.45
-53.92
-63.64
-74.78
-86.99
-99.3
-110.13
-117.6
-119.88
-115.74
-104.8
-87.66
-65.8
-41.13
-15.63
9.01
31.54
51.12
67.16
79.31
87.38
91.52
92.23
90.34
86.85
82.59
78.14
73.64
69.02
64.16
59.05
53.93
49.07
44.78
41.06
37.67
34.14
30
24.91
18.82
11.96
4.63
-2.84
-10.26
-17.61
-24.95
-32.47
-40.48
-49.32
-59.26
-70.23
-81.6
-92.08
-99.89
-103.2
-100.69
-91.89
-77.37
-58.47
-36.93
-14.51
7.25
27.1
44.06
57.4
66.68
71.92
73.52
72.31
69.3
65.48
61.63
58.19
55.31
52.91
50.86
49.02
47.31
45.63
43.79
41.54
38.52
34.45
29.15
22.68
15.34
7.58
-0.09
-7.31
-13.86
-19.84
-25.53
-31.4
-37.86
-45.15
-53.09
-61.04
-67.9
-72.29
-72.91
-68.73
-59.38
-45.22
-27.29
-7.06
13.81
33.81
51.7
66.54
77.7
84.82
87.86
87.14
83.37
77.49
70.52
63.31
56.44
50.2
44.69
39.94
35.94
32.65
29.91
27.43
24.82
21.66
17.57
12.3
5.73
-2.07
-10.79
-19.95
-29.07
-37.78
-46.04
-54.15
-62.61
-71.81
-81.74
-91.77
-100.7
-106.97
-109.05
-105.82
-96.79
-82.3
-63.42
-41.72
-19.06
2.73
22.09
37.88
49.45
56.65
59.75
59.43
56.56
52.11
46.93
41.69
36.82
32.51
28.82
25.64
22.8
19.99
16.86
13.11
8.58
3.34
-2.36
-8.17
-13.86
-19.31
-24.65
-30.14
-36.12
-42.88
-50.59
-59.21
-68.27
-76.9
-83.78
-87.36
-86.2
-79.39
-66.91
-49.65
-29.3
-7.88
12.68
30.9
45.88
57.22
64.83
68.81
69.36
66.88
61.98
55.47
48.22
41.02
34.41
28.68
23.83
19.8
16.43
13.56
10.99
8.5
5.92
3.07
-0.11
-3.62
-7.48
-11.74
-16.59
-22.27
-29.11
-37.25
-46.58
-56.49
-65.85
-73.13
-76.71
-75.25
-68.1
-55.48
-38.44
-18.61
2.18
22.26
40.32
55.53
67.41
75.77
80.63
82.21
80.92
77.38
72.29
66.35
60.12
53.98
48.14
42.66
37.5
32.6
27.82
23.06
18.21
13.25
8.19
3.04
-2.26
-7.92
-14.24
-21.51
-29.88
-39.23
-49.11
-58.7
-66.92
-72.51
-74.28
-71.33
-63.25
-50.34
-33.52
-14.21
5.92
25.26
42.49
56.66
67.21
73.89
76.72
76.03
72.42
66.71
59.82
52.52
45.35
38.61
32.42
26.9
22.18
18.34
15.34
12.92
10.62
8.05
4.87
1.03
-3.4
-8.3
-13.63
-19.43
-25.77
-32.74
-40.4
-48.81
-57.96
-67.68
-77.38
-86
-92.1
-94.11
-90.77
-81.58
-66.92
-48.03
-26.64
-4.58
16.62
35.85
52.35
65.61
75.24
80.94
82.7
80.89
76.3
70.04
63.27
56.92
51.52
47.19
43.78
41.03
38.7
36.6
34.56
32.39
29.9
26.92
23.36
19.24
14.61
9.51
4
-1.91
-8.16
-14.67
-21.32
-27.97
-34.58
-41.1
-47.59
-54.13
-60.82
-67.8
-75.11
-82.67
-90.06
-96.43
-100.55
-101.03
-96.69
-86.97
-72.14
-53.32
-32.14
-10.42
10.29
28.81
44.43
56.74
65.53
70.76
72.61
71.55
68.28
63.65
58.52
53.52
49.03
45.15
41.79
38.79
36.04
33.43
30.93
28.48
25.96
23.17
19.87
15.84
10.97
5.33
-0.88
-7.37
-13.89
-20.29
-26.61
-32.97
-39.54
-46.48
-53.83
-61.44
-68.93
-75.6
-80.6
-82.91
-81.66
-76.27
-66.67
-53.31
-37.16
-19.5
-1.73
14.81
28.99
40.04
47.53
51.45
52.13
50.16
46.32
41.44
36.23
31.2
26.66
22.74
19.44
16.69
14.36
12.26
10.18
7.93
5.36
2.38
-1.07
-5.02
-9.46
-14.35
-19.57
-24.98
-30.45
-35.93
-41.55
-47.58
-54.3
-61.86
-70.05
-78.27
-85.5
-90.49
-92.05
-89.23
-81.63
-69.43
-53.38
-34.65
-14.63
5.27
23.77
39.89
52.89
62.35
68.14
70.44
69.67
66.51
61.78
56.37
51.02
46.26
42.34
39.23
36.71
34.52
32.38
30.15
27.72
25.07
22.15
18.87
15.1
10.73
5.69
0.02
-6.12
-12.54
-19.04
-25.45
-31.71
-37.75
-43.63
-49.51
-55.67
-62.43
-70.03
-78.4
-86.96
-94.65
-100.01
-101.58
-98.24
-89.49
-75.61
-57.54
-36.68
-14.62
7.08
27.06
44.28
58.05
68.1
74.51
77.62
77.94
76.05
72.57
68.1
63.22
58.39
54.01
50.3
47.32
44.99
43.13
41.5
39.87
38.02
35.77
32.95
29.47
25.31
20.52
15.22
9.55
3.63
-2.46
-8.67
-14.94
-21.2
-27.34
-33.23
-38.81
-44.15
-49.51
-55.3
-61.92
-69.54
-77.83
-85.88
-92.25
-95.29
-93.6
-86.41
-73.82
-56.76
-36.72
-15.4
5.64
25.18
42.28
56.34
66.89
73.68
76.75
76.46
73.53
68.9
63.54
58.19
53.29
48.97
45.25
42.09
39.47
37.36
35.64
34.06
32.26
29.94
26.9
23.1
18.65
13.68
8.33
2.73
-3
-8.78
-14.54
-20.24
-25.93
-31.68
-37.63
-43.9
-50.59
-57.65
-64.82
-71.51
-76.82
-79.63
-78.82
-73.59
-63.69
-49.55
-32.22
-13.14
6.11
24.04
39.44
51.38
59.32
63.13
63.1
59.98
54.82
48.77
42.83
37.65
33.5
30.26
27.67
25.39
23.21
21.01
18.78
16.55
14.24
11.74
8.81
5.19
0.69
-4.73
-10.89
-17.49
-24.14
-30.5
-36.46
-42.07
-47.62
-53.5
-60.1
-67.65
-76.03
-84.63
-92.39
-97.83
-99.45
-96.04
-87.04
-72.66
-53.92
-32.39
-9.9
11.82
31.36
47.73
60.42
69.28
74.49
76.46
75.75
73.01
68.95
64.23
59.41
54.88
50.86
47.38
44.4
41.78
39.4
37.07
34.6
31.84
28.69
25.1
21.08
16.58
11.6
6.08
0.06
-6.35
-12.95
-19.47
-25.71
-31.56
-37.07
-42.43
-47.94
-53.93
-60.61
-67.94
-75.46
-82.24
-86.96
-88.2
-84.72
-75.85
-61.67
-43.04
-21.42
1.46
23.91
44.55
62.38
76.81
87.59
94.74
98.5
99.37
98.06
95.46
92.46
89.83
88.05
87.34
87.64
88.8
90.63
93.01
95.78
98.83
102.02
105.2
108.28
111.17
113.73
115.77
116.94
116.82
115.03
111.28
105.47
97.65
88.09
77.15
65.28
52.94
40.52
28.2
15.86
3.2
-10.16
-24.38
-39.15
-53.69
-66.8
-77.29
-84.36
-87.91
-88.55
-87.44
-85.92
-85.23
-86.32
-89.93
-96.51
-106.26
-118.99
-133.94
-149.84
-165.11
-178.17
-187.77
-193.24
-194.56
-192.19
-186.87
-179.41
-170.54
-160.79
-150.55
-140.07
-129.58
-119.31
-109.49
-100.33
-92
-84.55
-77.94
-72.05
-66.68
-61.52
-56.25
-50.58
-44.47
-38.17
-32.35
-27.86
-25.48
-25.5
-27.51
-30.31
-32.19
-31.45
-26.82
-17.82
-4.83
11.1
28.57
46.09
62.28
76.02
86.51
93.39
96.73
96.96
94.76
90.85
85.8
80.01
73.8
67.53
61.68
56.77
53.19
50.99
49.79
48.88
47.33
44.24
38.99
31.4
21.72
10.56
-1.38
-13.61
-26
-38.81
-52.49
-67.42
-83.66
-100.93
-118.67
-136.16
-152.69
-167.64
-180.5
-190.9
-198.53
-203.02
-203.81
-200.19
-191.38
-176.83
-156.56
-131.27
-102.32
-71.41
-40.22
-10.11
18.08
43.9
67.24
88.18
106.91
123.69
138.78
152.41
164.73
175.68
185.06
192.5
197.54
199.72
198.64
194.06
185.99
174.72
160.82
145.03
128.08
110.56
92.9
75.4
58.38
42.25
27.53
14.72
4.11
-4.33
-10.9
-16.16
-20.74
-25.26
-30.33
-36.44
-43.82
-52.27
-60.99
-68.62
-73.53
-74.26
-70.01
-60.92
-48.03
-32.88
-17.13
-2.09
11.38
22.82
32.07
39.3
45.02
50.02
55.27
61.49
68.86
76.86
84.46
90.62
94.71
96.82
97.64
98.08
98.77
99.85
100.99
101.67
101.5
100.34
98.23
95.18
90.99
85.31
77.84
68.57
57.94
46.73
35.79
25.72
16.71
8.5
0.54
-7.74
-16.76
-26.67
-37.25
-47.94
-57.92
-66.19
-71.76
-73.77
-71.67
-65.32
-55.13
-41.96
-26.99
-11.55
3.17
16.23
27.08
35.48
41.48
45.3
47.31
48
47.99
47.9
48.25
49.37
51.34
54.09
57.38
60.99
64.66
68.14
71.13
73.3
74.28
73.74
71.47
67.41
61.69
54.6
46.45
37.47
27.69
16.97
5.08
-8.12
-22.55
-37.8
-53.11
-67.54
-80.06
-89.69
-95.69
-97.66
-95.53
-89.62
-80.56
-69.2
-56.51
-43.48
-31.15
-20.45
-12.14
-6.63
-3.86
-3.36
-4.4
-6.24
-8.26
-10.12
-11.67
-12.85
-13.68
-14.19
-14.47
-14.69
-15.1
-15.98
-17.53
-19.83
-22.82
-26.27
-29.95
-33.66
-37.31
-40.96
-44.79
-48.99
-53.74
-59.14
-65.14
-71.6
-78.13
-84.06
-88.43
-90.17
-88.31
-82.25
-72.04
-58.33
-42.25
-25.09
-8.1
7.75
21.79
33.57
42.83
49.42
53.3
54.64
53.77
51.27
47.84
44.19
40.85
38.09
35.92
34.14
32.5
30.81
28.97
26.94
24.7
22.2
19.37
16.13
12.51
8.55
4.33
-0.1
-4.75
-9.63
-14.76
-20.13
-25.65
-31.16
-36.5
-41.56
-46.35
-51.15
-56.33
-62.2
-68.7
-75.21
-80.57
-83.3
-82.16
-76.41
-66.17
-52.22
-35.79
-18.24
-0.73
15.79
30.65
43.37
53.59
61.13
65.95
68.24
68.36
66.85
64.3
61.27
58.16
55.24
52.6
50.28
48.31
46.72
45.55
44.75
44.24
43.81
43.23
42.27
40.77
38.71
36.2
33.43
30.57
27.77
25.03
22.29
19.43
16.33
12.94
9.26
5.32
1.19
-3.08
-7.44
-11.78
-16.02
-20.08
-23.94
-27.64
-31.3
-35.05
-38.95
-43.01
-47.14
-51.2
-55.1
-58.9
-62.83
-67.21
-72.39
-78.43
-85.01
-91.21
-95.74
-97.19
-94.43
-87.03
-75.32
-60.26
-43.16
-25.31
-7.78
8.66
23.43
36.1
46.31
53.82
58.63
60.94
61.17
59.83
57.47
54.53
51.44
48.51
46
44.09
42.83
42.16
41.82
41.51
40.91
39.79
38.08
35.78
33.04
29.99
26.83
23.68
20.62
17.64
14.66
11.55
8.23
4.68
0.99
-2.73
-6.38
-9.93
-13.46
-17.06
-20.76
-24.54
-28.29
-31.9
-35.32
-38.61
-41.96
-45.62
-49.84
-54.75
-60.19
-65.71
-70.55
-73.75
-74.39
-71.72
-65.45
-55.77
-43.35
-29.18
-14.34
0.16
13.49
25.02
34.26
40.9
44.79
46.08
45.19
42.84
39.79
36.73
34.09
32.03
30.52
29.48
28.82
28.49
28.36
28.22
27.79
26.81
25.13
22.81
20.05
17.14
14.27
11.54
8.87
6.08
2.98
-0.52
-4.43
-8.62
-12.94
-17.22
-21.35
-25.32
-29.13
-32.87
-36.64
-40.58
-44.87
-49.69
-55.09
-60.82
-66.31
-70.63
-72.67
-71.48
-66.54
-57.86
-46.02
-32.01
-16.94
-1.92
12.14
24.51
34.65
42.27
47.28
49.8
50.19
48.94
46.6
43.72
40.73
37.92
35.49
33.5
31.95
30.77
29.86
29.13
28.46
27.71
26.81
25.62
24
21.88
19.22
16.12
12.79
9.39
6.01
2.56
-1.19
-5.49
-10.45
-15.99
-21.86
-27.74
-33.4
-38.77
-43.89
-48.92
-54.02
-59.39
-65.19
-71.52
-78.31
-85.16
-91.27
-95.5
-96.68
-93.84
-86.57
-75.13
-60.4
-43.6
-26.07
-8.95
6.87
20.86
32.67
42.14
49.22
53.93
56.42
56.97
56
54.02
51.55
49.03
46.78
44.95
43.56
42.49
41.6
40.75
39.83
38.75
37.42
35.75
33.67
31.11
28.02
24.45
20.54
16.44
12.36
8.43
4.61
0.74
-3.45
-8.18
-13.52
-19.3
-25.14
-30.7
-35.73
-40.28
-44.67
-49.38
-54.86
-61.39
-68.87
-76.79
-84.26
-90.1
-93.11
-92.28
-87.04
-77.34
-63.74
-47.17
-28.89
-10.24
7.5
23.26
36.36
46.42
53.45
57.71
59.62
59.67
58.39
56.3
53.91
51.71
50.09
49.29
49.38
50.2
51.49
52.89
54.03
54.56
54.22
52.73
49.89
45.56
39.74
32.65
24.63
16.12
7.57
-0.72
-8.63
-16.23
-23.66
-31.1
-38.63
-46.24
-53.78
-61.07
-67.86
-74.01
-79.39
-83.97
-87.74
-90.72
-92.88
-94.13
-94.18
-92.59
-88.7
-81.77
-71.18
-56.64
-38.38
-17.21
5.59
28.49
49.93
68.61
83.65
94.61
101.46
104.56
104.49
102.04
98.06
93.35
88.56
84.09
80.04
76.27
72.53
68.61
64.39
59.9
55.21
50.41
45.6
40.76
35.89
30.94
25.82
20.43
14.6
8.22
1.23
-6.34
-14.39
-22.91
-31.99
-41.83
-52.68
-64.61
-77.44
-90.71
-103.59
-115.04
-123.86
-128.81
-128.83
-123.22
-111.86
-95.33
-74.78
-51.73
-27.71
-4.06
18.19
38.24
55.38
68.96
78.44
83.49
84.19
81.06
74.98
67.05
58.29
49.51
41.18
33.48
26.37
19.71
13.38
7.29
1.38
-4.37
-9.97
-15.4
-20.54
-25.16
-28.92
-31.48
-32.63
-32.44
-31.27
-29.65
-28.16
-27.16
-26.68
-26.48
-26.19
-25.56
-24.58
-23.62
-23.31
-24.38
-27.37
-32.41
-38.96
-45.79
-51.18
-53.31
-50.78
-43.03
-30.39
-13.94
4.91
24.87
44.88
64.18
82.08
97.85
110.69
119.99
125.54
127.67
127.16
124.99
122.07
118.98
115.93
112.85
109.5
105.59
100.8
94.8
87.17
77.55
65.7
51.83
36.65
21.33
7.22
-4.66
-13.93
-21.04
-26.96
-32.79
-39.28
-46.71
-54.92
-63.59
-72.51
-81.58
-90.75
-99.9
-108.93
-117.81
-126.72
-135.97
-145.67
-155.44
-164.1
-169.84
-170.56
-164.51
-150.82
-129.76
-102.62
-71.45
-38.46
-5.61
25.6
54.24
79.65
101.32
118.78
131.62
139.61
142.87
141.92
137.56
130.74
122.38
113.21
103.74
94.28
85.05
76.18
67.79
59.99
52.81
46.24
40.18
34.48
29.01
23.74
18.75
14.18
10.07
6.29
2.59
-1.35
-5.74
-10.63
-15.91
-21.44
-27.11
-32.88
-38.74
-44.7
-50.79
-57.09
-63.68
-70.5
-77.18
-82.9
-86.41
-86.42
-81.93
-72.64
-59.06
-42.37
-24.08
-5.65
11.78
27.48
40.98
51.9
59.89
64.51
65.47
62.75
56.73
48.23
38.35
28.26
19.01
11.31
5.48
1.49
-0.91
-2.15
-2.67
-2.84
-3
-3.37
-4.11
-5.32
-7.01
-9.18
-11.72
-14.48
-17.29
-19.92
-22.18
-23.93
-25.14
-25.94
-26.61
-27.57
-29.17
-31.59
-34.62
-37.59
-39.46
-38.99
-35.14
-27.4
-16.04
-2.1
12.86
27.17
39.53
49.21
56.1
60.5
62.83
63.44
62.57
60.43
57.27
53.44
49.3
45.17
41.24
37.65
34.49
31.92
30.1
29.13
29.08
29.93
31.67
34.26
37.62
41.54
45.62
49.39
52.54
55.04
57.3
59.99
63.68
68.5
73.85
78.38
80.12
76.77
66.13
46.53
17.43
-20.24
-63.94
-109.8
-153.29
-190.11
-217.03
-232.29
-235.66
-228.2
-211.82
-188.86
-161.86
-133.28
-105.21
-79.27
-56.45
-37.18
-21.45
-9
0.52
7.46
12.2
15.12
16.7
17.49
18.01
18.75
20.02
21.88
24.16
26.47
28.37
29.47
29.54
28.51
26.54
23.84
20.63
17.06
13.22
9.15
4.88
0.54
-3.71
-7.66
-11.07
-13.85
-16.08
-18.02
-20.13
-22.94
-26.94
-32.42
-39.29
-47.04
-54.65
-60.77
-63.96
-62.98
-57.22
-46.8
-32.6
-15.98
1.57
18.82
34.93
49.37
61.79
71.82
79.09
83.33
84.56
83.21
79.97
75.67
71
66.42
62.1
58.11
54.51
51.41
48.98
47.27
46.13
45.21
44.07
42.27
39.55
35.94
31.72
27.35
23.27
19.72
16.63
13.66
10.34
6.35
1.63
-3.56
-8.89
-14.12
-19.22
-24.43
-30.04
-36.22
-43.01
-50.3
-57.9
-65.51
-72.57
-78.24
-81.39
-80.92
-76.06
-66.68
-53.41
-37.45
-20.26
-3.22
12.54
26.16
37.04
44.7
48.86
49.47
46.83
41.62
34.77
27.33
20.19
14.03
9.22
5.89
3.98
3.35
3.76
4.92
6.47
7.97
8.96
9.01
7.8
5.14
1.07
-4.2
-10.36
-17.04
-23.95
-30.84
-37.48
-43.65
-49.16
-53.97
-58.24
-62.35
-66.79
-71.96
-77.95
-84.36
-90.34
-94.66
-96
-93.18
-85.39
-72.37
-54.53
-32.93
-9.17
14.77
36.94
55.69
69.95
79.33
84.08
84.89
82.67
78.4
72.99
67.27
61.91
57.41
54.06
51.86
50.61
49.93
49.33
48.34
46.56
43.78
40.03
35.51
30.5
25.2
19.62
13.64
7.08
-0.16
-7.94
-15.99
-23.98
-31.64
-38.86
-45.67
-52.24
-58.79
-65.62
-73.01
-81.13
-89.9
-98.77
-106.65
-112.04
-113.3
-109.12
-98.85
-82.78
-62.06
-38.4
-13.71
10.32
32.37
51.48
67.01
78.52
85.8
88.98
88.62
85.65
81.17
76.23
71.53
67.43
63.98
61.15
58.93
57.35
56.4
55.86
55.34
54.33
52.35
49.1
44.58
39.02
32.8
26.32
19.85
13.56
7.45
1.46
-4.5
-10.5
-16.6
-22.76
-28.99
-35.25
-41.57
-48.07
-54.95
-62.46
-70.75
-79.72
-88.79
-96.87
-102.42
-103.78
-99.63
-89.3
-73.11
-52.24
-28.48
-3.86
19.73
40.79
58.28
71.63
80.61
85.29
86.05
83.53
78.61
72.36
65.79
59.73
54.66
50.74
47.82
45.67
44.05
42.82
41.81
40.83
39.61
37.79
35.09
31.36
26.68
21.35
15.82
10.5
5.62
1.09
-3.42
-8.34
-14.02
-20.48
-27.42
-34.29
-40.58
-45.99
-50.62
-54.93
-59.56
-65.13
-71.97
-79.92
-88.2
-95.47
-99.97
-100
-94.33
-82.61
-65.48
-44.42
-21.42
1.56
22.86
41.35
56.31
67.39
74.49
77.7
77.43
74.35
69.33
63.34
57.21
51.57
46.74
42.81
39.76
37.53
36.04
35.18
34.73
34.33
33.51
31.87
29.18
25.48
21.04
16.22
11.33
6.5
1.7
-3.15
-8.11
-13.13
-18.14
-23.03
-27.78
-32.38
-36.86
-41.26
-45.69
-50.4
-55.68
-61.76
-68.39
-74.69
-79.17
-80.1
-76.09
-66.56
-52.07
-34.03
-14.32
5.24
23.19
38.55
50.68
59.17
63.84
64.75
62.39
57.61
51.52
45.22
39.6
35.16
31.98
29.86
28.43
27.36
26.39
25.36
24.19
22.79
21.04
18.71
15.55
11.36
6.14
0.06
-6.46
-12.99
-19.1
-24.62
-29.59
-34.25
-38.95
-44
-49.61
-55.77
-62.19
-68.25
-72.98
-75.22
-73.87
-68.17
-58
-43.95
-27.18
-9.19
8.55
24.75
38.42
48.86
55.56
58.27
57.14
52.77
46.15
38.53
31.08
24.64
19.59
15.88
13.23
11.32
9.92
8.89
8.1
7.33
6.24
4.45
1.64
-2.3
-7.21
-12.75
-18.51
-24.18
-29.7
-35.28
-41.31
-48.17
-55.99
-64.43
-72.65
-79.4
-83.28
-83.13
-78.27
-68.69
-55.06
-38.6
-20.77
-3.09
13.17
27.03
37.83
45.2
49.03
49.47
46.99
42.33
36.46
30.38
24.87
20.39
17.07
14.8
13.4
12.7
12.47
12.42
12.15
11.25
9.42
6.57
2.89
-1.32
-5.77
-10.29
-14.95
-19.96
-25.61
-32.07
-39.26
-46.72
-53.56
-58.54
-60.3
-57.72
-50.29
-38.29
-22.82
-5.54
11.76
27.55
40.76
50.82
57.58
61.11
61.65
59.59
55.45
49.98
43.97
38.18
33.15
29.11
25.98
23.42
20.98
18.23
14.87
10.78
6
0.7
-4.93
-10.78
-16.78
-22.95
-29.28
-35.76
-42.38
-49.14
-56.02
-62.92
-69.45
-74.8
-77.8
-77.17
-71.88
-61.63
-46.97
-29.19
-9.97
9.05
26.61
41.85
54.2
63.3
68.91
71.07
70.14
66.87
62.21
57.11
52.27
48.05
44.49
41.41
38.66
36.05
33.45
30.68
27.48
23.54
18.58
12.45
5.22
-2.81
-11.23
-19.61
-27.69
-35.39
-42.89
-50.54
-58.67
-67.48
-76.79
-85.91
-93.64
-98.46
-98.87
-93.88
-83.29
-67.79
-48.8
-28.08
-7.34
12.06
29.17
43.37
54.37
62
66.32
67.51
65.96
62.19
56.83
50.56
44.11
38.17
33.29
29.74
27.47
26.18
25.52
25.16
24.95
24.82
24.59
23.97
22.48
19.7
15.39
9.66
2.9
-4.45
-12.08
-19.99
-28.36
-37.43
-47.36
-58.13
-69.62
-81.6
-93.73
-105.38
-115.54
-122.79
-125.55
-122.45
-112.84
-97
-76.18
-52.25
-27.26
-3.06
19.03
38.17
53.98
66.39
75.49
81.5
84.76
85.73
84.95
82.92
80.1
76.88
73.51
70.2
67.11
64.27
61.67
59.15
56.51
53.59
50.31
46.7
42.89
39
35.08
31.1
26.89
22.23
16.88
10.73
3.77
-3.84
-11.9
-20.19
-28.58
-37.05
-45.75
-54.94
-64.86
-75.56
-86.64
-97.07
-105.3
-109.54
-108.33
-100.89
-87.47
-69.23
-47.87
-25.2
-2.8
18.09
36.62
52.22
64.54
73.41
78.91
81.31
81.16
79.19
76.2
72.94
69.92
67.36
65.26
63.47
61.86
60.42
59.14
57.97
56.7
55.02
52.58
49.19
44.91
39.99
34.77
29.52
24.29
18.9
13.05
6.49
-0.87
-8.9
-17.25
-25.52
-33.43
-40.86
-47.93
-54.92
-62.15
-69.79
-77.73
-85.45
-92.08
-96.44
-97.32
-93.75
-85.28
-72.09
-54.99
-35.28
-14.44
6.13
25.27
42.13
56.11
66.78
73.88
77.34
77.36
74.53
69.66
63.74
57.67
52.06
47.24
43.28
40.1
37.64
35.84
34.66
34.07
33.93
34.03
34.14
34
33.42
32.25
30.45
28.02
24.99
21.44
17.44
13.02
8.16
2.78
-3.25
-9.99
-17.39
-25.25
-33.27
-41.11
-48.53
-55.42
-61.84
-67.96
-74.03
-80.34
-87.07
-94.17
-101.21
-107.31
-111.23
-111.67
-107.59
-98.54
-84.81
-67.32
-47.41
-26.55
-6.1
12.81
29.36
42.98
53.37
60.43
64.29
65.26
63.84
60.67
56.44
51.78
47.19
42.95
39.13
35.67
32.51
29.58
26.89
24.4
22.05
19.71
17.27
14.67
11.93
9.17
6.49
3.94
1.43
-1.26
-4.34
-7.95
-12.05
-16.46
-20.95
-25.31
-29.56
-33.9
-38.71
-44.36
-51.06
-58.64
-66.4
-73.23
-77.72
-78.62
-75.09
-66.98
-54.81
-39.65
-22.8
-5.65
10.59
24.86
36.4
44.73
49.7
51.57
50.87
48.32
44.68
40.63
36.67
33.07
29.93
27.13
24.43
21.6
18.47
15.03
11.43
7.89
4.59
1.54
-1.34
-4.26
-7.37
-10.79
-14.49
-18.41
-22.47
-26.63
-30.93
-35.47
-40.4
-45.92
-52.22
-59.36
-67.18
-75.17
-82.41
-87.67
-89.62
-87.18
-79.76
-67.5
-51.2
-32.14
-11.83
8.29
26.97
43.21
56.3
65.74
71.39
73.42
72.35
68.96
64.11
58.6
53.01
47.74
42.96
38.74
35.15
32.22
29.98
28.32
27
25.64
23.85
21.32
17.99
13.92
9.33
4.36
-0.91
-6.48
-12.37
-18.54
-24.88
-31.24
-37.5
-43.58
-49.43
-55
-60.28
-65.42
-70.68
-76.43
-82.9
-89.91
-96.67
-101.88
-103.96
-101.52
-93.75
-80.63
-63
-42.25
-20.04
2.05
22.7
40.96
56.22
68.14
76.62
81.69
83.6
82.8
79.89
75.62
70.71
65.81
61.35
57.57
54.54
52.17
50.38
49.02
47.95
46.96
45.83
44.29
42.14
39.3
35.82
31.9
27.74
23.47
19.12
14.58
9.76
4.64
-0.66
-5.98
-11.15
-16.1
-20.94
-25.87
-31.04
-36.46
-41.98
-47.35
-52.35
-56.96
-61.38
-66.08
-71.55
-78.19
-86.01
-94.48
-102.53
-108.71
-111.43
-109.34
-101.71
-88.52
-70.52
-49.03
-25.69
-2.18
20
39.65
55.96
68.48
77.08
81.94
83.39
81.99
78.44
73.56
68.16
62.92
58.34
54.64
51.79
49.67
48.07
46.79
45.59
44.24
42.47
40.05
36.82
32.73
27.91
22.59
17.11
11.74
6.63
1.69
-3.32
-8.73
-14.66
-21.06
-27.56
-33.77
-39.41
-44.47
-49.24
-54.21
-59.82
-66.31
-73.53
-80.94
-87.6
-92.31
-93.78
-90.87
-82.88
-69.78
-52.27
-31.66
-9.63
12.07
31.9
48.65
61.49
69.95
73.96
73.9
70.52
64.89
58.2
51.44
45.35
40.25
36.2
33.05
30.66
28.83
27.42
26.25
25.09
23.64
21.65
18.85
15.13
10.51
5.16
-0.65
-6.63
-12.57
-18.37
-24.04
-29.72
-35.56
-41.78
-48.53
-55.88
-63.64
-71.21
-77.56
-81.35
-81.25
-76.27
-66.13
-51.29
-32.91
-12.51
8.24
27.85
45.01
58.71
68.26
73.31
73.99
70.94
65.19
58.01
50.61
43.87
38.23
33.74
30.19
27.32
24.93
22.86
21
19.16
17.15
14.72
11.67
7.88
3.29
-2.07
-8.06
-14.51
-21.16
-27.8
-34.27
-40.61
-46.99
-53.74
-61.21
-69.58
-78.69
-87.92
-96.19
-102.05
-103.92
-100.5
-91.06
-75.73
-55.48
-31.97
-7.18
16.97
38.85
57.29
71.55
81.28
86.5
87.56
85.15
80.21
73.82
67.02
60.65
55.15
50.69
47.11
44.14
41.46
38.82
36.1
33.26
30.3
27.19
23.77
19.77
14.9
9.05
2.29
-5.05
-12.52
-19.67
-26.3
-32.45
-38.43
-44.65
-51.48
-59.15
-67.65
-76.62
-85.28
-92.38
-96.41
-95.82
-89.51
-77.11
-59.25
-37.39
-13.46
10.51
32.81
52.19
67.89
79.52
86.93
90.27
89.91
86.47
80.81
73.95
66.86
60.36
54.92
50.66
47.4
44.79
42.5
40.3
38.08
35.76
33.23
30.25
26.55
21.92
16.29
9.8
2.76
-4.43
-11.45
-18.09
-24.32
-30.23
-36.05
-42.09
-48.64
-55.91
-63.89
-72.15
-79.85
-85.75
-88.4
-86.55
-79.42
-67.02
-50.12
-30.1
-8.69
12.48
32
48.85
62.33
71.95
77.51
79.08
77.1
72.41
66.15
59.47
53.3
48.2
44.26
41.24
38.75
36.47
34.22
31.98
29.79
27.59
25.21
22.39
18.83
14.37
9.1
3.26
-2.77
-8.69
-14.33
-19.78
-25.22
-30.89
-36.98
-43.59
-50.74
-58.23
-65.63
-72.12
-76.56
-77.66
-74.35
-66.11
-53.19
-36.58
-17.78
1.52
19.8
35.84
48.73
57.85
62.92
63.97
61.5
56.37
49.73
42.76
36.4
31.21
27.33
24.55
22.49
20.8
19.27
17.8
16.37
14.89
13.18
10.97
7.99
4.04
-0.87
-6.55
-12.69
-18.97
-25.15
-31.16
-37.11
-43.22
-49.77
-56.91
-64.45
-71.74
-77.74
-81.14
-80.72
-75.67
-65.86
-51.82
-34.7
-15.99
2.79
20.31
35.56
47.9
56.98
62.67
65.04
64.39
61.2
56.19
50.21
44.09
38.56
34.07
30.78
28.57
27.12
26.06
25.01
23.72
22.03
19.92
17.36
14.37
10.91
