1626689194.00
64.000000
-0.00
-0.00
-0.00
-0.00
-0.00
-0.00
-0.00
-0.00
-0.00
-0.00
0.00
0.01
0.01
-0.00
-0.03
-0.05
-0.05
0.00
0.13
0.36
0.66
1.01
1.37
1.72
2.06
2.40
2.79
3.24
3.80
4.42
5.06
5.66
6.20
6.68
7.15
7.68
8.31
9.14
10.09
11.04
11.88
12.56
13.14
13.76
14.65
15.96
17.91
20.32
22.90
25.38
27.58
29.57
31.68
34.32
37.81
42.54
48.15
54.10
59.83
64.97
69.58
74.14
79.34
85.71
93.76
103.00
112.62
121.73
129.77
136.75
143.30
150.75
157.77
166.64
177.95
191.79
206.97
220.57
228.25
225.36
208.53
176.87
132.76
80.05
23.07
-34.94
-92.44
-149.16
-205.23
-260.37
-313.74
-363.87
-409.83
-450.91
-486.50
-515.74
-537.23
-549.22
-549.96
-538.37
-514.21
-478.67
-433.88
-382.45
-327.02
-269.84
-212.63
-156.66
-102.95
-52.37
-5.90
35.58
71.43
101.35
125.50
144.38
158.69
169.15
176.37
180.75
182.57
182.07
179.51
175.23
169.65
163.18
156.15
148.81
141.30
133.69
126.02
118.33
110.69
103.16
95.80
88.68
81.83
75.25
68.95
62.95
57.25
51.86
46.78
42.03
37.59
33.45
29.61
26.07
22.81
19.83
17.11
14.67
12.48
10.54
8.83
7.35
6.07
4.97
4.05
3.27
2.62
2.09
1.65
1.30
1.01
0.79
0.61
0.48
0.37
0.29
0.24
0.21
0.19
0.18
0.18
0.20
0.22
0.25
0.28
0.32
0.36
0.40
0.45
0.49
0.54
0.59
0.64
0.70
0.76
0.83
0.89
0.97
1.06
1.15
1.25
1.37
1.50
1.65
1.82
2.00
2.20
2.43
2.68
2.96
3.27
3.60
3.97
4.38
4.81
5.29
5.80
6.35
6.94
7.57
8.25
8.97
9.74
10.55
11.41
12.31
13.26
14.25
15.32
16.45
17.64
18.89
20.17
21.44
22.65
23.72
24.52
24.95
24.88
24.21
22.85
20.76
17.95
14.50
10.50
6.13
1.59
-2.89
-7.11
-10.86
-14.00
-16.44
-18.17
-19.20
-19.60
-19.48
-18.93
-18.05
-16.93
-15.62
-14.20
-12.72
-11.22
-9.70
-8.21
-6.75
-5.30
-3.83
-2.31
-0.77
0.79
2.34
3.90
5.38
6.79
8.20
9.71
11.37
13.16
15.03
16.90
18.76
20.39
21.80
23.12
24.56
26.21
28.04
29.90
31.57
33.03
33.88
34.16
34.12
34.10
34.28
34.58
34.72
34.28
33.06
30.41
26.23
20.66
13.93
5.98
-3.71
-16.28
-33.83
-54.29
-77.84
-104.81
-135.00
-167.14
-198.56
-225.51
-244.03
-251.08
-245.30
-228.04
-201.89
-169.93
-134.93
-99.05
-63.96
-31.05
-1.57
23.58
43.59
58.49
68.97
75.98
80.35
82.62
83.07
81.91
79.57
76.35
72.85
69.70
67.39
66.06
65.51
65.31
64.92
63.95
62.04
59.16
55.46
51.21
46.57
41.57
36.06
29.85
22.90
15.34
7.51
-0.12
-7.18
-13.61
-19.64
-25.80
-32.69
-40.77
-50.14
-60.32
-70.21
-78.26
-82.74
-82.19
-75.88
-64.01
-47.68
-28.57
-8.52
10.89
28.47
43.43
55.26
63.61
68.37
69.69
68.07
64.37
59.56
54.56
49.99
46.09
42.75
39.77
36.97
34.39
32.22
30.65
29.69
29.10
28.35
26.84
24.07
19.83
14.31
7.99
1.44
-4.86
-10.70
-16.19
-21.66
-27.61
-34.45
-42.39
-51.17
-60.05
-67.81
-72.98
-74.18
-70.49
-61.75
-48.59
-32.30
-14.45
3.37
19.82
33.90
44.89
52.36
56.15
56.45
53.81
49.13
43.54
38.11
33.64
30.44
28.38
27.01
25.83
24.56
23.14
21.68
20.29
18.90
17.23
14.87
11.45
6.85
1.21
-5.13
-11.73
-18.20
-24.33
-30.13
-35.80
-41.72
-48.38
-56.20
-65.39
-75.67
-86.18
-95.40
-101.52
-102.81
-98.17
-87.47
-71.57
-52.13
-31.17
-10.52
8.41
24.79
38.22
48.56
55.83
60.13
61.72
61.07
58.81
55.69
52.40
49.45
47.04
45.13
43.49
41.90
40.27
38.65
37.18
35.93
34.79
33.45
31.47
28.45
24.14
18.63
12.28
5.59
-0.94
-7.03
-12.69
-18.19
-23.89
-30.22
-37.49
-45.90
-55.48
-65.91
-76.38
-85.57
-91.75
-93.22
-88.85
-78.44
-62.87
-43.87
-23.51
-3.69
14.20
29.32
41.31
50.10
55.80
58.68
59.15
57.79
55.28
52.29
49.41
47.04
45.36
44.37
43.92
43.79
43.76
43.64
43.29
42.59
41.46
39.77
37.47
34.53
30.98
26.92
22.43
17.55
12.27
6.58
0.51
-5.80
-12.16
-18.38
-24.40
-30.37
-36.63
-43.61
-51.65
-60.75
-70.42
-79.53
-86.54
-89.76
-87.88
-80.35
-67.63
-51.02
-32.29
-13.20
4.86
20.93
34.47
45.14
52.74
57.23
58.79
57.91
55.29
51.75
48.02
44.66
41.95
40.01
38.81
38.21
38.07
38.16
38.23
38.00
37.25
35.90
33.93
31.40
28.38
24.86
20.75
15.99
10.59
4.65
-1.61
-7.94
-14.20
-20.34
-26.46
-32.74
-39.41
-46.74
-54.89
-63.78
-72.85
-81.04
-86.90
-88.88
-85.87
-77.60
-64.69
-48.57
-30.95
-13.47
2.64
16.55
27.74
35.89
40.81
42.55
41.47
38.26
33.87
29.26
25.18
22.05
19.91
18.55
17.70
17.16
16.81
16.58
16.32
15.73
14.47
12.19
8.75
4.24
-1.00
-6.51
-11.91
-17.00
-21.85
-26.70
-31.95
-37.98
-45.03
-52.96
-61.16
-68.53
-73.65
-75.12
-71.99
-64.00
-51.68
-36.24
-19.16
-1.96
14.11
28.16
39.55
47.93
53.11
55.19
54.49
51.60
47.28
42.36
37.61
33.62
30.70
28.87
27.88
27.35
26.88
26.14
25.02
23.54
21.75
19.60
16.92
13.41
8.79
3.07
-3.47
-10.33
-16.94
-22.97
-28.41
-33.60
-39.05
-45.25
-52.52
-60.92
-70.16
-79.49
-87.76
-93.47
-95.14
-91.66
-82.64
-68.67
-51.06
-31.54
-11.84
6.69
23.12
36.93
47.83
55.73
60.66
62.80
62.53
60.39
57.05
53.22
49.50
46.31
43.83
41.96
40.51
39.22
37.94
36.62
35.32
34.07
32.79
31.24
29.08
26.01
21.88
16.76
10.93
4.75
-1.49
-7.58
-13.47
-19.17
-24.78
-30.44
-36.42
-43.09
-50.78
-59.64
-69.27
-78.66
-86.21
-90.13
-88.95
-82.00
-69.63
-53.12
-34.29
-15.01
3.20
19.33
32.89
43.65
51.55
56.59
58.90
58.77
56.75
53.56
50.01
46.76
44.25
42.63
41.75
41.37
41.17
40.92
40.49
39.80
38.80
37.37
35.36
32.61
28.98
24.44
19.12
13.24
7.11
1.03
-4.82
-10.41
-15.82
-21.23
-26.88
-33.02
-39.89
-47.65
-56.22
-65.11
-73.29
-79.37
-81.83
-79.53
-72.07
-59.97
-44.48
-27.27
-9.94
6.19
20.19
31.38
39.32
43.75
44.74
42.80
38.83
33.96
29.20
25.19
22.14
19.87
18.11
16.65
15.50
14.76
14.48
14.49
14.39
13.68
11.94
8.99
5.01
0.39
-4.37
-8.91
-13.10
-17.14
-21.42
-26.46
-32.68
-40.26
-48.97
-57.99
-66.08
-71.67
-73.30
-70.00
-61.62
-48.82
-32.97
-15.72
1.33
16.92
30.16
40.49
47.63
51.49
52.24
50.37
46.67
42.10
37.57
33.69
30.65
28.31
26.32
24.40
22.48
20.69
19.12
17.70
16.09
13.76
10.27
5.43
-0.55
-7.19
-13.89
-20.24
-26.11
-31.66
-37.29
-43.50
-50.77
-59.37
-69.15
-79.37
-88.66
-95.24
-97.37
-93.82
-84.34
-69.72
-51.56
-31.84
-12.36
5.58
21.20
34.11
44.11
51.09
55.03
56.18
55.08
52.56
49.46
46.46
43.89
41.72
39.79
37.91
36.11
34.51
33.32
32.62
32.26
31.86
30.93
28.97
25.65
20.93
15.05
8.51
1.84
-4.57
-10.57
-16.39
-22.47
-29.34
-37.44
-46.87
-57.29
-67.85
-77.22
-83.86
-86.33
-83.67
-75.71
-63.10
-47.15
-29.43
-11.42
5.70
21.15
34.45
45.25
53.37
58.73
61.46
61.94
60.75
58.57
56.00
53.51
51.33
49.52
48.09
46.99
46.17
45.56
45.04
44.42
43.45
41.90
39.56
36.36
32.31
27.51
22.09
16.20
9.98
3.54
-3.03
-9.62
-16.11
-22.40
-28.49
-34.52
-40.88
-48.03
-56.27
-65.45
-74.78
-82.88
-88.06
-88.76
-84.09
-74.07
-59.66
-42.42
-24.11
-6.28
10.01
24.07
35.55
44.24
49.97
52.79
52.99
51.19
48.26
45.11
42.45
40.62
39.63
39.22
39.09
39.01
38.87
38.67
38.39
37.95
37.21
35.95
33.96
31.10
27.35
22.80
17.63
12.06
6.30
0.50
-5.26
-11.04
-16.99
-23.35
-30.39
-38.26
-46.89
-55.85
-64.27
-71.00
-74.76
-74.52
-69.75
-60.61
-47.92
-32.94
-17.10
-1.68
12.31
24.17
33.37
39.58
42.66
42.77
40.48
36.68
32.38
28.52
25.66
23.89
22.97
22.46
21.96
21.27
20.36
19.35
18.30
17.16
15.65
13.38
10.04
5.49
-0.05
-6.09
-12.08
-17.65
-22.76
-27.80
-33.32
-39.84
-47.57
-56.38
-65.81
-75.08
-83.24
-89.21
-91.87
-90.29
-84.00
-73.14
-58.55
-41.58
-23.78
-6.54
9.11
22.57
33.53
41.90
47.65
50.90
51.94
51.26
49.47
47.19
45.02
43.35
42.37
42.10
42.43
43.12
43.90
44.42
44.33
43.41
41.55
38.83
35.41
31.45
27.07
22.27
17.03
11.35
5.28
-1.05
-7.51
-14.02
-20.50
-26.92
-33.26
-39.60
-46.11
-53.12
-60.98
-69.80
-79.17
-88.05
-94.90
-98.08
-96.34
-89.28
-77.40
-61.96
-44.55
-26.67
-9.48
6.26
20.06
31.62
40.72
47.26
51.38
53.42
53.89
53.40
52.46
51.48
50.67
50.10
49.76
49.57
49.53
49.66
50.00
50.55
51.16
51.50
51.15
49.66
46.79
42.62
37.54
32.13
26.93
22.23
18.00
13.91
9.57
4.66
-0.93
-7.05
-13.41
-19.67
-25.58
-31.02
-36.03
-40.82
-45.78
-51.37
-58.03
-65.97
-74.93
-84.06
-91.93
-96.88
-97.41
-92.70
-82.82
-68.69
-51.78
-33.68
-15.74
1.10
16.20
29.19
39.77
47.73
53.07
55.99
56.94
56.51
55.29
53.74
52.19
50.82
49.74
49.02
48.70
48.79
49.20
49.79
50.30
50.44
49.90
48.40
45.86
42.38
38.27
33.94
29.74
25.82
22.06
18.14
13.72
8.57
2.69
-3.72
-10.32
-16.80
-22.92
-28.69
-34.26
-40.00
-46.32
-53.61
-61.96
-71.01
-79.87
-87.19
-91.40
-91.19
-85.89
-75.65
-61.54
-45.14
-28.12
-11.87
2.70
15.11
25.11
32.53
37.22
39.19
38.77
36.59
33.59
30.66
28.44
27.15
26.60
26.45
26.33
26.03
25.55
24.95
24.24
23.32
21.91
19.73
16.55
12.34
7.29
1.76
-3.82
-9.12
-14.00
-18.58
-23.21
-28.33
-34.32
-41.35
-49.35
-57.91
-66.30
-73.51
-78.36
-79.70
-76.69
-69.09
-57.33
-42.52
-26.09
-9.46
6.25
20.30
32.30
41.96
49.02
53.28
54.69
53.55
50.48
46.36
42.13
38.54
36.01
34.57
33.95
33.73
33.48
32.94
32.01
30.72
29.18
27.36
25.16
22.33
18.60
13.83
8.08
1.61
-5.20
-11.98
-18.43
-24.46
-30.19
-35.90
-41.98
-48.88
-56.88
-66.00
-75.82
-85.37
-93.25
-97.87
-97.85
-92.37
-81.52
-66.22
-48.01
-28.66
-9.76
7.50
22.43
34.64
43.94
50.27
53.69
54.48
53.14
50.40
47.08
43.93
41.47
39.96
39.36
39.42
39.76
40.01
39.92
39.36
38.35
36.94
35.12
32.72
29.45
25.06
19.46
12.83
5.60
-1.70
-8.63
-14.95
-20.61
-25.71
-30.42
-34.96
-39.67
-44.92
-51.04
-58.10
-65.64
-72.54
-77.23
-78.14
-74.17
-65.21
-52.08
-36.32
-19.61
-3.34
11.67
25.01
36.47
45.74
52.40
56.08
56.72
54.75
51.07
46.75
42.75
39.64
37.57
36.30
35.43
34.57
33.39
31.81
29.81
27.48
24.84
21.83
18.22
13.75
8.14
1.38
-6.40
-14.91
-23.83
-32.87
-41.71
-49.95
-57.06
-62.52
-66.15
-68.25
-69.66
-71.49
-74.58
-79.06
-84.07
-87.99
-88.87
-85.09
-75.88
-61.53
-43.41
-23.62
-4.58
11.45
22.85
28.86
29.59
25.87
18.93
9.99
0.11
-10.06
-20.29
-30.90
-42.50
-55.61
-69.74
-82.75
-90.84
-89.69
-76.41
-51.26
-17.99
17.46
49.50
74.99
94.14
109.32
123.15
136.74
149.30
159.02
164.45
165.30
162.35
156.69
149.03
139.71
129.15
118.39
109.11
103.08
101.54
104.48
110.65
117.89
123.85
126.54
124.73
117.99
106.63
91.56
74.04
55.53
37.36
20.52
5.48
-7.77
-19.55
-30.24
-40.09
-49.12
-57.18
-64.14
-69.88
-74.50
-78.24
-81.52
-84.79
-88.43
-92.62
-97.26
-101.98
-106.28
-109.77
-112.28
-114.08
-115.69
-117.89
-121.39
-126.57
-133.30
-140.71
-147.24
-150.91
-149.78
-142.60
-129.15
-110.36
-87.99
-64.01
-40.15
-17.64
2.82
20.72
35.63
47.14
55.04
59.47
61.03
60.61
59.21
57.64
56.35
55.47
54.86
54.33
53.69
52.89
51.97
50.96
49.87
48.54
46.68
43.93
39.97
34.67
28.14
20.76
13.00
5.32
-2.04
-9.03
-15.86
-22.84
-30.32
-38.57
-47.82
-58.13
-69.28
-80.62
-90.95
-98.65
-101.99
-99.66
-91.14
-76.93
-58.38
-37.28
-15.46
5.62
24.89
41.63
55.31
65.58
72.29
75.62
76.13
74.66
72.17
69.48
67.17
65.48
64.40
63.81
63.54
63.46
63.48
63.46
63.25
62.69
61.61
59.88
57.48
54.38
50.62
46.27
41.45
36.25
30.79
25.17
19.46
13.68
7.82
1.85
-4.28
-10.57
-17.01
-23.47
-29.84
-36.00
-41.92
-47.71
-53.62
-60.07
-67.48
-76.19
-86.14
-96.75
-106.77
-114.50
-118.11
-116.14
-107.95
-93.90
-75.21
-53.67
-31.17
-9.35
10.56
27.78
41.84
52.56
59.97
64.30
65.99
65.70
64.17
62.12
60.13
58.54
57.46
56.80
56.47
56.39
56.49
56.69
56.80
56.46
55.28
52.98
49.50
45.07
40.11
35.05
30.18
25.51
20.84
15.86
10.34
4.30
-2.09
-8.49
-14.66
-20.52
-26.18
-31.93
-38.14
-45.10
-52.97
-61.64
-70.61
-78.94
-85.28
-88.19
-86.48
-79.67
-68.08
-52.83
-35.47
-17.60
-0.54
14.74
27.56
37.46
44.13
47.49
47.76
45.53
41.71
37.33
33.40
30.62
29.33
29.42
30.43
31.73
32.71
33.04
32.66
31.70
30.32
28.52
26.14
22.91
18.64
13.35
7.30
0.87
-5.57
-11.81
-17.77
-23.55
-29.27
-35.20
-41.60
-48.80
-56.98
-66.01
-75.24
-83.52
-89.41
-91.50
-88.83
-81.16
-68.98
-53.38
-35.72
-17.41
0.31
16.45
30.28
41.31
49.29
54.24
56.38
56.19
54.32
51.50
48.45
45.73
43.70
42.50
42.10
42.31
42.84
43.32
43.33
42.53
40.73
37.99
34.53
30.67
26.64
22.44
17.94
12.92
7.24
1.00
-5.50
-11.87
-17.80
-23.22
-28.32
-33.52
-39.29
-46.04
-53.92
-62.74
-71.90
-80.44
-87.14
-90.70
-90.12
-84.84
-75.03
-61.48
-45.43
-28.26
-11.22
4.76
19.02
31.10
40.66
47.51
51.69
53.48
53.44
52.30
50.68
49.05
47.58
46.29
45.13
44.08
43.20
42.54
42.09
41.68
41.06
39.91
37.98
35.17
31.54
27.30
22.70
17.94
13.07
8.03
2.70
-2.99
-9.01
-15.16
-21.17
-26.81
-32.00
-36.87
-41.76
-47.16
-53.50
-60.99
-69.40
-77.89
-85.09
-89.31
-89.01
-83.24
-71.97
-56.17
-37.49
-17.86
0.98
17.76
31.76
42.71
50.59
55.55
57.87
57.97
56.48
54.06
51.35
48.81
46.68
45.03
43.78
42.86
42.17
41.62
41.13
40.54
39.69
38.41
36.57
34.10
31.04
27.49
23.53
19.25
14.65
9.69
4.30
-1.47
-7.49
-13.49
-19.22
-24.49
-29.34
-34.00
-38.83
-44.28
-50.64
-57.88
-65.55
-72.70
-78.08
-80.37
-78.60
-72.39
-62.08
-48.69
-33.55
-18.06
-3.34
9.84
21.00
29.82
36.08
39.67
40.66
39.45
36.67
33.11
29.52
26.49
24.26
22.87
22.12
21.80
21.67
21.59
21.40
20.97
20.15
18.74
16.60
13.65
9.97
5.72
1.16
-3.46
-8.06
-12.67
-17.44
-22.54
-28.02
-33.88
-40.05
-46.52
-53.22
-59.90
-65.96
-70.42
-72.12
-70.11
-64.02
-54.23
-41.79
-27.99
-14.02
-0.72
11.30
21.60
29.72
35.22
37.92
38.06
36.28
33.51
30.66
28.35
26.85
26.11
25.96
26.17
26.52
26.79
26.70
26.01
24.57
22.40
19.68
16.60
13.22
9.43
4.99
-0.29
-6.39
-13.02
-19.76
-26.22
-32.19
-37.73
-43.11
-48.71
-54.94
-62.06
-70.08
-78.51
-86.31
-92.00
-94.03
-91.22
-83.23
-70.71
-55.04
-37.92
-20.84
-4.84
9.51
21.93
32.23
40.20
45.66
48.62
49.32
48.26
46.07
43.39
40.78
38.57
36.95
35.89
35.28
34.90
34.56
34.03
33.19
31.92
30.17
27.93
25.17
21.84
17.88
13.26
7.98
2.16
-3.98
-10.21
-16.28
-22.09
-27.65
-33.17
-38.94
-45.34
-52.63
-60.79
-69.38
-77.44
-83.62
-86.46
-84.79
-78.16
-66.97
-52.32
-35.71
-18.64
-2.29
12.55
25.38
35.92
43.97
49.50
52.64
53.72
53.23
51.70
49.64
47.47
45.48
43.88
42.73
42.07
41.81
41.79
41.77
41.50
40.74
39.33
37.20
34.38
30.91
26.87
22.31
17.30
11.97
6.51
1.08
-4.23
-9.43
-14.64
-20.01
-25.69
-31.82
-38.56
-46.02
-54.19
-62.66
-70.56
-76.61
-79.44
-77.96
-71.73
-61.13
-47.17
-31.23
-14.68
1.31
15.87
28.37
38.39
45.62
49.98
51.62
50.95
48.64
45.48
42.22
39.43
37.40
36.11
35.31
34.66
33.86
32.74
31.27
29.55
27.73
25.85
23.88
21.67
19.00
15.70
11.71
7.16
2.23
-2.83
-7.86
-12.88
-18.05
-23.61
-29.78
-36.68
-44.20
-52.05
-59.70
-66.30
-70.85
-72.29
-69.80
-63.05
-52.37
-38.73
-23.41
-7.82
6.87
19.79
30.29
37.90
42.34
43.57
41.94
38.24
33.56
29.07
25.61
23.52
22.58
22.19
21.73
20.84
19.53
18.12
16.99
16.26
15.66
14.66
12.67
9.38
4.82
-0.60
-6.39
-12.12
-17.64
-23.01
-28.47
-34.31
-40.82
-48.22
-56.52
-65.37
-73.97
-81.05
-85.14
-84.93
-79.77
-69.84
-56.16
-40.22
-23.54
-7.34
7.59
20.80
31.98
40.84
47.12
50.68
51.68
50.61
48.20
45.29
42.57
40.52
39.25
38.69
38.61
38.72
38.82
38.76
38.45
37.83
36.82
35.31
33.18
30.34
26.72
22.31
17.18
11.39
5.08
-1.61
-8.45
-15.23
-21.78
-28.14
-34.51
-41.29
-48.87
-57.37
-66.46
-75.24
-82.37
-86.36
-85.98
-80.65
-70.55
-56.64
-40.28
-22.97
-6.02
9.55
23.05
34.02
42.25
47.76
50.80
51.86
51.53
50.39
48.91
47.42
46.10
45.08
44.44
44.24
44.41
44.80
45.16
45.17
44.58
43.21
41.02
38.11
34.66
30.88
26.92
22.78
18.39
13.56
8.19
2.29
-3.94
-10.14
-15.96
-21.13
-25.66
-29.81
-34.14
-39.23
-45.60
-53.35
-62.04
-70.63
-77.64
-81.46
-80.89
-75.39
-65.31
-51.67
-35.88
-19.35
-3.22
11.68
24.83
35.80
44.30
50.18
53.54
54.74
54.38
53.13
51.58
50.12
48.91
47.98
47.26
46.76
46.53
46.62
47.06
47.72
48.35
48.57
47.95
46.19
43.13
38.92
33.91
28.55
23.21
18.07
13.07
8.03
2.78
-2.76
-8.47
-14.16
-19.61
-24.75
-29.63
-34.50
-39.72
-45.69
-52.64
-60.53
-68.85
-76.59
-82.44
-85.09
-83.59
-77.66
-67.68
-54.65
-39.77
-24.32
-9.36
4.22
15.80
24.88
31.25
34.94
36.27
35.78
34.11
31.90
29.68
27.86
26.66
26.15
26.27
26.82
27.53
28.12
28.34
28.03
27.12
25.57
23.39
20.52
16.95
12.69
7.85
2.64
-2.70
-7.94
-12.94
-17.66
-22.19
-26.70
-31.40
-36.53
-42.37
-49.09
-56.75
-64.99
-73.06
-79.75
-83.66
-83.62
-78.96
-69.85
-57.12
-42.07
-26.08
-10.36
4.21
16.97
27.49
35.51
40.95
44.03
45.22
45.09
44.25
43.16
42.15
41.36
40.89
40.74
40.83
41.01
41.09
40.84
40.11
38.81
36.93
34.47
31.46
27.92
23.94
19.66
15.24
10.79
6.29
1.66
-3.22
-8.41
-13.89
-19.53
-25.15
-30.61
-35.87
-41.06
-46.53
-52.69
-59.89
-68.11
-76.76
-84.66
-90.27
-92.13
-89.32
-81.74
-70.05
-55.47
-39.36
-22.92
-7.07
7.55
20.42
31.20
39.59
45.49
48.99
50.38
50.11
48.74
46.84
44.94
43.33
42.16
41.40
40.93
40.71
40.73
41.00
41.44
41.80
41.68
40.70
38.61
35.44
31.47
27.11
22.68
18.34
13.99
9.44
4.50
-0.86
-6.54
-12.26
-17.78
-22.90
-27.61
-32.04
-36.49
-41.31
-46.83
-53.28
-60.60
-68.39
-75.87
-81.87
-85.08
-84.38
-79.17
-69.57
-56.44
-41.08
-24.91
-9.11
5.51
18.43
29.31
37.87
43.91
47.43
48.71
48.25
46.73
44.82
43.05
41.77
41.09
41.02
41.39
42.01
42.69
43.29
43.68
43.78
43.45
42.51
40.79
38.24
34.99
31.31
27.51
23.72
19.89
15.73
11.03
5.69
-0.08
-5.88
-11.37
-16.35
-20.92
-25.36
-30.03
-35.21
-41.08
-47.74
-55.13
-62.97
-70.61
-77.00
-80.80
-80.75
-76.09
-66.81
-53.76
-38.34
-22.12
-6.49
7.61
19.57
29.08
35.95
40.12
41.70
41.08
38.90
35.93
32.94
30.50
28.87
28.01
27.70
27.64
27.58
27.37
26.97
26.36
25.49
24.29
22.59
20.25
17.17
13.38
9.07
4.50
-0.03
-4.37
-8.51
-12.60
-16.86
-21.48
-26.52
-32.04
-38.08
-44.69
-51.84
-59.18
-65.92
-70.91
-72.86
-70.76
-64.27
-53.83
-40.46
-25.54
-10.34
4.15
17.22
28.37
37.21
43.43
46.84
47.51
45.81
42.37
38.00
33.48
29.47
26.36
24.26
23.04
22.42
22.05
21.63
20.90
19.70
17.95
15.61
12.67
9.10
4.89
0.01
-5.46
-11.43
-17.72
-24.16
-30.61
-36.97
-43.24
-49.43
-55.64
-62.03
-68.82
-76.18
-84.05
-91.94
-98.79
-103.13
-103.39
-98.36
-87.64
-71.74
-52.06
-30.43
-8.70
11.60
29.42
44.10
55.25
62.70
66.50
66.97
64.78
60.84
56.12
51.44
47.33
44.05
41.63
40.11
39.52
39.96
41.47
43.97
47.19
50.68
53.89
56.15
56.85
55.53
51.93
46.08
38.23
28.78
18.19
6.88
-4.76
-16.35
-27.53
-38.11
-48.04
-57.54
-66.91
-76.28
-85.38
-93.36
-98.93
-100.75
-97.82
-89.94
-77.69
-62.30
-45.24
-27.87
-11.31
3.63
16.36
26.48
33.77
38.26
40.25
40.29
39.07
37.30
35.58
34.31
33.73
33.84
34.52
35.47
36.30
36.61
36.07
34.49
31.92
28.54
24.65
20.49
16.19
11.76
7.10
2.15
-3.04
-8.28
-13.31
-17.89
-21.89
-25.38
-28.58
-31.83
-35.52
-40.01
-45.40
-51.51
-57.65
-62.69
-65.23
-64.02
-58.32
-48.22
-34.54
-18.58
-1.64
15.28
31.45
46.28
59.15
69.31
76.16
79.46
79.57
77.32
73.75
69.71
65.73
61.99
58.54
55.48
53.01
51.27
50.20
49.45
48.47
46.75
44.00
40.26
35.82
30.96
25.88
20.58
15.00
9.09
2.92
-3.36
-9.58
-15.68
-21.74
-27.95
-34.52
-41.62
-49.33
-57.57
-66.04
-74.22
-81.26
-86.06
-87.50
-84.71
-77.36
-65.85
-51.22
-34.87
-18.23
-2.45
11.64
23.53
32.85
39.33
42.89
43.73
42.35
39.59
36.38
33.53
31.52
30.42
30.00
29.88
29.76
29.46
28.95
28.22
27.16
25.58
23.26
20.07
16.06
11.48
6.64
1.80
-2.92
-7.61
-12.45
-17.69
-23.52
-30.05
-37.33
-45.28
-53.59
-61.57
-68.19
-72.19
-72.43
-68.20
-59.57
-47.36
-32.89
-17.60
-2.71
11.00
23.05
33.12
40.90
46.06
48.40
48.06
45.58
41.83
37.79
34.25
31.65
30.05
29.21
28.83
28.64
28.48
28.28
27.93
27.26
26.03
23.98
20.99
17.04
12.33
7.12
1.68
-3.82
-9.34
-14.96
-20.81
-27.04
-33.80
-41.26
-49.54
-58.64
-68.26
-77.62
-85.44
-90.20
-90.56
-85.80
-76.08
-62.40
-46.26
-29.25
-12.57
2.98
17.00
29.26
39.54
47.54
53.03
56.04
56.86
56.09
54.42
52.46
50.61
49.03
47.78
46.86
46.31
46.20
46.44
46.76
46.79
46.11
44.45
41.77
38.21
34.02
29.35
24.27
18.77
12.84
6.50
-0.09
-6.73
-13.24
-19.54
-25.74
-32.03
-38.69
-45.91
-53.74
-62.02
-70.27
-77.74
-83.39
-86.11
-84.97
-79.48
-69.75
-56.51
-40.86
-24.00
-6.99
9.40
24.62
38.20
49.66
58.57
64.67
67.98
68.90
68.06
66.21
63.97
61.77
59.82
58.16
56.75
55.56
54.56
53.70
52.85
51.78
50.21
47.86
44.60
40.47
35.68
30.52
25.27
20.11
15.17
10.57
6.47
3.09
0.59
-1.02
-1.98
-2.75
-3.88
-5.88
-9.13
-13.82
-20.06
-27.86
-37.13
-47.51
-58.28
-68.33
-76.29
-80.89
-81.20
-76.97
-68.58
-56.92
-43.16
-28.42
-13.68
0.23
12.70
23.20
31.39
37.14
40.55
41.99
41.93
40.93
39.43
37.79
36.21
34.86
33.83
33.19
32.95
33.03
33.26
33.37
33.12
32.35
31.01
29.18
26.96
24.40
21.49
18.10
14.12
9.53
4.40
-1.06
-6.64
-12.10
-17.31
-22.25
-27.00
-31.78
-36.83
-42.40
-48.66
-55.51
-62.49
-68.77
-73.22
-74.71
-72.38
-65.93
-55.75
-42.74
-28.16
-13.26
0.89
13.53
24.15
32.46
38.27
41.58
42.55
41.58
39.25
36.20
33.02
30.18
27.90
26.27
25.26
24.79
24.72
24.88
25.03
24.86
24.11
22.62
20.41
17.59
14.37
10.89
7.16
3.10
-1.43
-6.47
-11.98
-17.73
-23.43
-28.83
-33.79
-38.32
-42.63
-47.00
-51.78
-57.31
-63.72
-70.92
-78.40
-85.20
-90.08
-91.70
-89.10
-81.92
-70.59
-56.21
-40.20
-23.90
-8.29
6.04
18.77
29.65
38.40
44.81
48.83
50.69
50.91
50.15
48.96
47.71
46.53
45.43
44.37
43.35
42.34
41.32
40.16
38.76
37.00
34.83
32.27
29.36
26.16
22.75
19.21
15.61
11.94
8.13
4.04
-0.47
-5.46
-10.85
-16.45
-21.97
-27.10
-31.58
-35.34
-38.55
-41.63
-45.12
-49.50
-54.87
-60.81
-66.34
-70.21
-71.25
-68.76
-62.64
-53.42
-41.95
-29.17
-15.95
-2.96
9.21
20.10
29.28
36.41
41.35
44.13
45.01
44.46
43.01
41.24
39.60
38.32
37.41
36.78
36.30
35.97
35.87
36.09
36.62
37.24
37.57
37.19
35.83
33.43
30.17
26.37
22.37
18.37
14.45
10.54
6.54
2.41
-1.84
-6.11
-10.26
-14.26
-18.15
-22.05
-26.16
-30.62
-35.56
-41.03
-47.07
-53.58
-60.17
-66.15
-70.52
-72.22
-70.43
-64.89
-55.94
-44.49
-31.63
-18.47
-5.82
5.70
15.64
23.62
29.31
32.51
33.27
31.96
29.23
25.87
22.58
19.87
17.99
16.94
16.56
16.61
16.86
17.14
17.28
17.19
16.80
16.01
14.79
13.12
11.06
8.66
6.03
3.24
0.24
-3.05
-6.74
-10.88
-15.42
-20.17
-25.00
-29.82
-34.69
-39.83
-45.40
-51.43
-57.58
-63.14
-67.04
-68.18
-65.74
-59.51
-49.93
-38.01
-25.01
-12.06
0.01
10.66
19.58
26.52
31.24
33.67
33.96
32.55
30.09
27.19
24.34
21.76
19.53
17.64
16.17
15.21
14.82
14.93
15.27
15.47
15.14
14.07
12.22
9.72
6.78
3.57
0.21
-3.29
-6.95
-10.85
-15.02
-19.46
-24.07
-28.76
-33.45
-38.16
-43.08
-48.47
-54.58
-61.40
-68.54
-75.15
-80.04
-82.02
-80.21
-74.31
-64.64
-52.04
-37.63
-22.53
-7.71
6.05
18.14
28.11
35.68
40.76
43.54
44.41
43.90
42.54
40.77
38.91
37.14
35.59
34.30
33.32
32.65
32.24
31.99
31.74
31.33
30.59
29.40
27.65
25.27
22.26
18.69
14.69
10.39
5.87
1.12
-3.92
-9.28
-14.85
-20.44
-25.81
-30.84
-35.67
-40.68
-46.35
-53.02
-60.56
-68.24
-74.77
-78.64
-78.60
-73.97
-64.93
-52.38
-37.62
-22.01
-6.69
7.50
19.99
30.41
38.48
44.15
47.54
48.96
48.88
47.82
46.23
44.46
42.75
41.21
39.93
38.97
38.40
38.28
38.54
38.96
39.18
38.75
37.37
34.98
31.77
28.15
24.46
20.84
17.19
13.23
8.71
3.60
-1.93
-7.60
-13.12
-18.39
-23.56
-28.91
-34.78
-41.40
-48.78
-56.58
-64.07
-70.20
-73.76
-73.70
-69.40
-60.94
-49.03
-34.84
-19.72
-4.87
8.84
20.78
30.59
37.95
42.69
44.77
44.45
42.26
38.95
35.35
32.09
29.54
27.72
26.45
25.52
24.77
24.15
23.68
23.31
22.87
22.08
20.60
18.14
14.55
9.91
4.47
-1.32
-6.99
-12.17
-16.70
-20.69
-24.51
-28.63
-33.45
-39.21
-45.79
-52.72
-59.14
-63.90
-65.80
-63.85
-57.63
-47.40
-34.11
-19.07
-3.73
10.64
23.06
32.81
39.48
42.99
43.58
41.87
38.76
35.14
31.76
29.07
27.14
25.85
24.91
23.98
22.81
21.27
19.37
17.23
14.98
12.66
10.09
7.02
3.21
-1.40
-6.58
-11.98
-17.25
-22.23
-27.09
-32.17
-37.94
-44.74
-52.70
-61.55
-70.58
-78.66
-84.43
-86.62
-84.38
-77.57
-66.77
-53.10
-37.90
-22.35
-7.31
6.67
19.17
29.77
38.04
43.64
46.56
47.15
46.14
44.40
42.64
41.22
40.17
39.28
38.36
37.36
36.38
35.54
34.89
34.25
33.29
31.68
29.15
25.67
21.37
16.54
11.50
6.49
1.56
-3.42
-8.76
-14.78
-21.76
-29.74
-38.50
-47.46
-55.71
-62.20
-65.86
-65.85
-61.78
-53.81
-42.66
-29.42
-15.22
-1.04
12.45
24.91
36.02
45.48
52.88
57.85
60.24
60.27
58.53
55.81
52.97
50.64
49.23
48.81
49.22
50.11
51.00
51.44
51.07
49.75
47.51
44.45
40.72
36.35
31.30
25.56
19.17
12.31
5.18
-2.01
-9.17
-16.27
-23.30
-30.24
-37.04
-43.72
-50.39
-57.24
-64.36
-71.50
-77.98
-82.69
-84.36
-82.00
-75.20
-64.27
-50.10
-33.82
-16.50
1.01
18.03
33.87
47.78
58.97
66.82
71.13
72.19
70.75
67.75
64.10
60.49
57.33
54.79
52.89
51.56
50.68
50.06
49.44
48.50
46.93
44.46
41.00
36.53
31.23
25.29
18.95
12.39
5.78
-0.74
-7.05
-13.06
-18.80
-24.38
-30.00
-35.89
-42.21
-48.90
-55.63
-61.68
-66.15
-68.04
-66.59
-61.51
-53.04
-41.89
-29.06
-15.58
-2.35
9.88
20.43
28.71
34.26
36.90
36.87
34.78
31.52
27.95
24.71
22.09
20.09
18.57
17.39
16.52
15.93
15.60
15.37
14.94
14.00
12.25
9.56
5.99
1.79
-2.73
-7.29
-11.71
-15.99
-20.25
-24.69
-29.47
-34.76
-40.61
-47.02
-53.75
-60.34
-66.04
-69.90
-70.97
-68.58
-62.54
-53.18
-41.26
-27.75
-13.57
0.47
13.72
25.60
35.57
43.19
48.20
50.65
50.89
49.55
47.31
44.78
42.38
40.32
38.70
37.56
36.95
36.85
37.18
37.67
38.02
37.91
37.15
35.64
33.44
30.66
27.42
23.83
19.93
15.76
11.29
6.51
1.44
-3.87
-9.28
-14.63
-19.77
-24.59
-29.10
-33.40
-37.71
-42.30
-47.44
-53.32
-59.88
-66.65
-72.72
-76.86
-77.81
-74.73
-67.45
-56.54
-43.17
-28.66
-14.25
-0.83
11.01
20.92
28.68
34.25
37.72
39.43
39.83
39.38
38.49
37.44
36.48
35.80
35.58
35.94
36.86
38.20
39.69
41.05
42.02
42.47
42.35
41.69
40.55
38.95
36.84
34.17
30.85
26.84
22.21
17.08
11.69
6.28
1.05
-3.90
-8.54
-12.90
-16.96
-20.63
-23.80
-26.41
-28.60
-30.72
-33.24
-36.63
-41.17
-46.83
-53.29
-59.93
-65.96
-70.50
-72.64
-71.65
-67.09
-58.98
-47.87
-34.71
-20.64
-6.72
6.18
17.49
26.85
34.03
38.93
41.57
42.18
41.24
39.40
37.36
35.66
34.59
34.12
34.05
34.08
34.02
33.79
33.40
32.88
32.22
31.30
29.97
28.14
25.79
23.02
19.95
16.64
13.09
9.25
5.09
0.73
-3.67
-7.91
-11.90
-15.74
-19.63
-23.79
-28.38
-33.42
-38.87
-44.56
-50.20
-55.28
-59.05
-60.65
-59.35
-54.77
-47.05
-36.83
-25.07
-12.84
-1.07
9.44
18.08
24.44
28.31
29.73
29.05
26.83
23.76
20.50
17.60
15.40
14.03
13.47
13.52
13.93
14.43
14.78
14.85
14.54
13.82
12.63
10.88
8.46
5.34
1.54
-2.76
-7.32
-11.91
-16.45
-20.94
-25.50
-30.26
-35.33
-40.74
-46.56
-52.80
-59.42
-66.12
-72.24
-76.77
-78.57
-76.72
-70.87
-61.34
-49.08
-35.27
-21.05
-7.31
5.33
16.40
25.52
32.37
36.77
38.78
38.78
37.32
35.02
32.41
29.86
27.58
25.69
24.28
23.40
23.06
23.13
23.39
23.50
23.17
22.21
20.58
18.34
15.54
12.27
8.53
4.41
0.02
-4.46
-8.87
-13.18
-17.41
-21.67
-26.10
-30.80
-35.89
-41.49
-47.68
-54.39
-61.26
-67.58
-72.29
-74.23
-72.48
-66.66
-57.06
-44.54
-30.29
-15.48
-1.11
12.10
23.57
32.82
39.46
43.36
44.73
44.17
42.44
40.29
38.20
36.37
34.84
33.62
32.83
32.61
33.03
33.91
34.87
35.47
35.31
34.26
32.42
30.00
27.21
24.12
20.68
16.82
12.49
7.71
2.63
-2.55
-7.62
-12.43
-16.96
-21.32
-25.70
-30.41
-35.73
-41.76
-48.36
-55.00
-60.76
-64.51
-65.15
-61.96
-54.77
-44.07
-30.86
-16.40
-1.93
11.51
23.21
32.78
40.00
44.84
47.40
47.97
46.97
44.93
42.42
39.86
37.53
35.62
34.18
33.28
32.93
33.09
33.58
34.13
34.40
34.13
33.16
31.47
29.08
26.05
22.40
18.16
13.46
8.46
3.39
-1.56
-6.33
-10.97
-15.63
-20.50
-25.75
-31.49
-37.76
-44.40
-51.02
-56.96
-61.28
-63.00
-61.39
-56.11
-47.43
-36.12
-23.23
-9.90
2.89
14.36
23.96
31.29
36.12
38.39
38.26
36.16
32.76
28.82
25.05
21.91
19.58
18.00
16.99
16.35
15.98
15.78
15.68
15.50
15.01
13.92
12.07
9.37
5.93
1.95
-2.34
-6.73
-11.13
-15.53
-19.99
-24.63
-29.60
-35.09
-41.19
-47.91
-54.93
-61.56
-66.74
-69.26
-68.13
-62.91
-53.93
-42.14
-28.78
-15.02
-1.76
10.45
21.20
30.09
36.65
40.54
41.70
40.52
37.74
34.32
31.05
28.43
26.61
25.48
24.84
24.51
24.36
24.27
24.10
23.68
22.85
21.50
19.62
17.21
14.31
10.91
7.03
2.70
-2.01
-6.93
-11.92
-16.84
-21.68
-26.51
-31.53
-37.00
-43.15
-50.06
-57.57
-65.19
-72.07
-77.14
-79.22
-77.40
-71.30
-61.14
-47.80
-32.53
-16.70
-1.52
12.15
23.77
33.09
40.01
44.59
46.98
47.51
46.63
44.87
42.78
40.76
39.11
37.94
37.25
36.95
36.86
36.76
36.43
35.69
34.44
32.66
30.41
27.72
24.58
20.93
16.68
11.85
6.54
0.99
-4.56
-9.92
-15.03
-19.94
-24.81
-29.77
-34.97
-40.51
-46.44
-52.72
-59.06
-64.90
-69.40
-71.56
-70.48
-65.60
-56.92
-44.95
-30.69
-15.33
-0.08
14.05
26.32
36.29
43.78
48.82
51.64
52.59
52.08
50.61
48.64
46.58
44.76
43.37
42.51
42.16
42.23
42.57
42.99
43.24
43.10
42.35
40.84
38.55
35.51
31.92
27.96
23.83
19.62
15.34
10.96
6.38
1.63
-3.26
-8.17
-12.98
-17.70
-22.43
-27.39
-32.82
-38.89
-45.55
-52.45
-58.91
-64.01
-66.79
-66.47
-62.66
-55.43
-45.27
-32.98
-19.54
-5.92
6.93
18.14
27.05
33.22
36.55
37.29
35.99
33.36
30.16
27.03
24.42
22.59
21.56
21.16
21.12
21.15
21.05
20.73
20.20
19.49
18.59
17.39
15.75
13.52
10.63
7.10
3.01
-1.48
-6.23
-11.06
-15.86
-20.55
-25.15
-29.80
-34.72
-40.13
-46.08
-52.25
-57.93
-62.04
-63.47
-61.35
-55.40
-45.97
-34.00
-20.66
-7.18
5.45
16.48
25.37
31.84
35.79
37.40
37.05
35.31
32.75
29.90
27.15
24.75
22.85
21.45
20.48
19.79
19.22
18.68
18.12
17.58
17.02
16.34
15.33
13.75
11.41
8.25
4.36
-0.10
-4.91
-9.93
-15.00
-20.07
-25.11
-30.19
-35.48
-41.18
-47.52
-54.53
-61.90
-68.86
-74.33
-77.10
-76.17
-71.11
-62.14
-50.06
-36.02
-21.18
-6.58
6.95
18.79
28.48
35.73
40.46
42.87
43.34
42.38
40.54
38.28
36.00
33.95
32.31
31.13
30.36
29.88
29.51
29.11
28.59
27.93
27.10
26.05
24.68
22.85
20.43
17.34
13.60
9.34
4.72
-0.12
-5.03
-9.95
-14.84
-19.73
-24.72
-29.99
-35.73
-42.06
-48.86
-55.70
-61.75
-65.96
-67.27
-64.90
-58.57
-48.60
-35.82
-21.36
-6.46
7.78
20.50
31.13
39.36
45.09
48.44
49.72
49.37
47.89
45.77
43.40
41.06
38.95
37.23
36.06
35.56
35.70
36.27
36.94
37.28
36.96
35.83
33.93
31.41
28.47
25.23
21.74
17.95
13.83
9.36
4.64
-0.18
-4.98
-9.67
-14.27
-18.87
-23.57
-28.49
-33.68
-39.14
-44.72
-50.12
-54.76
-57.87
-58.59
-56.23
-50.49
-41.62
-30.40
-17.95
-5.41
6.25
16.42
24.71
30.91
34.91
36.67
36.34
34.32
31.22
27.77
24.62
22.21
20.69
20.02
19.97
20.29
20.72
21.05
21.14
20.91
20.29
19.22
17.53
15.05
11.68
7.47
2.71
-2.21
-6.94
-11.28
-15.28
-19.13
-23.05
-27.24
-31.80
-36.78
-42.13
-47.60
-52.66
-56.53
-58.33
-57.26
-52.93
-45.44
-35.34
-23.54
-11.04
1.21
12.41
21.91
29.25
34.15
36.49
36.47
34.50
31.24
27.45
23.88
21.10
19.40
18.76
18.86
19.27
19.58
19.56
19.14
18.33
17.08
15.26
12.66
9.13
4.77
-0.10
-5.02
-9.60
-13.69
-17.44
-21.13
-25.08
-29.47
-34.34
-39.68
-45.44
-51.62
-58.04
-64.33
-69.81
-73.59
-74.72
-72.57
-66.94
-58.20
-47.16
-34.88
-22.35
-10.32
0.67
10.35
18.50
24.93
29.51
32.26
33.36
33.18
32.15
30.70
29.15
27.74
26.67
26.09
26.13
26.76
27.80
28.91
29.69
29.78
28.96
27.21
24.62
21.39
17.84
14.36
11.32
9.02
7.53
6.60
5.75
4.36
1.94
-1.76
-6.75
-12.84
-19.83
-27.55
-35.78
-44.05
-51.57
-57.22
-59.83
-58.56
-53.20
-44.28
-32.84
-20.19
-7.41
4.75
15.94
25.95
34.55
41.41
46.14
48.52
48.68
47.10
44.52
41.68
39.13
37.14
35.75
34.85
34.34
34.16
34.26
34.52
34.75
34.67
34.00
32.59
30.42
27.61
24.41
21.04
17.62
14.14
10.43
6.35
1.82
-3.06
-8.06
-12.90
-17.45
-21.73
-25.92
-30.33
-35.25
-40.90
-47.30
-54.27
-61.24
-67.35
-71.49
-72.56
-69.79
-63.00
-52.70
-39.94
-26.00
-12.02
1.16
13.02
23.29
31.71
38.04
42.05
43.70
43.23
41.17
38.26
35.21
32.58
30.66
29.54
29.15
29.33
29.90
30.64
31.24
31.43
30.93
29.62
27.53
24.79
21.60
18.13
14.50
10.72
6.78
2.66
-1.70
-6.27
-10.99
-15.75
-20.45
-25.03
-29.58
-34.34
-39.60
-45.56
-52.05
-58.49
-63.88
-67.03
-66.91
-63.05
-55.61
-45.39
-33.50
-21.09
-9.07
1.95
11.57
19.48
25.35
28.87
29.96
28.88
26.26
22.97
19.87
17.54
16.16
15.58
15.47
15.52
15.56
15.52
15.43
15.23
14.82
14.05
12.75
10.79
8.10
4.68
0.65
-3.83
-8.58
-13.44
-18.32
-23.21
-28.15
-33.27
-38.67
-44.52
-50.91
-57.88
-65.26
-72.49
-78.69
-82.69
-83.33
-79.86
-72.16
-60.78
-46.83
-31.67
-16.52
-2.34
10.20
20.70
28.87
34.57
37.83
38.88
38.19
36.35
33.90
31.30
28.85
26.74
25.16
24.26
24.15
24.79
25.95
27.27
28.28
28.61
28.00
26.43
24.03
20.99
17.50
13.62
9.36
4.68
-0.39
-5.79
-11.36
-16.95
-22.52
-28.17
-34.09
-40.59
-47.86
-55.91
-64.45
-72.76
-79.76
-84.13
-84.64
-80.46
-71.45
-58.24
-42.06
-24.44
-6.89
9.40
23.58
35.12
43.77
49.47
52.45
53.14
52.19
50.27
48.03
45.91
44.17
42.89
42.05
41.56
41.32
41.20
41.10
40.90
40.48
39.65
38.25
36.17
33.36
29.94
26.04
21.80
17.26
12.35
6.96
1.07
-5.18
-11.49
-17.56
-23.19
-28.40
-33.48
-38.81
-44.85
-51.91
-60.05
-68.91
-77.69
-85.19
-90.07
-91.06
-87.41
-79.03
-66.52
-50.98
-33.68
-15.88
1.40
17.33
31.19
42.48
50.83
56.14
58.61
58.70
57.06
54.42
51.47
48.82
47.00
46.43
47.32
49.70
53.26
57.44
61.43
64.43
65.84
65.40
63.26
59.89
55.87
51.65
47.31
42.61
37.07
30.23
21.95
12.51
2.58
-7.06
-15.84
-23.61
-30.77
-37.97
-46.01
-55.41
-66.23
-78.01
-89.60
-99.16
-104.28
-102.59
-92.66
-74.89
-51.74
-27.06
-4.67
12.99
25.58
34.40
41.17
46.86
51.23
53.35
52.52
49.03
44.21
39.74
36.81
35.67
35.67
35.89
35.72
35.02
34.11
33.53
33.50
33.80
33.87
32.95
30.50
26.39
20.96
14.79
8.50
2.44
-3.28
-8.82
-14.46
-20.39
-26.75
-33.55
-40.78
-48.45
-56.53
-64.84
-72.83
-79.52
-83.56
-83.61
-78.69
-68.61
-54.02
-36.33
-17.22
1.69
19.14
34.23
46.38
55.14
60.25
61.74
60.01
55.84
50.29
44.42
39.16
35.05
32.32
30.86
30.37
30.46
30.74
30.85
30.56
29.72
28.27
26.19
23.41
19.82
15.33
9.87
3.50
-3.59
-11.10
-18.64
-25.88
-32.65
-38.99
-45.16
-51.62
-58.86
-67.16
-76.42
-85.95
-94.50
-100.45
-102.18
-98.49
-88.98
-74.18
-55.43
-34.52
-13.28
6.75
24.51
39.37
50.96
59.09
63.72
65.10
63.76
60.57
56.50
52.46
49.07
46.59
44.99
44.07
43.54
43.19
42.82
42.28
41.44
40.18
38.41
35.99
32.78
28.61
23.38
17.10
9.98
2.41
-5.19
-12.45
-19.22
-25.57
-31.84
-38.40
-45.60
-53.66
-62.66
-72.41
-82.50
-92.20
-100.43
-105.88
-107.26
-103.62
-94.62
-80.54
-62.21
-40.82
-17.73
5.68
27.97
47.85
64.17
76.26
83.98
87.69
88.18
86.49
83.76
81.01
78.81
77.13
75.30
72.42
67.86
61.73
54.90
48.59
43.74
40.52
38.26
35.89
32.53
27.89
22.23
16.03
9.62
3.06
-3.77
-10.89
-18.15
-25.28
-32.05
-38.48
-44.93
-52.01
-60.24
-69.74
-79.88
-89.25
-95.94
-98.02
-94.12
-83.87
-67.98
-48.04
-26.02
-3.87
16.88
35.22
50.51
62.40
70.64
75.14
76.00
73.71
69.10
63.29
57.44
52.51
48.98
46.88
45.87
45.41
45.09
44.58
43.71
42.41
40.59
38.15
34.91
30.71
25.48
19.28
12.34
5.03
-2.26
-9.23
-15.78
-21.99
-28.12
-34.52
-41.50
-49.34
-58.09
-67.52
-77.00
-85.42
-91.37
-93.37
-90.28
-81.61
-67.76
-49.90
-29.76
-9.23
10.00
26.61
39.75
48.96
54.12
55.48
53.54
49.15
43.37
37.28
31.81
27.53
24.62
22.91
22.04
21.61
21.27
20.76
19.86
18.38
16.16
13.08
9.08
4.25
-1.25
-7.18
-13.30
-19.45
-25.65
-32.14
-39.32
-47.58
-57.05
-67.38
-77.54
-85.96
-90.86
-90.74
-84.79
-73.14
-56.78
-37.24
-16.29
4.41
23.44
39.67
52.35
61.05
65.74
66.77
64.77
60.62
55.30
49.75
44.79
40.91
38.26
36.68
35.80
35.27
34.80
34.24
33.41
32.02
29.67
25.92
20.52
13.58
5.54
-2.92
-11.14
-18.72
-25.68
-32.39
-39.46
-47.48
-56.79
-67.36
-78.63
-89.54
-98.58
-104.09
-104.55
-98.99
-87.29
-70.31
-49.62
-27.17
-4.86
15.77
33.65
48.17
59.04
66.25
70.00
70.75
69.13
65.97
62.09
58.24
54.99
52.61
51.17
50.46
50.17
49.92
49.39
48.41
46.91
44.90
42.37
39.23
35.31
30.44
24.49
17.57
9.90
1.83
-6.27
-14.14
-21.59
-28.64
-35.40
-42.06
-48.96
-56.44
-64.80
-74.09
-83.84
-92.96
-99.86
-102.79
-100.30
-91.77
-77.56
-58.95
-37.73
-15.76
5.37
24.51
40.88
54.05
63.81
70.14
73.30
73.76
72.22
69.45
66.19
63.02
60.28
58.11
56.53
55.48
54.91
54.72
54.72
54.60
53.94
52.33
49.49
45.39
40.22
34.36
28.15
21.83
15.43
8.86
1.99
-5.15
-12.37
-19.37
-25.92
-31.99
-37.80
-43.76
-50.37
-57.99
-66.73
-76.29
-85.89
-94.24
-99.78
-100.91
-96.57
-86.49
-71.42
-52.85
-32.69
-12.71
5.68
21.54
34.34
43.75
49.65
52.16
51.75
49.19
45.42
41.40
37.82
35.08
33.24
32.17
31.63
31.39
31.28
31.16
30.88
30.19
28.83
26.48
22.93
18.17
12.40
6.01
-0.57
-7.03
-13.20
-19.18
-25.18
-31.52
-38.50
-46.34
-55.06
-64.37
-73.53
-81.38
-86.53
-87.66
-83.94
-75.21
-62.04
-45.60
-27.32
-8.60
9.31
25.38
38.81
49.01
55.68
58.81
58.81
56.41
52.51
48.04
43.81
40.31
37.77
36.12
35.10
34.41
33.77
33.07
32.25
31.28
30.02
28.21
25.49
21.61
16.46
10.22
3.23
-4.10
-11.43
-18.58
-25.53
-32.34
-39.05
-45.74
-52.55
-59.76
-67.70
-76.57
-86.16
-95.64
-103.56
-108.17
-107.92
-101.93
-90.29
-73.99
-54.64
-33.94
-13.39
5.89
23.12
37.75
49.34
57.64
62.65
64.76
64.65
63.15
61.01
58.73
56.59
54.65
52.98
51.69
50.89
50.59
50.62
50.59
50.04
48.56
45.95
42.26
37.73
32.72
27.49
22.19
16.75
11.01
4.83
-1.81
-8.75
-15.72
-22.37
-28.54
-34.25
-39.73
-45.40
-51.68
-58.88
-66.92
-75.29
-82.96
-88.57
-90.70
-88.26
-80.79
-68.59
-52.65
-34.43
-15.52
2.69
19.12
33.10
44.30
52.62
58.11
60.97
61.51
60.20
57.70
54.69
51.86
49.66
48.27
47.57
47.32
47.26
47.19
46.98
46.52
45.68
44.29
42.21
39.40
35.91
31.85
27.34
22.43
17.15
11.49
5.46
-0.86
-7.42
-14.17
-21.15
-28.43
-36.11
-44.30
-53.04
-62.27
-71.62
-80.40
-87.53
-91.73
-91.84
-87.20
-77.84
-64.60
-48.83
-32.06
-15.69
-0.78
11.93
21.94
28.92
32.71
33.45
31.65
28.18
24.10
20.35
17.55
15.85
15.03
14.73
14.64
14.63
14.75
15.01
15.28
15.23
14.39
12.31
8.78
3.93
-1.78
-7.72
-13.33
-18.34
-22.85
-27.25
-32.06
-37.73
-44.46
-52.18
-60.53
-68.85
-76.23
-81.49
-83.42
-81.05
-73.93
-62.37
-47.38
-30.41
-12.96
3.67
18.59
31.24
41.25
48.38
52.48
53.65
52.27
49.00
44.71
40.28
36.44
33.63
31.93
31.21
31.13
31.29
31.34
31.00
30.07
28.49
26.25
23.44
20.13
16.40
12.30
7.84
3.03
-2.12
-7.56
-13.15
-18.73
-24.14
-29.25
-34.12
-38.90
-43.92
-49.54
-56.06
-63.54
-71.66
-79.66
-86.33
-90.27
-90.17
-85.16
-75.18
-60.97
-43.94
-25.79
-8.12
7.90
21.59
32.66
41.09
46.99
50.54
52.02
51.81
50.39
48.28
45.99
43.91
42.28
41.18
40.56
40.32
40.35
40.53
40.75
40.83
40.54
39.60
37.82
35.13
31.65
27.64
23.41
19.11
14.72
10.09
5.03
-0.57
-6.67
-13.06
-19.47
-25.60
-31.25
-36.37
-41.06
-45.64
-50.53
-56.17
-62.77
-70.06
-77.25
-83.04
-85.92
-84.65
-78.61
-68.05
-53.92
-37.62
-20.53
-3.82
11.69
25.41
36.91
45.82
51.94
55.30
56.25
55.40
53.46
51.09
48.78
46.79
45.24
44.14
43.50
43.27
43.38
43.74
44.19
44.55
44.59
44.09
42.85
40.72
37.63
33.65
28.97
23.91
18.81
14.00
9.64
5.70
1.93
-2.04
-6.50
-11.56
-17.06
-22.57
-27.67
-32.09
-35.86
-39.34
-43.09
-47.63
-53.31
-60.09
-67.45
-74.49
-79.95
-82.58
-81.36
-75.83
-66.22
-53.37
-38.53
-23.01
-7.94
5.89
17.91
27.75
35.09
39.70
41.52
40.85
38.33
34.82
31.23
28.27
26.26
25.17
24.72
24.59
24.52
24.38
24.05
23.45
22.43
20.90
18.79
16.16
13.07
9.60
5.80
1.71
-2.59
-6.96
-11.29
-15.47
-19.57
-23.76
-28.30
-33.42
-39.19
-45.46
-51.82
-57.60
-61.99
-64.13
-63.32
-59.18
-51.74
-41.47
-29.21
-15.97
-2.81
9.31
19.61
27.49
32.59
34.84
34.49
32.07
28.35
24.18
20.26
17.08
14.83
13.42
12.67
12.36
12.31
12.36
12.34
12.03
11.23
9.76
7.55
4.62
1.06
-2.98
-7.35
-11.89
-16.51
-21.11
-25.72
-30.44
-35.52
-41.25
-47.92
-55.55
-63.83
-71.89
-78.47
-82.16
-81.75
-76.66
-67.12
-54.09
-38.92
-23.04
-7.57
6.66
19.11
29.33
36.95
41.71
43.61
43.02
40.64
37.35
33.99
31.15
29.12
27.91
27.37
27.33
27.57
27.90
28.14
28.14
27.77
26.93
25.52
23.39
20.40
16.51
11.79
6.49
0.93
-4.59
-9.91
-15.00
-19.99
-25.04
-30.32
-36.04
-42.39
-49.50
-57.23
-65.01
-71.82
-76.35
-77.31
-73.85
-65.86
-53.95
-39.30
-23.31
-7.30
7.73
21.02
32.10
40.66
46.52
49.71
50.54
49.56
47.52
45.13
42.95
41.30
40.21
39.56
39.14
38.80
38.41
37.91
37.26
36.38
35.21
33.67
31.68
29.15
25.97
22.07
17.48
12.34
6.91
1.48
-3.71
-8.63
-13.41
-18.33
-23.75
-29.96
-37.13
-45.16
-53.64
-61.73
-68.32
-72.15
-72.17
-67.82
-59.20
-47.05
-32.54
-16.97
-1.51
12.92
25.68
36.27
44.32
49.59
52.04
51.99
50.08
47.15
44.05
41.44
39.64
38.70
38.44
38.59
38.91
39.21
39.35
39.19
38.60
37.45
35.58
32.87
29.24
24.72
19.48
13.80
8.00
2.32
-3.15
-8.51
-13.97
-19.72
-25.92
-32.58
-39.63
-46.86
-53.87
-60.04
-64.54
-66.47
-65.08
-59.97
-51.27
-39.63
-26.07
-11.80
2.04
14.49
24.82
32.54
37.37
39.31
38.68
36.09
32.41
28.50
25.11
22.62
21.09
20.29
19.93
19.78
19.70
19.62
19.44
18.93
17.81
15.85
12.93
9.11
4.62
-0.24
-5.22
-10.13
-14.94
-19.78
-24.94
-30.82
-37.72
-45.63
-54.04
-61.88
-67.79
-70.45
-69.03
-63.38
-54.04
-42.01
-28.42
-14.28
-0.39
12.64
24.26
33.91
41.08
45.43
46.95
46.00
43.32
39.90
36.67
34.29
32.98
32.55
32.58
32.63
32.44
31.99
31.43
30.85
30.22
29.29
27.76
25.38
22.07
17.94
13.20
8.01
2.46
-3.39
-9.45
-15.53
-21.44
-27.09
-32.62
-38.46
-45.12
-52.89
-61.61
-70.46
-78.10
-83.01
-83.87
-79.96
-71.35
-58.86
-43.79
-27.59
-11.52
3.53
17.00
28.56
37.97
45.08
49.85
52.46
53.36
53.16
52.46
51.76
51.31
51.16
51.22
51.36
51.46
51.50
51.48
51.46
51.41
51.24
50.70
49.49
47.31
44.05
39.83
34.97
29.90
24.97
20.31
15.86
11.42
6.77
1.82
-3.39
-8.73
-14.02
-19.18
-24.20
-29.21
-34.38
-39.89
-45.98
-52.83
-60.54
-68.92
-77.38
-84.91
-90.22
-92.05
-89.53
-82.46
-71.28
-57.00
-40.85
-24.04
-7.58
7.73
21.22
32.43
41.02
46.89
50.22
51.46
51.23
50.19
48.92
47.79
47.02
46.65
46.63
46.85
47.18
47.55
47.90
48.16
48.26
48.02
47.17
45.45
42.68
38.94
34.56
29.99
25.65
21.71
18.04
14.29
10.11
5.33
0.03
-5.46
-10.75
-15.56
-19.81
-23.64
-27.35
-31.33
-35.89
-41.28
-47.54
-54.43
-61.38
-67.49
-71.57
-72.52
-69.53
-62.40
-51.67
-38.42
-23.99
-9.67
3.57
15.14
24.72
32.14
37.31
40.25
41.14
40.40
38.65
36.54
34.62
33.22
32.39
32.04
32.04
32.30
32.73
33.22
33.56
33.44
32.54
30.70
27.97
24.59
20.95
17.34
13.90
10.58
7.15
3.39
-0.87
-5.58
-10.53
-15.36
-19.75
-23.53
-26.77
-29.83
-33.20
-37.33
-42.42
-48.28
-54.26
-59.40
-62.59
-62.89
-59.71
-52.95
-43.08
-30.91
-17.52
-4.03
8.55
19.36
27.77
33.43
36.32
36.72
35.14
32.25
28.71
25.10
21.87
19.29
17.50
16.47
16.09
16.13
16.35
16.51
16.44
15.98
15.06
13.64
11.73
9.39
6.70
3.72
0.45
-3.10
-6.96
-11.09
-15.39
-19.74
-24.02
-28.21
-32.34
-36.58
-41.11
-46.17
-51.87
-58.06
-64.30
-69.68
-73.10
-73.41
-69.88
-62.38
-51.53
-38.46
-24.51
-10.85
1.73
12.78
22.09
29.47
34.73
37.75
38.61
37.69
35.60
33.05
30.65
28.72
27.39
26.58
26.21
26.27
26.73
27.57
28.55
29.28
29.27
28.12
25.69
22.19
18.13
14.07
10.42
7.27
4.34
1.23
-2.38
-6.60
-11.24
-15.96
-20.49
-24.76
-28.91
-33.22
-37.96
-43.33
-49.32
-55.68
-61.92
-67.22
-70.58
-71.05
-67.95
-61.16
-51.15
-38.88
-25.49
-12.00
0.82
12.47
22.59
30.89
37.12
41.16
43.13
43.45
42.71
41.51
40.33
39.36
38.62
38.00
37.47
37.06
36.88
36.94
37.13
37.22
36.89
35.90
34.11
31.56
28.43
24.93
21.28
17.56
13.79
9.86
5.64
1.06
-3.84
-8.92
-13.95
-18.69
-22.93
-26.59
-29.70
-32.50
-35.42
-39.01
-43.77
-49.87
-56.92
-63.86
-69.21
-71.48
-69.63
-63.43
-53.51
-41.02
-27.30
-13.48
-0.34
11.58
21.88
30.20
36.24
39.88
41.34
41.11
39.84
38.15
36.45
34.93
33.64
32.54
31.65
31.05
30.78
30.83
31.06
31.21
30.92
29.85
27.76
24.64
20.71
16.40
12.13
8.21
4.65
1.25
-2.28
-6.13
-10.28
-14.51
-18.57
-22.31
-25.82
-29.34
-33.21
-37.66
-42.75
-48.33
-53.99
-59.10
-62.80
-64.20
-62.49
-57.25
-48.59
-37.25
-24.34
-11.14
1.19
11.81
20.24
26.28
29.93
31.37
30.94
29.12
26.55
23.88
21.65
20.16
19.49
19.48
19.86
20.35
20.75
20.92
20.79
20.31
19.42
18.08
16.21
13.78
10.72
7.08
2.97
-1.46
-6.02
-10.59
-15.13
-19.67
-24.27
-29.01
-33.97
-39.24
-44.96
-51.21
-57.86
-64.44
-70.08
-73.69
-74.22
-70.98
-63.88
-53.44
-40.67
-26.78
-12.88
0.11
11.63
21.34
29.07
34.73
38.30
39.88
39.79
38.50
36.65
34.80
33.35
32.47
32.08
32.03
32.16
32.38
32.57
32.59
32.22
31.23
29.52
27.12
24.24
21.12
17.96
14.81
11.53
7.94
3.81
-0.89
-6.09
-11.57
-17.10
-22.54
-27.89
-33.33
-39.12
-45.56
-52.73
-60.43
-68.01
-74.41
-78.38
-78.81
-75.06
-67.14
-55.76
-42.08
-27.37
-12.78
0.80
12.75
22.69
30.35
35.66
38.74
39.94
39.73
38.68
37.29
36.00
35.13
34.81
35.05
35.69
36.48
37.20
37.64
37.69
37.29
36.36
34.85
32.73
30.08
27.04
23.83
20.59
17.30
13.75
9.67
4.88
-0.57
-6.40
-12.14
-17.39
-22.00
-26.09
-30.05
-34.37
-39.47
-45.50
-52.35
-59.51
-66.17
-71.32
-73.86
-72.91
-67.98
-59.20
-47.25
-33.31
-18.71
-4.65
8.00
18.77
27.55
34.36
39.29
42.41
43.84
43.84
42.86
41.46
40.19
39.42
39.25
39.58
40.22
41.02
41.89
42.78
43.52
43.87
43.54
42.32
40.17
37.24
33.76
29.99
26.08
22.08
17.90
13.47
8.75
3.79
-1.27
-6.23
-10.90
-15.24
-19.32
-23.41
-27.86
-33.02
-39.16
-46.22
-53.83
-61.19
-67.21
-70.67
-70.59
-66.45
-58.36
-47.04
-33.59
-19.23
-5.07
8.01
19.40
28.67
35.53
39.87
41.76
41.52
39.64
36.75
33.50
30.43
27.95
26.29
25.49
25.42
25.81
26.27
26.43
26.02
24.92
23.20
21.03
18.60
16.00
13.21
10.18
6.86
3.30
-0.42
-4.19
-8.01
-11.90
-15.90
-20.07
-24.38
-28.90
-33.71
-38.97
-44.66
-50.50
-55.80
-59.52
-60.58
-58.17
-52.00
-42.44
-30.39
-17.01
-3.49
9.16
20.17
29.02
35.45
39.35
40.87
40.30
38.10
34.87
31.31
28.06
25.61
24.19
23.69
23.76
23.98
24.00
23.65
22.98
22.11
21.06
19.73
17.90
15.32
11.91
7.75
3.09
-1.73
-6.44
-10.89
-15.12
-19.29
-23.60
-28.24
-33.37
-39.10
-45.57
-52.80
-60.55
-68.19
-74.65
-78.58
-78.76
-74.45
-65.71
-53.40
-38.91
-23.77
-9.26
3.75
14.79
23.66
30.33
34.86
37.47
38.47
38.30
37.45
36.36
35.40
34.81
34.68
34.99
35.62
36.40
37.11
37.57
37.59
37.04
35.83
33.93
31.34
28.15
24.49
20.48
16.22
11.76
7.11
2.27
-2.73
-7.84
-13.00
-18.19
-23.45
-28.85
-34.57
-40.70
-47.24
-53.91
-60.06
-64.71
-66.76
-65.32
-60.02
-51.20
-39.75
-26.89
-13.71
-1.04
10.66
21.10
30.00
37.00
41.80
44.28
44.67
43.52
41.58
39.56
37.98
37.10
36.91
37.28
37.97
38.76
39.43
39.80
39.71
39.04
37.72
35.69
33.01
29.79
26.27
22.69
19.25
15.93
12.52
8.74
4.37
-0.53
-5.67
-10.59
-14.92
-18.57
-21.81
-25.15
-29.21
-34.40
-40.82
-48.13
-55.50
-61.80
-65.79
-66.45
-63.28
-56.41
-46.56
-34.79
-22.16
-9.57
2.34
13.14
22.48
30.06
35.69
39.35
41.27
41.82
41.49
40.72
39.80
38.89
38.06
37.34
36.77
36.40
36.27
36.35
36.52
36.57
36.31
35.54
34.15
32.13
29.60
26.74
23.77
20.82
17.84
14.63
10.90
6.49
1.43
-3.95
-9.18
-13.85
-17.80
-21.23
-24.62
-28.48
-33.22
-38.92
-45.30
-51.70
-57.19
-60.76
-61.52
-58.98
-53.19
-44.72
-34.52
-23.67
-13.04
-3.24
5.40
12.68
18.42
22.44
24.61
25.01
24.01
22.18
20.19
18.64
17.84
17.85
18.49
19.46
20.43
21.10
21.32
20.97
20.10
18.80
17.19
15.37
13.37
11.11
8.46
5.30
1.63
-2.47
-6.77
-11.03
-15.03
-18.70
-22.12
-25.60
-29.53
-34.28
-40.03
-46.57
-53.30
-59.25
-63.28
-64.40
-62.04
-56.14
-47.22
-36.14
-23.94
-11.58
0.15
10.71
19.69
26.83
31.97
35.14
36.50
36.50
35.65
34.44
33.20
32.08
31.06
30.10
29.23
28.61
28.39
28.66
29.25
29.84
30.00
29.39
27.89
25.59
22.75
19.69
16.61
13.59
10.49
7.12
3.30
-1.03
-5.76
-10.65
-15.43
-19.92
-24.07
-28.00
-31.92
-36.13
-40.92
-46.48
-52.79
-59.48
-65.74
-70.40
-72.25
-70.33
-64.32
-54.59
-42.16
-28.37
-14.50
-1.55
9.86
19.38
26.88
32.27
35.61
37.08
37.07
36.13
34.85
33.69
32.88
32.40
32.06
31.69
31.26
30.87
30.74
30.95
31.46
32.05
32.40
32.23
31.38
29.84
27.73
25.24
22.51
19.67
16.71
13.55
10.07
6.14
1.72
-3.09
-8.07
-12.95
-17.49
-21.61
-25.42
-29.19
-33.30
-38.08
-43.75
-50.16
-56.84
-62.89
-67.21
-68.75
-66.74
-60.99
-51.87
-40.28
-27.32
-14.10
-1.54
9.73
19.26
26.81
32.27
35.68
37.27
37.42
36.66
35.50
34.38
33.57
33.15
33.05
33.16
33.42
33.79
34.27
34.83
35.38
35.75
35.73
35.12
33.82
31.81
29.21
26.22
23.04
19.86
16.77
13.71
10.55
7.12
3.26
-1.01
-5.55
-10.03
-14.14
-17.65
-20.59
-23.23
-25.97
-29.23
-33.33
-38.40
-44.31
-50.70
-56.88
-61.91
-64.78
-64.56
-60.76
-53.46
-43.29
-31.27
-18.50
-5.97
5.60
15.70
23.99
30.20
34.20
36.04
35.95
34.42
32.10
29.65
27.61
26.30
25.75
25.79
26.11
26.44
26.60
26.48
26.06
25.28
24.12
22.53
20.56
18.29
15.84
13.30
10.66
7.80
4.56
0.81
-3.44
-8.05
-12.77
-17.35
-21.67
-25.74
-29.73
-33.88
-38.42
-43.42
-48.75
-54.02
-58.51
-61.39
-61.83
-59.26
-53.54
-44.98
-34.31
-22.47
-10.41
1.01
11.10
19.38
25.54
29.44
31.13
30.87
29.10
26.45
23.59
21.07
19.26
18.25
17.88
17.90
17.99
17.99
17.78
17.35
16.70
15.76
14.45
12.70
10.44
7.68
4.48
0.92
-2.89
-6.87
-10.94
-15.06
-19.18
-23.29
-27.33
-31.32
-35.35
-39.69
-44.64
-50.44
-56.96
-63.58
-69.20
-72.52
-72.39
-68.24
-60.18
-49.03
-35.97
-22.23
-8.88
3.34
13.94
22.63
29.26
33.78
36.30
37.09
36.54
35.15
33.37
31.53
29.86
28.49
27.46
26.86
26.71
26.98
27.51
28.05
28.31
28.06
27.24
25.89
24.17
22.13
19.73
16.83
13.31
9.13
4.43
-0.52
-5.42
-10.07
-14.44
-18.66
-22.96
-27.58
-32.73
-38.52
-44.91
-51.62
-58.06
-63.29
-66.26
-66.01
-62.02
-54.34
-43.65
-30.98
-17.46
-4.15
8.16
18.88
27.62
34.22
38.62
41.00
41.68
41.04
39.58
37.77
36.03
34.66
33.80
33.45
33.51
33.85
34.38
35.04
35.68
36.10
35.99
35.07
33.23
30.57
27.35
23.89
20.36
16.83
13.14
9.12
4.69
-0.06
-4.93
-9.65
-14.04
-18.06
-21.86
-25.75
-30.08
-35.18
-41.20
-47.98
-55.00
-61.34
-65.85
-67.45
-65.42
-59.65
-50.68
-39.48
-27.13
-14.60
-2.56
8.53
18.24
26.18
31.92
35.23
36.14
35.06
32.70
29.81
27.07
24.90
23.46
22.67
22.35
22.34
22.50
22.79
23.13
23.43
23.44
22.94
21.67
19.57
16.70
13.28
9.52
5.60
1.60
-2.52
-6.79
-11.26
-15.90
-20.70
-25.65
-30.79
-36.20
-41.89
-47.71
-53.26
-57.86
-60.66
-60.79
-57.69
-51.26
-41.92
-30.56
-18.29
-6.16
5.02
14.74
22.71
28.81
32.98
35.26
35.83
35.00
33.27
31.21
29.34
28.02
27.42
27.47
27.93
28.51
28.95
29.06
28.72
27.87
26.50
24.57
22.06
18.92
15.12
10.68
5.66
0.22
-5.42
-11.01
-16.35
-21.32
-25.98
-30.52
-35.22
-40.35
-46.11
-52.59
-59.62
-66.77
-73.22
-77.94
-79.80
-77.91
-71.93
-62.16
-49.51
-35.23
-20.58
-6.59
6.05
16.98
26.05
33.20
38.43
41.84
43.61
44.05
43.52
42.46
41.23
40.10
39.21
38.57
38.15
37.89
37.71
37.54
37.25
36.68
35.64
33.97
31.64
28.74
25.45
21.96
18.39
14.68
10.67
6.22
1.25
-4.13
-9.67
-15.09
-20.13
-24.75
-29.05
-33.42
-38.31
-44.11
-50.92
-58.32
-65.38
-70.74
-73.05
-71.32
-65.26
-55.39
-42.79
-28.84
-14.79
-1.56
10.28
20.42
28.74
35.08
39.35
41.57
41.99
41.06
39.39
37.58
36.08
35.10
34.63
34.55
34.68
34.88
35.05
35.11
34.93
34.35
33.19
31.38
29.01
26.42
24.09
22.45
21.76
21.98
22.75
23.64
24.21
24.21
23.52
22.18
20.26
17.84
15.01
11.85
8.41
4.73
0.78
-3.39
-7.64
-11.75
-15.49
-18.77
-21.64
-24.37
-27.26
-30.57
-34.47
-39.03
-44.28
-50.09
-56.07
-61.47
-65.17
-65.96
-62.98
-56.01
-45.66
-33.11
-19.76
-6.77
5.19
15.83
25.05
32.72
38.58
42.39
44.12
44.07
42.83
41.13
39.51
38.28
37.48
36.98
36.68
36.51
36.45
36.42
36.23
35.66
34.52
32.73
30.37
27.59
24.58
21.47
18.30
15.02
11.57
7.93
4.12
0.22
-3.67
-7.53
-11.36
-15.26
-19.32
-23.69
-28.50
-33.86
-39.79
-46.15
-52.55
-58.28
-62.41
-64.02
-62.44
-57.46
-49.43
-39.09
-27.39
-15.27
-3.57
7.03
15.98
22.85
27.40
29.67
29.97
28.86
26.97
24.93
23.17
21.92
21.24
21.06
21.23
21.56
21.86
21.93
21.68
21.07
20.13
18.86
17.27
15.25
12.72
9.56
5.77
1.45
-3.23
-8.03
-12.74
-17.20
-21.37
-25.29
-29.15
-33.20
-37.73
-42.98
-48.94
-55.35
-61.52
-66.51
-69.26
-68.87
-64.86
-57.29
-46.76
-34.27
-20.93
-7.79
4.38
15.07
24.02
31.11
36.28
39.52
40.92
40.70
39.27
37.16
34.94
33.06
31.81
31.30
31.42
31.97
32.66
33.16
33.19
32.56
31.26
29.38
27.08
24.51
21.75
18.79
15.55
11.96
7.99
3.63
-1.06
-5.99
-11.01
-15.98
-20.79
-25.45
-30.15
-35.19
-40.91
-47.39
-54.36
-61.05
-66.33
-68.97
-68.03
-63.11
-54.53
-43.19
-30.29
-17.01
-4.27
7.33
17.40
25.66
31.90
35.98
37.96
38.16
37.10
35.43
33.70
32.29
31.34
30.83
30.65
30.71
30.93
31.25
31.51
31.55
31.17
30.17
28.49
26.09
23.09
19.64
15.90
11.99
7.96
3.80
-0.54
-5.06
-9.73
-14.49
-19.20
-23.83
-28.43
-33.18
-38.36
-44.12
-50.33
-56.42
-61.42
-64.20
-63.77
-59.65
-52.00
-41.60
-29.61
-17.17
-5.25
5.56
14.89
22.55
28.38
32.31
34.40
34.83
34.05
32.57
30.92
29.49
28.50
27.94
27.66
27.48
27.27
26.97
26.60
26.17
25.62
24.83
23.58
21.68
19.03
15.65
11.72
7.47
3.15
-1.05
-5.05
-8.88
-12.67
-16.55
-20.72
-25.31
-30.47
-36.27
-42.58
-48.98
-54.67
-58.57
-59.55
-56.85
-50.31
-40.52
-28.61
-15.91
-3.66
7.23
16.21
22.97
27.39
29.53
29.65
28.20
25.78
23.01
20.33
18.05
16.29
15.03
14.25
13.93
13.98
14.24
14.46
14.36
13.69
12.31
10.25
7.64
4.70
1.59
-1.60
-4.96
-8.66
-12.86
-17.72
-23.25
-29.36
-35.82
-42.20
-47.89
-52.09
-53.90
-52.58
-47.80
-39.79
-29.29
-17.39
-5.27
6.08
15.91
23.72
29.19
32.25
33.01
31.91
29.54
26.53
23.46
20.67
18.35
16.56
15.30
14.55
14.23
14.16
14.06
13.56
12.32
10.13
6.99
3.08
-1.30
-5.83
-10.29
-14.60
-18.86
-23.33
-28.29
-34.02
-40.57
-47.70
-54.80
-60.88
-64.85
-65.71
-62.87
-56.35
-46.73
-35.02
-22.33
-9.69
2.18
12.78
21.75
28.82
33.83
36.77
37.86
37.55
36.45
35.13
33.98
33.14
32.51
31.90
31.12
30.11
28.96
27.80
26.75
25.80
24.74
23.27
21.06
17.97
14.08
9.67
5.11
0.65
-3.63
-7.93
-12.51
-17.65
-23.51
-30.07
-37.13
-44.19
-50.53
-55.20
-57.19
-55.76
-50.62
-42.09
-31.05
-18.67
-6.08
5.88
16.67
25.99
33.67
39.51
43.43
45.49
46.00
45.46
44.37
43.18
42.14
41.31
40.69
40.20
39.81
39.46
39.10
38.62
37.90
36.84
35.35
33.43
31.08
28.34
25.25
21.84
18.12
14.06
9.67
4.97
0.04
-4.92
-9.76
-14.32
-18.58
-22.66
-26.79
-31.28
-36.36
-42.09
-48.26
-54.30
-59.38
-62.55
-62.90
-59.89
-53.42
-43.94
-32.29
-19.52
-6.65
5.46
16.20
25.20
32.27
37.42
40.83
42.80
43.66
43.71
43.22
42.36
41.32
40.28
39.41
38.86
38.71
38.89
39.25
39.56
39.60
39.15
38.09
36.35
33.98
31.08
27.80
24.27
20.58
16.70
12.58
8.14
3.39
-1.56
-6.53
-11.36
-16.00
-20.54
-25.18
-30.11
-35.47
-41.18
-46.98
-52.36
-56.60
-58.95
-58.73
-55.56
-49.49
-41.00
-30.89
-20.03
-9.24
0.82
9.64
16.86
22.16
25.42
26.73
26.44
25.10
23.31
21.58
20.20
19.26
18.67
18.26
17.87
17.44
16.99
16.58
16.22
15.79
15.06
13.76
11.72
8.97
5.70
2.20
-1.34
-4.89
-8.53
-12.40
-16.54
-20.94
-25.60
-30.52
-35.75
-41.26
-46.80
-51.80
-55.47
-56.98
-55.70
-51.34
-44.12
-34.63
-23.73
-12.35
-1.32
8.68
17.19
23.89
28.63
31.35
32.21
31.58
29.97
27.98
26.12
24.71
23.84
23.41
23.30
23.40
23.65
23.92
24.04
23.76
22.88
21.30
19.09
16.42
13.48
10.39
7.16
3.74
0.05
-3.90
-8.03
-12.19
-16.28
-20.23
-24.05
-27.85
-31.73
-35.82
-40.26
-45.17
-50.59
-56.32
-61.89
-66.41
-68.87
-68.30
-64.21
-56.72
-46.54
-34.77
-22.49
-10.55
0.48
10.31
18.68
25.37
30.21
33.17
34.49
34.59
33.99
33.19
32.51
32.11
31.96
31.97
32.07
32.20
32.37
32.52
32.61
32.48
31.91
30.71
28.77
26.14
23.03
19.72
16.43
13.28
10.20
7.00
3.51
-0.36
-4.56
-8.94
-13.31
-17.47
-21.32
-24.86
-28.21
-31.58
-35.23
-39.45
-44.36
-49.88
-55.58
-60.69
-64.25
-65.35
-63.36
-58.19
-50.25
-40.27
-29.19
-17.82
-6.80
3.43
12.55
20.28
26.39
30.69
33.18
34.08
33.76
32.74
31.51
30.39
29.54
28.96
28.58
28.40
28.46
28.75
29.23
29.64
29.66
29.01
27.55
25.37
22.71
19.85
17.06
14.46
12.04
9.72
7.30
4.61
1.51
-2.03
-5.92
-9.96
-13.91
-17.62
-21.11
-24.59
-28.34
-32.62
-37.51
-42.81
-48.01
-52.39
-55.14
-55.58
-53.29
-48.22
-40.68
-31.32
-20.88
-10.18
0.07
9.27
16.97
22.91
26.96
29.22
29.92
29.42
28.11
26.40
24.60
22.95
21.63
20.72
20.21
20.06
20.12
20.18
20.06
19.58
18.67
17.32
15.56
13.48
11.12
8.49
5.63
2.55
-0.71
-4.08
-7.50
-10.95
-14.42
-17.98
-21.70
-25.69
-30.04
-34.72
-39.57
-44.18
-47.91
-50.00
-49.78
-46.87
-41.27
-33.46
-24.17
-14.25
-4.46
4.58
12.48
18.95
23.74
26.72
27.85
27.27
25.30
22.48
19.42
16.70
14.70
13.56
13.17
13.22
13.39
13.42
13.22
12.78
12.15
11.33
10.28
8.88
7.03
4.69
1.84
-1.46
-5.09
-8.96
-12.92
-16.84
-20.67
-24.43
-28.26
-32.38
-37.05
-42.38
-48.22
-54.06
-59.09
-62.30
-62.83
-60.15
-54.28
-45.73
-35.37
-24.17
-12.99
-2.49
6.89
14.81
21.06
25.54
28.32
29.65
29.89
29.41
28.53
27.45
26.32
25.31
24.58
24.28
24.44
24.95
25.59
26.07
26.14
25.65
24.54
22.81
20.49
17.65
14.37
10.74
6.87
2.87
-1.18
-5.24
-9.25
-13.19
-17.03
-20.83
-24.73
-28.93
-33.69
-39.14
-45.18
-51.41
-57.10
-61.33
-63.14
-61.80
-57.00
-48.95
-38.37
-26.31
-13.85
-1.92
8.82
18.05
25.58
31.36
35.33
37.55
38.20
37.60
36.19
34.43
32.69
31.22
30.15
29.52
29.29
29.36
29.64
29.96
30.19
30.13
29.58
28.38
26.49
24.00
21.13
18.14
15.17
12.26
9.29
6.17
2.85
-0.60
-4.09
-7.60
-11.16
-14.93
-19.06
-23.70
-29.00
-35.02
-41.65
-48.44
-54.62
-59.16
-61.02
-59.51
-54.43
-46.15
-35.46
-23.30
-10.59
1.88
13.43
23.48
31.54
37.28
40.65
41.85
41.32
39.66
37.43
35.11
32.98
31.14
29.59
28.24
27.01
25.88
24.87
24.04
23.39
22.82
22.08
20.84
18.83
15.89
12.16
7.96
3.69
-0.35
-4.09
-7.63
-11.20
-15.00
-19.18
-23.82
-29.00
-34.73
-40.83
-46.82
-51.86
-54.96
-55.17
-51.96
-45.37
-36.06
-24.99
-13.27
-1.84
8.60
17.52
24.57
29.48
32.16
32.71
31.45
28.89
25.61
22.11
18.77
15.79
13.26
11.26
9.84
9.02
8.71
8.61
8.36
7.49
5.73
2.96
-0.63
-4.70
-8.84
-12.76
-16.38
-19.87
-23.58
-27.92
-33.18
-39.38
-46.13
-52.69
-58.07
-61.25
-61.41
-58.15
-51.49
-41.93
-30.23
-17.35
-4.23
8.25
19.31
28.32
34.83
38.63
39.88
39.00
36.69
33.66
30.50
27.60
25.12
23.07
21.41
20.11
19.13
18.43
17.93
17.49
16.91
15.97
14.42
12.07
8.79
4.62
-0.25
-5.50
-10.81
-15.95
-20.92
-25.98
-31.52
-37.94
-45.33
-53.30
-60.94
-66.92
-69.93
-68.93
-63.56
-54.18
-41.75
-27.50
-12.63
1.88
15.31
27.10
36.78
43.94
48.33
49.99
49.36
47.15
44.21
41.20
38.52
36.21
34.16
32.23
30.39
28.78
27.54
26.69
26.11
25.47
24.42
22.64
19.95
16.35
11.96
7.00
1.76
-3.50
-8.55
-13.32
-17.91
-22.63
-27.86
-33.99
-41.13
-49.03
-56.95
-63.80
-68.33
-69.41
-66.37
-59.12
-48.23
-34.73
-19.89
-4.91
9.25
21.93
32.74
41.43
47.82
51.88
53.67
53.50
51.86
49.41
46.74
44.30
42.30
40.70
39.35
38.14
37.02
36.03
35.24
34.58
33.84
32.68
30.77
27.88
24.01
19.32
14.14
8.76
3.41
-1.75
-6.75
-11.66
-16.70
-22.10
-28.15
-35.04
-42.72
-50.79
-58.45
-64.58
-67.92
-67.45
-62.66
-53.74
-41.50
-27.15
-12.04
2.70
16.20
27.83
37.09
43.62
47.22
48.02
46.52
43.56
40.04
36.66
33.81
31.45
29.43
27.58
25.91
24.53
23.56
22.95
22.45
21.71
20.35
18.12
14.96
10.99
6.49
1.74
-2.99
-7.57
-12.05
-16.68
-21.80
-27.70
-34.47
-41.88
-49.33
-55.90
-60.54
-62.22
-60.19
-54.19
-44.48
-31.87
-17.54
-2.80
11.11
23.17
32.64
39.11
42.50
43.07
41.37
38.13
34.13
30.03
26.25
22.97
20.24
18.01
16.22
14.85
13.84
13.05
12.22
11.04
9.20
6.51
2.91
-1.43
-6.28
-11.36
-16.52
-21.76
-27.25
-33.28
-40.13
-47.87
-56.28
-64.70
-72.10
-77.19
-78.73
-75.89
-68.46
-56.93
-42.38
-26.19
-9.69
5.95
19.93
31.66
40.72
46.89
50.16
50.84
49.51
46.92
43.84
40.82
38.15
35.83
33.75
31.82
30.04
28.49
27.30
26.42
25.69
24.76
23.25
20.86
17.43
13.07
8.06
2.83
-2.24
-6.88
-11.16
-15.42
-20.20
-26.05
-33.23
-41.58
-50.37
-58.44
-64.40
-67.04
-65.51
-59.57
-49.60
-36.50
-21.53
-6.06
8.68
21.80
32.78
41.45
47.82
51.98
54.08
54.30
52.97
50.56
47.67
44.85
42.54
40.86
39.78
39.09
38.55
37.95
37.12
35.91
34.23
32.04
29.35
26.20
22.58
18.41
13.65
8.26
2.39
-3.73
-9.74
-15.35
-20.46
-25.16
-29.78
-34.70
-40.29
-46.72
-53.97
-61.69
-69.24
-75.73
-80.16
-81.60
-79.45
-73.53
-64.15
-52.02
-38.02
-23.06
-7.96
6.47
19.40
29.93
37.31
41.15
41.70
39.93
37.22
34.90
33.76
33.75
34.05
33.61
31.70
28.30
24.06
19.89
16.43
13.62
10.85
7.08
1.41
-6.58
-16.70
-27.84
-37.84
-43.57
-41.61
-29.38
-6.34
25.37
61.29
95.92
124.43
143.75
152.84
152.16
142.91
126.69
105.50
82.01
59.34
40.49
27.44
20.58
18.73
19.75
21.42
22.05
20.75
17.39
12.52
7.01
1.84
-2.09
-4.26
-4.74
-4.02
-2.77
-1.48
-0.21
1.34
3.50
6.32
9.37
11.85
12.89
11.92
8.87
4.10
-1.77
-8.14
-14.55
-20.75
-26.53
-31.79
-36.43
-40.48
-44.17
-47.91
-52.24
-57.54
-63.78
-70.34
-76.01
-79.27
-78.71
-73.44
-63.40
-49.38
-32.86
-15.66
0.44
13.95
23.83
29.57
31.20
29.24
24.64
18.62
12.38
6.91
2.79
0.19
-1.08
-1.37
-1.03
-0.38
0.37
1.05
1.54
1.76
1.70
1.43
1.00
0.39
-0.61
-2.42
-5.52
-10.30
-16.77
-24.58
-33.04
-41.37
-49.05
-56.01
-62.63
-69.49
-77.03
-85.15
-93.10
-99.55
-103.01
-102.20
-96.44
-85.90
-71.41
-54.33
-36.11
-18.13
-1.49
12.97
24.63
33.12
38.38
40.69
40.69
39.25
37.20
35.16
33.41
31.95
30.64
29.39
28.23
27.29
26.66
26.38
26.30
26.16
25.62
24.33
21.97
18.45
13.86
8.57
3.02
-2.39
-7.50
-12.46
-17.63
-23.45
-30.25
-38.12
-46.80
-55.66
-63.67
-69.54
-71.99
-70.05
-63.40
-52.47
-38.43
-22.77
-7.04
7.54
20.16
30.40
38.15
43.44
46.43
47.34
46.51
44.35
41.34
37.97
34.69
31.83
29.58
27.99
26.94
26.25
25.73
25.19
24.45
23.29
21.51
18.95
15.52
11.31
6.49
1.24
-4.30
-10.15
-16.45
-23.40
-31.00
-39.04
-46.81
-53.28
-57.21
-57.50
-53.54
-45.44
-34.08
-20.78
-7.00
6.05
17.58
27.18
34.62
39.75
42.46
42.84
41.20
38.14
34.40
30.66
27.35
24.63
22.42
20.58
18.94
17.38
15.79
14.12
12.27
10.18
7.75
4.94
1.70
-1.97
-6.06
-10.53
-15.42
-20.80
-26.73
-33.03
-39.21
-44.36
-47.30
-46.97
-42.73
-34.63
-23.45
-10.41
3.18
16.17
27.73
37.30
44.51
49.12
51.04
50.43
47.71
43.52
38.60
33.65
29.21
25.60
22.94
21.20
20.16
19.54
18.96
18.06
16.58
14.47
11.84
8.93
5.98
3.08
0.13
-3.14
-7.13
-12.18
-18.42
-25.64
-33.15
-39.82
-44.32
-45.41
-42.42
-35.41
-25.29
-13.43
-1.28
10.05
19.98
28.28
34.90
39.61
42.10
42.11
39.73
35.50
30.30
25.11
20.68
17.35
15.10
13.68
12.82
12.33
12.08
11.89
11.49
10.48
8.45
5.08
0.20
-6.12
-13.65
-22.08
-31.10
-40.38
-49.52
-57.92
-64.68
-68.76
-69.16
-65.29
-57.18
-45.56
-31.58
-16.64
-2.01
11.30
22.58
31.24
36.84
39.12
38.06
34.07
27.93
20.73
13.58
7.41
2.71
-0.49
-2.51
-3.88
-5.06
-6.40
-8.03
-9.96
-12.11
-14.48
-17.09
-20.10
-23.70
-28.14
-33.69
-40.54
-48.65
-57.55
-66.21
-73.17
-76.78
-75.71
-69.33
-58.02
-42.98
-25.92
-8.55
7.77
22.16
34.15
43.53
50.23
54.27
55.83
55.21
52.90
49.38
45.20
40.78
36.50
32.61
29.25
26.45
24.10
21.95
19.71
17.11
13.98
10.26
5.97
1.20
-3.96
-9.51
-15.49
-22.08
-29.43
-37.58
-46.25
-54.66
-61.61
-65.70
-65.70
-60.94
-51.60
-38.55
-23.18
-6.91
8.99
23.60
36.22
46.33
53.59
57.88
59.37
58.55
56.11
52.76
49.08
45.44
42.03
38.93
36.13
33.64
31.46
29.51
27.68
25.81
23.64
20.93
17.49
13.27
8.47
3.36
-1.73
-6.61
-11.37
-16.31
-21.87
-28.44
-36.14
-44.69
-53.40
-61.20
-66.80
-68.99
-66.90
-60.32
-49.66
-35.98
-20.60
-4.81
10.34
24.11
35.95
45.45
52.27
56.20
57.30
55.98
52.93
48.94
44.71
40.72
37.17
34.14
31.60
29.57
28.07
27.08
26.43
25.83
24.87
23.21
20.64
17.15
12.94
8.33
3.59
-1.08
-5.72
-10.51
-15.81
-21.96
-29.22
-37.51
-46.34
-54.69
-61.23
-64.57
-63.71
-58.36
-49.05
-36.94
-23.45
-9.87
2.88
14.25
23.86
31.40
36.55
39.10
39.04
36.72
32.74
27.91
23.03
18.72
15.34
12.97
11.46
10.54
9.84
9.07
7.97
6.40
4.30
1.66
-1.45
-4.92
-8.70
-12.72
-17.01
-21.67
-26.89
-32.86
-39.65
-46.99
-54.14
-59.88
-62.86
-61.90
-56.46
-46.80
-33.91
-19.15
-3.92
10.64
23.70
34.63
42.94
48.25
50.44
49.77
46.90
42.70
38.06
33.63
29.70
26.26
23.17
20.29
17.62
15.22
13.13
11.20
9.13
6.49
2.97
-1.53
-6.76
-12.29
-17.63
-22.51
-26.98
-31.43
-36.43
-42.49
-49.81
-58.17
-66.77
-74.36
-79.48
-80.80
-77.43
-69.25
-56.89
-41.62
-24.94
-8.30
7.10
20.45
31.17
38.96
43.71
45.58
45.02
42.72
39.42
35.77
32.20
28.89
25.85
23.12
20.78
18.98
17.80
17.13
16.66
15.90
14.45
12.03
8.62
4.41
-0.34
-5.37
-10.51
-15.64
-20.83
-26.21
-32.04
-38.58
-45.97
-54.03
-62.09
-68.99
-73.27
-73.54
-68.92
-59.37
-45.70
-29.41
-12.20
4.37
19.19
31.56
41.14
47.78
51.46
52.40
51.06
48.16
44.56
41.02
38.03
35.73
33.96
32.47
31.06
29.67
28.36
27.16
25.96
24.50
22.43
19.48
15.57
10.91
5.86
0.84
-3.87
-8.25
-12.58
-17.38
-23.20
-30.39
-38.86
-47.91
-56.37
-62.75
-65.66
-64.19
-58.11
-47.96
-34.78
-19.93
-4.73
9.68
22.38
32.68
40.10
44.38
45.63
44.30
41.11
36.94
32.55
28.50
25.01
22.16
19.91
18.22
17.04
16.23
15.51
14.55
13.02
10.74
7.74
4.21
0.34
-3.74
-7.98
-12.48
-17.34
-22.68
-28.64
-35.32
-42.66
-50.24
-57.24
-62.42
-64.48
-62.46
-56.03
-45.67
-32.46
-17.82
-3.18
10.25
21.58
30.23
35.87
38.47
38.27
35.72
31.48
26.30
21.00
16.31
12.75
10.53
9.50
9.22
9.09
8.60
7.42
5.51
2.96
-0.03
-3.35
-6.92
-10.78
-15.03
-19.82
-25.35
-31.78
-39.16
-47.20
-55.25
-62.23
-66.84
-67.88
-64.56
-56.77
-45.09
-30.71
-15.04
0.49
14.70
26.72
36.01
42.30
45.61
46.23
44.70
41.70
37.90
33.87
30.00
26.49
23.48
21.07
19.28
18.05
17.17
16.27
14.99
13.04
10.32
6.91
2.99
-1.25
-5.70
-10.28
-15.03
-20.11
-25.76
-32.33
-40.04
-48.80
-57.95
-66.26
-72.09
-73.89
-70.67
-62.28
-49.51
-33.81
-16.85
-0.11
15.28
28.56
39.27
47.10
51.95
53.90
53.34
50.95
47.52
43.83
40.43
37.56
35.20
33.18
31.37
29.72
28.26
26.99
25.79
24.40
22.47
19.70
15.95
11.30
6.00
0.36
-5.34
-10.99
-16.62
-22.48
-28.85
-35.95
-43.73
-51.72
-58.97
-64.24
-66.27
-64.12
-57.48
-46.75
-32.95
-17.42
-1.58
13.43
26.77
37.88
46.44
52.24
55.24
55.63
53.89
50.77
47.13
43.76
41.15
39.45
38.45
37.83
37.28
36.63
35.82
34.89
33.83
32.53
30.82
28.51
25.49
21.73
17.35
12.48
7.27
1.83
-3.73
-9.29
-14.77
-20.15
-25.55
-31.25
-37.54
-44.60
-52.19
-59.62
-65.76
-69.30
-69.16
-64.70
-56.05
-43.96
-29.65
-14.46
0.40
13.99
25.71
35.14
42.08
46.44
48.30
47.99
46.10
43.36
40.50
38.07
36.27
35.04
34.08
33.14
32.09
30.96
29.87
28.91
28.02
26.96
25.44
23.19
20.13
16.37
12.17
7.82
3.53
-0.66
-4.86
-9.26
-14.08
-19.46
-25.50
-32.16
-39.24
-46.29
-52.50
-56.89
-58.39
-56.29
-50.37
-41.13
-29.57
-16.94
-4.40
7.13
17.03
24.85
30.25
33.00
33.15
31.08
27.48
23.25
19.19
15.83
13.37
11.73
10.71
10.14
9.91
9.94
10.03
9.83
8.94
7.03
3.99
0.04
-4.41
-8.88
-13.13
-17.16
-21.25
-25.79
-31.14
-37.40
-44.39
-51.52
-57.90
-62.43
-64.04
-61.98
-55.98
-46.37
-33.96
-19.87
-5.26
8.77
21.27
31.47
38.81
42.99
44.09
42.57
39.26
35.09
30.93
27.34
24.55
22.50
20.99
19.81
18.85
18.07
17.41
16.74
15.77
14.17
11.65
8.09
3.61
-1.48
-6.80
-12.04
-17.06
-21.93
-26.87
-32.20
-38.23
-45.16
-52.92
-61.09
-68.82
-74.93
-78.14
-77.41
-72.21
-62.71
-49.74
-34.53
-18.46
-2.78
11.52
23.73
33.36
40.12
43.92
44.95
43.75
41.14
38.09
35.43
33.70
32.99
33.02
33.26
33.24
32.67
31.53
29.99
28.27
26.52
24.77
22.84
20.46
17.38
13.41
8.60
3.18
-2.48
-7.99
-13.09
-17.73
-22.12
-26.57
-31.46
-37.13
-43.71
-51.10
-58.82
-66.01
-71.49
-73.99
-72.46
-66.44
-56.18
-42.60
-27.00
-10.71
5.15
19.82
32.81
43.79
52.45
58.55
61.97
62.78
61.34
58.29
54.43
50.54
47.24
44.82
43.24
42.27
41.57
40.91
40.20
39.44
38.61
37.60
36.15
33.96
30.77
26.52
21.36
15.57
9.53
3.47
-2.47
-8.25
-13.93
-19.51
-25.05
-30.63
-36.39
-42.47
-48.88
-55.29
-61.03
-65.13
-66.53
-64.48
-58.73
-49.63
-38.10
-25.28
-12.34
-0.20
10.43
19.10
25.50
29.47
31.09
30.72
29.03
26.77
24.57
22.80
21.51
20.54
19.78
19.28
19.23
19.81
21.02
22.54
23.87
24.45
23.86
21.92
18.68
14.35
9.22
3.57
-2.32
-8.29
-14.26
-20.27
-26.47
-33.02
-39.96
-47.00
-53.51
-58.53
-61.06
-60.32
-56.01
-48.38
-38.16
-26.34
-13.94
-1.88
9.05
18.22
25.09
29.32
30.79
29.79
26.89
22.96
18.89
15.44
13.06
11.88
11.75
12.33
13.25
14.20
14.95
15.32
15.13
14.23
12.52
9.99
6.73
2.96
-1.09
-5.17
-9.15
-13.10
-17.31
-22.27
-28.46
-36.08
-44.84
-53.85
-61.74
-67.06
-68.63
-65.85
-58.87
-48.43
-35.65
-21.78
-8.04
4.59
15.37
23.83
29.75
33.09
34.04
32.95
30.35
26.97
23.53
20.71
18.83
17.88
17.53
17.37
17.11
16.63
16.00
15.30
14.51
13.50
12.10
10.19
7.84
5.24
2.59
0.02
-2.45
-4.91
-7.51
-10.42
-13.85
-18.01
-23.10
-29.19
-36.11
-43.33
-49.98
-55.00
-57.33
-56.25
-51.50
-43.38
-32.62
-20.18
-7.03
5.96
18.12
28.93
38.00
45.07
49.99
52.80
53.69
52.96
51.05
48.39
45.40
42.37
39.51
36.99
34.94
33.56
33.02
33.38
34.57
36.28
38.00
39.17
39.30
38.12
35.63
32.02
27.59
22.63
17.29
11.64
5.71
-0.42
-6.51
-12.27
-17.42
-21.84
-25.74
-29.57
-33.89
-39.19
-45.62
-52.90
-60.27
-66.68
-70.97
-72.10
-69.43
-62.86
-52.83
-40.26
-26.30
-12.03
1.64
14.14
25.05
34.08
40.97
45.56
47.87
48.20
47.11
45.21
43.08
41.08
39.33
37.80
36.45
35.26
34.19
33.26
32.38
31.43
30.26
28.73
26.78
24.37
21.51
18.19
14.47
10.41
6.15
1.86
-2.30
-6.21
-9.90
-13.53
-17.37
-21.74
-26.89
-32.87
-39.55
-46.56
-53.30
-59.02
-62.84
-63.95
-61.72
-55.92
-46.86
-35.38
-22.66
-9.96
1.62
11.34
18.82
23.93
26.71
27.36
26.20
23.77
20.74
17.75
15.33
13.66
12.66
12.08
11.62
11.13
10.62
10.16
9.86
9.68
9.45
8.91
7.81
5.99
3.40
0.13
-3.69
-7.87
-12.33
-17.04
-22.13
-27.73
-33.97
-40.72
-47.53
-53.53
-57.66
-58.92
-56.72
-51.01
-42.29
-31.42
-19.37
-7.04
4.78
15.40
24.23
30.76
34.69
35.99
34.96
32.23
28.60
24.80
21.46
18.83
16.94
15.57
14.48
13.44
12.35
11.21
10.05
8.90
7.70
6.31
4.53
2.16
-0.89
-4.59
-8.76
-13.16
-17.58
-21.92
-26.26
-30.82
-35.86
-41.59
-48.02
-54.92
-61.69
-67.41
-70.96
-71.28
-67.58
-59.68
-48.09
-33.87
-18.44
-3.19
10.75
22.71
32.32
39.50
44.26
46.65
46.87
45.26
42.41
39.07
35.94
33.51
31.91
30.98
30.42
29.97
29.46
28.89
28.29
27.59
26.65
25.26
23.23
20.43
16.86
12.59
7.76
2.56
-2.79
-8.14
-13.36
-18.38
-23.23
-28.00
-32.93
-38.27
-44.26
-50.91
-57.80
-64.03
-68.36
-69.49
-66.62
-59.61
-49.14
-36.35
-22.56
-8.88
3.90
15.24
24.75
32.09
37.02
39.49
39.74
38.27
35.74
32.85
30.15
28.00
26.54
25.78
25.61
25.87
26.36
26.86
27.19
27.15
26.62
25.56
24.00
22.01
19.64
16.88
13.70
10.07
6.06
1.76
-2.68
-7.07
-11.36
-15.53
-19.69
-24.03
-28.81
-34.27
-40.54
-47.43
-54.35
-60.21
-63.78
-63.89
-59.88
-51.85
-40.54
-27.18
-13.06
0.65
13.16
23.89
32.52
38.78
42.58
43.99
43.28
40.96
37.66
34.07
30.74
28.04
26.06
24.70
23.78
23.11
22.58
22.16
21.86
21.59
21.20
20.38
18.87
16.51
13.32
9.50
5.32
1.05
-3.19
-7.38
-11.70
-16.35
-21.56
-27.53
-34.24
-41.45
-48.58
-54.77
-59.00
-60.33
-58.13
-52.28
-43.18
-31.66
-18.83
-5.85
6.20
16.46
24.33
29.49
31.95
31.98
30.14
27.09
23.55
20.13
17.25
15.08
13.59
12.61
11.95
11.44
10.97
10.46
9.79
8.77
7.13
4.63
1.16
-3.18
-8.07
-13.05
-17.77
-22.05
-26.03
-30.09
-34.74
-40.38
-47.15
-54.75
-62.34
-68.76
-72.64
-72.86
-68.78
-60.53
-48.84
-34.91
-20.00
-5.26
8.45
20.42
30.12
37.12
41.22
42.53
41.53
38.96
35.64
32.32
29.46
27.27
25.69
24.55
23.65
22.84
22.07
21.34
20.66
19.97
19.09
17.75
15.70
12.72
8.81
4.11
-1.11
-6.57
-12.09
-17.60
-23.18
-29.00
-35.29
-42.25
-50.00
-58.41
-67.01
-74.91
-80.86
-83.57
-82.05
-75.87
-65.35
-51.45
-35.50
-18.85
-2.66
12.18
25.00
35.31
42.77
47.21
48.76
47.82
45.14
41.63
38.19
35.50
33.89
33.33
33.55
34.18
34.88
35.38
35.48
35.08
34.10
32.59
30.63
28.30
25.66
22.66
19.17
15.02
10.15
4.60
-1.44
-7.73
-14.03
-20.20
-26.23
-32.29
-38.67
-45.74
-53.72
-62.48
-71.39
-79.30
-84.73
-86.29
-83.07
-74.92
-62.47
-46.91
-29.67
-12.10
4.71
19.90
32.81
42.92
49.91
53.79
54.91
53.92
51.64
48.86
46.19
44.00
42.47
41.61
41.39
41.71
42.44
43.36
44.21
44.71
44.54
43.49
41.44
38.41
34.47
29.74
24.37
18.53
12.42
6.20
0.07
-5.89
-11.66
-17.36
-23.15
-29.28
-36.01
-43.51
-51.74
-60.30
-68.27
-74.35
-77.09
-75.31
-68.49
-56.95
-41.76
-24.43
-6.52
10.59
25.85
38.51
48.10
54.40
57.48
57.74
55.83
52.62
48.89
45.33
42.30
39.94
38.17
36.83
35.75
34.87
34.13
33.48
32.78
31.83
30.36
28.13
25.01
20.98
16.19
10.86
5.26
-0.35
-5.76
-10.94
-15.98
-21.19
-26.99
-33.72
-41.50
-50.01
-58.46
-65.67
-70.34
-71.28
-67.78
-59.75
-47.75
-32.86
-16.41
0.27
16.00
29.83
41.01
49.00
53.50
54.54
52.59
48.53
43.51
38.63
34.68
31.96
30.27
29.14
28.09
26.79
25.28
23.76
22.46
21.43
20.41
18.85
16.12
11.73
5.55
-2.05
-10.34
-18.48
-25.81
-32.13
-37.84
-43.80
-50.89
-59.76
-70.33
-81.73
-92.42
-100.45
-103.70
-100.25
-88.87
-69.62
-44.28
-16.14
10.74
32.87
48.39
57.52
61.97
63.79
64.34
63.92
62.21
59.04
54.95
51.02
48.30
47.14
47.02
46.95
46.05
44.09
41.47
38.84
36.81
35.42
34.18
32.29
28.94
23.74
16.80
8.73
0.37
-7.55
-14.66
-21.06
-27.24
-33.85
-41.50
-50.46
-60.57
-71.12
-80.94
-88.52
-92.37
-91.27
-84.66
-72.80
-56.63
-37.64
-17.45
2.46
20.89
36.94
50.01
59.68
65.83
68.65
68.66
66.71
63.71
60.50
57.60
55.27
53.51
52.25
51.43
50.96
50.72
50.45
49.79
48.45
46.24
43.22
39.58
35.53
31.10
26.20
20.63
14.27
7.18
-0.36
-7.98
-15.31
-22.17
-28.57
-34.70
-40.90
-47.59
-55.20
-63.93
-73.57
-83.30
-91.68
-96.90
-97.26
-91.74
-80.34
-64.13
-44.90
-24.60
-4.88
13.09
28.62
41.19
50.42
56.06
58.12
57.12
53.96
49.81
45.70
42.27
39.68
37.69
35.93
34.11
32.12
30.07
28.13
26.41
24.82
23.06
20.75
17.57
13.41
8.40
2.92
-2.67
-8.15
-13.56
-19.15
-25.30
-32.32
-40.38
-49.37
-58.83
-67.84
-75.16
-79.30
-79.00
-73.55
-63.07
-48.54
-31.48
-13.56
3.76
19.39
32.56
42.70
49.42
52.53
52.23
49.17
44.37
39.03
34.19
30.45
27.92
26.31
25.18
24.19
23.17
22.13
21.08
19.97
18.57
16.55
13.58
9.44
4.07
-2.29
-9.27
-16.38
-23.24
-29.70
-35.90
-42.24
-49.26
-57.38
-66.75
-77.11
-87.66
-97.14
-103.95
-106.53
-103.67
-94.99
-81.02
-63.17
-43.28
-23.16
-4.15
12.99
27.90
40.42
50.33
57.34
61.30
62.39
61.25
58.81
56.01
53.52
51.61
50.19
49.08
48.17
47.44
46.88
46.38
45.60
44.09
41.46
37.55
32.46
26.49
19.95
13.00
5.68
-2.06
-10.21
-18.61
-27.01
-35.18
-43.06
-50.95
-59.31
-68.57
-78.66
-88.82
-97.55
-102.91
-103.17
-97.17
-84.57
-65.74
-41.76
-14.35
14.03
40.45
61.96
76.45
83.34
83.80
80.19
75.08
70.28
66.47
63.43
60.73
58.28
56.44
55.60
55.87
56.76
57.44
57.13
55.51
52.72
49.23
45.57
41.93
38.16
33.84
28.53
22.03
14.45
6.23
-2.10
-10.06
-17.43
-24.23
-30.72
-37.28
-44.29
-52.08
-60.74
-70.15
-79.79
-88.76
-95.81
-99.52
-98.65
-92.39
-80.73
-64.45
-44.99
-24.14
-3.60
15.26
31.51
44.59
54.23
60.39
63.28
63.44
61.67
58.92
56.04
53.60
51.81
50.61
49.73
48.96
48.13
47.19
46.10
44.79
43.13
40.94
38.03
34.29
29.67
24.25
18.25
11.90
5.47
-0.86
-6.98
-12.92
-18.84
-24.98
-31.66
-39.16
-47.61
-56.83
-66.15
-74.50
-80.48
-82.74
-80.31
-72.92
-61.04
-45.80
-28.71
-11.28
5.15
19.54
31.12
39.36
44.02
45.23
43.50
39.75
35.01
30.26
26.16
23.00
20.75
19.25
18.34
17.90
17.80
17.83
17.68
16.95
15.29
12.51
8.64
3.89
-1.42
-6.94
-12.47
-17.98
-23.61
-29.67
-36.52
-44.46
-53.51
-63.30
-72.97
-81.23
-86.56
-87.59
-83.45
-74.07
-60.20
-43.25
-24.89
-6.72
10.06
24.68
36.68
45.81
51.89
54.90
55.06
52.96
49.47
45.56
42.02
39.25
37.21
35.57
34.00
32.30
30.49
28.69
26.94
25.09
22.81
19.76
15.70
10.63
4.79
-1.48
-7.83
-14.07
-20.14
-26.22
-32.52
-39.32
-46.89
-55.43
-64.93
-75.08
-85.04
-93.51
-98.88
-99.66
-94.97
-84.76
-69.93
-51.95
-32.49
-13.02
5.37
21.92
36.03
47.21
55.13
59.71
61.30
60.61
58.56
56.06
53.71
51.81
50.36
49.23
48.24
47.31
46.42
45.52
44.51
43.18
41.27
38.52
34.71
29.80
23.89
17.27
10.32
3.39
-3.25
-9.53
-15.56
-21.61
-28.00
-35.07
-43.14
-52.33
-62.54
-73.26
-83.47
-91.78
-96.64
-96.77
-91.55
-81.19
-66.68
-49.47
-31.13
-13.05
3.73
18.50
30.77
40.26
46.86
50.62
51.82
50.84
48.21
44.55
40.58
37.15
34.99
34.64
36.11
38.95
42.29
45.22
47.04
47.53
46.93
45.72
44.42
43.32
42.49
41.85
41.33
40.93
40.74
40.78
40.92
40.85
40.18
38.58
35.88
32.21
27.90
23.31
18.71
14.19
9.64
4.86
-0.35
-6.08
-12.31
-18.83
-25.39
-31.67
-37.44
-42.65
-47.43
-52.13
-57.26
-63.34
-70.71
-79.32
-88.59
-97.30
-103.85
-106.61
-104.32
-96.52
-83.64
-66.85
-47.73
-27.84
-8.51
9.28
24.81
37.56
47.22
53.72
57.20
58.09
57.03
54.72
51.89
49.13
46.86
45.26
44.32
43.86
43.69
43.64
43.59
43.44
43.01
42.04
40.24
37.42
33.60
29.00
23.97
18.81
13.66
8.49
3.15
-2.48
-8.41
-14.50
-20.55
-26.41
-32.03
-37.51
-43.08
-49.04
-55.63
-62.83
-70.25
-76.98
-81.73
-83.14
-80.19
-72.58
-60.84
-46.16
-30.02
-13.79
1.52
15.25
26.92
36.07
42.27
45.22
45.08
42.47
38.46
34.23
30.70
28.32
27.01
26.40
25.99
25.46
24.71
23.76
22.67
21.40
19.82
17.71
14.92
11.34
7.03
2.12
-3.21
-8.79
-14.46
-20.09
-25.57
-30.86
-36.03
-41.31
-47.04
-53.62
-61.29
-69.91
-78.83
-86.81
-92.33
-93.89
-90.50
-81.99
-69.00
-52.82
-34.98
-16.92
0.21
15.60
28.67
38.99
46.31
50.62
52.26
51.76
49.83
47.14
44.19
41.39
39.01
37.23
36.20
35.89
36.18
36.80
37.39
37.55
36.92
35.25
32.46
28.69
24.22
19.40
14.48
9.51
4.38
-1.09
-6.98
-13.17
-19.37
-25.26
-30.69
-35.71
-40.61
-45.81
-51.77
-58.79
-66.84
-75.42
-83.49
-89.57
-92.06
-89.74
-82.14
-69.70
-53.70
-35.80
-17.59
-0.36
15.09
28.24
38.74
46.38
51.13
53.20
53.08
51.42
48.92
46.16
43.50
41.18
39.27
37.88
37.04
36.77
37.00
37.52
37.99
38.01
37.28
35.61
33.06
29.84
26.18
22.24
18.05
13.52
8.53
3.01
-2.94
-9.13
-15.26
-21.07
-26.42
-31.37
-36.17
-41.19
-46.81
-53.30
-60.72
-68.79
-76.81
-83.70
-88.10
-88.70
-84.58
-75.53
-62.21
-45.96
-28.43
-11.09
5.05
19.44
31.83
41.99
49.57
54.25
55.90
54.83
51.78
47.74
43.67
40.23
37.65
35.92
34.86
34.35
34.36
34.81
35.51
36.12
36.20
35.40
33.60
30.88
27.50
23.70
19.60
15.20
10.43
5.25
-0.29
-6.06
-11.87
-17.60
-23.23
-28.87
-34.73
-41.10
-48.20
-55.97
-63.93
-71.16
-76.37
-78.27
-75.94
-69.11
-58.23
-44.37
-28.87
-13.05
1.98
15.34
26.39
34.67
39.88
42.01
41.35
38.54
34.40
29.80
25.45
21.83
19.08
17.20
16.05
15.55
15.54
15.87
16.27
16.40
15.96
14.71
12.60
9.74
6.36
2.70
-1.10
-5.05
-9.26
-13.95
-19.38
-25.74
-33.15
-41.51
-50.46
-59.32
-67.13
-72.81
-75.35
-74.13
-69.04
-60.47
-49.17
-36.04
-21.92
-7.61
6.07
18.28
28.17
35.07
38.73
39.37
37.70
34.62
31.03
27.58
24.59
22.19
20.32
18.97
18.06
17.52
17.17
16.72
15.78
13.94
10.93
6.71
1.55
-4.08
-9.70
-15.00
-20.03
-25.15
-30.89
-37.72
-45.89
-55.26
-65.23
-74.81
-82.65
-87.31
-87.58
-82.84
-73.21
-59.55
-43.17
-25.47
-7.72
9.10
24.21
36.94
46.68
53.08
56.14
56.26
54.19
50.84
47.06
43.49
40.46
38.05
36.22
34.86
33.90
33.30
32.97
32.71
32.18
30.95
28.68
25.19
20.58
15.14
9.24
3.21
-2.79
-8.77
-14.87
-21.33
-28.42
-36.38
-45.33
-55.11
-65.11
-74.27
-81.14
-84.23
-82.42
-75.32
-63.47
-48.07
-30.74
-12.95
4.13
19.75
33.39
44.58
52.88
58.01
60.05
59.55
57.44
54.71
52.15
50.15
48.69
47.53
46.45
45.38
44.40
43.64
43.12
42.67
41.93
40.51
38.02
34.25
29.26
23.28
16.70
9.88
3.10
-3.49
-9.89
-16.23
-22.74
-29.73
-37.58
-46.47
-56.22
-66.09
-74.77
-80.68
-82.32
-78.82
-70.09
-56.92
-40.64
-22.78
-4.75
12.32
27.63
40.60
50.85
58.17
62.51
64.10
63.35
60.94
57.61
54.11
51.05
48.74
47.25
46.39
45.88
45.45
44.87
44.02
42.81
41.18
39.03
36.29
32.87
28.77
24.02
18.71
12.96
6.94
0.78
-5.43
-11.65
-17.89
-24.22
-30.75
-37.65
-45.12
-53.29
-62.01
-70.68
-78.21
-83.18
-84.23
-80.52
-72.02
-59.50
-44.27
-27.80
-11.35
4.14
17.95
29.50
38.24
43.80
46.11
45.54
42.88
39.17
35.37
32.20
29.93
28.45
27.42
26.49
25.49
24.44
23.48
22.68
21.92
20.84
19.02
16.15
12.11
7.13
1.59
-4.06
-9.52
-14.66
-19.63
-24.75
-30.42
-37.02
-44.72
-53.27
-61.96
-69.63
-74.89
-76.46
-73.49
-65.75
-53.79
-38.70
-21.92
-4.97
10.88
24.69
35.93
44.34
49.90
52.76
53.20
51.69
48.82
45.24
41.58
38.32
35.80
34.17
33.42
33.35
33.68
34.01
34.00
33.38
32.08
30.13
27.63
24.65
21.16
17.07
12.31
6.89
0.94
-5.30
-11.54
-17.55
-23.22
-28.54
-33.64
-38.71
-43.98
-49.75
-56.34
-63.99
-72.66
-81.83
-90.37
-96.67
-99.05
-96.24
-87.83
-74.43
-57.45
-38.67
-19.74
-1.88
14.18
28.08
39.62
48.64
55.03
58.86
60.36
60.11
58.81
57.13
55.58
54.39
53.55
52.95
52.53
52.29
52.26
52.34
52.29
51.75
50.42
48.20
45.23
41.83
38.30
34.79
31.24
27.47
23.33
18.72
13.67
8.27
2.66
-3.04
-8.72
-14.32
-19.82
-25.25
-30.70
-36.29
-42.11
-48.32
-55.08
-62.58
-70.86
-79.68
-88.21
-95.14
-98.90
-98.12
-92.08
-81.00
-65.89
-48.25
-29.64
-11.31
5.80
21.10
34.13
44.53
52.06
56.74
58.86
59.00
57.87
56.20
54.52
53.17
52.25
51.67
51.29
50.96
50.62
50.25
49.86
49.38
48.68
47.53
45.71
43.11
39.77
35.84
31.56
27.07
22.45
17.65
12.64
7.41
2.04
-3.36
-8.67
-13.83
-18.77
-23.49
-28.02
-32.50
-37.18
-42.47
-48.73
-56.09
-64.21
-72.23
-78.84
-82.62
-82.38
-77.50
-68.16
-55.15
-39.77
-23.41
-7.36
7.33
19.94
29.90
36.86
40.69
41.55
39.93
36.59
32.48
28.48
25.24
23.07
21.97
21.69
21.88
22.21
22.41
22.36
22.00
21.33
20.35
19.06
17.43
15.43
13.00
10.12
6.76
2.93
-1.31
-5.85
-10.55
-15.35
-20.23
-25.29
-30.69
-36.57
-43.01
-49.88
-56.78
-62.99
-67.51
-69.27
-67.42
-61.54
-51.88
-39.29
-25.01
-10.35
3.57
15.93
26.17
33.91
38.96
41.27
41.08
38.88
35.43
31.51
27.78
24.70
22.44
21.03
20.34
20.18
20.32
20.47
20.36
19.76
18.58
16.81
14.50
11.70
8.39
4.55
0.15
-4.75
-9.99
-15.38
-20.74
-25.96
-31.05
-36.11
-41.37
-47.07
-53.47
-60.63
-68.34
-75.98
-82.52
-86.70
-87.33
-83.63
-75.45
-63.39
-48.58
-32.41
-16.21
-0.98
12.69
24.46
34.12
41.46
46.29
48.58
48.57
46.79
44.04
41.11
38.64
36.94
36.00
35.66
35.64
35.72
35.71
35.46
34.79
33.57
31.74
29.30
26.29
22.75
18.68
14.05
8.86
3.14
-2.92
-9.08
-15.05
-20.60
-25.65
-30.31
-34.83
-39.54
-44.78
-50.79
-57.57
-64.81
-71.73
-77.20
-79.91
-78.72
-73.06
-63.09
-49.71
-34.30
-18.32
-3.05
10.65
22.30
31.68
38.72
43.48
46.14
46.99
46.50
45.14
43.42
41.72
40.35
39.45
39.05
39.10
39.47
40.01
40.53
40.80
40.60
39.78
38.25
36.06
33.28
30.00
26.28
22.12
17.57
12.70
7.70
2.75
-2.03
-6.62
-11.22
-16.06
-21.52
-27.92
-35.63
-44.80
-55.32
-66.61
-77.49
-86.43
-91.82
-92.40
-87.61
-77.73
-63.75
-47.08
-29.22
-11.49
5.05
19.56
31.39
40.00
45.09
46.70
45.31
41.80
37.30
32.91
29.48
27.36
26.57
26.85
27.87
29.36
31.10
32.84
34.29
35.10
34.94
33.57
30.91
27.09
22.35
17.07
11.64
6.41
1.58
-2.82
-6.91
-10.91
-15.08
-19.61
-24.65
-30.29
-36.56
-43.43
-50.56
-57.29
-62.60
-65.33
-64.47
-59.45
-50.40
-38.07
-23.67
-8.56
5.96
18.86
29.36
36.98
41.51
43.05
41.99
39.01
34.95
30.61
26.64
23.39
20.95
19.18
17.88
16.87
16.05
15.32
14.59
13.65
12.27
10.21
7.36
3.77
-0.38
-4.85
-9.40
-13.90
-18.38
-23.05
-28.23
-34.22
-41.22
-49.02
-57.00
-64.05
-68.84
-70.15
-67.20
-59.97
-49.12
-35.83
-21.40
-6.99
6.56
18.71
29.05
37.15
42.61
45.19
45.03
42.68
39.12
35.36
32.19
29.92
28.43
27.33
26.34
25.30
24.32
23.49
22.80
22.00
20.77
18.82
16.00
12.34
7.98
3.13
-1.98
-7.16
-12.21
-17.11
-21.98
-27.12
-32.98
-39.96
-48.23
-57.62
-67.42
-76.50
-83.37
-86.55
-84.91
-78.04
-66.37
-51.07
-33.78
-16.10
0.64
15.56
28.10
37.93
44.87
48.89
50.26
49.50
47.37
44.63
41.97
39.81
38.35
37.64
37.60
38.07
38.86
39.72
40.39
40.69
40.46
39.63
38.12
35.89
32.89
29.11
24.64
19.62
14.24
8.71
3.18
-2.25
-7.54
-12.73
-17.94
-23.37
-29.27
-35.88
-43.36
-51.66
-60.41
-68.84
-75.78
-79.88
-79.94
-75.28
-65.97
-52.82
-37.19
-20.57
-4.30
10.67
23.74
34.58
43.00
48.92
52.45
53.89
53.79
52.77
51.43
50.20
49.27
48.68
48.36
48.31
48.48
48.86
49.33
49.64
49.50
48.60
46.76
43.97
40.37
36.23
31.81
27.31
22.77
18.16
13.33
8.17
2.66
-3.09
-8.89
-14.47
-19.68
-24.47
-28.97
-33.46
-38.33
-43.97
-50.61
-58.11
-65.85
-72.70
-77.27
-78.26
-74.88
-67.07
-55.52
-41.43
-26.12
-10.76
3.73
16.74
27.77
36.44
42.50
45.95
47.05
46.35
44.54
42.26
40.05
38.20
36.85
36.02
35.62
35.55
35.68
35.85
35.89
35.59
34.78
33.34
31.22
28.47
25.12
21.25
16.94
12.30
7.44
2.50
-2.44
-7.30
-12.10
-16.86
-21.71
-26.80
-32.35
-38.52
-45.32
-52.44
-59.16
-64.44
-67.15
-66.42
-61.88
-53.82
-43.04
-30.56
-17.45
-4.61
7.20
17.37
25.40
30.91
33.80
34.23
32.66
29.76
26.29
22.90
20.04
17.94
16.57
15.78
15.38
15.18
15.10
15.07
14.98
14.60
13.63
11.80
8.96
5.14
0.61
-4.30
-9.23
-13.91
-18.27
-22.39
-26.51
-30.99
-36.21
-42.36
-49.38
-56.76
-63.59
-68.66
-70.79
-69.07
-63.17
-53.41
-40.72
-26.40
-11.79
1.96
14.01
23.86
31.28
36.25
38.86
39.37
38.16
35.75
32.77
29.77
27.21
25.30
24.09
23.43
23.15
23.03
22.93
22.76
22.44
21.90
20.98
19.47
17.15
13.92
9.83
5.15
0.26
-4.50
-8.98
-13.27
-17.70
-22.66
-28.46
-35.28
-42.99
-51.28
-59.53
-66.90
-72.34
-74.79
-73.46
-68.02
-58.78
-46.61
-32.71
-18.31
-4.41
8.30
19.41
28.69
35.96
41.10
44.13
45.31
45.08
43.98
42.54
41.15
40.00
39.22
38.86
38.97
39.52
40.37
41.22
41.68
41.39
40.08
37.74
34.55
30.81
26.88
22.96
19.11
15.16
10.91
6.17
0.95
-4.59
-10.14
-15.43
-20.33
-24.93
-29.51
-34.38
-39.83
-46.01
-52.80
-59.83
-66.36
-71.36
-73.67
-72.32
-66.81
-57.38
-44.94
-30.83
-16.46
-2.93
9.07
19.27
27.57
33.95
38.34
40.76
41.37
40.59
38.97
37.12
35.51
34.37
33.70
33.40
33.36
33.51
33.86
34.39
34.92
35.20
34.88
33.73
31.68
28.88
25.60
22.11
18.57
14.98
11.22
7.13
2.63
-2.26
-7.35
-12.41
-17.15
-21.50
-25.56
-29.69
-34.39
-40.04
-46.70
-53.87
-60.53
-65.29
-66.83
-64.28
-57.48
-47.08
-34.28
-20.49
-6.99
5.33
15.90
24.36
30.47
34.03
35.00
33.66
30.65
26.86
23.25
20.56
19.10
18.78
19.14
19.64
19.75
19.22
17.97
16.11
13.78
11.07
8.04
4.68
1.04
-2.80
-6.72
-10.59
-14.36
-18.07
-21.82
-25.81
-30.32
-35.64
-41.96
-49.21
-56.89
-64.05
-69.48
-72.02
-70.88
-65.89
-57.44
-46.37
-33.69
-20.41
-7.43
4.41
14.40
22.06
27.23
30.25
31.87
33.10
34.93
38.00
42.45
47.84
53.34
58.00
60.94
61.59
59.74
55.53
49.36
41.75
33.22
24.24
15.15
6.19
-2.44
-10.47
-17.58
-23.36
-27.49
-29.98
-31.19
-32.03
-33.56
-36.73
-41.93
-48.72
-55.95
-61.96
-65.16
-64.45
-59.49
-50.75
-39.21
-26.13
-12.75
-0.08
11.07
20.16
26.86
31.07
33.02
33.17
32.20
30.80
29.53
28.74
28.44
28.44
28.40
28.06
27.28
26.12
24.77
23.40
22.13
20.81
19.20
16.92
13.70
9.42
4.14
-1.88
-8.27
-14.62
-20.53
-25.67
-29.97
-33.63
-37.17
-41.30
-46.65
-53.47
-61.34
-69.19
-75.44
-78.49
-77.17
-71.09
-60.72
-47.18
-31.91
-16.28
-1.34
12.20
23.89
33.43
40.62
45.33
47.66
47.93
46.74
44.77
42.69
40.97
39.86
39.33
39.19
39.16
38.98
38.51
37.69
36.59
35.23
33.52
31.30
28.31
24.41
19.67
14.35
8.86
3.55
-1.40
-6.06
-10.62
-15.27
-20.17
-25.41
-31.09
-37.34
-44.24
-51.63
-58.92
-65.09
-68.84
-69.00
-64.88
-56.55
-44.84
-31.03
-16.53
-2.50
10.31
21.45
30.64
37.66
42.30
44.48
44.40
42.57
39.78
36.85
34.45
32.87
32.04
31.60
31.23
30.76
30.25
29.87
29.67
29.45
28.79
27.15
24.22
20.04
15.03
9.79
4.85
0.46
-3.52
-7.44
-11.75
-16.81
-22.77
-29.61
-37.14
-44.93
-52.33
-58.41
-62.06
-62.26
-58.42
-50.58
-39.47
-26.28
-12.32
1.23
13.50
23.85
31.80
36.98
39.22
38.68
35.88
31.73
27.20
23.13
20.04
18.13
17.31
17.38
18.08
19.10
20.04
20.49
20.05
18.50
15.88
12.43
8.52
4.45
0.40
-3.64
-7.76
-12.09
-16.84
-22.23
-28.54
-35.87
-43.94
-51.96
-58.56
-62.19
-61.58
-56.17
-46.36
-33.36
-18.82
-4.31
8.98
20.37
29.53
36.35
40.77
42.76
42.37
39.85
35.70
30.61
25.31
20.46
16.44
13.34
11.06
9.36
7.93
6.49
4.81
2.68
-0.07
-3.49
-7.58
-12.21
-17.22
-22.49
-28.03
-33.98
-40.57
-48.00
-56.22
-64.76
-72.67
-78.63
-81.25
-79.49
-73.00
-62.20
-48.19
-32.35
-16.05
-0.39
13.85
26.08
35.83
42.78
46.85
48.26
47.58
45.58
43.01
40.41
37.96
35.62
33.21
30.63
27.90
25.12
22.38
19.67
16.83
13.60
9.79
5.38
0.48
-4.73
-10.17
-15.97
-22.44
-29.93
-38.52
-47.78
-56.70
-63.75
-67.21
-65.63
-58.21
-45.09
-27.33
-6.76
14.48
34.35
51.19
64.02
72.41
76.48
76.71
73.78
68.52
61.80
54.54
47.59
41.65
37.07
33.81
31.49
29.56
27.52
25.10
22.29
19.22
15.99
12.53
8.62
3.94
-1.76
-8.67
-16.84
-26.20
-36.49
-47.07
-56.92
-64.65
-68.93
-68.80
-64.00
-55.01
-42.79
-28.55
-13.41
1.68
15.86
28.41
38.69
46.27
51.02
53.20
53.37
52.21
50.39
48.42
46.54
44.80
43.13
41.40
39.61
37.83
36.27
35.03
34.12
33.28
32.11
30.20
27.25
23.20
18.20
12.53
6.51
0.37
-5.74
-11.74
-17.66
-23.60
-29.73
-36.35
-43.70
-51.84
-60.39
-68.44
-74.60
-77.44
-75.81
-69.34
-58.51
-44.49
-28.73
-12.56
3.06
17.52
30.38
41.20
49.55
55.09
57.81
58.06
56.54
54.06
51.37
48.96
47.01
45.47
44.22
43.09
42.01
40.97
39.99
38.98
37.81
36.24
34.01
30.95
27.04
22.41
17.28
11.93
6.52
1.18
-4.09
-9.32
-14.59
-20.00
-25.71
-31.93
-38.84
-46.42
-54.30
-61.72
-67.50
-70.37
-69.31
-63.83
-54.21
-41.41
-26.74
-11.63
2.73
15.42
25.87
33.73
38.82
41.14
40.93
38.70
35.18
31.17
27.34
24.13
21.66
19.83
18.45
17.32
16.30
15.27
14.07
12.49
10.35
7.54
4.09
0.17
-4.00
-8.19
-12.28
-16.31
-20.46
-25.04
-30.40
-36.73
-43.90
-51.31
-57.92
-62.44
-63.69
-60.98
-54.26
-44.12
-31.55
-17.70
-3.65
9.67
21.39
30.80
37.42
41.01
41.84
40.52
37.90
34.75
31.65
28.79
26.15
23.63
21.18
18.91
16.98
15.47
14.34
13.31
12.01
10.07
7.27
3.55
-1.00
-6.20
-11.84
-17.75
-23.78
-29.80
-35.73
-41.63
-47.64
-53.86
-60.18
-66.12
-70.76
-72.95
-71.69
-66.38
-57.11
-44.62
-30.06
-14.72
0.24
13.92
25.69
35.11
41.93
46.06
47.60
46.87
44.42
40.95
37.15
33.57
30.53
28.07
26.06
24.35
22.87
21.67
20.85
20.38
20.07
19.51
18.22
15.82
12.17
7.45
2.08
-3.43
-8.68
-13.53
-18.17
-23.06
-28.70
-35.45
-43.25
-51.46
-58.90
-64.16
-65.92
-63.38
-56.50
-45.97
-32.98
-18.91
-4.98
7.82
18.83
27.63
34.01
37.99
39.82
39.90
38.74
36.88
34.75
32.69
30.90
29.45
28.32
27.49
26.94
26.68
26.71
27.00
27.36
27.46
26.94
25.48
22.95
19.44
15.17
10.42
5.39
0.20
-5.02
-10.22
-15.34
-20.43
-25.65
-31.29
-37.58
-44.48
-51.54
-57.82
-62.17
-63.48
-61.04
-54.78
-45.23
-33.35
-20.29
-7.11
5.32
16.31
25.28
31.83
35.70
36.94
35.93
33.30
29.78
25.97
22.27
18.85
15.77
13.09
10.82
9.02
7.70
6.81
6.28
5.96
5.67
5.15
4.16
2.54
0.27
-2.51
-5.60
-8.88
-12.40
-16.40
-21.19
-26.94
-33.52
-40.45
-46.92
-51.96
-54.64
-54.25
-50.47
-43.41
-33.64
-22.04
-9.64
2.48
13.31
22.04
28.11
31.25
31.61
29.70
26.27
22.17
18.14
14.67
11.92
9.82
8.19
6.86
5.77
4.94
4.41
4.09
3.74
2.99
1.42
-1.28
-5.22
-10.17
-15.68
-21.15
-26.12
-30.51
-34.71
-39.46
-45.49
-53.07
-61.62
-69.74
-75.57
-77.38
-74.24
-66.28
-54.63
-40.97
-27.13
-14.62
-4.42
3.35
9.49
15.61
23.66
35.00
49.63
65.83
80.66
90.99
94.76
91.65
83.11
71.46
58.98
47.25
37.04
28.64
22.13
17.51
14.59
12.79
11.20
8.81
4.92
-0.59
-7.22
-14.02
-20.05
-24.80
-28.40
-31.61
-35.52
-41.02
-48.43
-57.13
-65.72
-72.34
-75.35
-73.74
-67.51
-57.56
-45.30
-32.17
-19.22
-7.00
4.35
14.75
24.00
31.67
37.28
40.54
41.56
40.95
39.61
38.48
38.22
39.04
40.67
42.58
44.19
45.15
45.44
45.26
44.90
44.45
43.81
42.67
40.74
37.90
34.27
30.09
25.59
20.91
16.01
10.88
5.58
0.24
-4.95
-9.98
-14.98
-20.28
-26.21
-32.85
-39.92
-46.66
-51.99
-54.69
-53.71
-48.54
-39.35
-27.03
-12.93
1.46
14.87
26.46
35.84
42.91
47.71
50.25
50.58
48.83
45.36
40.68
35.39
29.98
24.68
19.45
14.14
8.55
2.63
-3.49
-9.52
-15.02
-19.57
-22.80
-24.55
-24.95
-24.35
-23.29
-22.27
-21.67
-21.66
-22.31
-23.69
-25.91
-29.12
-33.32
-38.36
-43.90
-49.54
-55.02
-60.24
-65.13
-69.56
-73.06
-74.88
-74.14
-70.08
-62.39
-51.38
-37.94
-23.35
-8.94
4.16
15.16
23.52
28.94
31.20
30.34
26.82
21.60
16.10
11.75
9.62
9.93
12.10
15.03
17.67
19.41
20.22
20.43
20.36
20.05
19.20
17.41
14.44
10.42
5.78
1.02
-3.59
-8.11
-12.88
-18.38
-24.85
-32.20
-40.03
-47.68
-54.48
-59.79
-63.14
-64.13
-62.51
-58.15
-51.05
-41.45
-29.82
-16.89
-3.57
9.10
20.17
28.84
34.69
37.67
38.07
36.47
33.58
30.15
26.83
24.06
22.07
20.88
20.30
20.10
20.00
19.84
19.51
18.94
18.07
16.84
15.15
12.94
10.15
6.80
2.92
-1.44
-6.21
-11.30
-16.59
-21.97
-27.38
-32.91
-38.81
-45.41
-52.90
-61.09
-69.22
-76.03
-80.06
-80.05
-75.37
-66.23
-53.52
-38.58
-22.79
-7.36
6.82
19.15
29.19
36.61
41.28
43.31
43.12
41.38
38.89
36.41
34.47
33.35
33.03
33.31
33.93
34.59
35.06
35.16
34.82
34.03
32.87
31.36
29.48
27.12
24.10
20.26
15.60
10.27
4.57
-1.17
-6.73
-12.06
-17.25
-22.51
-28.08
-34.18
-40.97
-48.45
-56.30
-63.79
-69.75
-72.79
-71.66
-65.70
-55.11
-40.87
-24.50
-7.58
8.64
23.34
36.04
46.41
54.15
59.05
61.17
60.90
58.94
56.14
53.20
50.58
48.47
46.86
45.75
45.16
45.14
45.67
46.57
47.54
48.19
48.14
47.13
45.09
42.12
38.52
34.58
30.54
26.44
22.13
17.36
11.94
5.91
-0.50
-6.88
-12.90
-18.42
-23.60
-28.78
-34.42
-40.88
-48.35
-56.70
-65.40
-73.44
-79.48
-82.07
-80.03
-72.87
-60.97
-45.52
-28.14
-10.47
6.19
20.98
33.40
43.10
49.79
53.34
53.88
51.93
48.41
44.39
40.83
38.28
36.82
36.13
35.76
35.37
34.84
34.22
33.64
33.09
32.40
31.23
29.26
26.26
22.21
17.36
12.08
6.79
1.74
-3.02
-7.62
-12.29
-17.25
-22.63
-28.50
-34.91
-41.84
-49.03
-55.85
-61.22
-63.85
-62.59
-56.85
-46.89
-33.70
-18.73
-3.45
10.99
23.73
34.16
41.73
46.04
47.01
44.98
40.81
35.72
30.90
27.20
24.96
23.95
23.64
23.43
22.90
21.92
20.62
19.26
17.99
16.78
15.37
13.36
10.42
6.44
1.58
-3.78
-9.23
-14.50
-19.59
-24.68
-30.10
-36.10
-42.84
-50.32
-58.42
-66.83
-74.88
-81.56
-85.54
-85.49
-80.50
-70.44
-56.07
-38.86
-20.58
-2.87
13.04
26.40
36.83
44.19
48.57
50.24
49.72
47.63
44.70
41.53
38.57
36.05
34.01
32.39
31.08
30.00
29.13
28.51
28.16
28.01
27.89
27.47
26.37
24.19
20.74
16.04
10.37
4.23
-1.88
-7.55
-12.64
-17.30
-21.90
-26.86
-32.55
-39.16
-46.68
-54.79
-62.84
-69.79
-74.35
-75.24
-71.53
-63.07
-50.54
-35.32
-19.11
-3.44
10.60
22.47
32.02
39.31
44.45
47.60
48.97
48.83
47.58
45.63
43.43
41.38
39.79
38.85
38.53
38.61
38.76
38.70
38.27
37.48
36.41
35.08
33.41
31.28
28.60
25.41
21.85
18.04
14.01
9.62
4.70
-0.89
-7.03
-13.40
-19.55
-25.13
-30.10
-34.76
-39.71
-45.58
-52.63
-60.46
-68.01
-73.74
-76.13
-74.15
-67.53
-56.80
-42.97
-27.30
-10.97
4.94
19.46
31.69
40.90
46.67
49.00
48.41
45.76
42.08
38.29
35.05
32.65
31.09
30.17
29.63
29.31
29.10
28.98
28.88
28.70
28.18
27.07
25.13
22.25
18.49
14.11
9.42
4.72
0.17
-4.25
-8.72
-13.47
-18.74
-24.69
-31.38
-38.74
-46.46
-53.94
-60.22
-64.15
-64.63
-61.00
-53.24
-42.04
-28.61
-14.31
-0.33
12.40
23.23
31.68
37.40
40.20
40.21
37.93
34.14
29.78
25.61
22.16
19.58
17.85
16.80
16.32
16.33
16.71
17.28
17.72
17.59
16.44
13.99
10.15
5.20
-0.42
-6.19
-11.70
-16.82
-21.61
-26.36
-31.39
-37.02
-43.48
-50.87
-59.05
-67.48
-75.12
-80.57
-82.33
-79.32
-71.24
-58.72
-43.10
-26.11
-9.28
6.23
19.73
30.88
39.45
45.29
48.38
48.95
47.61
45.16
42.50
40.27
38.73
37.75
37.01
36.15
35.03
33.69
32.29
31.00
29.82
28.64
27.25
25.45
23.06
19.97
16.08
11.37
5.91
-0.09
-6.27
-12.26
-17.77
-22.70
-27.20
-31.60
-36.40
-42.05
-48.83
-56.70
-64.99
-72.56
-77.86
-79.43
-76.28
-68.24
-55.96
-40.69
-23.90
-6.97
8.94
23.01
34.60
43.35
49.13
52.11
52.70
51.45
48.97
45.90
42.77
40.07
38.10
37.00
36.76
37.17
37.97
38.83
39.45
39.56
38.93
37.50
35.32
32.55
29.41
26.08
22.59
18.81
14.57
9.69
4.19
-1.75
-7.79
-13.54
-18.74
-23.33
-27.55
-31.88
-36.87
-42.95
-50.23
-58.33
-66.34
-72.94
-76.67
-76.33
-71.31
-61.77
-48.64
-33.26
-17.18
-1.72
12.14
23.74
32.67
38.71
41.83
42.21
40.33
36.89
32.75
28.74
25.46
23.24
22.08
21.79
22.05
22.59
23.18
23.66
23.86
23.54
22.44
20.34
17.16
13.02
8.22
3.19
-1.68
-6.12
-10.03
-13.56
-17.03
-20.89
-25.61
-31.52
-38.70
-46.89
-55.42
-63.23
-69.03
-71.53
-69.78
-63.42
-52.86
-39.14
-23.72
-8.08
6.58
19.47
30.09
38.18
43.50
45.93
45.59
42.92
38.79
34.20
30.13
27.15
25.35
24.45
23.95
23.49
22.95
22.39
21.92
21.45
20.68
19.17
16.58
12.88
8.30
3.33
-1.65
-6.39
-10.90
-15.34
-19.95
-24.88
-30.28
-36.26
-42.95
-50.35
-58.20
-65.78
-71.92
-75.28
-74.69
-69.54
-60.02
-47.03
-31.93
-16.10
-0.70
13.44
25.74
35.72
42.89
46.92
47.79
45.92
42.21
37.77
33.61
30.39
28.24
26.94
26.08
25.38
24.74
24.21
23.84
23.53
23.02
21.96
20.02
17.08
13.20
8.67
3.84
-0.93
-5.50
-9.91
-14.45
-19.46
-25.26
-32.00
-39.65
-47.87
-56.03
-63.20
-68.23
-70.02
-67.72
-61.05
-50.43
-36.87
-21.68
-6.24
8.32
21.22
31.90
40.00
45.32
47.79
47.63
45.30
41.55
37.23
33.15
29.95
27.89
26.91
26.65
26.68
26.63
26.31
25.74
25.01
24.18
23.16
21.73
19.62
16.65
12.80
8.24
3.18
-2.07
-7.31
-12.39
-17.29
-22.11
-27.06
-32.43
-38.53
-45.44
-53.05
-60.81
-67.79
-72.81
-74.68
-72.49
-65.86
-55.08
-41.06
-25.12
-8.69
6.88
20.57
31.69
39.90
45.09
47.42
47.26
45.19
41.94
38.26
34.85
32.16
30.41
29.58
29.45
29.74
30.17
30.54
30.69
30.52
29.99
29.03
27.57
25.47
22.61
18.87
14.26
8.94
3.20
-2.67
-8.46
-14.06
-19.46
-24.79
-30.19
-35.92
-42.21
-49.30
-57.13
-65.25
-72.72
-78.23
-80.43
-78.35
-71.69
-60.95
-47.32
-32.33
-17.57
-4.36
6.37
14.21
19.21
21.81
22.73
22.77
22.64
22.82
23.51
24.69
26.19
27.74
29.06
29.83
29.71
28.48
26.07
22.66
18.56
14.14
9.62
4.97
0.02
-5.48
-11.68
-18.52
-25.87
-33.56
-41.47
-49.44
-57.19
-64.21
-69.94
-73.94
-76.10
-76.54
-75.41
-72.54
-67.34
-58.99
-46.98
-31.43
-13.30
5.96
24.84
42.16
57.21
69.57
78.85
84.64
86.60
84.76
79.74
72.68
64.94
57.73
51.78
47.30
44.04
41.59
39.52
37.55
35.49
33.15
30.27
26.59
21.92
16.36
10.32
4.46
-0.59
-4.45
-7.15
-9.10
-10.95
-13.29
-16.47
-20.48
-24.93
-29.14
-32.18
-33.03
-30.78
-24.85
-15.23
-2.55
12.02
27.08
41.30
53.73
63.82
71.39
76.44
78.99
79.07
76.81
72.57
66.95
60.74
54.72
49.45
45.17
41.79
39.06
36.69
34.45
32.22
29.84
27.09
23.66
19.18
13.38
6.17
-2.28
-11.53
-21.03
-30.24
-38.80
-46.62
-53.82
-60.68
-67.46
-74.35
-81.52
-89.08
-96.99
-104.98
-112.29
-117.71
-119.81
-117.33
-109.67
-97.14
-80.88
-62.47
-43.59
-25.54
-9.22
4.79
16.11
24.51
29.92
32.49
32.74
31.38
29.23
27.04
25.30
24.26
23.93
24.18
24.85
25.78
26.86
27.90
28.74
29.14
28.90
27.92
26.17
23.71
20.65
17.08
13.03
8.54
3.66
-1.48
-6.77
-12.03
-17.20
-22.29
-27.37
-32.57
-38.07
-44.10
-50.87
-58.37
-66.27
-73.69
-79.33
-81.72
-79.67
-72.74
-61.31
-46.59
-30.14
-13.51
2.19
16.21
28.21
38.03
45.54
50.67
53.45
54.10
53.03
50.82
48.09
45.43
43.24
41.72
40.86
40.53
40.54
40.69
40.79
40.62
39.97
38.67
36.65
33.95
30.69
27.01
22.97
18.57
13.74
8.53
3.08
-2.39
-7.64
-12.60
-17.39
-22.23
-27.43
-33.26
-39.85
-47.14
-54.80
-62.07
-67.86
-70.86
-69.92
-64.43
-54.59
-41.39
-26.31
-10.88
3.68
16.62
27.50
36.06
42.07
45.38
46.05
44.48
41.42
37.72
34.16
31.24
29.10
27.65
26.70
26.08
25.72
25.59
25.60
25.58
25.25
24.28
22.37
19.38
15.35
10.51
5.24
-0.13
-5.29
-10.15
-14.83
-19.57
-24.69
-30.48
-37.09
-44.36
-51.69
-58.10
-62.32
-63.12
-59.72
-52.02
-40.68
-26.92
-12.18
2.16
14.99
25.50
33.17
37.72
39.17
37.89
34.55
30.03
25.21
20.79
17.20
14.60
12.89
11.88
11.40
11.26
11.28
11.25
10.89
9.89
7.99
5.08
1.28
-3.16
-7.85
-12.50
-16.98
-21.41
-26.12
-31.55
-38.06
-45.74
-54.24
-62.72
-69.90
-74.30
-74.64
-70.20
-61.05
-48.07
-32.70
-16.57
-1.08
12.75
24.37
33.44
39.80
43.37
44.31
43.02
40.22
36.74
33.35
30.48
28.25
26.54
25.21
24.17
23.43
23.03
22.89
22.79
22.37
21.25
19.15
15.96
11.75
6.80
1.46
-3.94
-9.18
-14.27
-19.45
-25.13
-31.75
-39.54
-48.25
-57.06
-64.67
-69.57
-70.44
-66.60
-58.18
-46.08
-31.68
-16.39
-1.49
12.12
23.81
33.12
39.78
43.69
45.00
44.08
41.51
37.93
33.95
30.08
26.68
23.96
22.01
20.73
19.91
19.22
18.35
17.05
15.22
12.82
9.87
6.39
2.37
-2.20
-7.31
-12.94
-19.12
-25.92
-33.45
-41.56
-49.75
-57.00
-61.98
-63.41
-60.49
-53.19
-42.28
-29.05
-14.88
-0.99
11.75
22.78
31.70
38.23
42.18
43.55
42.58
39.81
35.94
31.77
27.97
25.00
22.94
21.62
20.67
19.71
18.49
16.93
15.11
13.11
10.96
8.62
5.95
2.80
-1.04
-5.76
-11.54
-18.47
-26.40
-34.84
-42.88
-49.30
-52.85
-52.51
-47.84
-39.04
-26.98
-12.89
1.84
16.00
28.65
39.17
47.15
52.35
54.74
54.53
52.18
48.37
43.87
39.36
35.30
31.91
29.21
27.19
25.77
24.84
24.23
23.64
22.69
21.00
18.32
14.58
9.95
4.77
-0.54
-5.68
-10.50
-15.12
-19.90
-25.23
-31.51
-38.79
-46.72
-54.42
-60.61
-63.92
-63.25
-58.10
-48.71
-35.94
-21.02
-5.23
10.30
24.65
37.03
46.80
53.45
56.77
56.91
54.43
50.19
45.19
40.33
36.24
33.21
31.17
29.88
29.00
28.30
27.67
27.08
26.48
25.72
24.55
22.66
19.86
16.14
11.66
6.74
1.73
-3.12
-7.69
-12.00
-16.23
-20.65
-25.64
-31.53
-38.51
-46.44
-54.66
-62.10
-67.36
-69.19
-66.78
-60.02
-49.53
-36.44
-22.10
-7.71
5.71
17.46
26.98
33.84
37.80
38.88
37.47
34.28
30.21
26.12
22.65
20.13
18.60
17.90
17.82
18.16
18.66
19.08
19.11
18.48
17.03
14.73
11.67
8.05
4.04
-0.20
-4.58
-9.05
-13.64
-18.42
-23.59
-29.30
-35.56
-42.07
-48.06
-52.46
-54.10
-52.10
-46.21
-36.87
-25.13
-12.26
0.50
12.25
22.35
30.35
35.95
38.90
39.22
37.24
33.61
29.21
24.83
21.00
17.93
15.54
13.70
12.29
11.32
10.73
10.41
10.08
9.36
7.88
5.42
1.99
-2.18
-6.74
-11.33
-15.75
-19.97
-24.19
-28.82
-34.32
-41.03
-48.91
-57.40
-65.38
-71.41
-74.05
-72.31
-65.91
-55.34
-41.68
-26.31
-10.58
4.39
17.74
28.89
37.42
43.09
45.89
46.07
44.18
41.01
37.41
34.13
31.62
29.95
28.91
28.12
27.28
26.25
25.13
24.08
23.24
22.51
21.56
19.92
17.23
13.39
8.65
3.52
-1.44
-5.93
-9.96
-13.90
-18.27
-23.52
-29.86
-37.25
-45.34
-53.45
-60.58
-65.54
-67.10
-64.38
-57.16
-45.99
-32.02
-16.74
-1.50
12.69
25.19
35.58
43.48
48.60
50.79
50.27
47.64
43.86
39.86
36.39
33.76
31.96
30.71
29.71
28.76
27.72
26.57
25.28
23.83
22.18
20.27
18.05
15.49
12.54
9.19
5.48
1.44
-2.87
-7.38
-11.98
-16.57
-21.02
-25.26
-29.28
-33.20
-37.31
-41.98
-47.61
-54.40
-62.14
-70.00
-76.59
-80.27
-79.64
-74.01
-63.64
-49.65
-33.58
-16.97
-1.01
13.54
26.21
36.64
44.48
49.50
51.72
51.48
49.40
46.29
42.87
39.70
37.11
35.18
33.89
33.11
32.70
32.47
32.24
31.78
30.92
29.57
27.70
25.35
22.59
19.45
15.95
12.02
7.64
2.79
-2.39
-7.73
-13.00
-18.04
-22.87
-27.64
-32.70
-38.35
-44.78
-51.81
-58.84
-64.88
-68.77
-69.39
-66.10
-58.83
-48.17
-35.12
-20.87
-6.52
7.03
19.04
28.86
35.97
40.03
41.09
39.60
36.37
32.29
28.19
24.57
21.66
19.49
17.95
16.99
16.52
16.40
16.44
16.41
16.04
15.11
13.46
11.01
7.80
3.95
-0.33
-4.81
-9.32
-13.85
-18.50
-23.53
-29.21
-35.68
-42.79
-49.97
-56.22
-60.34
-61.17
-57.98
-50.70
-39.97
-26.91
-12.85
0.98
13.65
24.41
32.66
37.92
39.94
38.86
35.33
30.35
24.97
20.03
15.91
12.65
10.12
8.23
6.91
6.14
5.76
5.48
4.92
3.74
1.77
-0.99
-4.40
-8.27
-12.39
-16.57
-20.74
-24.96
-29.48
-34.70
-40.99
-48.46
-56.80
-65.13
-72.16
-76.44
-76.74
-72.39
-63.46
-50.77
-35.60
-19.40
-3.50
11.05
23.51
33.40
40.39
44.38
45.47
44.10
41.00
37.01
32.92
29.21
26.13
23.68
21.82
20.58
19.99
20.01
20.46
20.90
20.85
19.90
17.86
14.75
10.80
6.27
1.46
-3.45
-8.31
-13.13
-18.10
-23.58
-30.03
-37.77
-46.73
-56.35
-65.46
-72.60
-76.32
-75.59
-70.09
-60.24
-47.04
-31.73
-15.55
0.46
15.45
28.69
39.51
47.40
52.14
53.95
53.44
51.45
48.80
46.04
43.44
41.07
38.95
37.16
35.74
34.73
34.04
33.45
32.72
31.57
29.79
27.16
23.51
18.76
13.04
6.67
0.16
-6.01
-11.60
-16.70
-21.72
-27.25
-33.82
-41.65
-50.56
-59.84
-68.42
-74.94
-78.18
-77.22
-71.75
-62.08
-49.08
-33.93
-17.92
-2.22
12.23
24.70
34.67
41.85
46.14
47.72
47.09
44.96
42.19
39.54
37.58
36.55
36.36
36.67
37.06
37.17
36.75
35.76
34.28
32.42
30.27
27.79
24.83
21.21
16.86
11.91
6.72
1.73
-2.74
-6.58
-10.01
-13.44
-17.35
-22.14
-28.07
-35.15
-43.08
-51.08
-57.90
-61.99
-61.91
-56.77
-46.65
-32.59
-16.24
0.66
16.73
31.21
43.73
54.06
61.86
66.66
68.09
66.22
61.67
55.54
49.09
43.31
38.70
35.20
32.41
29.87
27.28
24.58
21.83
19.12
16.40
13.54
10.32
6.62
2.49
-1.83
-5.96
-9.50
-12.22
-14.22
-15.84
-17.65
-20.21
-23.89
-28.76
-34.48
-40.35
-45.36
-48.35
-48.32
-44.61
-37.22
-26.84
-14.73
-2.31
9.17
18.99
26.91
33.07
37.63
40.57
41.65
40.50
36.98
31.35
24.34
16.99
10.29
4.94
1.12
-1.52
-3.62
-5.95
-9.05
-13.18
-18.21
-23.66
-28.94
-33.46
-36.82
-39.01
-40.44
-41.81
-43.97
-47.58
-52.89
-59.47
-66.28
-71.81
-74.49
-73.11
-67.15
-56.96
-43.56
-28.38
-12.84
1.88
14.99
25.96
34.47
40.32
43.46
44.07
42.60
39.73
36.21
32.62
29.34
26.48
23.97
21.73
19.63
17.53
15.20
12.32
8.56
3.73
-2.17
-8.90
-16.07
-23.30
-30.38
-37.34
-44.50
-52.25
-60.90
-70.38
-80.00
-88.51
-94.26
-95.73
-91.92
-82.69
-68.83
-51.71
-32.96
-13.99
4.05
20.33
34.23
45.26
53.12
57.80
59.62
59.11
56.92
53.57
49.49
45.04
40.56
36.50
33.24
30.97
29.58
28.62
27.50
25.67
22.81
18.92
14.20
8.97
3.49
-2.15
-7.98
-14.23
-21.17
-29.09
-38.16
-48.33
-59.18
-69.89
-79.35
-86.34
-89.81
-89.10
-83.96
-74.53
-61.08
-44.00
-23.76
-1.16
22.60
45.81
66.60
83.21
94.55
100.41
101.48
99.20
95.31
91.48
88.79
87.38
86.41
84.45
80.13
72.92
63.45
53.26
44.07
37.01
32.09
28.40
24.70
20.13
14.53
8.34
2.10
-3.94
-9.98
-16.42
-23.57
-31.46
-39.85
-48.49
-57.19
-65.95
-74.66
-82.82
-89.34
-92.70
-91.39
-84.50
-72.09
-55.26
-35.81
-15.63
3.72
21.25
36.44
49.01
58.82
65.80
70.02
71.83
71.73
70.34
68.18
65.64
62.94
60.25
57.72
55.46
53.53
51.84
50.17
48.23
45.79
42.74
39.19
35.34
31.39
27.40
23.29
18.83
13.83
8.17
1.98
-4.51
-10.96
-17.10
-22.82
-28.14
-33.30
-38.62
-44.53
-51.32
-59.06
-67.34
-75.22
-81.35
-84.20
-82.55
-75.82
-64.28
-48.97
-31.38
-13.05
4.76
21.07
35.18
46.49
54.54
59.03
60.10
58.35
54.78
50.51
46.46
43.12
40.58
38.70
37.25
36.16
35.43
35.08
35.04
35.13
35.05
34.50
33.21
30.99
27.72
23.43
18.26
12.50
6.49
0.60
-5.01
-10.34
-15.63
-21.20
-27.39
-34.42
-42.30
-50.79
-59.24
-66.70
-71.89
-73.51
-70.60
-62.83
-50.70
-35.44
-18.70
-2.09
13.09
25.99
36.13
43.24
47.19
48.00
45.95
41.70
36.21
30.52
25.52
21.68
19.02
17.21
15.86
14.71
13.73
12.98
12.41
11.75
10.50
8.19
4.55
-0.30
-5.89
-11.60
-16.92
-21.66
-25.96
-30.14
-34.61
-39.65
-45.50
-52.22
-59.71
-67.52
-74.81
-80.32
-82.68
-80.76
-74.09
-63.03
-48.64
-32.35
-15.60
0.44
14.94
27.33
37.18
44.21
48.29
49.55
48.38
45.45
41.50
37.30
33.45
30.38
28.24
26.98
26.36
26.06
25.80
25.33
24.51
23.27
21.55
19.28
16.41
12.93
8.89
4.41
-0.36
-5.33
-10.44
-15.66
-21.01
-26.49
-32.15
-38.12
-44.64
-51.89
-59.81
-67.79
-74.68
-78.98
-79.26
-74.67
-65.24
-51.85
-35.90
-18.96
-2.30
13.10
26.58
37.62
45.80
50.82
52.70
51.85
49.01
45.12
41.04
37.41
34.53
32.49
31.23
30.66
30.64
31.01
31.52
31.84
31.65
30.69
28.80
26.02
22.49
18.41
13.94
9.22
4.27
-0.92
-6.33
-11.89
-17.41
-22.73
-27.75
-32.54
-37.44
-42.85
-49.16
-56.43
-64.29
-71.86
-77.86
-80.87
-79.72
-73.79
-63.21
-48.85
-32.08
-14.43
2.65
18.03
30.92
40.86
47.69
51.50
52.63
51.59
48.97
45.41
41.42
37.49
33.99
31.18
29.24
28.15
27.76
27.78
27.89
27.88
27.61
27.03
26.14
24.89
23.17
20.79
17.60
13.54
8.66
3.20
-2.57
-8.35
-13.94
-19.28
-24.39
-29.41
-34.54
-40.02
-46.11
-52.99
-60.56
-68.27
-75.10
-79.66
-80.56
-76.82
-68.24
-55.42
-39.59
-22.32
-5.11
10.76
24.26
34.66
41.49
44.58
44.16
40.92
35.88
30.14
24.72
20.28
17.11
15.17
14.27
14.19
14.69
15.55
16.46
17.02
16.81
15.48
12.84
9.02
4.36
-0.60
-5.36
-9.61
-13.34
-16.83
-20.59
-25.18
-30.94
-37.91
-45.64
-53.25
-59.50
-63.07
-62.85
-58.22
-49.25
-36.72
-21.90
-6.27
8.71
21.91
32.48
39.92
44.03
44.93
43.04
39.06
33.92
28.51
23.57
19.49
16.30
13.84
11.89
10.31
9.01
7.98
7.07
6.01
4.43
2.02
-1.34
-5.52
-10.22
-15.11
-19.93
-24.63
-29.37
-34.44
-40.27
-47.25
-55.52
-64.76
-74.01
-81.76
-86.26
-86.01
-80.27
-69.25
-54.07
-36.35
-17.77
0.28
16.73
30.84
42.02
49.86
54.14
54.99
52.97
48.97
44.05
39.15
34.93
31.63
29.19
27.33
25.80
24.48
23.41
22.68
22.30
22.04
21.43
19.92
17.13
13.02
7.92
2.37
-3.16
-8.44
-13.52
-18.70
-24.31
-30.66
-37.92
-46.16
-55.17
-64.34
-72.60
-78.50
-80.52
-77.63
-69.56
-56.91
-40.96
-23.21
-5.11
12.19
27.78
40.91
50.98
57.58
60.63
60.48
57.85
53.75
49.18
44.97
41.59
39.15
37.50
36.39
35.64
35.17
34.96
34.91
34.79
34.19
32.69
30.01
26.07
21.03
15.18
8.89
2.54
-3.60
-9.35
-14.77
-20.18
-26.10
-33.08
-41.41
-50.89
-60.67
-69.37
-75.38
-77.25
-74.04
-65.59
-52.52
-36.08
-17.80
0.76
18.27
33.69
46.24
55.41
60.95
62.93
61.80
58.37
53.70
48.82
44.53
41.29
39.16
37.95
37.28
36.83
36.31
35.64
34.76
33.69
32.35
30.54
28.03
24.58
20.08
14.65
8.58
2.30
-3.79
-9.45
-14.75
-19.97
-25.57
-31.98
-39.43
-47.83
-56.72
-65.22
-72.22
-76.47
-76.85
-72.67
-63.78
-50.80
-34.94
-17.75
-0.82
14.60
27.59
37.61
44.34
47.67
47.75
45.09
40.59
35.34
30.33
26.25
23.30
21.33
20.06
19.25
18.79
18.61
18.59
18.42
17.70
16.02
13.16
9.15
4.23
-1.18
-6.67
-11.95
-16.96
-21.92
-27.28
-33.60
-41.23
-50.08
-59.36
-67.65
-73.22
-74.53
-70.73
-61.91
-49.00
-33.45
-16.74
-0.17
15.30
28.89
39.94
47.85
52.23
53.09
50.94
46.70
41.48
36.32
31.92
28.63
26.43
25.13
24.46
24.19
24.14
24.12
23.94
23.35
22.07
19.84
16.47
11.97
6.54
0.56
-5.57
-11.54
-17.28
-22.91
-28.78
-35.26
-42.71
-51.30
-60.94
-71.11
-80.76
-88.40
-92.36
-91.23
-84.35
-72.01
-55.43
-36.39
-16.75
1.98
18.74
32.93
44.18
52.25
57.08
58.86
58.10
55.57
52.14
48.58
45.42
42.94
41.20
40.14
39.62
39.41
39.24
38.88
38.13
36.93
35.30
33.26
30.72
27.51
23.46
18.47
12.68
6.37
-0.11
-6.49
-12.66
-18.68
-24.73
-31.10
-38.10
-45.93
-54.59
-63.63
-72.08
-78.49
-81.29
-79.18
-71.63
-59.10
-42.86
-24.67
-6.21
11.22
26.78
39.99
50.47
57.87
61.94
62.73
60.75
56.97
52.54
48.48
45.40
43.39
42.22
41.52
40.99
40.50
39.97
39.36
38.57
37.46
35.97
34.06
31.74
28.96
25.60
21.53
16.63
10.95
4.71
-1.72
-8.03
-14.02
-19.70
-25.29
-31.06
-37.30
-44.17
-51.69
-59.54
-67.08
-73.28
-76.86
-76.57
-71.62
-61.88
-48.11
-31.71
-14.39
2.29
17.13
29.38
38.60
44.52
47.08
46.49
43.37
38.66
33.43
28.62
24.80
22.09
20.33
19.27
18.74
18.67
19.00
19.54
19.96
19.83
18.81
16.69
13.52
9.50
4.97
0.24
-4.43
-8.98
-13.51
-18.30
-23.69
-29.92
-37.05
-44.85
-52.75
-59.91
-65.29
-67.81
-66.59
-61.17
-51.67
-38.83
-23.83
-8.10
7.07
20.64
31.93
40.48
46.00
48.34
47.59
44.21
39.03
33.14
27.63
23.28
20.41
18.80
17.96
17.36
16.62
15.70
14.72
13.84
13.05
12.09
10.56
8.02
4.28
-0.56
-6.11
-11.86
-17.37
-22.45
-27.17
-31.88
-36.98
-42.91
-49.97
-58.26
-67.51
-77.02
-85.56
-91.60
-93.59
-90.42
-81.80
-68.36
-51.48
-32.88
-14.20
3.31
18.83
31.86
42.09
49.35
53.58
55.00
54.09
51.55
48.17
44.67
41.58
39.17
37.48
36.46
35.97
35.86
36.00
36.19
36.16
35.63
34.32
32.08
28.94
25.09
20.78
16.21
11.47
6.55
1.37
-4.14
-10.01
-16.21
-22.64
-29.15
-35.63
-42.11
-48.78
-56.00
-63.98
-72.53
-80.74
-87.12
-89.93
-87.77
-80.08
-67.35
-50.97
-32.68
-14.19
3.27
18.87
32.15
42.80
50.56
55.28
57.04
56.25
53.61
50.04
46.37
43.25
40.98
39.58
38.88
38.67
38.77
39.04
39.32
39.39
39.03
38.07
36.43
34.17
31.39
28.21
24.64
20.61
15.98
10.68
4.68
-1.83
-8.58
-15.21
-21.43
-27.14
-32.56
-38.13
-44.43
-51.82
-60.20
-68.83
-76.39
-81.21
-81.81
-77.27
-67.58
-53.55
-36.70
-18.72
-1.22
14.57
27.82
38.01
44.93
48.56
49.15
47.27
43.72
39.46
35.29
31.78
29.16
27.33
26.09
25.29
24.80
24.59
24.62
24.76
24.78
24.34
23.11
20.78
17.27
12.68
7.31
1.59
-4.09
-9.48
-14.56
-19.52
-24.69
-30.39
-36.86
-44.08
-51.71
-59.01
-64.90
-68.19
-67.78
-63.08
-54.14
-41.74
-27.12
-11.71
3.16
16.41
27.29
35.26
39.99
41.44
39.86
35.91
30.55
24.85
19.77
15.88
13.36
11.98
11.33
11.04
10.89
10.81
10.76
10.63
10.16
9.00
6.82
3.47
-0.95
-6.20
-11.86
-17.58
-23.14
-28.55
-34.06
-40.09
-47.07
-55.19
-64.19
-73.26
-81.04
-85.94
-86.52
-81.97
-72.29
-58.35
-41.61
-23.68
-6.05
10.18
24.24
35.60
43.89
48.90
50.70
49.73
46.80
42.89
38.95
35.62
33.12
31.38
30.15
29.22
28.45
27.82
27.31
26.83
26.21
25.20
23.56
21.10
17.74
13.47
8.40
2.69
-3.46
-9.83
-16.25
-22.70
-29.29
-36.32
-44.10
-52.86
-62.41
-72.06
-80.61
-86.47
-88.13
-84.53
-75.48
-61.69
-44.56
-25.85
-7.22
10.03
25.05
37.29
46.43
52.30
54.92
54.62
52.05
48.13
43.88
40.18
37.57
36.24
35.95
36.28
36.74
36.96
36.77
36.12
35.09
33.71
31.93
29.59
26.51
22.53
17.59
11.78
5.38
-1.22
-7.59
-13.41
-18.64
-23.50
-28.40
-33.86
-40.25
-47.69
-55.96
-64.45
-72.12
-77.65
-79.68
-77.08
-69.37
-56.87
-40.68
-22.43
-3.81
13.72
29.16
41.88
51.49
57.75
60.58
60.18
57.15
52.47
47.34
42.85
39.73
38.18
37.90
38.34
38.96
39.43
39.72
39.97
40.26
40.52
40.36
39.25
36.70
32.50
26.87
20.31
13.47
6.77
0.37
-5.92
-12.38
-19.19
-26.39
-33.90
-41.70
-49.83
-58.22
-66.42
-73.44
-77.82
-78.07
-73.19
-63.12
-48.79
-31.88
-14.29
2.27
16.56
27.83
35.75
40.28
41.70
40.52
37.46
33.39
29.12
25.27
22.21
20.07
18.82
18.34
18.51
19.22
20.37
21.72
22.92
23.46
22.82
20.66
16.90
11.82
5.98
-0.06
-5.83
-11.21
-16.40
-21.88
-28.19
-35.72
-44.48
-53.86
-62.71
-69.49
-72.64
-71.03
-64.26
-52.76
-37.64
-20.43
-2.72
14.06
28.69
40.24
48.09
51.94
51.99
48.86
43.59
37.35
31.30
26.31
22.94
21.28
21.11
21.99
23.33
24.55
25.19
24.93
23.65
21.34
18.07
13.91
8.97
3.33
-2.90
-9.58
-16.61
-23.93
-31.57
-39.70
-48.54
-58.26
-68.75
-79.44
-89.20
-96.44
-99.48
-97.06
-88.75
-75.06
-57.34
-37.34
-16.76
3.07
21.21
37.06
50.08
59.84
66.01
68.56
67.87
64.70
60.06
54.94
50.11
45.97
42.62
39.94
37.81
36.12
34.84
33.94
33.30
32.65
31.66
30.00
27.41
23.77
19.12
13.62
7.48
0.92
-5.85
-12.69
-19.58
-26.62
-34.14
-42.57
-52.28
-63.26
-74.84
-85.62
-93.69
-97.06
-94.39
-85.33
-70.65
-51.93
-31.14
-10.09
9.75
27.32
41.95
53.17
60.80
64.94
66.01
64.71
61.89
58.37
54.83
51.63
48.94
46.68
44.72
42.95
41.32
39.84
38.50
37.23
35.85
34.07
31.60
28.23
23.87
18.61
12.73
6.63
0.70
-4.76
-9.69
-14.26
-18.83
-23.86
-29.80
-37.03
-45.72
-55.64
-66.03
-75.57
-82.51
-85.14
-82.27
-73.66
-60.08
-43.06
-24.47
-5.95
11.20
26.13
38.25
47.18
52.65
54.69
53.67
50.28
45.44
40.06
34.90
30.46
27.00
24.62
23.31
22.98
23.42
24.31
25.20
25.54
24.84
22.79
19.33
14.70
9.30
3.57
-2.17
-7.83
-13.55
-19.66
-26.56
-34.58
-43.80
-53.89
-63.93
-72.51
-77.95
-78.74
-73.94
-63.54
-48.47
-30.34
-10.98
7.92
25.12
39.81
51.48
59.79
64.47
65.49
63.21
58.40
52.24
45.92
40.41
36.19
33.25
31.25
29.77
28.50
27.27
26.03
24.68
23.02
20.69
17.33
12.62
6.44
-1.03
-9.34
-17.85
-25.94
-33.15
-39.38
-44.89
-50.27
-56.24
-63.41
-72.07
-81.94
-92.11
-101.05
-106.88
-107.80
-102.63
-91.17
-74.30
-53.70
-31.45
-9.43
10.93
28.76
43.58
55.11
63.14
67.64
68.81
67.16
63.51
58.74
53.71
49.04
45.14
42.21
40.29
39.27
38.92
38.98
39.13
39.10
38.69
37.73
36.09
33.65
30.34
26.15
21.17
15.50
9.33
2.81
-3.88
-10.57
-17.11
-23.43
-29.60
-35.89
-42.65
-50.30
-59.07
-68.79
-78.73
-87.59
-93.68
-95.31
-91.32
-81.41
-66.33
-47.63
-27.26
-7.05
11.65
27.99
41.56
52.12
59.57
63.97
65.57
64.92
62.77
59.88
56.93
54.35
52.33
50.94
50.15
49.91
50.16
50.72
51.31
51.60
51.24
50.01
47.87
44.99
41.59
37.89
33.97
29.73
24.89
19.22
12.61
5.25
-2.40
-9.79
-16.44
-22.22
-27.28
-32.07
-37.13
-42.96
-49.87
-57.87
-66.50
-74.82
-81.40
-84.62
-83.15
-76.37
-64.70
-49.44
-32.35
-15.08
1.19
15.76
28.24
38.28
45.40
49.21
49.64
47.12
42.60
37.19
31.95
27.54
24.20
21.86
20.35
19.52
19.30
19.70
20.59
21.72
22.65
22.87
21.96
19.71
16.24
11.90
7.16
2.41
-2.21
-6.87
-11.91
-17.70
-24.50
-32.36
-41.11
-50.33
-59.32
-67.06
-72.33
-73.87
-70.77
-62.83
-50.63
-35.47
-19.02
-2.86
11.78
24.08
33.58
39.98
43.09
42.90
39.70
34.13
27.09
19.56
12.34
5.94
0.58
-3.73
-7.05
-9.53
-11.40
-13.08
-15.07
-17.90
-21.84
-26.84
-32.54
-38.47
-44.37
-50.32
-56.76
-64.29
-73.35
-84.06
-96.12
-108.92
-121.64
-133.41
-143.33
-150.59
-154.53
-154.75
-151.19
-144.05
-133.85
-121.30
-107.51
-94.05
-82.94
-76.31
-75.68
-81.17
-91.04
-101.82
-109.07
-108.64
-97.87
-76.26
-45.25
-7.58
33.90
77.00
120.65
164.93
210.91
260.22
314.24
372.86
433.36
490.05
535.28
561.67
564.69
544.32
504.99
453.70
397.43
341.14
287.22
236.20
187.93
142.31
99.16
57.57
15.47
-30.04
-81.27
-138.23
-197.58
-252.79
-295.99
-320.75
-324.60
-310.01
-283.30
-252.14
-222.79
-198.40
-179.13
-163.48
-150.03
-138.34
-128.80
-121.75
-116.75
-112.39
-106.95
-99.14
-88.76
-76.69
-64.49
-53.66
-45.09
-38.87
-34.42
-30.98
-27.92
-25.10
-22.84
-21.69
-22.10
-24.12
-27.30
-30.83
-33.93
-36.20
-37.87
-39.71
-42.76
-47.78
-54.98
-63.72
-72.68
-80.08
-84.14
-83.53
-77.59
-66.48
-51.10
-32.76
-12.97
6.81
25.27
41.32
54.12
63.14
68.26
69.79
68.40
65.00
60.56
55.92
51.71
48.30
45.80
44.07
42.93
42.17
41.69
41.48
41.52
41.70
41.74
41.28
39.95
37.49
33.87
29.28
24.03
18.48
12.95
7.59
2.41
-2.77
-8.22
-14.24
-21.10
-28.92
-37.61
-46.69
-55.23
-61.87
-65.10
-63.61
-56.79
-44.97
-29.36
-11.76
6.01
22.39
36.30
47.03
54.09
57.23
56.53
52.63
46.67
40.09
34.20
29.77
26.91
25.20
24.07
23.04
21.97
20.91
19.97
19.12
18.16
16.76
14.60
11.50
7.47
2.70
-2.57
-8.11
-13.83
-19.78
-26.10
-33.01
-40.63
-48.91
-57.51
-65.79
-72.71
-76.98
-77.33
-72.88
-63.43
-49.64
-32.91
-14.94
2.69
18.82
32.83
44.39
53.27
59.18
61.86
61.33
58.06
52.97
47.26
41.94
37.66
34.49
32.15
30.24
28.50
26.94
25.71
24.94
24.49
24.01
22.98
20.97
17.81
13.62
8.73
3.54
-1.72
-6.97
-12.33
-17.97
-24.08
-30.76
-38.11
-46.12
-54.61
-63.08
-70.58
-75.77
-77.30
-74.11
-65.93
-53.35
-37.72
-20.71
-3.87
11.68
25.29
36.64
45.49
51.61
54.82
55.18
53.12
49.47
45.24
41.31
38.26
36.19
34.87
33.95
33.16
32.41
31.80
31.47
31.42
31.47
31.20
30.14
27.84
24.10
19.00
12.94
6.45
0.06
-5.91
-11.43
-16.68
-22.06
-27.98
-34.80
-42.69
-51.46
-60.51
-68.71
-74.66
-76.90
-74.40
-66.86
-54.79
-39.38
-22.13
-4.52
12.20
27.09
39.37
48.51
54.17
56.41
55.66
52.75
48.65
44.23
40.11
36.54
33.49
30.88
28.66
26.81
25.38
24.30
23.42
22.48
21.17
19.21
16.41
12.75
8.36
3.54
-1.34
-5.97
-10.25
-14.38
-18.86
-24.31
-31.24
-39.70
-49.15
-58.41
-65.93
-70.14
-69.90
-64.82
-55.31
-42.44
-27.62
-12.24
2.50
15.68
26.63
34.84
39.98
42.01
41.25
38.31
34.05
29.26
24.59
20.38
16.78
13.85
11.68
10.38
9.94
10.16
10.59
10.60
9.66
7.45
3.97
-0.50
-5.67
-11.29
-17.24
-23.48
-30.02
-36.88
-44.07
-51.52
-58.96
-65.72
-70.68
-72.51
-70.03
-62.69
-50.87
-35.81
-19.23
-2.82
12.12
24.90
35.22
42.92
47.85
49.92
49.18
46.03
41.26
35.84
30.77
26.72
23.94
22.28
21.39
20.89
20.49
20.10
19.63
18.96
17.90
16.22
13.73
10.38
6.28
1.64
-3.33
-8.45
-13.63
-18.84
-24.09
-29.51
-35.35
-41.94
-49.53
-58.05
-66.88
-74.79
-80.21
-81.58
-77.92
-69.07
-55.83
-39.60
-21.96
-4.39
12.04
26.53
38.53
47.63
53.66
56.68
57.10
55.56
52.80
49.52
46.20
43.20
40.67
38.69
37.27
36.35
35.79
35.38
34.94
34.29
33.40
32.25
30.84
29.06
26.69
23.49
19.27
14.04
8.02
1.59
-4.84
-10.96
-16.62
-21.85
-26.88
-32.03
-37.71
-44.31
-52.01
-60.61
-69.36
-77.04
-82.17
-83.38
-79.81
-71.34
-58.61
-42.85
-25.53
-8.12
8.15
22.34
33.80
42.27
47.71
50.36
50.64
49.13
46.45
43.24
40.09
37.52
35.86
35.19
35.34
35.99
36.76
37.37
37.67
37.60
37.13
36.23
34.80
32.80
30.18
26.95
23.15
18.78
13.86
8.41
2.58
-3.37
-9.14
-14.48
-19.37
-23.99
-28.71
-33.96
-40.02
-46.89
-54.14
-60.94
-66.15
-68.55
-67.18
-61.58
-51.97
-39.17
-24.43
-9.10
5.59
18.67
29.42
37.36
42.25
44.09
43.24
40.39
36.44
32.34
28.83
26.33
24.87
24.22
24.00
23.89
23.68
23.26
22.56
21.53
20.02
17.90
15.02
11.31
6.82
1.70
-3.82
-9.47
-15.03
-20.40
-25.60
-30.76
-36.11
-41.88
-48.25
-55.32
-62.97
-70.77
-77.92
-83.26
-85.57
-83.84
-77.69
-67.52
-54.44
-39.98
-25.68
-12.76
-1.95
6.42
12.33
15.86
17.10
16.19
13.34
8.90
3.37
-2.65
-8.50
-13.60
-17.46
-19.67
-19.98
-18.27
-14.65
-9.54
-3.65
2.15
7.06
10.70
13.19
15.09
17.05
19.37
21.76
23.51
23.84
22.41
19.63
16.48
14.02
12.71
12.13
11.05
8.05
2.15
-6.74
-17.76
-29.50
-40.43
-49.25
-55.06
-57.20
-55.25
-48.98
-38.48
-24.23
-7.16
11.52
30.56
48.87
65.63
80.27
92.35
101.56
107.70
110.91
111.66
110.75
109.08
107.43
106.35
106.12
106.90
108.83
111.92
116.02
120.58
124.66
127.15
127.02
123.70
117.14
107.81
96.52
84.14
71.47
59.15
47.61
37.03
27.32
18.20
9.20
-0.22
-10.47
-21.75
-33.99
-46.85
-59.83
-72.33
-83.65
-93.01
-99.54
-102.39
-101.00
-95.31
-85.87
-73.80
-60.52
-47.39
-35.44
-25.27
-17.11
-11.00
-6.92
-4.84
-4.63
-6.04
-8.68
-12.07
-15.76
-19.46
-23.03
-26.48
-29.87
-33.18
-36.31
-39.10
-41.41
-43.17
-44.47
-45.44
-46.31
-47.28
-48.53
-50.15
-52.10
-54.20
-56.16
-57.66
-58.54
-58.89
-59.05
-59.58
-61.04
-63.79
-67.82
-72.65
-77.43
-81.03
-82.30
-80.30
-74.53
-65.05
-52.50
-37.98
-22.80
-8.27
4.54
14.90
22.39
26.89
28.56
27.75
25.05
21.14
16.80
12.72
9.43
7.18
5.98
5.65
5.93
6.55
7.27
7.88
8.14
7.80
6.64
4.52
1.49
-2.20
-6.23
-10.31
-14.31
-18.37
-22.79
-27.90
-33.97
-41.02
-48.78
-56.61
-63.58
-68.54
-70.35
-68.21
-61.87
-51.71
-38.69
-24.02
-8.90
5.64
18.82
30.05
38.86
44.89
47.98
48.33
46.46
43.21
39.48
36.07
33.45
31.73
30.74
30.13
29.59
28.95
28.21
27.43
26.68
25.88
24.82
23.15
20.53
16.77
11.92
6.30
0.39
-5.35
-10.67
-15.63
-20.53
-25.85
-32.00
-39.16
-47.10
-55.12
-62.10
-66.71
-67.73
-64.37
-56.49
-44.65
-29.98
-13.84
2.41
17.66
31.04
41.93
49.96
54.99
57.11
56.69
54.36
50.87
47.03
43.48
40.64
38.61
37.28
36.40
35.78
35.35
35.11
35.04
34.92
34.40
33.02
30.45
26.63
21.82
16.48
11.04
5.79
0.75
-4.19
-9.23
-14.59
-20.48
-27.10
-34.56
-42.70
-50.92
-58.18
-63.17
-64.67
-61.87
-54.70
-43.78
-30.25
-15.40
-0.45
13.62
26.10
36.47
44.33
49.45
51.78
51.57
49.31
45.75
41.71
37.89
34.73
32.37
30.73
29.62
28.87
28.39
28.10
27.82
27.31
26.21
24.21
21.12
16.99
12.09
6.82
1.58
-3.39
-8.11
-12.83
-17.96
-23.90
-30.87
-38.69
-46.78
-54.14
-59.56
-61.86
-60.20
-54.30
-44.53
-31.82
-17.47
-2.80
11.00
22.97
32.44
38.92
42.21
42.45
40.16
36.15
31.34
26.50
22.13
18.42
15.45
13.20
11.70
10.91
10.70
10.75
10.67
10.04
8.53
6.01
2.48
-1.89
-6.88
-12.24
-17.79
-23.48
-29.35
-35.50
-41.95
-48.50
-54.65
-59.61
-62.39
-62.08
-58.04
-50.14
-38.75
-24.73
-9.24
6.40
20.96
33.42
43.06
49.55
52.92
53.47
51.72
48.27
43.74
38.73
33.75
29.24
25.48
22.62
20.63
19.37
18.56
17.89
17.00
15.57
13.36
10.31
6.48
2.05
-2.77
-7.76
-12.75
-17.64
-22.38
-27.15
-32.27
-38.10
-44.84
-52.14
-59.02
-64.03
-65.70
-63.11
-56.20
-45.80
-33.26
-19.96
-6.94
5.23
16.21
25.72
33.36
38.72
41.58
42.13
40.99
39.02
37.07
35.71
35.08
34.96
34.88
34.39
33.15
31.09
28.32
25.13
21.74
18.29
14.72
10.88
6.55
1.57
-4.21
-10.90
-18.49
-26.89
-35.67
-44.16
-51.56
-57.33
-61.58
-65.22
-69.83
-76.95
-87.36
-100.45
-114.29
-126.17
-133.49
-134.61
-129.27
-118.53
-104.35
-89.01
-74.60
-62.47
-52.87
-44.74
-35.91
-23.74
-6.06
18.04
47.94
81.95
118.32
156.08
195.40
237.26
282.45
330.61
379.54
425.13
462.12
485.33
491.12
478.43
449.16
407.48
358.52
306.86
255.55
205.88
157.90
111.10
64.83
18.30
-29.34
-78.71
-129.39
-179.38
-225.07
-262.33
-288.03
-301.29
-303.79
-298.84
-289.88
-279.11
-267.06
-253.17
-236.70
-217.58
-196.47
-174.48
-152.59
-131.44
-111.47
-93.19
-77.31
-64.56
-55.41
-49.68
-46.49
-44.50
-42.34
-39.11
-34.52
-28.91
-22.94
-17.29
-12.38
-8.32
-5.00
-2.27
-0.06
1.51
2.19
1.66
-0.27
-3.50
-7.67
-12.20
-16.46
-20.06
-22.89
-25.27
-27.69
-30.71
-34.74
-39.89
-45.89
-52.09
-57.47
-60.86
-61.13
-57.55
-49.95
-38.82
-25.21
-10.42
4.27
17.78
29.31
38.35
44.67
48.22
49.24
48.20
45.75
42.59
39.38
36.64
34.66
33.55
33.26
33.60
34.31
35.11
35.69
35.86
35.51
34.59
33.11
31.03
28.31
24.88
20.74
15.97
10.76
5.34
-0.08
-5.34
-10.34
-15.01
-19.38
-23.56
-27.79
-32.43
-37.79
-43.98
-50.72
-57.33
-62.72
-65.72
-65.31
-60.96
-52.72
-41.26
-27.65
-13.14
1.12
14.22
25.56
34.77
41.65
46.13
48.26
48.34
46.87
44.50
41.91
39.63
37.93
36.89
36.41
36.38
36.72
37.35
38.18
39.03
39.67
39.82
39.27
37.90
35.69
32.79
29.36
25.63
21.74
17.79
13.74
9.52
5.05
0.32
-4.53
-9.33
-13.87
-18.06
-21.97
-25.85
-30.06
-34.94
-40.71
-47.29
-54.29
-60.92
-66.14
-68.79
-67.95
-63.10
-54.41
-42.63
-28.94
-14.63
-0.81
11.66
22.26
30.65
36.66
40.26
41.61
41.07
39.11
36.34
33.28
30.40
28.03
26.38
25.56
25.50
26.03
26.84
27.62
28.07
28.00
27.33
26.11
24.42
22.39
20.09
17.53
14.64
11.34
7.60
3.49
-0.80
-5.09
-9.24
-13.30
-17.40
-21.72
-26.39
-31.46
-36.90
-42.61
-48.34
-53.59
-57.65
-59.57
-58.49
-53.88
-45.72
-34.63
-21.67
-8.15
4.66
15.73
24.35
30.16
33.11
33.45
31.65
28.39
24.45
20.54
17.23
14.78
13.17
12.20
11.56
11.13
10.98
11.33
12.27
13.65
14.92
15.35
14.26
11.38
6.95
1.60
-3.90
-8.95
-13.41
-17.48
-21.59
-26.17
-31.49
-37.55
-44.10
-50.56
-56.09
-59.72
-60.50
-57.80
-51.53
-42.12
-30.47
-17.69
-4.86
7.13
17.52
25.68
31.14
33.69
33.53
31.35
28.17
25.08
22.88
21.85
21.74
22.04
22.24
22.09
21.70
21.34
21.22
21.36
21.58
21.58
21.05
19.77
17.50
14.09
9.36
3.24
-4.20
-12.77
-22.19
-32.21
-42.62
-53.34
-64.33
-75.52
-86.74
-97.67
-107.71
-116.10
-121.98
-124.62
-123.60
-118.97
-111.30
-101.50
-90.80
-80.57
-72.32
-67.43
-66.84
-70.57
-77.26
-84.25
-88.11
-85.71
-75.25
-56.97
-33.00
-6.63
18.75
40.56
57.36
68.90
75.67
78.71
79.42
79.54
81.15
86.67
98.60
119.02
149.01
188.29
235.23
287.15
340.70
391.92
436.31
469.00
485.46
482.64
460.23
421.20
371.06
316.18
261.79
210.55
162.59
116.36
69.84
21.42
-29.75
-83.45
-138.05
-190.14
-235.09
-268.13
-286.15
-288.98
-279.59
-262.93
-244.07
-226.60
-211.95
-199.89
-189.51
-180.01
-170.92
-161.88
-152.39
-141.80
-129.76
-116.47
-102.88
-90.20
-79.59
-71.57
-65.90
-61.75
-58.21
-54.60
-50.77
-47.08
-44.16
-42.56
-42.48
-43.68
-45.64
-47.71
-49.48
-50.90
-52.33
-54.38
-57.75
-62.80
-69.42
-76.79
-83.53
-87.90
-88.35
-83.92
-74.51
-60.89
-44.43
-26.70
-9.15
7.07
21.18
32.62
41.07
46.45
48.91
48.95
47.24
44.56
41.64
39.05
37.11
35.95
35.46
35.46
35.76
36.19
36.68
37.19
37.59
37.68
37.15
35.65
32.97
29.12
24.37
19.18
14.01
9.13
4.45
-0.38
-5.88
-12.45
-20.17
-28.67
-37.15
-44.46
-49.40
-50.94
-48.43
-41.75
-31.37
-18.18
-3.42
11.59
25.60
37.59
46.78
52.75
55.42
55.06
52.28
47.95
42.96
38.08
33.83
30.44
27.93
26.24
25.26
24.81
24.63
24.35
23.54
21.83
19.01
15.10
10.30
4.95
-0.59
-6.05
-11.33
-16.54
-22.01
-28.18
-35.46
-44.01
-53.61
-63.62
-73.02
-80.56
-85.07
-85.65
-81.76
-73.43
-61.08
-45.38
-27.16
-7.20
13.72
34.72
54.67
71.97
84.78
91.46
91.23
84.65
73.73
61.29
50.11
41.98
37.34
35.45
35.09
35.22
35.38
35.55
35.78
35.87
35.24
33.25
29.57
24.33
18.15
11.76
5.76
0.33
-4.77
-10.01
-15.90
-22.75
-30.70
-39.69
-49.42
-59.34
-68.51
-75.70
-79.50
-78.70
-72.65
-61.42
-45.86
-27.37
-7.58
11.89
29.71
44.86
56.70
64.92
69.55
70.88
69.47
66.11
61.66
57.03
52.92
49.79
47.78
46.75
46.40
46.39
46.41
46.24
45.74
44.79
43.27
41.03
37.94
33.88
28.86
23.02
16.62
10.05
3.62
-2.45
-8.17
-13.76
-19.60
-26.07
-33.48
-41.93
-51.17
-60.56
-69.10
-75.48
-78.41
-76.80
-70.20
-58.86
-43.79
-26.51
-8.71
8.09
22.80
34.71
43.48
49.01
51.41
51.05
48.58
44.85
40.76
37.05
34.12
32.04
30.64
29.72
29.18
29.01
29.17
29.47
29.52
28.87
27.13
24.14
20.05
15.22
10.08
5.00
0.20
-4.35
-8.84
-13.62
-19.07
-25.51
-32.96
-41.04
-48.82
-54.99
-58.15
-57.18
-51.66
-41.93
-29.04
-14.43
0.49
14.56
26.96
37.16
44.77
49.51
51.28
50.28
47.03
42.35
37.18
32.34
28.39
25.53
23.70
22.60
21.92
21.37
20.80
20.09
19.18
17.98
16.32
13.93
10.61
6.29
1.10
-4.56
-10.22
-15.52
-20.36
-24.96
-29.79
-35.34
-41.98
-49.83
-58.67
-67.85
-76.31
-82.64
-85.32
-83.16
-75.64
-63.16
-47.01
-28.99
-10.94
5.75
20.23
32.16
41.41
47.91
51.62
52.67
51.46
48.69
45.24
41.90
39.25
37.50
36.59
36.31
36.38
36.56
36.63
36.45
35.90
34.91
33.44
31.48
29.01
25.99
22.41
18.26
13.57
8.45
3.00
-2.58
-8.09
-13.34
-18.22
-22.77
-27.23
-31.95
-37.39
-43.84
-51.36
-59.55
-67.57
-74.17
-77.99
-77.85
-73.08
-63.68
-50.36
-34.29
-16.88
0.49
16.65
30.69
41.93
50.00
54.79
56.54
55.81
53.40
50.15
46.78
43.74
41.20
39.23
37.80
36.94
36.66
36.88
37.36
37.69
37.44
36.26
34.09
31.12
27.72
24.27
21.04
18.05
15.09
11.85
8.05
3.58
-1.47
-6.80
-12.07
-17.03
-21.57
-25.78
-29.84
-33.99
-38.56
-43.83
-50.05
-57.10
-64.42
-70.87
-74.99
-75.39
-71.20
-62.44
-49.96
-35.17
-19.62
-4.58
9.03
20.64
29.83
36.29
39.82
40.49
38.72
35.30
31.18
27.28
24.19
22.20
21.19
20.87
20.87
20.93
20.91
20.79
20.55
20.16
