1626183208
64
0
0
0
0
0
0
0
0
0
0
0
0.01
0.01
0
-0.03
-0.05
-0.05
0
0.13
0.36
0.66
1.01
1.37
1.72
2.06
2.4
2.79
3.24
3.8
4.42
5.06
5.66
6.2
6.68
7.15
7.68
8.31
9.14
10.09
11.04
11.88
12.56
13.14
13.76
14.65
15.96
17.91
20.32
22.9
25.38
27.58
29.57
31.68
34.32
37.81
42.54
48.15
54.1
59.83
64.97
69.58
74.14
79.34
85.71
93.76
103
112.62
121.73
129.77
136.75
143.3
150.75
157.77
166.64
177.95
191.79
206.97
220.57
228.25
225.36
208.53
176.87
132.76
80.05
23.07
-34.94
-92.43
-149.15
-205.22
-260.37
-313.76
-363.89
-409.84
-450.88
-486.42
-515.63
-537.14
-549.25
-550.22
-538.93
-515.08
-479.78
-435.07
-383.55
-327.91
-270.5
-213.15
-157.23
-103.78
-53.59
-7.52
33.74
69.63
99.83
124.34
143.42
157.58
167.46
173.84
177.43
178.87
178.57
176.69
173.15
167.8
160.61
151.87
142.29
132.79
124.27
117.14
111.16
105.43
98.73
90.16
79.58
67.88
56.72
47.87
42.36
39.93
38.92
36.92
31.8
22.77
10.97
-1.08
-10.2
-14.08
-12.32
-6.75
-1.02
0.71
-5.03
-19.2
-38.99
-57.62
-66.07
-56.09
-24.02
26.49
84.8
136.58
169.02
175.45
157.3
122.83
83.61
50.69
31.76
30
43.37
65.3
86.15
96.28
89.77
67.49
37.34
9.99
-5.29
-5.31
5.62
18.21
23.33
16.93
1.44
-16.57
-30.94
-39.25
-43.91
-49.5
-58.98
-71.33
-81.79
-84.57
-76.34
-58.24
-35.38
-14.41
-0.47
4.49
1.81
-5.46
-14.45
-23.6
-32.72
-42.14
-51.92
-61.13
-68.18
-71.56
-70.53
-65.33
-56.66
-44.67
-28.35
-6.17
22.83
57.28
92.98
123.56
142.15
143.39
124.99
88.33
38.9
-14.12
-59.6
-86.91
-89.43
-67.69
-29.7
11.57
43.71
59.8
60.41
51.18
38.01
23.07
4.73
-18.91
-45.53
-67.12
-73.1
-57.11
-22.95
14.9
37.22
29.91
-7.89
-62.6
-112.32
-137.5
-129.81
-94.69
-46.63
-1.01
33.12
55.57
71.63
86.63
101.57
112.51
114.08
103.68
83.85
60.77
40.69
26.21
15.2
2.78
-14.87
-37.4
-59.84
-74.99
-77.16
-65.25
-43.22
-18
3.99
19.62
29.9
38.28
47.87
58.99
69.16
75.1
75.12
70.57
64.8
61.36
62.04
66.29
71.18
73.03
68.5
55.56
34.36
6.73
-23.74
-52.33
-74.37
-87.29
-90.99
-87.57
-80.49
-72.96
-67.67
-65.86
-67.76
-73.7
-85.83
-107.08
-139.32
-181.08
-225.84
-264.16
-286.34
-286.19
-259.22
-209.33
-146.09
-80.03
-21.91
26.65
66.3
96.99
117.78
129.09
134.75
142.05
157.03
180.4
205.41
219.7
213.01
184.28
142.17
99.06
64.44
40.9
25.33
13.3
2.24
-7.1
-12.23
-11.63
-6.66
-0.7
2.63
1.42
-3.69
-10.37
-15.75
-17.58
-15.27
-10.18
-4.79
-1.44
-1.3
-3.89
-7.67
-10.72
-11.59
-9.89
-6.43
-2.7
-0.11
0.67
-0.13
-1.66
-2.85
-2.92
-1.66
0.55
3.02
5.06
6.34
6.94
7.2
7.54
8.26
9.42
10.88
12.42
13.86
15.12
16.25
17.32
18.4
19.49
20.53
21.47
22.19
22.57
22.52
21.95
20.78
18.98
16.54
13.49
9.98
6.14
2.17
-1.73
-5.33
-8.45
-10.96
-12.74
-13.78
-14.09
-13.74
-12.85
-11.51
-9.86
-8
-6
-3.94
-1.87
0.21
2.22
4.11
5.69
6.85
7.55
7.88
7.96
7.93
7.91
7.86
7.76
7.5
7
6.33
5.65
5.12
4.9
5.17
5.9
7.1
8.55
10.13
11.89
14.13
17.17
21.18
26.26
32
38.16
43.69
47.81
50.48
52.46
54.61
57.63
61.97
67.34
73.55
78.51
80.52
79.09
75.06
69
60.5
52.27
44.95
39.04
32.06
22.19
9.58
-3.23
-14.09
-21.84
-26.52
-29.36
-31.62
-38.66
-54.94
-82.07
-117.98
-160.54
-208.01
-259.38
-313.84
-346.53
-342.61
-303.74
-245.9
-185.33
-132.2
-89.4
-56.02
-28.95
-3.99
18.07
36.36
45.49
50.38
54.28
58.53
62.9
67.82
74.87
81.33
84.19
80.83
69.8
47.27
13.75
-32.5
-91.92
-151.96
-201.89
-232.37
-237.59
-214.91
-166.65
-99.71
-26.34
38.88
82.7
95.29
76.48
36.53
-7.04
-37.81
-46.45
-34.1
-9.32
17.31
36.82
46.05
47.12
44.27
39.91
33.67
23.67
9.61
-5.9
-19.17
-26.86
-27.65
-22.96
-16.02
-10.35
-8
-8.92
-10.21
-8.92
-3.08
7.24
19.99
31.94
39.92
41.89
37.87
29.46
18.82
7.93
-2.12
-11.2
-19.71
-28.19
-36.83
-44.83
-51.13
-54.7
-55.03
-52.42
-47.95
-42.71
-37.89
-34.38
-31.96
-30.26
-28.27
-24.87
-19.36
-11.31
0.46
17.15
36.44
57.72
80.23
104.03
128.81
153.13
174.87
193.2
207.54
217.96
225.88
232.04
238.76
248.67
264.17
287.32
320.54
362.79
408.68
449.97
476.37
482.46
468.56
440.12
393.63
332.75
264.67
197.33
145.73
108.04
78.91
53.13
24.03
-11.53
-52.82
-98.06
-145.04
-191.65
-237.86
-282.7
-326.1
-369.44
-414.51
-461.3
-508.18
-550.97
-583.09
-598.38
-591.31
-560.74
-511.05
-450.45
-386.95
-326.15
-269.83
-216.86
-165.8
-115.27
-65.59
-18.75
22.52
56.35
82.28
101.16
114.74
124.31
130.23
131.3
124.89
108.1
80.18
43.93
5.28
-28.23
-49.56
-53.99
-40.47
-12.57
20.89
48.95
62.27
56.5
34.49
5.43
-19.25
-30.28
-24.46
-6.04
18
42.56
66.39
92
123.41
159.43
194.82
228.46
256.08
269.54
264.26
240.22
201.66
155.79
110
69.96
38.54
13.23
-7.08
-21.89
-29.82
-29.83
-21.89
-8.15
7.77
22.35
32.25
36.75
37.52
37.32
38.05
40.78
45.08
49.62
53.24
54.22
51.75
45.89
37.7
26.63
12.51
-4.83
-25.51
-48.71
-74.08
-100.69
-127.65
-152.05
-174.18
-194.8
-213.71
-232.33
-244.91
-244.51
-225.27
-185.03
-126.37
-56.47
15.85
82.03
134.62
169.12
183.4
178.47
158.28
129.05
97.6
69.61
51.85
47.38
54.75
68.7
83.58
95.06
101.26
101.51
96.33
87.23
75.78
63.7
51.37
38.18
21.98
-0.15
-31.53
-74.62
-129.78
-194.54
-262.2
-323.25
-367.81
-389.4
-386.58
-363.55
-328.01
-288.04
-249.43
-213.64
-179.41
-144.81
-109.89
-75.69
-43.74
-14.94
10.77
34.04
56.13
77.3
96.42
110.41
117.14
115.93
107.78
94.59
73.82
44.93
9.4
-24.26
-54.09
-80.28
-104.7
-127.18
-146.75
-162.32
-172.42
-176.59
-175.64
-172.17
-168.12
-164.68
-162.1
-160.38
-159.32
-158.25
-156.79
-155.05
-154.13
-154.26
-154.85
-154.57
-152.03
-146.07
-135.81
-121.18
-102.98
-82.98
-62.43
-41.92
-21.31
-0.29
21.27
43.03
63.87
82.13
96.03
104.84
109.25
111.27
113.5
118.23
126.69
138.55
152.36
166.15
178.66
189.91
201.21
214.53
231.93
255.07
284.77
320.46
359.46
396.61
424.77
436.98
429.55
404.71
370.63
338.38
316.65
307.39
304.7
297.85
276.69
236.17
177.92
108.11
34.26
-37.15
-100.83
-151.59
-184.22
-195
-184.12
-157.07
-123.42
-93.21
-73.34
-66.21
-70.8
-84.84
-106.2
-132.62
-160.48
-184.41
-198.56
-199.21
-186.68
-165.24
-140.83
-118.12
-98.71
-81.35
-63.53
-43.21
-19.43
7.92
38.56
71.39
103.7
130.77
146.69
146.74
129.61
98.71
61.37
26.52
1.75
-8.82
-5.17
9.39
29.75
50.56
67.28
76.72
77.35
69.38
54.59
35.63
15.24
-4.26
-21.03
-33.62
-40.7
-41.28
-35.13
-23.09
-7.14
10.05
25.86
38.55
47.68
54
58.68
62.48
65.32
66.54
65.4
61.72
56.14
49.89
44.28
40.13
37.47
35.68
33.9
31.52
28.54
25.54
23.36
22.74
23.86
26.26
28.93
30.64
30.52
28.31
24.3
19.07
13.11
6.84
0.59
-5.19
-9.95
-13.24
-15.03
-15.76
-16.27
-17.19
-18.71
-20.6
-22.54
-24.41
-26.26
-27.94
-28.87
-28.08
-24.76
-18.9
-11.62
-4.8
-0.03
2.25
2.79
2.83
3.03
3
1.78
-1.24
-5.46
-9.36
-11.42
-11.27
-9.94
-9.33
-10.86
-14.19
-17.58
-18.8
-16.54
-11.24
-4.79
0.68
3.95
5.28
6.86
10.91
18.58
29.5
42.23
55.07
66.75
76.51
83.9
90.26
96.77
104.3
113.32
124.04
136.32
149.66
163.01
175.11
187.62
202.33
220.65
242.89
268.33
295.54
323.01
349.07
371.87
392.56
411.39
427.13
437.06
438.24
429.1
410.7
386.31
338.51
259.16
150.15
24.46
-99.46
-206.19
-288.22
-344.98
-380.18
-399.05
-404.02
-397.4
-382.07
-361.88
-340.45
-321.89
-308.76
-302.07
-301.61
-304.69
-308.68
-311.83
-313.56
-314.13
-314.17
-313.8
-312.98
-306
-288.68
-259.78
-221.16
-176.79
-131.24
-88.41
-50.5
-18.27
8.54
30.62
48.59
63.16
75.14
85.46
94.76
103.73
112.81
121.94
130.3
136.3
137.98
134.63
127.07
116.88
106.08
96.55
89.61
85.42
81.58
76.03
68.39
60.54
54.89
53.65
57.64
65.84
75.41
79.15
70.3
44.72
6.23
-40.21
-89.5
-137.78
-183.11
-225.3
-269.42
-319.99
-378.6
-443.49
-511.73
-580.22
-645.81
-704.23
-723
-680.31
-574.09
-425.66
-267.65
-127.89
-20.74
52.44
98.51
127.03
141.52
142.93
132.25
112.69
89.48
68.22
52.95
45.25
44.51
45.56
42.99
35.86
27.07
21.58
24.11
37.27
61.13
93.68
128.23
158.48
180.75
194.44
201.1
203.13
202.5
200.29
196.85
191.07
182.12
170.17
156.23
141.7
128.1
116.34
106.73
99.14
92.78
86.98
81.4
75.95
70.46
65.25
60.63
56.95
54.58
53.76
54.4
55.91
58.7
60.56
60.41
57.99
53.91
49.42
45.98
44.41
44.86
46.72
48.86
50.66
52.09
53.83
56.92
62.64
71.69
84.75
102.01
122.18
142.69
159.34
167.3
163.03
146.1
119.23
88.25
59.74
38.27
25.47
20.08
19.36
20.98
23.88
27.25
30.84
33.96
35.26
33.38
27.38
16.88
1.39
-13.76
-26.62
-36.45
-43.49
-48.24
-50.8
-50.6
-46.55
-37.32
-21.99
-1.52
22.46
47.9
72.88
96.14
117.17
136.08
153.22
168.7
181.37
189.81
192.66
189.1
179.17
163.66
143.91
121.23
96.75
70.67
43.04
13.48
-18.7
-54.41
-94.19
-136.97
-179.4
-215.97
-240.91
-250.2
-243.76
-225.82
-203.56
-184.51
-174.22
-175.31
-187.74
-209.59
-236.98
-263.8
-281.9
-282.79
-260.86
-216.35
-156.73
-94.74
-44.29
-15.87
-13.4
-34.55
-72.77
-120.1
-168.22
-209.05
-234.7
-239.26
-221.73
-187.44
-146.78
-110.81
-86.02
-71.7
-61.6
-48.55
-28.94
-3.84
23.91
53.44
87.44
130.23
183.18
241.52
295.24
333.37
348.99
341.8
317.19
283.13
247.28
215.24
190.37
173.57
163.37
156.1
147.2
132.96
112.23
86.95
60.56
35.9
13.92
-6.63
-27.97
-51.92
-78.85
-107.13
-133.22
-152.69
-161.6
-158.34
-145.09
-127.4
-112.31
-105.76
-110.35
-125.11
-147.14
-173.69
-203.47
-236.02
-270.26
-303.35
-331.05
-349.45
-356.67
-353.71
-343.66
-330.43
-317.15
-304.89
-292.69
-278.12
-258.25
-230.94
-196.1
-156.36
-117.15
-84.81
-64.05
-56.12
-58.29
-65.04
-70.37
-69.54
-60.5
-44.69
-25.44
-6.33
10.23
23.75
36.06
50.81
71.77
100.48
132.9
162.54
183.85
194.67
196.29
191.89
184.43
175.01
162.71
141.79
109.74
70.75
34.24
8.61
-4.1
-9
-15.26
-31.51
-68.44
-128.02
-201.6
-274.18
-333.49
-375.15
-401.13
-414.76
-417.36
-417.09
-419.83
-427.31
-438.59
-454.04
-476.06
-505.59
-539.29
-514.59
-396.92
-199.57
23.63
220.61
368.2
467.94
532.09
574
602.84
614.79
606.11
579.66
544.51
510.75
484.53
467.65
459.53
456.65
448.48
427.6
393.86
352.82
311.44
274.15
242.68
217.39
195.2
168.38
130.87
86.56
41.01
-0.31
-34.12
-59.05
-74.74
-85.19
-96.65
-113.53
-136.87
-166.48
-201.88
-243.49
-292.51
-328.48
-339.06
-324.02
-291.45
-247.58
-194.25
-132.44
-66.42
-3.6
48.8
83.46
98.83
99.29
92.24
83.28
74.89
67.25
60.43
55.59
51.72
47.96
43.84
39.31
34.16
28.32
22.65
18.68
19.73
26.43
38.12
53.42
70.64
87.99
103.9
117.52
129.46
140.95
152.1
162.52
171.63
178.59
182.74
183.89
182.62
181.18
182.84
190.76
207.42
233.53
267.14
303.74
337.85
360.82
368.25
360.65
343
322.61
306.05
296.66
293.95
294.87
295.79
294.77
291.1
284.48
274.11
258.57
236.27
206.49
169.97
128.61
85.67
44.08
5.65
-29.21
-61.21
-91.38
-120.36
-147.89
-172.99
-193.92
-209.16
-218.1
-221.26
-220.26
-217.13
-213.66
-210.78
-208.43
-205.46
-200.36
-192.03
-180.15
-165.39
-149.23
-133.26
-118.58
-105.53
-93.53
-81.66
-69.49
-57.1
-45.41
-35.73
-29.02
-25.63
-25.33
-27.82
-32.6
-38.37
-42.36
-40.59
-29.4
-7.54
22.03
52.35
74.49
80.92
68.22
37.84
-5.15
-54.58
-105.21
-153.64
-198.29
-238.88
-276.16
-311.31
-345.81
-380.38
-414.18
-444.48
-467.22
-477.62
-471.18
-445.08
-399.36
-338.36
-271.04
-209.64
-166.63
-150.44
-162.03
-194.04
-233.46
-266.29
-282.45
-278.25
-255.88
-220.88
-179.05
-134.66
-90.21
-47.56
-8.94
23.04
46.22
59.91
65.2
64.81
61.7
58.1
54.72
51.04
46.25
40.06
33.36
28.15
26.61
29.71
36.65
44.92
51.34
53.31
49.96
42.74
35.17
31.38
34.07
43.25
56.02
67.44
72.07
65.4
45.02
11.37
-32.73
-83.22
-135.72
-186.38
-232.65
-273.76
-310.74
-345.52
-378.52
-408.41
-432.42
-447.59
-451.7
-443.96
-425.19
-397.54
-363.6
-323.53
-276.77
-223.9
-167.65
-112.31
-61.71
-18.44
16.45
43.47
67.44
93.6
124.59
159.15
193.89
226.17
254.86
280.22
303.33
329.93
365.8
413.48
470.8
533.45
598.4
664.53
732.27
775.53
771.72
716.2
627.53
531.29
444.07
371.04
310.55
258.76
212.21
172.76
143.29
124.32
118.42
118.44
118.4
114.61
105.31
89.81
71.34
53.74
38.95
15.66
-17.04
-56.32
-98.63
-141.11
-181.88
-218.01
-247.11
-268.3
-283.29
-293.95
-302.29
-309.75
-316.98
-323.98
-330.32
-333.95
-332.94
-327.2
-316.88
-303.07
-287.27
-271.16
-256.27
-243.6
-233.86
-226.69
-222.01
-219.04
-217
-214.78
-210.68
-202.05
-184.84
-162.45
-135.27
-103.8
-68.82
-32.01
4.29
37.49
65.14
85.28
96.42
98.9
93.36
80.91
62.87
40.89
17.05
-6.22
-26.17
-40.19
-45.13
-38.92
-20.78
8.98
48.93
97.11
151.27
209.29
269.3
330.59
392.83
455.99
519.77
582.44
640.04
686.86
716.99
726.74
716.93
692.97
663.11
635.66
616.39
607.42
607.5
613.02
618.81
618.9
607.04
578.15
530.09
465.21
390.19
314.19
245.89
191.04
151.46
125.9
111.48
105.1
103.98
105.49
107.04
106.19
101.16
91.31
77.06
59.66
40.52
20.53
-0.17
-22.09
-45.91
-72.03
-100.01
-128.58
-155.87
-179.96
-199.54
-214.14
-224.26
-230.94
-235.35
-238.3
-240
-240.23
-238.78
-235.94
-232.8
-231.13
-232.93
-239.8
-252.22
-269.47
-289.71
-310.63
-330.32
-347.93
-364.04
-380.54
-400.04
-425.01
-456.7
-494.07
-533.39
-568.77
-593.62
-602.48
-592.71
-565.09
-523.32
-472.41
-416.85
-359.69
-302.57
-246.65
-193.7
-146.27
-107.04
-77.46
-56.91
-42
-27.34
-7
23.7
66.67
120.71
181.45
242.13
294.75
332.53
352.23
355.11
345.96
330.66
313.5
295.34
273.69
243.84
203.19
154.2
104.64
65.09
45.02
49.63
77.99
123.3
172.65
213.29
236.82
240.77
227.08
200
164.31
123.89
81.18
32.36
-25.26
-89.26
-151.49
-201.31
-229.77
-232.82
-213.47
-181.45
-157.78
-159.41
-190.6
-242.13
-298.76
-347.3
-380.92
-399.83
-408.94
-423.89
-454.61
-499.48
-548.1
-590.87
-625.25
-655.26
-688.19
-668.38
-569.03
-407.6
-232.86
-84.27
25.2
100.11
151.16
189.78
226.06
257.68
281.49
297.94
310.65
321.83
330.88
336.73
339.37
339.81
331.24
308.77
273.93
234.57
199.62
174.99
162.57
160.45
164.34
164.66
154.74
134.18
109.81
89.9
80.5
84.48
101.14
126.82
153.12
171.14
173.66
157.23
122.48
74.76
24.05
-17.95
-41.41
-43.11
-26.31
0.71
29.85
56.22
79
99.86
118.71
131.49
131.09
111.26
69.17
8.68
-61.56
-131.74
-191.64
-234.52
-257.72
-261.57
-247.6
-219.35
-180.41
-134.63
-85.57
-35.35
15.11
65.49
110.36
150.68
179.72
190.13
176.36
137.51
79.13
12.42
-48.74
-91.72
-108.43
-98.85
-68.03
-23.44
28.5
84.11
141.31
197.06
245.58
279.32
290.27
275.14
236.95
183.7
124.35
64.75
6.28
-51.92
-108.88
-159.86
-195.76
-206.93
-188.08
-140.96
-74.39
-1.28
65.14
114.54
140.52
141.5
119.87
81.44
34.56
-11.22
-47.16
-67.97
-73.47
-68.67
-61.17
-58.06
-62.81
-74.8
-91.49
-110.85
-132.91
-158.67
-187.34
-214.33
-232.17
-234.19
-218.92
-192
-163.35
-141.5
-128.53
-119.28
-105.22
-80.5
-46.22
-10.32
16.41
25.81
16.08
-7.93
-37.52
-64.06
-81.91
-89.52
-88.15
-80.1
-66.86
-48.78
-25.08
5.28
42.42
84.79
128.61
167.95
195.61
205.16
193.16
160.97
115.12
65.61
23
-4.77
-14.25
-6.78
12.65
37.4
61.12
79.3
89.97
93.74
93.24
91.9
92.75
97.45
106.1
117.49
130.14
142.26
151.44
154.27
146.7
125.78
91.77
49.38
6.88
-26.71
-45.18
-47.72
-38.61
-24.81
-12.5
-4.85
-1.77
-1.67
-3.36
-7.06
-13.81
-24.03
-36.5
-48.47
-57.13
-61.34
-62.24
-62.83
-66.21
-73.52
-82.67
-89.05
-87.22
-73.68
-49.05
-18.23
11.33
32.74
42.51
41.62
33.9
23.54
13.06
3.12
-5.72
-11.72
-11.41
-1.56
18.73
46.68
76.82
103.23
122.13
133.1
138.2
140.02
139.87
137.4
131.61
122
109.3
95.23
81.9
70.59
61.53
53.83
46.28
38.09
29.53
21.91
16.51
13.74
12.3
9.76
3.85
-5.82
-17.07
-25.92
-28.42
-22.96
-11.86
-1.23
1.96
-6.66
-26.32
-50.95
-72.18
-83.81
-85.14
-80.91
-77.94
-80.77
-89.09
-98.37
-102.91
-99.28
-87.69
-70.9
-51.62
-30.71
-7.58
18.09
44.68
68.95
87.73
100
107.25
112.24
116.79
120.55
121.6
118.26
111.19
103.34
98.38
98.25
101.63
104.49
102.7
94.94
83.66
73.37
67.65
66.65
67.01
64.3
56.01
43.3
30.52
22.47
21.37
25.31
28.91
26.29
14.35
-5.22
-26.31
-41.23
-44.89
-37.7
-25.51
-16.58
-17.01
-27.94
-45.5
-63.92
-79.29
-91.34
-102.11
-112.93
-122.47
-127.51
-125.76
-118.24
-109.05
-102.38
-99.22
-95.81
-85.98
-65.36
-34.32
1.86
35.8
61.63
77.22
84.09
85.92
86.27
87.17
88.8
89.56
86.6
76.82
58.37
31.95
1.01
-29.42
-54.87
-73.01
-83.95
-89.21
-90.34
-88.17
-83.48
-77.93
-73.91
-73.41
-76.48
-80.84
-82.63
-78.76
-68.72
-54.84
-40.69
-29.04
-21.04
-16.83
-17.19
-24.01
-39.08
-62.14
-89.61
-115.55
-134.43
-143.88
-145.14
-141.31
-134.55
-124.23
-107.63
-82.53
-49.53
-12.44
23.63
54.76
79.47
97.56
108.02
108.49
96.7
73.13
42.72
13.97
-4.75
-9.36
-2.11
9.89
18.74
20.11
14.93
7.89
4.1
6.02
12.69
21.08
28.5
34
38.09
41.1
41.83
37.75
26.85
9.71
-9.83
-26.04
-34.19
-32.93
-24.76
-14.29
-5.66
-0.84
0.59
0.02
-1.87
-5.75
-13.24
-25.44
-41.88
-60.28
-77.26
-89.42
-94.35
-91.33
-81.27
-66.29
-48.79
-30.69
-12.96
4.13
20.18
33.88
43.16
45.94
41.25
30.15
15.59
1.75
-7.52
-9.85
-4.9
5.51
18.2
29.92
38.66
44.34
48.53
53.09
58.75
64.59
68.72
69.71
67.92
65.64
65.44
68.24
72.42
74.86
73.11
66.88
58.1
49.85
44.41
42.19
42.06
42.44
42.28
41.22
39.13
36.02
32.24
28.65
26.54
26.92
29.45
32.31
32.99
29.79
22.62
12.89
2.16
-8.77
-19.72
-30.19
-38.25
-40.48
-33.88
-17.99
3.94
25.91
41.91
48.56
46.3
38.53
29.5
22.14
17.21
13.72
10.11
5.09
-2.19
-12.1
-24.36
-37.82
-50.42
-59.44
-62.66
-59.39
-50.82
-39.47
-28.05
-18.87
-13.34
-11.73
-13.22
-16.32
-19.32
-21.08
-21.67
-22.38
-25.02
-30.66
-38.79
-47.23
-53.19
-54.86
-52.62
-48.87
-46.76
-48.16
-52.5
-57.01
-58.41
-54.8
-46.76
-37.27
-30.33
-29.07
-34.16
-43.8
-54.7
-63.94
-70.21
-73.99
-76.6
-78.57
-78.87
-75.49
-67.15
-54.8
-41.87
-32.96
-31.15
-36.19
-44.54
-51.41
-53.69
-51.82
-49.39
-50.46
-57.07
-67.82
-78.97
-86.77
-89.63
-88.34
-84.71
-79.89
-73.85
-66.43
-58.04
-50.4
-45.6
-44.54
-45.82
-45.93
-40.74
-27.58
-6.35
20.6
49.46
76.26
98.23
114.27
125.03
132.36
138.18
143.55
148.43
152.4
155.78
160.89
170.83
187.41
209.01
229.53
240.13
232.87
204.22
156.92
98.94
39.49
-14.24
-59.2
-95.81
-125.58
-148.61
-162.88
-165.21
-153.51
-128.84
-95.74
-60.77
-29.9
-6.11
11.39
25.95
41.17
58.58
76.74
92.15
101.43
103.11
98.49
90.64
82.93
77.57
74.99
74.16
73.58
72.01
68.85
64.09
57.83
50.27
41.64
32.34
22.95
14.12
6.45
0.36
-3.9
-6.42
-7.76
-9.06
-11.76
-16.75
-23.47
-29.88
-33.29
-31.7
-25.15
-16.27
-9.17
-7.46
-12.2
-21.16
-29.95
-34.36
-32.32
-24.53
-13.68
-2.92
5.39
10.09
10.83
7.71
1.27
-7.42
-16.84
-25.47
-32.48
-38.05
-43.31
-49.55
-57.24
-65.48
-72.75
-77.97
-81.21
-83.39
-85.12
-85.84
-83.87
-77.75
-67.64
-56
-46.46
-41.73
-41.99
-44.86
-47.03
-46.42
-43.34
-39.89
-37.74
-36.27
-32.15
-21.34
-1.82
24.73
53.28
78.06
95.43
105.24
110.28
114.29
119.87
127.45
135.68
142.47
146.42
147.31
145.57
141.78
136.02
127.95
117.49
105.49
93.54
83.25
75.29
68.9
62.3
53.51
41.5
26.92
12.04
-0.51
-8.98
-13.7
-16.81
-20.93
-27.96
-38.14
-50.14
-61.79
-71.06
-76.63
-78.13
-76.13
-71.72
-66.33
-61.19
-56.92
-53.72
-51.3
-49.09
-46.58
-43.6
-40.33
-37.08
-34.22
-32.24
-31.84
-33.54
-37.23
-41.85
-45.6
-46.63
-44.17
-38.89
-32.56
-27.21
-24.17
-23.79
-25.59
-28.81
-32.75
-36.95
-40.9
-43.76
-44.49
-42.16
-36.71
-29.31
-22.1
-17.61
-17.71
-22.53
-29.97
-36.42
-38.53
-34.72
-26.22
-16.39
-9.22
-7.35
-11.04
-18.33
-25.98
-30.71
-30.58
-25.67
-17.79
-9.88
-4.95
-5.14
-10.98
-21.39
-34.01
-45.84
-54
-56.17
-51.16
-39.15
-21.92
-2.59
15.2
28.74
37.24
41.98
45.22
48.6
52.44
55.83
57.6
57.09
54.54
50.84
46.9
43.16
39.69
36.74
34.63
33.55
33.19
32.72
31.02
27.14
20.97
13.25
5.32
-1.24
-4.92
-4.59
0.03
7.98
17.04
24.54
28.35
27.86
24.19
19.8
17.2
17.8
21.55
26.99
31.88
33.88
31.57
25.11
16.12
7.13
0.29
-3.53
-5.16
-6.47
-9.18
-13.64
-18.69
-22.79
-25.11
-26.31
-28.2
-32.58
-39.86
-48.64
-56.62
-61.8
-63.6
-62.68
-60.17
-56.6
-51.49
-43.56
-31.64
-15.81
2.03
18.79
31.37
38.16
39.77
38.59
37.18
36.69
36.29
34.2
29.6
23.93
20.44
22.27
30.13
41.23
50.39
52.96
47.65
37.33
27.25
21.82
22.16
26
29.56
30.14
27.43
23.09
19.04
15.91
12.97
9
3.42
-3.29
-10.14
-16.42
-22.02
-27.01
-31.35
-34.56
-36.06
-35.91
-35
-34.51
-35.11
-36.57
-38.03
-39.03
-40.22
-43.22
-49.59
-59.65
-71.7
-82.59
-88.8
-87.8
-78.84
-63.03
-42.81
-21.21
-1.14
15.2
26.4
31.64
30.92
25.14
16.31
7.31
0.98
-0.85
1.82
6.94
11.45
13.09
11.73
9.39
8.66
10.76
14.57
17.4
17.03
13.27
8.1
4.38
3.76
5.67
8.11
9.25
8.85
8.44
10.08
14.71
21.44
28.29
33.37
35.74
35.36
32.38
26.84
19
9.81
0.85
-6.11
-10.33
-12.67
-15.11
-19.57
-26.65
-35.23
-43.37
-49.69
-54.42
-59.23
-66.2
-76.48
-89.34
-102.02
-110.62
-111.46
-102.6
-84.55
-60.22
-33.87
-9.46
10.62
26.18
38.72
50.26
62
73.86
84.45
91.95
94.94
92.91
86.38
76.6
65.09
53.47
43.22
35.55
31.02
29.35
29.23
28.48
24.78
16.77
4.91
-8.81
-21.56
-30.97
-35.88
-36.27
-32.41
-24.42
-12.42
2.8
19.23
34.01
44.48
49.41
49.2
45.25
38.93
30.87
21.36
11.04
1.33
-6.03
-10.11
-11.59
-12.4
-14.31
-17.77
-21.57
-24.16
-24.89
-24.5
-24.12
-23.95
-22.66
-18.32
-10.57
-1.87
3.37
1.58
-7.24
-18.72
-26.29
-24.86
-13.68
3.43
20.42
32.45
37.92
38.53
37.18
36.07
35.86
36.16
36.26
35.7
34.13
30.97
25.53
17.42
7.3
-2.9
-10.61
-13.65
-11.14
-4
5.38
14.3
20.67
23.47
22.62
18.64
12.32
4.61
-3.22
-9.64
-13.39
-13.75
-10.92
-6
-0.65
3.57
5.56
4.97
2.21
-1.43
-3.96
-3.25
2.1
11.91
24.11
35.25
41.69
40.98
32.67
18.39
1.25
-15.28
-28.34
-36.29
-38.86
-36.74
-31.13
-23.23
-13.91
-3.98
5.5
13.29
18.18
19.53
17.73
14.05
10.1
6.96
4.8
2.92
0.52
-2.72
-6.52
-10.05
-12.32
-12.57
-10.4
-5.84
0.49
7.33
12.76
14.56
11.09
2.16
-10.5
-23.68
-33.89
-38.82
-38.24
-34.05
-29.2
-26.16
-26.03
-28.63
-33.17
-39.22
-46.62
-54.84
-62.25
-66.22
-64.4
-56.22
-43.7
-30.88
-22.08
-19.94
-24.32
-32.65
-41.47
-47.87
-50.41
-48.88
-43.44
-34.11
-20.9
-4.19
15.03
35.19
54.46
70.99
83.12
89.59
89.84
84.14
73.78
60.61
46.66
33.7
22.76
14.19
8.02
4.36
3.29
4.71
7.91
11.44
13.54
12.75
8.67
2.16
-5.07
-11.13
-14.74
-15.51
-13.97
-11.14
-8.21
-6.23
-5.83
-7.26
-10.34
-14.37
-18.34
-21.24
-22.3
-21.39
-18.89
-15.35
-11.25
-6.71
-1.72
3.39
7.77
10.35
10.35
7.57
2.6
-3.42
-9.18
-13.19
-13.79
-9.07
2.46
20.87
43.83
67.05
85.52
95.69
96.93
91.79
84.54
78.67
75.52
74.46
74.26
74.41
75.45
78.01
81.09
81.45
74.58
57.29
29.94
-2.82
-34.23
-58.27
-72.07
-76.59
-74.96
-69.97
-62.08
-49.46
-30.26
-5.34
20.61
40.64
49.38
46.29
36.14
25.82
19.8
17.41
14.13
5.6
-8.25
-22.43
-30.09
-27.55
-17.43
-7.16
-3.86
-9.49
-19.98
-28.76
-32.02
-31.03
-30.73
-35.36
-45.25
-56.62
-64.5
-66.12
-62.14
-54.98
-46.45
-36.28
-22.99
-6.12
12.36
28.65
39.35
43.52
42.69
39.31
34.77
28.27
17.89
2.46
-16.86
-36.85
-53.94
-66.15
-73.78
-78.64
-82.77
-87.23
-91.76
-95.16
-95.96
-92.8
-84.94
-72.43
-56.27
-38.39
-21.52
-8.53
-1.51
-1.13
-6.54
-15.78
-26.71
-37.75
-47.77
-55.42
-59.05
-57.12
-48.91
-35.56
-20.25
-7.35
-0.6
-1.51
-8.72
-19.15
-29.74
-38.68
-45.45
-49.84
-50.89
-46.96
-37.04
-22
-4.94
10.18
20.43
25.25
26.21
25.43
23.83
20.66
14.68
5.91
-3.05
-7.88
-4.58
8.15
27.97
49.98
69.32
83.22
91.64
96.34
99.03
100.26
99.45
96.01
90.2
83.33
76.93
71.6
66.74
61.16
54.19
46.34
38.73
32.13
26.23
20.14
13.41
6.89
2.44
1.56
3.91
6.97
7.36
2.93
-5.75
-15.8
-23.82
-28.23
-30.03
-31.65
-34.88
-39.01
-41.47
-39.84
-34.22
-27.86
-25.53
-30.38
-41.62
-54.47
-62.32
-60.09
-46.67
-25.01
-0.34
22.41
40.39
53.28
62.1
67.82
70.64
70.51
67.9
64.12
60.9
59.5
59.91
60.63
59.79
56.29
50.73
45.1
41.46
40.69
41.83
42.76
41.55
37.4
30.85
23.21
16
10.43
7.28
6.8
8.5
11.19
13.4
13.88
11.97
7.93
2.71
-2.44
-6.61
-9.39
-10.57
-10.27
-9.12
-8.19
-8.49
-10.61
-14.13
-17.96
-21.27
-24.23
-28.3
-35.08
-45.12
-57.07
-68.06
-74.99
-76.08
-71.64
-63.44
-53.73
-44.14
-35.21
-26.77
-18.68
-11.31
-5.39
-1.81
-0.74
-1.09
-0.63
2.98
10.82
21.78
32.45
38.43
36.81
28.2
16.47
6.95
3.81
7.79
16.09
24.04
28.03
27.09
22.8
17.51
12.85
9.25
6.34
4.08
3
3.87
6.61
10.25
13.35
14.75
14.26
12.14
8.74
4.12
-1.79
-8.77
-15.77
-21.33
-24.7
-26.65
-29.03
-33.12
-38.62
-43.66
-46.19
-45.8
-44.68
-46.51
-53.8
-65.79
-77.86
-83.62
-78.25
-61.08
-36.07
-9.61
12.55
27.88
37.02
42.37
45.89
47.67
46.13
39.38
27.06
11.33
-3.7
-13.94
-17.01
-13.26
-5.62
2.12
7.19
9.25
10.11
12.15
16.4
21.45
24.12
21.67
14.25
5.44
0.49
3.19
13.14
25.47
33.41
32.52
23.23
10.3
-0.71
-7.13
-10.48
-14.62
-21.99
-31.21
-38.1
-39.04
-34.15
-27.98
-26.83
-34.46
-49.48
-65.79
-76.29
-76.81
-68.15
-55.04
-42.96
-35.42
-32.85
-33.68
-36.12
-39.37
-43.38
-47.54
-49.77
-46.79
-35.98
-17.17
6.44
29.57
47.26
57.14
60.09
59.03
56.96
55.56
55.07
55.12
55.76
57.57
60.95
65.42
69.4
71.11
69.52
65.13
59.48
54.17
50.02
46.94
44.51
42.5
41.06
40.38
40.43
40.98
41.84
43.21
45.48
48.66
51.51
51.61
46.41
34.75
17.98
-0.28
-15.71
-25.51
-29.48
-29.65
-28.51
-27.44
-26.34
-24.7
-22.97
-23.02
-27.27
-37.01
-51.13
-66.24
-78.49
-85.5
-87.26
-85.49
-82.08
-77.85
-72.45
-65.18
-56.11
-46.31
-37.31
-30.31
-26.04
-24.99
-27.58
-34.12
-43.78
-54.11
-61.23
-61.03
-50.84
-30.92
-4.84
21.47
41.3
49.27
42.87
23.59
-3.43
-30.75
-51.15
-60.1
-57.3
-46.26
-32.23
-19.6
-10.57
-5.18
-2.76
-3
-6.07
-11.3
-15.99
-15.27
-4.43
17.74
46.91
74.34
91.22
93.62
84.67
72.31
64.05
62.21
62.95
59.47
47
26.58
4.43
-11.91
-18.08
-14.82
-6.46
2.61
10.78
19.55
31.49
47.78
66.93
85.29
98.55
103.6
99.57
88.19
72.6
56.14
41.03
27.96
16.43
5.98
-3.11
-9.98
-13.67
-14.06
-12.42
-10.86
-10.97
-12.91
-15.25
-15.8
-13.02
-6.92
1.02
9.08
16.18
22.15
27.07
30.33
30.14
23.89
9.93
-10.78
-34.49
-56.08
-71.23
-78.01
-77.43
-72.59
-66.65
-61.56
-58.14
-56.66
-57.48
-61.04
-67.32
-74.87
-80.78
-81.43
-74.18
-59
-38.72
-17.9
-0.7
11.05
18.36
24.19
31.56
41.52
52.31
60.58
63.46
60.26
52.92
45.13
40.06
38.63
39.23
39.03
36.17
31.05
25.87
23.06
23.34
24.84
24.4
19.93
12.09
4.29
0.58
2.71
8.74
14.02
14
6.92
-5.45
-19.19
-30.66
-38.23
-42.23
-43.72
-43.27
-40.78
-36.47
-31.84
-29.54
-32.01
-40
-51.64
-63.09
-70.28
-70.62
-63.56
-50.2
-32.42
-12.23
8.37
27.28
42.55
52.73
57.45
57.7
55.33
52.23
49.69
48.15
47.32
46.61
45.61
44.14
42.12
39.39
35.74
31.06
25.6
20
15.04
11.39
9.21
7.86
6.31
3.46
-1.3
-7.81
-15.03
-21.3
-24.91
-24.86
-21.29
-15.51
-9.64
-5.97
-6.17
-10.48
-17.54
-24.79
-29.45
-29.69
-25.32
-18.02
-10.58
-5.9
-6.15
-12.15
-23.17
-36.93
-50.21
-59.56
-62.21
-56.81
-43.72
-25.07
-4.05
15.97
32.44
44.22
51.75
56.29
59.21
61.26
62.35
62.01
59.76
55.77
50.94
46.72
44.4
44.57
46.85
50.14
53.27
55.29
55.83
54.89
52.52
48.62
43.14
36.52
29.85
24.71
22.38
23.06
25.4
27.21
26.63
23.39
18.93
15.36
14.15
15.2
17.08
18.06
17.2
14.78
11.84
9.25
7.13
4.87
1.6
-3.29
-9.99
-18.47
-28.52
-39.8
-51.56
-62.42
-70.64
-74.65
-73.4
-66.71
-55.46
-41.14
-25.81
-11.62
-0.23
7.7
12.54
15.45
17.68
19.83
21.61
22.15
20.78
17.67
13.97
11.26
10.9
13.32
17.93
23.53
28.77
32.45
33.95
33.2
30.76
27.64
24.77
22.49
20.25
16.87
11.3
3.51
-5.35
-13.33
-18.77
-21.33
-21.97
-22.22
-23.15
-24.77
-26.32
-27.3
-28.29
-31.02
-37.47
-48.68
-63.82
-80.24
-94.37
-103.07
-104.78
-99.62
-88.97
-74.68
-58.42
-41.46
-24.8
-9.35
3.96
14.23
20.99
24.51
25.85
26.52
27.71
29.55
30.97
30.36
26.7
20.4
13.45
8.42
7.09
9.45
13.68
17.12
17.73
15.09
10.35
5.38
1.67
-0.17
-0.55
-0.53
-1.32
-3.94
-8.91
-15.94
-23.91
-31.04
-35.37
-35.79
-32.73
-28.3
-25.46
-26.53
-31.96
-40.01
-47.74
-52.49
-53.35
-51.67
-50.3
-52.05
-58.45
-69.06
-81.73
-93.51
-101.65
-103.97
-99.24
-87.18
-68.66
-45.61
-20.79
2.85
22.87
38
48.35
54.85
58.63
60.34
60.11
57.83
53.82
49.06
44.87
42.25
41.15
40.41
38.44
34.36
28.84
24.21
23.24
27.45
35.87
45.14
51.08
51.05
45.18
36.22
27.8
22.17
19.16
16.86
13.33
8.31
3.44
1.09
2.48
6.47
10.21
10.68
6.62
-0.81
-8.93
-15.28
-19.08
-21.45
-24.5
-29.87
-37.73
-46.5
-53.61
-56.67
-54.56
-47.86
-38.59
-29.54
-23.34
-21.61
-24.59
-31.04
-38.75
-45.3
-48.69
-47.59
-41.34
-29.85
-13.66
6
27.06
46.84
62.69
72.82
77.05
76.94
75.14
74.23
75.64
79.06
82.89
85.32
85.35
83.4
80.98
79.77
80.42
82.21
83.32
81.96
77.24
69.77
61.11
53
46.73
42.78
40.96
40.63
41.03
41.36
40.86
39.12
36.1
31.99
27.1
21.65
15.79
9.72
3.79
-1.67
-6.54
-10.87
-14.7
-17.66
-18.91
-17.67
-13.98
-9.22
-5.94
-6.89
-13.72
-26.18
-42.23
-58.77
-72.76
-81.88
-84.88
-81.55
-72.71
-60.1
-45.94
-32.41
-21
-12.02
-4.72
2.03
9.02
16.23
22.69
26.87
27.33
23.31
15.05
4.06
-7.41
-16.93
-22.69
-24.05
-21.68
-17.27
-12.91
-10.52
-11.22
-14.92
-20.35
-25.54
-28.61
-28.64
-26.11
-22.59
-19.81
-18.71
-18.88
-18.87
-17.23
-13.45
-8.32
-3.55
-0.81
-0.98
-3.97
-9.06
-15.17
-21.26
-26.57
-30.6
-33.45
-35.67
-37.97
-40.93
-45
-50.33
-57.06
-65.23
-74.41
-83.05
-88.7
-88.99
-82.95
-71.73
-57.94
-44.15
-31.57
-19.9
-8.36
2.9
12.5
18.85
21.54
21.98
22.4
24.06
26.31
27.04
24.65
19.84
15.63
15.73
21.84
32.16
42.23
47.52
45.65
37.46
26.08
15.02
6.39
0.59
-3.06
-5.3
-6.33
-6.08
-4.76
-3.24
-2.82
-4.36
-7.35
-9.91
-9.64
-4.9
4.17
15.45
25.84
32.47
34.04
30.94
24.79
17.26
9.15
0.44
-8.98
-18.46
-26.66
-32.08
-34.23
-34.12
-33.92
-35.77
-40.32
-46.3
-50.83
-50.87
-44.52
-31.72
-14.1
5.74
25.09
41.81
54.52
62.78
66.86
67.48
65.5
61.82
57.31
52.75
48.79
45.58
42.83
40.05
36.88
33.44
30.34
28.38
27.94
28.6
29.25
28.68
26.32
22.69
19.31
18.05
20.09
25.29
32.03
37.89
40.89
40.42
37.56
34.45
33.04
33.9
35.95
37.21
36.24
33.15
29.52
27.31
27.72
30.31
33.41
35.16
34.4
30.72
24.25
15.31
4.29
-7.86
-19.34
-27.69
-30.61
-27.2
-18.69
-8.21
0.43
4.3
2.53
-3.61
-11.53
-18.52
-22.8
-23.81
-21.94
-17.99
-12.77
-7.14
-2.21
0.6
-0.01
-4.57
-11.93
-19.6
-24.75
-25.66
-22.75
-18.54
-16.3
-18.33
-24.76
-33.52
-41.42
-45.63
-44.74
-39.02
-29.99
-19.65
-9.77
-1.52
4.51
8.26
9.79
9.25
6.91
3.33
-0.42
-3.07
-3.78
-2.75
-1.44
-2.04
-6.46
-15.26
-27.22
-39.74
-49.88
-55.46
-55.55
-50.52
-41.65
-30.73
-19.62
-9.81
-2.04
3.85
8.67
13.3
17.98
22.07
24.45
24.29
21.66
17.49
12.87
8.44
4.34
0.44
-3.04
-5.24
-5.2
-2.77
0.65
2.44
-0.04
-8.02
-20.33
-33.71
-44.19
-48.81
-46.93
-40.2
-31.61
-24.11
-19.49
-18.12
-19.35
-22.18
-25.81
-29.58
-32.92
-35.15
-35.66
-34.29
-31.56
-28.53
-26.63
-27.09
-30.63
-37.27
-46.37
-56.56
-65.7
-71.13
-70.33
-61.79
-45.98
-25.52
-4.54
12.81
23.89
28.39
28.02
25.63
23.96
24.75
28.33
33.91
40.04
45.07
47.57
46.73
42.73
36.72
30.74
27.11
27.67
32.82
41.22
49.97
55.67
55.65
49.05
37.22
23.23
10.5
1.35
-3.5
-4.88
-4.19
-2.56
-0.6
1.39
3.02
3.56
2.12
-1.84
-8.28
-16.62
-26.28
-36.89
-48.17
-59.61
-70.17
-78.34
-82.66
-82.48
-78.39
-72.07
-65.63
-60.94
-59.12
-60.3
-63.65
-67.78
-71.21
-72.69
-71.31
-66.66
-58.78
-48.09
-35.26
-21.27
-7.29
5.58
16.64
26
34.57
43.58
53.91
65.51
77.25
87.26
93.7
95.6
93.12
87.38
80.06
72.86
67.11
63.76
63.23
65.38
69.45
74.02
77.48
78.64
77.14
73.64
69.44
65.76
63.08
60.95
58.32
54.04
47.36
38.15
26.96
14.88
3.39
-5.91
-11.61
-12.99
-10.45
-5.43
-0.06
3.69
4.47
2
-2.89
-8.82
-14.43
-18.78
-21.81
-24.05
-26.16
-28.43
-30.39
-30.83
-28.41
-22.66
-14.45
-6.08
-0.53
-0.25
-6.34
-18.04
-33.08
-48.29
-60.46
-66.95
-66.1
-57.65
-42.77
-23.89
-4.19
13.49
27.53
38.13
46.88
55.64
65.42
75.62
84.4
89.61
89.96
85.67
78.31
70.09
62.75
56.98
52.41
48.05
42.99
36.88
29.95
22.85
16.17
10.15
4.49
-1.41
-8.02
-15.31
-22.57
-28.8
-33.19
-35.68
-36.98
-38.14
-39.9
-42.16
-44.1
-44.82
-44.07
-42.49
-41.32
-41.76
-44.26
-48.34
-52.84
-56.35
-57.75
-56.75
-53.88
-50.65
-49.12
-51.08
-57.13
-66.09
-75.32
-81.7
-82.98
-78.63
-69.68
-57.78
-44.1
-29
-12.33
5.85
24.68
42.55
57.61
68.46
74.57
76.34
74.69
70.68
65.1
58.22
49.98
40.39
29.85
19.32
10.3
4.08
1.19
1.06
2.03
2.22
0.36
-3.42
-7.78
-10.7
-10.57
-7.11
-1.59
3.68
6.64
6.35
3.36
-0.79
-4.63
-7.56
-9.9
-12.32
-15.37
-18.96
-22.69
-26.02
-28.52
-30.11
-30.93
-31.22
-31.38
-32.01
-33.47
-35.65
-37.92
-39.33
-39.27
-38.14
-37.29
-38.17
-41.51
-46.66
-51.74
-54.51
-53.11
-46.84
-36.15
-22.47
-7.65
6.35
17.93
26
30.27
31.35
30.56
29.54
29.65
31.43
34.51
37.71
39.73
39.96
38.89
37.93
38.76
42.28
47.65
52.39
53.46
48.94
39.28
27.45
17.43
12.2
12.22
15.35
18.42
19.3
17.95
16.11
15.79
17.78
21.08
23.81
24.45
22.7
19.34
15.41
11.28
6.61
0.96
-5.63
-12.39
-18.17
-22.09
-23.95
-24.17
-23.5
-22.75
-22.48
-22.87
-23.46
-23.18
-20.71
-15.3
-7.55
0.31
5
3.67
-4.73
-18.62
-34.36
-47.64
-55.23
-55.93
-50.27
-39.73
-25.93
-10.5
4.7
17.47
25.71
28.39
26.21
21.61
17.78
17.29
20.9
27.39
34.3
39.07
40.27
37.87
33.02
27.53
23.28
21.75
23.59
28.48
35.08
41.6
46.31
48.12
46.85
43.26
38.7
34.56
31.84
30.86
31.18
31.95
32.18
31.2
28.88
25.62
21.88
18.01
14.07
9.97
5.83
2.11
-0.53
-1.71
-1.63
-1.35
-2.43
-6.21
-13.15
-22.48
-32.43
-40.81
-45.85
-46.61
-43.17
-36.33
-27.29
-17.3
-7.47
1.43
8.85
14.43
17.93
19.29
18.6
16.23
12.68
8.59
4.29
-0.35
-5.8
-12.4
-19.78
-26.63
-31.1
-31.74
-28.31
-21.99
-15.03
-9.71
-7.48
-8.53
-12
-16.48
-20.82
-24.31
-26.76
-28.26
-28.91
-28.87
-28.44
-28.23
-29.12
-32.08
-37.58
-45.22
-53.61
-60.6
-64.18
-63.39
-58.76
-52.04
-45.28
-39.88
-36.12
-33.44
-31.29
-29.88
-30.26
-33.62
-40.21
-48.74
-56.63
-60.98
-59.82
-52.77
-41.03
-26.65
-11.71
2.22
14.22
23.84
30.99
35.88
39.06
41.25
43.21
45.28
47.29
48.59
48.49
46.56
42.97
38.34
33.48
29.03
25.28
22.24
19.66
17.22
14.44
10.78
5.97
0.23
-5.55
-9.94
-11.64
-10.09
-5.63
0.51
6.75
11.91
15.43
17.29
17.61
16.23
12.8
6.98
-1.17
-11.04
-21.47
-31.01
-38.22
-42.23
-43.03
-41.62
-39.71
-39.02
-40.67
-44.69
-50.12
-55.29
-58.48
-58.44
-54.43
-46.35
-34.61
-19.97
-3.63
12.86
27.91
40.25
49.35
55.68
60.46
64.99
70.12
75.88
81.62
86.32
89.01
88.92
85.74
79.59
71.16
61.82
53.13
46.37
41.93
39.26
37.2
34.65
31.04
26.77
22.9
20.49
20.19
22
25.23
28.68
30.83
30.36
26.67
20.26
12.55
5.44
0.57
-1.39
-0.84
1.03
2.9
3.95
4.07
3.64
3.21
2.8
1.54
-2.07
-9.41
-20.84
-35.05
-49.32
-60.44
-65.82
-64.52
-57.34
-45.97
-32.28
-17.71
-3.36
9.9
21.09
29.46
34.75
37.4
38.63
39.62
41.01
42.45
42.78
40.62
35.21
26.96
17.43
8.76
2.61
-0.43
-1.03
-0.65
-0.87
-2.73
-6.5
-11.63
-17.07
-21.53
-23.63
-22.26
-17.2
-9.41
-0.92
5.76
8.61
7.14
2.63
-2.34
-5.12
-4.32
-0.53
3.73
5.04
0.53
-10.62
-26.73
-44.09
-58.48
-66.81
-68.3
-64.54
-58.32
-52.14
-46.87
-41.59
-34.44
-23.99
-10.43
4.31
17.31
26.05
29.34
27.65
22.54
15.91
9.29
3.47
-1.3
-5.08
-8.19
-11.09
-14.28
-18.07
-22.36
-26.58
-29.95
-31.76
-31.8
-30.38
-27.99
-25.04
-21.7
-17.9
-13.54
-8.87
-4.64
-2.09
-2.48
-6.55
-14.07
-23.63
-33
-39.85
-42.7
-41.56
-37.91
-33.98
-31.81
-32.69
-36.95
-44.06
-53.02
-62.42
-70.42
-74.88
-73.89
-66.63
-53.72
-37.11
-19.34
-2.65
11.72
23.68
33.65
42.12
49.17
54.59
58.02
59.12
57.71
53.82
47.95
41.11
34.78
30.35
28.43
28.31
28.24
26.3
21.57
14.76
7.83
2.92
1.3
2.8
6.19
9.82
12.32
12.87
11.05
6.87
0.99
-5.34
-10.65
-13.88
-15.12
-15.63
-17.43
-21.93
-29.15
-37.44
-44.45
-48.31
-48.55
-46.05
-42.34
-38.94
-36.89
-36.97
-39.67
-45.03
-52.1
-58.64
-61.38
-57.2
-44.7
-24.9
-0.99
22.82
43.04
58.04
67.99
74.01
77.22
78.34
77.72
75.85
73.38
71.07
69.34
68.05
66.63
64.34
60.71
55.76
49.96
44.08
39.03
35.47
33.59
33.1
33.26
33.42
33.37
33.42
34.13
35.8
37.98
39.76
40.39
39.65
38.04
36.43
35.33
34.44
32.95
30.07
25.68
20.68
16.48
14.26
14.15
14.97
14.7
11.48
4.29
-6.62
-20.11
-34.81
-49.46
-62.89
-73.81
-80.59
-81.53
-75.6
-63.26
-46.61
-28.92
-13.22
-1.2
7.3
13.83
20.01
26.43
32.26
35.66
34.83
29.05
19.3
7.93
-2.16
-8.75
-10.9
-9.14
-4.85
0.29
4.87
7.81
8.42
6.51
2.65
-1.95
-5.68
-7.17
-5.91
-2.49
1.74
5.14
6.43
4.89
0.42
-6.74
-15.93
-25.82
-34.43
-39.64
-40.12
-36.16
-30.07
-25.53
-26.05
-33.39
-46.73
-62.94
-77.79
-87.72
-91.11
-88.47
-81.5
-71.75
-59.85
-45.67
-29.18
-11.27
6.24
21.18
32.05
38.63
41.68
42.13
40.48
36.7
30.92
23.92
17.05
11.69
8.57
7.36
7.11
7.03
6.88
6.99
7.81
9.34
11.16
12.62
13.41
13.87
14.73
16.42
18.68
20.47
20.51
17.95
12.89
6.43
0.32
-3.9
-5.46
-4.72
-3.11
-2.62
-4.92
-10.71
-19.3
-28.69
-36.33
-40.1
-39.18
-34.47
-28.31
-23.45
-22.14
-25.22
-31.86
-39.84
-46.09
-47.61
-42.34
-30.02
-12.39
7.14
24.6
36.92
43.09
44.3
43.23
42.7
44.33
47.97
52.11
54.75
54.56
51.38
46.16
40.22
34.66
30.04
26.29
23.1
20.4
18.5
18.05
19.55
23.02
27.86
32.96
37.17
39.77
40.61
39.91
37.97
34.9
30.67
25.41
19.72
14.55
10.83
8.96
8.6
8.98
9.4
9.69
10.16
11.01
11.87
11.75
9.47
4.54
-2.35
-9.45
-14.78
-17.17
-17.07
-16.4
-17.7
-22.74
-31.4
-41.53
-49.84
-53.28
-50.38
-41.84
-29.92
-17.11
-4.96
6.49
18.18
30.83
44.02
56.13
64.95
68.88
67.64
62.18
54.14
45.02
35.79
26.78
18.13
10.06
3.14
-2
-5
-6.04
-5.9
-5.58
-6.04
-7.79
-10.87
-14.86
-19.14
-23.02
-25.86
-27.33
-27.52
-26.88
-26.04
-25.64
-26.05
-27.33
-29.28
-31.46
-33.44
-34.77
-34.98
-33.78
-31.25
-28.12
-25.88
-26.37
-30.97
-39.9
-51.81
-64.18
-74.19
-79.73
-80.05
-75.63
-67.49
-56.38
-42.5
-25.93
-7.32
11.48
27.81
39.09
44.06
43.25
38.6
32.29
25.79
19.51
13.24
7
1.53
-2.07
-2.96
-1.32
1.74
4.73
6.55
6.72
5.34
2.68
-0.78
-4.38
-7.06
-7.65
-5.55
-1.43
2.77
4.77
3.11
-1.86
-8.09
-13.05
-15.21
-14.98
-14.26
-15.39
-19.59
-26.44
-34.01
-39.83
-42.02
-39.94
-34.43
-27.54
-21.84
-19.65
-22.23
-29.27
-38.8
-47.84
-53.32
-53.12
-46.52
-34.47
-18.96
-2.3
13.67
27.84
39.76
49.3
56.22
60.22
61.28
59.91
57.22
54.52
52.74
51.94
51.47
50.3
47.69
43.42
37.7
30.95
23.71
16.61
10.52
6.51
5.38
7.16
11.09
15.8
19.85
22.25
22.81
22.01
20.6
19.17
17.82
16.2
13.55
9.29
3.38
-3.46
-9.88
-14.53
-16.73
-16.79
-15.81
-15.12
-15.6
-17.3
-19.82
-22.72
-26.1
-30.53
-36.55
-44.02
-51.75
-57.61
-59.22
-54.88
-44.16
-28.06
-8.83
10.75
28.14
41.61
50.58
55.52
57.52
57.8
57.3
56.53
55.48
53.94
51.51
47.81
42.75
36.7
30.64
26.01
24.12
25.55
29.61
34.42
37.67
37.51
33.33
25.91
17.1
9.13
3.92
2.5
4.6
8.68
12.27
12.81
8.74
0.37
-10.12
-19.56
-25.33
-26.51
-24.28
-21.17
-20.01
-22.76
-29.89
-40.55
-52.78
-63.95
-71.34
-72.79
-67.3
-55.53
-39.62
-22.38
-6.36
7
17.37
25.18
30.88
34.6
35.97
34.59
30.34
23.55
15.08
6.08
-2.21
-8.86
-13.37
-15.9
-17.16
-18.01
-19.05
-20.4
-21.82
-23.1
-24.27
-25.56
-27.09
-28.43
-28.63
-26.7
-22.25
-15.92
-9.28
-4.46
-3.2
-6.11
-12.47
-20.29
-26.97
-30.13
-28.5
-22.61
-14.9
-8.83
-7.62
-12.8
-23.39
-36.31
-47.61
-54.01
-53.86
-47.38
-36.25
-22.8
-9.47
1.79
9.93
15
18.1
20.91
24.88
30.49
36.81
41.85
43.67
41.32
35.5
28.18
21.75
17.77
16.43
16.58
16.39
14.46
10.41
5.13
0.2
-2.98
-3.88
-2.94
-1.04
0.85
2.15
2.51
1.72
-0.41
-3.93
-8.53
-13.43
-17.52
-20.09
-21.19
-21.86
-23.53
-27.14
-32.37
-37.66
-41.05
-41.31
-38.62
-34.51
-31.08
-29.82
-31.17
-34.58
-39.12
-43.96
-48.32
-51.06
-50.43
-44.43
-32.07
-14.33
5.8
24.63
39.52
49.94
57.23
63.29
68.96
73.58
75.69
74.45
70.71
66.62
64.36
64.77
66.94
69.06
69.6
68.3
66.01
63.77
61.88
59.91
57.19
53.6
49.68
46.29
43.94
42.62
41.91
41.5
41.37
41.61
42.03
42.03
40.94
38.47
34.8
30.48
26.01
21.59
17.06
12.27
7.31
2.39
-2.38
-7.09
-11.92
-16.64
-20.45
-22.34
-21.87
-19.95
-18.81
-21.29
-29.47
-43.31
-60.19
-75.5
-84.41
-83.8
-73.57
-56.76
-38.06
-21.77
-10.29
-3.59
0.09
2.7
5.32
7.73
9
8.42
6.02
2.54
-0.99
-3.86
-5.84
-6.9
-6.99
-6.03
-3.96
-1.12
1.79
3.89
4.71
4.42
3.7
3.32
3.66
4.49
4.97
4.29
2.14
-1.04
-4.37
-6.96
-8.5
-9.65
-11.63
-15.44
-21.16
-27.69
-33.09
-35.49
-34.15
-30.01
-25.46
-23
-23.94
-27.72
-32.39
-35.93
-37.59
-38.4
-40.33
-44.71
-50.8
-55.85
-56.43
-50.36
-38.08
-22.34
-6.74
6.1
15.44
22.17
27.55
32.06
35.13
35.66
32.74
26.38
17.82
8.85
1.27
-3.82
-6.21
-6.48
-5.48
-4.01
-2.53
-1.12
0.08
0.71
0.42
-0.73
-1.94
-1.89
0.52
5.33
11.27
16.27
18.6
17.86
14.92
11.38
8.41
6.18
3.93
0.64
-4.26
-10.39
-16.62
-21.61
-24.49
-25.28
-25.02
-25.29
-27.39
-31.65
-37.09
-41.89
-44.41
-44.16
-42.22
-40.76
-41.83
-46.12
-52.68
-59.3
-63.73
-64.36
-60.4
-51.54
-37.67
-18.97
3.47
27.23
48.7
64.52
73.19
75.92
75.92
76.42
78.58
80.59
79.18
72.49
61.97
51.86
46.59
47.78
53.03
57.34
56.53
50.13
41.49
35.29
34.06
36.74
39.86
40.32
37.7
34.47
33.8
36.93
42.24
46.34
46.55
42.53
36.19
30.22
26.48
24.97
24.36
23.24
21.15
18.59
16.2
14.07
11.53
7.48
1.21
-6.79
-14.63
-19.92
-20.95
-17.51
-11.11
-4.41
-0.37
-1.24
-7.9
-19.74
-34.94
-50.6
-63.49
-70.89
-71.51
-65.84
-55.77
-43.71
-31.64
-20.45
-10.17
-0.69
7.72
14.4
18.76
20.71
20.7
19.3
16.96
13.83
9.91
5.39
0.73
-3.6
-7.21
-9.7
-10.29
-8.12
-2.67
5.49
14.36
21.16
23.37
20.18
12.92
4.44
-2.43
-6.14
-6.83
-5.97
-5.28
-5.86
-7.98
-11.41
-15.98
-21.77
-28.81
-36.53
-43.55
-48.05
-48.68
-45.42
-39.93
-35.19
-34.27
-38.99
-49
-61.87
-73.99
-82.07
-84.42
-81.27
-74.08
-64.42
-53.17
-40.34
-25.74
-9.67
6.53
20.71
30.97
36.5
37.89
36.84
35.13
33.73
32.54
30.68
27.24
21.91
15.38
8.75
3.01
-1.48
-5.24
-9.18
-13.96
-19.41
-24.41
-27.52
-27.82
-25.36
-21.09
-16.32
-11.84
-7.74
-3.67
0.68
5.26
9.72
13.7
16.8
18.54
18.39
15.89
11.04
4.61
-2.04
-7.57
-11.46
-14.35
-17.71
-22.67
-29.39
-36.86
-43.62
-48.68
-52.09
-54.43
-55.85
-55.34
-50.85
-40.4
-23.45
-1.65
21.41
41.43
55.26
61.8
62.36
59.57
56.1
53.73
53.13
53.99
55.52
57.27
59.23
61.49
63.63
64.45
62.23
55.72
45.32
33.74
25.13
22.78
26.95
34.52
40.61
41.31
35.96
27.25
19.2
14.53
13.01
12.47
11.02
8.67
7.17
8.16
11.54
14.96
15.26
10.6
2.08
-6.72
-11.98
-11.85
-7.42
-2.18
-0.34
-4.77
-15.62
-30.63
-46.32
-59.5
-68.15
-71.7
-70.5
-65.15
-55.97
-43.19
-27.32
-9.59
8.1
23.71
35.64
43.22
46.91
47.82
47.09
45.26
42.16
37.18
29.94
20.84
11.27
3.32
-1.16
-1.42
1.81
6.53
10.25
11.14
8.72
3.69
-2.44
-8.01
-11.71
-12.71
-10.67
-5.79
0.93
7.69
12.14
12.34
7.8
0.18
-7.34
-11.59
-11.42
-8.57
-6.84
-9.96
-19.19
-32.57
-46.06
-55.92
-60.91
-62.42
-63.17
-64.87
-66.83
-66.37
-60.81
-49.3
-33.53
-16.85
-2.36
8.62
16.79
23.87
31.17
38.6
44.64
47.33
45.34
38.84
29.49
19.82
12.15
7.82
6.72
7.56
8.68
8.8
7.5
5.12
2.41
0.01
-1.84
-3.05
-3.64
-3.57
-2.73
-0.72
2.87
7.83
12.9
15.87
14.63
8.33
-1.83
-13
-21.92
-26.61
-27.25
-25.54
-23.54
-22.51
-22.8
-24.5
-28.14
-34.36
-42.89
-51.79
-57.61
-57.06
-48.89
-34.86
-18.75
-4.37
6.26
13.54
19.52
26.33
34.74
43.98
52.32
58.12
60.49
59.52
55.99
51
45.64
40.74
36.83
34.07
32.17
30.56
28.6
25.85
22.31
18.35
14.4
10.66
7.1
3.73
0.89
-0.8
-0.69
1.48
5.16
9.1
11.92
12.8
11.8
9.84
8.09
7.4
8.09
9.86
11.97
13.49
13.58
11.67
7.8
2.73
-2.22
-5.71
-7.17
-7.29
-8.05
-11.95
-20.76
-34.19
-49.61
-62.84
-69.9
-68.63
-59.52
-45.19
-29.03
-13.68
-0.12
11.98
23.36
34.19
43.68
50.61
54.13
54.45
52.71
50.36
48.33
46.56
44.14
40.01
33.97
27.1
21.47
19.2
21.06
25.68
29.98
30.64
25.9
16.6
5.76
-3.07
-7.64
-7.95
-5.91
-3.96
-3.81
-5.98
-10.16
-15.78
-22.09
-28.08
-32.29
-33.38
-31.05
-26.61
-22.64
-21.75
-24.93
-30.97
-37.16
-41.17
-42.34
-42.16
-43.15
-47.33
-54.98
-64.42
-72.94
-78.08
-78.5
-74.13
-65.85
-54.82
-42.13
-28.54
-14.8
-1.67
9.87
18.96
25.12
28.45
29.58
29.43
28.86
28.39
28.06
27.64
26.83
25.5
23.83
22.26
21.3
21.21
21.73
21.96
20.92
18.02
13.56
8.64
4.71
2.78
2.93
4.37
5.91
6.63
6.18
4.78
2.84
0.63
-1.92
-5.1
-9.06
-13.51
-17.7
-20.72
-21.87
-21
-18.74
-16.31
-15.02
-15.74
-18.59
-22.85
-27.37
-31.02
-33.13
-33.83
-34
-34.88
-37.52
-42.05
-47.35
-51.16
-50.88
-44.75
-32.85
-17.12
-0.57
14.08
25.69
34.96
43.62
52.99
62.85
71.43
76.51
76.93
73.4
68.22
64.07
62.48
63.18
64.57
64.72
62.5
57.86
51.49
44.27
36.86
29.81
23.71
19.37
17.6
18.55
21.5
24.95
27.19
27.03
24.26
19.81
15.4
12.99
14.04
18.81
26.09
33.35
37.55
36.28
28.84
16.72
3
-8.91
-16.67
-19.91
-20.09
-19.46
-19.83
-21.68
-24.1
-25.62
-24.99
-21.74
-16.35
-9.94
-3.84
0.6
2.11
-0.27
-7.01
-17.62
-30.63
-43.65
-53.96
-59.1
-57.64
-49.52
-36.16
-20.13
-4.36
8.77
18.26
24.72
29.93
35.57
42.26
49.13
54.41
56.56
55.12
50.95
45.67
40.61
36.39
33.1
30.77
29.6
29.79
30.98
31.87
30.38
24.52
13.7
-0.67
-15.64
-27.84
-34.81
-36.04
-32.95
-28.16
-24.43
-23.5
-25.62
-29.3
-32.3
-32.68
-29.88
-25.03
-20.6
-19
-21.18
-26.09
-31.19
-33.96
-33.45
-31.01
-29.53
-31.82
-38.99
-49.85
-61.75
-71.75
-77.67
-78.51
-74.26
-65.48
-53.38
-39.85
-27.15
-17.47
-11.95
-10.1
-10
-9.21
-5.99
-0.02
7.64
15.04
20.08
21.25
17.96
10.55
0.32
-10.78
-20.69
-27.76
-31.3
-31.83
-30.79
-29.95
-30.66
-33.16
-36.48
-38.85
-38.46
-34.3
-26.6
-16.83
-7.09
0.64
5.41
7.46
8.2
9.65
13.53
20.5
29.62
38.45
43.8
43.08
35.41
22.22
6.77
-7.29
-17.22
-22.34
-23.99
-24.68
-26.8
-31.66
-39.2
-48.29
-57.5
-65.46
-71
-72.94
-70
-61.13
-46.04
-25.96
-3.58
17.72
35.18
47.61
55.68
61.04
65.11
68.16
69.4
67.93
63.77
58.14
52.82
49.07
46.91
45.12
42.19
37.42
31.39
25.66
21.75
20.19
20.31
20.59
19.62
16.9
13.1
9.44
7.02
6.27
6.84
7.95
8.85
9.18
8.95
8.16
6.43
3.14
-2.28
-9.73
-18.15
-25.66
-30.33
-31.01
-28.04
-23.19
-18.89
-17.19
-18.91
-23.39
-28.92
-33.61
-36.19
-36.44
-35.07
-33.3
-32.49
-33.69
-37.38
-43.28
-50.39
-57
-61.04
-60.53
-54.21
-42.02
-25.3
-6.43
11.89
27.3
38.48
45.45
49.39
51.88
54.28
57.13
60.03
61.94
61.81
59.12
54.32
48.62
43.6
40.65
40.41
42.45
45.41
47.56
47.47
44.7
39.86
34.41
30
27.71
27.66
29.16
31.36
33.63
35.67
37.42
38.72
39.21
38.46
36.36
33.35
30.13
27.19
24.51
21.62
18.09
13.9
9.59
6.08
4.03
3.25
2.66
0.73
-3.76
-11.1
-20.63
-31.11
-41.25
-50.12
-56.99
-61.05
-61.38
-57.25
-48.79
-37.1
-24.12
-12.05
-2.55
3.73
7.11
8.38
8.28
7.25
5.49
3.06
-0.11
-4.24
-9.55
-15.96
-22.73
-28.4
-31.23
-30.19
-25.52
-18.89
-12.75
-9.09
-8.7
-10.92
-14.11
-16.63
-17.47
-16.45
-13.92
-10.43
-6.59
-3.08
-0.73
-0.38
-2.55
-7.07
-12.81
-17.97
-20.72
-20.19
-17.09
-13.52
-12.3
-15.67
-24.35
-37.15
-51.57
-64.75
-74.41
-79.52
-80.05
-76.48
-69.35
-58.97
-45.87
-31.01
-15.87
-2.17
8.81
16.71
22.13
26.08
29.17
31.06
30.65
26.8
19.38
9.76
0.47
-5.89
-7.88
-5.82
-1.52
2.64
4.64
3.39
-1
-7.39
-13.97
-18.67
-19.76
-16.69
-10.49
-3.56
1.33
2.5
0.2
-3.62
-6.55
-7.12
-5.57
-3.5
-2.69
-3.87
-6.36
-8.68
-9.37
-7.9
-4.95
-2.15
-1.38
-4.19
-11.37
-22.58
-36.25
-49.63
-59.53
-63.31
-59.69
-49.21
-33.89
-16.36
1.08
17.01
30.92
42.7
52.23
59.14
62.96
63.47
61.06
56.77
51.9
47.58
44.36
42.16
40.47
38.67
36.55
34.4
32.76
31.91
31.52
30.79
28.95
25.88
22.28
19.49
18.74
20.41
23.86
27.84
31.25
33.61
35.1
36.08
36.76
36.84
35.9
33.77
30.74
27.18
23.1
17.84
10.36
-0.05
-13.04
-26.84
-38.84
-46.72
-49.55
-48.42
-46.06
-45.75
-49.94
-59.34
-72.63
-86.84
-98.48
-104.47
-103
-93.91
-78.43
-58.76
-37.51
-17.12
0.71
15.21
26.66
36.11
44.75
53.34
61.76
68.84
72.86
72.39
67.02
57.84
47.19
37.87
32.18
30.96
33.34
37.25
40.37
41.08
39.31
36.38
34.08
33.57
34.55
35.51
34.68
31.14
25.27
18.55
12.57
8.19
5.47
3.96
3.36
3.49
4.03
4.13
2.56
-1.6
-8.22
-15.68
-21.58
-24.15
-23.52
-21.88
-22.46
-27.8
-38.49
-52.77
-67.26
-78.51
-84.24
-83.89
-78.33
-69
-57.25
-43.94
-29.76
-15.51
-2.49
7.71
13.87
15.63
13.83
10.11
5.99
2.02
-2.38
-8.46
-16.97
-27.17
-36.81
-42.99
-43.5
-37.92
-27.74
-15.56
-3.9
5.72
13.07
18.71
23.55
28.38
33.83
40.44
48.55
57.95
67.51
75.29
78.68
75.56
65.34
49.42
30.72
12.64
-2.29
-13.12
-20.39
-25.34
-28.97
-31.69
-33.56
-34.85
-36.23
-38.56
-42.45
-47.93
-54.51
-61.54
-68.6
-75.47
-81.59
-85.58
-85.34
-78.82
-65.15
-45.36
-22.16
0.93
20.94
36.28
46.89
53.54
57.21
58.55
58.11
56.4
54.2
52.3
51.16
50.5
49.49
47.32
43.65
38.8
33.49
28.48
24.32
21.34
19.77
19.74
21.08
23.08
24.61
24.67
22.98
20.3
18.02
17.37
18.45
20.15
20.61
18.15
12.27
3.98
-4.62
-11.35
-14.75
-14.82
-12.88
-11.06
-11.52
-15.57
-23.21
-33.1
-43.13
-51.19
-56
-57.57
-57.08
-56.36
-57.13
-60.4
-66.01
-72.73
-78.46
-80.8
-77.64
-67.68
-50.93
-28.8
-3.96
20.26
40.82
55.76
64.62
68.44
69.12
68.58
68.02
67.8
67.53
66.75
65.19
62.9
60.28
57.74
55.64
54.23
53.77
54.33
55.84
57.91
59.9
61.06
60.78
58.8
55.18
50.15
44.01
37.07
29.78
22.96
17.71
15.09
15.58
18.7
22.85
25.7
25.1
19.88
10.49
-1.01
-11.76
-19.17
-21.9
-20.38
-16.67
-13.77
-14.61
-21.08
-33.43
-50.16
-68.37
-84.69
-96.04
-100.47
-97.25
-87.01
-71.19
-51.82
-31.11
-11.17
6.27
20.13
30.14
36.84
40.85
42.41
41.29
37.53
31.83
25.58
20.21
16.51
14.3
12.35
9.52
5.51
1.08
-2.85
-5.91
-8.43
-11.09
-14.12
-16.97
-18.55
-18.22
-16.49
-14.82
-14.65
-16.35
-19.06
-21.22
-21.64
-20.27
-18.32
-17.72
-19.88
-24.91
-31.57
-38.14
-43.12
-46.02
-47.47
-48.8
-51.23
-55.14
-60.09
-65.21
-69.83
-73.57
-76.29
-77.61
-76.51
-71.55
-61.61
-46.61
-27.75
-7.29
12.28
29.31
43.35
55.09
65.51
75.01
82.96
87.82
87.99
82.88
73.55
62.37
52.03
44.41
39.76
36.92
34.13
30.28
25.51
20.85
17.34
15.36
14.39
13.48
12.06
10.37
9.37
9.94
12.29
15.69
18.85
20.54
20.29
18.57
16.52
15.26
15.18
15.57
14.86
11.19
3.26
-9.05
-24.48
-40.61
-54.55
-63.94
-67.75
-66.61
-62.6
-58.4
-56.22
-57.02
-60.44
-65.08
-69.37
-72.04
-72.1
-68.57
-60.35
-46.58
-27.42
-4.62
18.56
38.42
52.44
60.21
63.45
64.84
66.37
68.4
69.77
69.02
65.7
60.84
56.18
52.9
50.9
49.05
46.15
42.2
38.63
37.59
40.35
46.33
53.15
57.84
58.44
54.88
48.88
42.7
38
35.12
33.47
32.19
30.73
29.01
27.12
24.87
21.71
17.15
11.24
4.82
-0.57
-3.56
-3.65
-1.64
0.39
-0.01
-4.81
-14.55
-28.61
-45.2
-62.03
-76.56
-86.45
-90.11
-86.86
-77.17
-62.68
-45.92
-29.43
-15.14
-3.8
5.04
12.68
20.54
29.08
37.52
44.21
47.55
46.85
42.79
37.29
32.54
30.03
29.77
30.47
30.57
28.95
25.25
19.75
13.31
6.79
0.94
-3.84
-7.47
-10.23
-12.76
-15.7
-19.19
-22.72
-25.65
-27.72
-29.39
-31.75
-35.96
-42.4
-50.14
-57.34
-62.33
-64.7
-65.53
-66.7
-69.77
-74.98
-81.21
-86.57
-89.51
-89.53
-87.08
-82.84
-76.98
-68.99
-58.14
-44.15
-27.6
-9.94
7.17
22.44
35.18
45.05
51.82
55.38
55.77
53.49
49.54
45.17
41.54
39.26
38.2
37.74
37.16
36.06
34.37
32.26
29.92
27.54
25.3
23.39
21.95
21.03
20.38
19.32
16.97
12.53
5.7
-3.01
-12.19
-19.91
-24.38
-24.51
-20.48
-13.68
-6.38
-1.02
0.6
-2.14
-8.38
-16.24
-23.23
-27.27
-27.39
-24.16
-19.5
-15.91
-15.52
-19.05
-25.54
-32.69
-37.92
-39.53
-37.44
-33.1
-28.87
-27.02
-28.76
-34.01
-41.46
-49.22
-55.38
-58.28
-56.66
-49.7
-37.24
-20.09
-0.17
19.78
36.96
49.63
57.64
62.32
65.64
69.03
72.59
75.12
75.03
71.36
64.49
55.92
47.66
41.2
37.06
34.86
33.92
33.78
34.31
35.48
37.1
38.62
39.22
38.35
35.98
32.77
29.67
27.54
26.65
26.57
26.55
25.95
24.57
22.73
20.9
19.34
18
16.62
14.86
12.46
9.23
5.04
-0.14
-6.09
-12.16
-17.26
-20.25
-20.57
-18.65
-16.07
-15.17
-18.31
-26.91
-40.69
-57.36
-73.15
-83.85
-86.18
-78.87
-63.12
-42.07
-19.63
0.77
17.08
28.72
36.09
40.05
41.34
40.43
37.68
33.47
28.29
22.73
17.26
12.07
7.13
2.32
-2.2
-5.81
-7.57
-6.82
-3.63
0.93
5.17
7.52
7.07
3.99
-0.84
-6.45
-11.97
-16.69
-19.89
-20.9
-19.29
-15.56
-11.19
-8.23
-8.35
-11.72
-16.87
-21.34
-23.09
-21.69
-18.89
-17.83
-21.43
-31.03
-45.58
-62.01
-76.35
-85.11
-86.3
-79.95
-67.86
-52.73
-37.28
-23.44
-12.05
-2.96
4.57
11.28
17.51
23.29
28.46
32.67
35.62
36.86
35.57
30.71
21.74
9.32
-4.2
-15.45
-21.43
-20.84
-14.68
-5.88
2.18
7.1
8.19
6.03
1.77
-3.54
-8.74
-12.39
-12.8
-8.92
-1.25
7.83
14.94
17.44
14.87
8.85
2
-3.96
-9
-14.3
-20.65
-27.21
-31.73
-31.98
-27.47
-20.12
-13.4
-10.42
-12.34
-18.07
-25.11
-31.1
-34.98
-37.16
-38.53
-39.28
-38.09
-32.74
-21.37
-4.01
16.93
37.44
53.54
62.98
65.77
63.77
59.3
53.91
48.04
41.68
35.29
30.04
27.22
27.12
28.57
29.33
27.52
22.7
16.09
9.68
5.01
2.49
1.57
1.63
2.74
5.66
11.05
18.51
26.24
31.56
32.12
27.15
17.82
6.82
-2.8
-8.83
-10.75
-9.63
-7.59
-6.81
-8.61
-12.96
-18.42
-22.54
-22.74
-17.27
-6.04
8.93
23.75
33.76
35.14
26.45
9.41
-11.6
-31
-43.8
-47.16
-41.1
-28.06
-11.82
3.77
15.93
23.61
27.48
29.2
30.41
32.02
33.79
34.47
32.55
27.08
18.1
6.62
-5.74
-17.15
-25.74
-29.86
-28.42
-21.32
-9.92
2.96
13.72
19.06
17.33
9.07
-3.37
-16.95
-29.05
-38.16
-43.91
-46.5
-46.13
-43.03
-37.86
-32.16
-28.11
-27.75
-31.8
-38.94
-46.01
-49.44
-47.01
-39.14
-28.86
-20.51
-17.75
-21.99
-31.96
-44.59
-56.55
-65.55
-70.62
-71.68
-68.65
-61.31
-49.51
-33.88
-16.35
0.38
13.96
23.6
30.35
36.37
43.61
52.33
61
67.04
68.35
64.36
56.3
46.4
36.9
29.16
23.56
19.93
18.09
18.07
19.7
22.33
24.58
24.85
21.95
15.73
7.28
-1.48
-8.54
-12.52
-13.06
-10.77
-6.88
-2.67
0.93
3.43
4.7
4.85
3.92
1.84
-1.51
-6.08
-11.36
-16.54
-20.81
-23.88
-26.29
-29.27
-33.98
-40.82
-48.84
-55.86
-59.36
-57.41
-49.34
-35.79
-18.33
1.08
20.4
37.78
51.76
61.47
66.94
69.14
69.67
70.07
71.27
73.07
74.36
73.91
71.09
66.45
61.46
57.81
56.65
58.13
61.18
63.94
64.32
60.61
52.31
40.19
26.26
13.1
2.94
-3.18
-5.8
-6.68
-7.89
-10.84
-15.71
-21.59
-27
-30.39
-30.5
-26.5
-18.25
-6.61
6.55
18.72
27.54
31.93
32.27
30.13
27.05
23.45
18.15
9.03
-5.7
-26.1
-50.02
-73.7
-92.87
-104.24
-106.29
-99.43
-85.53
-67.23
-47.26
-27.91
-10.86
2.97
13.36
20.63
25.24
27.44
27.13
24.01
18.13
10.16
1.55
-5.94
-10.92
-12.75
-11.74
-8.88
-5.42
-2.39
-0.5
-0.09
-1.09
-3.08
-5.32
-7.11
-8.08
-8.51
-9.13
-10.79
-13.86
-17.97
-22.19
-25.51
-27.49
-28.36
-28.74
-29.07
-29.23
-28.47
-26.01
-21.78
-17.06
-14.27
-16.14
-24.36
-38.56
-56.11
-72.79
-84.21
-87.33
-81.26
-67.52
-49.31
-30.2
-13.09
0.59
10.89
18.87
25.74
32.17
38.04
42.68
45.33
45.67
44.01
41.08
37.59
34.13
31.18
29.16
28.35
28.8
30.08
31.36
31.8
30.92
28.85
26.23
23.83
21.95
20.38
18.51
15.95
12.84
9.86
7.93
7.63
8.87
10.79
12.15
11.72
8.66
2.76
-5.5
-15.15
-24.86
-33.25
-39.2
-42.2
-42.67
-42.06
-42.4
-45.6
-52.52
-62.28
-72.3
-79.21
-80.09
-73.58
-60.3
-42.26
-22.02
-1.87
16.46
31.65
42.78
49.44
52.16
52.58
53.06
55.66
61.09
68.14
74.07
76.04
72.52
64.16
53.61
44.23
38.61
37.42
39.34
41.85
42.75
41.03
37.12
32.09
26.83
21.56
16.11
10.68
6.19
3.95
4.62
7.43
10.12
10.2
6.3
-0.83
-8.7
-14.49
-16.64
-15.58
-13.16
-11.45
-11.72
-14.28
-18.95
-25.7
-34.88
-46.66
-60.39
-74.07
-84.83
-89.8
-87.28
-77.3
-61.34
-41.62
-20.17
1.53
22.59
42.32
60.05
75.02
86.57
94.48
99
100.69
100.15
97.6
92.9
85.83
76.71
66.66
57.49
50.98
48.05
48.13
49.42
49.74
47.61
42.92
36.89
31.28
27.34
25.13
23.67
21.54
17.75
12.2
5.56
-1.27
-7.6
-13.35
-18.84
-24.49
-30.51
-36.8
-42.98
-48.8
-54.34
-60.09
-66.7
-74.48
-82.96
-90.87
-96.44
-98.04
-94.7
-86.34
-73.67
-57.85
-40.15
-21.88
-4.42
10.94
23.1
31.56
36.59
38.96
39.53
38.93
37.45
35.13
31.99
28.09
23.39
17.83
11.55
5.2
0.01
-2.7
-2.28
0.63
4.18
6.07
4.61
-0.62
-8.69
-18.13
-27.66
-36.7
-45.19
-53.04
-59.78
-64.82
-67.89
-69.43
-70.58
-72.44
-75.07
-77.18
-76.64
-71.57
-61.78
-49.15
-37.17
-29.61
-28.74
-34.48
-44.57
-55.57
-64.05
-67.4
-64.14
-54.01
-37.99
-18.15
2.82
22.29
38.48
50.86
59.96
66.66
71.55
74.76
76.15
75.77
73.88
71.03
67.65
63.92
60.02
56.18
52.72
49.69
46.58
42.47
36.82
29.86
22.81
17.33
14.47
14.09
14.88
15.13
13.71
10.8
7.58
5.43
4.95
5.51
5.65
4.02
0.24
-4.88
-9.92
-13.82
-16.67
-19.61
-24.07
-30.67
-38.58
-45.71
-49.68
-49.04
-44.01
-36.4
-28.69
-23.23
-21.46
-23.79
-29.69
-37.98
-46.95
-54.44
-57.94
-55.21
-45.01
-27.74
-5.61
17.87
39.01
55.23
65.76
71.51
74.37
76.01
77.33
78.36
78.73
78.12
76.57
74.21
70.96
66.63
61.25
55.47
50.5
47.55
47.03
48.07
48.66
46.74
41.42
33.46
24.91
18.01
14.12
13.25
14.22
15.51
15.94
14.98
12.58
9.04
4.72
0.01
-4.42
-7.81
-9.45
-9.21
-7.81
-6.89
-8.42
-13.66
-22.39
-32.68
-41.48
-46.12
-45.83
-42.22
-38.74
-38.95
-44.78
-55.69
-68.9
-80.75
-88.35
-90.33
-86.94
-79.26
-68.48
-55.55
-41.24
-26.55
-12.79
-1.4
6.58
10.71
11.37
9.49
6.08
1.86
-2.83
-7.92
-13.1
-17.54
-19.93
-18.98
-13.92
-4.94
6.76
19.32
30.87
39.91
45.57
47.52
45.96
41.68
35.95
30.44
26.66
25.47
26.7
29.13
31
30.71
27.32
20.8
12.07
2.75
-5.37
-10.74
-12.79
-12.31
-11.29
-12.25
-17.2
-26.63
-39.31
-52.85
-64.65
-72.73
-76.15
-74.83
-69.32
-60.55
-49.79
-38.38
-27.31
-16.76
-6.03
5.92
19.58
34.05
47.01
55.56
57.47
52.4
42.12
29.7
18.39
10.41
6.46
5.93
7.4
9.3
10.26
9.46
6.7
2.54
-1.77
-4.7
-4.91
-1.94
3.41
9.2
13.04
13.08
8.63
0.44
-9.7
-19.58
-27.27
-31.59
-32.28
-30.03
-26.26
-22.77
-21.34
-23.21
-28.48
-36.17
-44.47
-51.3
-55.01
-54.87
-51.36
-46.03
-41.25
-39.4
-41.87
-48.28
-56.12
-61.49
-60.46
-50.72
-32.48
-8.61
16.42
38.11
53.34
61.11
62.41
59.69
55.75
52.9
52.18
53.21
54.61
54.88
53.26
50.13
46.75
44.32
43.15
42.48
41.02
37.94
33.49
28.93
25.72
24.66
25.42
26.88
27.95
28.24
28.12
28.31
29.21
30.5
31.33
30.91
28.97
25.82
22.17
18.6
15.39
12.54
10.05
8.09
6.85
6.3
5.93
4.78
1.89
-3.15
-9.97
-17.47
-24.21
-29.15
-31.96
-33.22
-34.37
-37.22
-43.22
-52.64
-64.02
-74.49
-80.79
-80.63
-73.48
-60.54
-43.81
-25.01
-5.26
14.66
33.58
49.56
60.49
65.21
64.4
60.36
55.94
53.15
52.4
52.68
52.44
50.59
46.92
41.89
36.26
30.78
26.12
22.81
21.26
21.4
22.64
23.76
23.29
20.03
13.41
3.64
-8.29
-20.96
-32.87
-42.64
-49.4
-52.8
-52.99
-50.53
-46.24
-40.98
-35.53
-30.51
-26.4
-23.71
-22.97
-24.67
-29.08
-36.08
-44.97
-54.47
-62.93
-68.7
-70.58
-68.1
-61.63
-52.24
-41.18
-29.47
-17.65
-5.75
6.38
18.79
31.21
42.8
52.35
58.49
60.01
56.29
47.74
36.08
23.94
14.16
8.57
7.35
8.87
10.65
10.44
7.25
1.63
-5.16
-11.87
-17.85
-22.98
-27.22
-30.28
-31.65
-31.08
-29.11
-26.97
-26
-27
-29.77
-33.33
-36.58
-38.79
-39.84
-40
-39.53
-38.47
-36.94
-35.35
-34.4
-34.93
-37.35
-41.42
-46.16
-50.32
-52.65
-52.36
-49.35
-43.9
-36.7
-28.4
-19.43
-9.81
0.72
12.41
25.06
37.8
49.2
57.62
61.9
61.78
58
52.19
46.34
42.27
41
42.45
45.48
48.48
50.14
50.07
48.87
47.35
45.78
43.39
38.9
31.41
21.62
11.84
5
3.14
6.25
12.3
18.29
21.61
21.1
17.12
10.85
3.46
-4.11
-11.3
-17.36
-21.39
-22.81
-21.88
-20.04
-19.46
-21.99
-27.96
-35.94
-43.31
-47.81
-48.71
-47.28
-45.92
-46.75
-50.3
-55.06
-58.54
-58.59
-54.44
-46.63
-36.23
-23.79
-8.99
8.8
29.42
51.18
71.11
86.02
93.88
94.78
90.63
84.21
77.94
72.99
69.32
66.32
63.32
59.86
55.8
51.05
45.68
39.97
34.44
29.63
25.87
23.1
20.87
18.67
16.25
13.66
11.13
8.96
7.32
6.37
6.43
7.84
10.79
14.83
18.78
20.98
20.03
15.46
8.15
0.27
-5.53
-7.17
-4.27
1.79
8.38
12.95
14.05
11.66
6.69
-0.2
-9.1
-20.77
-35.53
-52.35
-68.56
-80.74
-86.15
-83.92
-75.34
-62.93
-49.25
-35.74
-22.66
-9.48
4.29
18.42
31.88
43.12
50.63
53.53
51.71
45.97
37.73
28.61
20.09
13.14
8.17
5.22
4.01
3.98
4.38
4.3
2.76
-0.87
-6.49
-13.14
-19.11
-22.54
-22.24
-18.27
-11.97
-5.58
-1.31
-0.41
-2.98
-8.07
-14.31
-20.51
-26.11
-30.98
-34.97
-37.66
-38.36
-36.5
-32.26
-26.81
-22.06
-19.9
-21.4
-26.42
-33.79
-41.87
-49.1
-54.39
-56.96
-56.04
-50.77
-40.55
-25.63
-7.41
11.57
28.26
40.21
46.41
47.4
44.86
40.77
36.55
32.78
29.34
25.84
22.12
18.38
15.1
12.63
11.16
10.52
10.35
10.22
9.61
8.05
5.08
0.6
-4.88
-10.13
-13.53
-13.72
-10.22
-3.81
3.7
10.15
13.98
14.66
12.53
8.51
3.44
-2.15
-8.04
-14.02
-19.8
-25.03
-29.5
-33.24
-36.39
-39.21
-41.9
-44.5
-46.84
-48.71
-49.86
-50.19
-49.85
-49.39
-49.63
-51.05
-53.15
-54.31
-52.15
-44.52
-30.57
-11.42
10.14
30.66
47.35
58.8
64.92
66.53
64.74
60.64
55.25
49.62
44.74
41.26
39.18
37.79
36.13
33.52
29.9
25.93
22.57
20.4
19.25
18.28
16.44
13.12
8.52
3.66
-0.12
-1.74
-0.9
1.93
5.83
9.87
13.36
15.99
17.74
18.79
19.37
19.75
20.05
20.22
19.97
18.81
16.21
11.79
5.57
-1.99
-10.06
-17.52
-23.22
-26.27
-26.24
-23.54
-19.37
-15.51
-13.69
-15.06
-19.79
-26.96
-34.95
-41.87
-46.11
-46.55
-42.68
-34.64
-23.16
-9.53
4.59
17.58
28.36
36.78
43.32
48.71
53.19
56.23
56.78
54.2
48.82
42.08
35.96
31.92
30.26
30.07
29.98
28.96
26.96
24.64
22.84
21.78
20.89
19.23
16.13
11.7
6.68
2.09
-1.27
-3.05
-3.26
-2.07
0.23
2.98
5.2
5.74
3.86
-0.29
-5.52
-10.12
-12.56
-12.28
-9.8
-6.52
-4.14
-4.21
-7.84
-15.51
-26.77
-40.19
-53.48
-64.12
-69.92
-69.71
-63.62
-52.76
-38.83
-23.48
-8.12
6.16
18.33
27.57
33.21
35.06
33.67
30.25
26.46
23.8
22.93
23.29
23.38
21.53
16.91
10.12
2.87
-3.01
-6.49
-7.72
-7.82
-7.99
-8.9
-10.49
-12.31
-14.16
-16.14
-18.62
-21.65
-24.7
-26.83
-27.38
-26.54
-25.27
-24.91
-26.3
-29.27
-32.71
-35.24
-36.02
-35.4
-34.63
-35.21
-38.27
-43.84
-51.04
-58.43
-64.4
-67.56
-67.03
-62.38
-53.77
-42.02
-28.29
-14.02
-0.51
11.18
20.31
26.47
29.68
30.38
29.54
28.56
28.66
30.38
33.31
36.31
38.09
37.9
35.79
32.33
28.02
22.97
17.01
10.29
3.52
-2.05
-5.28
-5.86
-4.56
-2.84
-1.93
-2.2
-3.11
-3.94
-4.33
-4.82
-6.31
-9.39
-13.83
-18.59
-22.3
-23.95
-23.37
-21.02
-17.91
-15.23
-14.09
-15.58
-20.49
-28.9
-39.69
-50.44
-57.96
-59.27
-52.68
-38.46
-18.83
2.82
22.92
38.59
48.12
51.18
48.82
43.26
37.35
33.65
33.6
36.84
41.36
44.52
44.24
39.95
32.66
24.26
16.5
10.4
6.21
3.74
2.92
3.89
6.55
10.29
13.86
15.79
15.03
11.68
7.06
3.31
2.51
5.48
11.28
17.33
20.63
19.13
12.91
4.09
-4.3
-9.94
-12.3
-12.54
-12.58
-13.83
-16.67
-20.8
-26.03
-32.65
-41.13
-51.1
-60.62
-66.42
-65.26
-55.53
-38.23
-16.7
4.92
23.19
36.57
45.48
51.39
55.81
59.49
62.32
63.69
63.22
60.98
57.47
53.46
49.55
46.03
42.96
40.27
37.85
35.42
32.47
28.24
22.08
13.96
4.86
-3.33
-8.57
-9.65
-7
-2.58
0.91
1.47
-1.28
-5.8
-9.38
-9.44
-4.9
3.12
11.58
16.72
15.56
7.11
-7.24
-24.31
-40.51
-53.17
-61.06
-64.13
-62.68
-56.83
-46.64
-32.78
-17.06
-2.19
9.24
16.06
18.91
19.76
20.53
22.01
23.42
23.14
19.99
14.07
6.83
0.17
-4.58
-7.17
-8.32
-8.95
-9.72
-10.82
-12.16
-13.74
-15.66
-18
-20.43
-22.27
-22.79
-21.67
-19.26
-16.67
-15.24
-15.95
-19
-23.72
-28.82
-32.9
-35.1
-35.31
-34.38
-33.67
-34.4
-37.1
-41.45
-46.4
-50.64
-53.16
-53.39
-51.1
-46.29
-38.98
-29.31
-17.6
-4.32
9.94
24.57
38.85
51.88
62.6
69.92
73.06
71.81
66.63
58.7
49.6
41.02
34.37
30.52
29.55
30.78
33.05
34.96
35.25
33.06
28.11
20.5
10.76
-0.08
-10.59
-19.02
-23.84
-24.37
-21.3
-16.56
-12.75
-12.06
-15.4
-21.97
-29.56
-35.56
-37.96
-36.19
-31.16
-24.87
-19.65
-17.46
-19.48
-25.99
-36.23
-48.32
-59.56
-66.75
-67.08
-59.06
-43.13
-21.72
1.46
22.65
39.28
50.6
57.65
62.39
66.6
71.09
75.47
78.54
79.1
76.77
72.07
66.18
60.42
55.6
51.88
48.9
46.18
43.33
40.23
36.67
32.35
26.98
20.58
13.87
8.13
4.66
4.05
5.72
8.05
9.2
7.92
4.14
-1.17
-6.65
-11.3
-14.74
-17.01
-18.1
-17.57
-14.65
-9.01
-1.23
6.9
12.84
14.22
9.63
-0.89
-15.98
-33.36
-50.39
-64.42
-73.12
-74.69
-68.37
-54.79
-35.99
-14.99
5.1
22.01
35.05
44.81
52.58
59.23
64.69
68.14
68.5
65.1
58.12
48.4
37.14
25.45
14.11
3.8
-4.67
-10.28
-11.96
-9.16
-2.5
6.15
14.09
18.64
18.15
12.53
3.13
-7.62
-17.06
-23.04
-24.4
-21.13
-14.39
-6.39
0.3
3.48
2.17
-2.99
-9.97
-15.97
-18.59
-16.81
-11.41
-4.81
-0.32
-0.96
-8.42
-22.27
-39.92
-57.39
-70.84
-77.65
-77.19
-70.55
-59.55
-46.13
-31.83
-17.94
-5.66
3.93
10.31
13.8
15.39
16.35
17.35
18.11
17.62
14.93
9.88
3.35
-3.15
-8.39
-11.95
-14.27
-16.22
-18.38
-20.56
-21.99
-21.76
-19.41
-15.47
-10.99
-7.18
-4.71
-3.59
-3.34
-3.44
-3.58
-3.72
-4
-4.44
-4.92
-5.32
-5.71
-6.6
-8.74
-12.83
-19.12
-27.1
-35.43
-42.32
-46.15
-46.14
-42.74
-37.72
-33.5
-32.23
-34.91
-40.95
-48.36
-54.37
-56.18
-51.86
-40.8
-23.94
-3.56
17.22
35.32
48.49
55.87
58.06
56.64
53.39
49.72
46.4
43.66
41.48
39.71
37.98
35.63
31.98
26.68
20.13
13.45
8.17
5.48
5.53
7.44
9.93
11.92
13.05
13.64
14.22
15.17
16.43
17.82
19.2
20.58
21.93
22.92
22.91
21.06
16.85
10.46
2.74
-5.08
-11.9
-17.03
-20.35
-22.12
-22.69
-22.38
-21.38
-19.88
-18.21
-16.9
-16.43
-17.06
-18.82
-21.57
-25.11
-29.21
-33.36
-36.62
-37.61
-34.91
-27.66
-16.14
-1.63
13.94
28.69
41.38
51.49
58.88
63.35
64.75
63.15
59.35
54.67
50.61
48.02
46.83
46.14
44.86
42.42
38.91
34.96
31.11
27.49
23.97
20.39
17.05
14.72
14.27
16.16
19.99
24.57
28.26
29.77
28.53
24.95
20.11
15.26
11.34
8.66
6.84
4.93
1.93
-2.93
-9.8
-18.05
-26.26
-32.71
-35.91
-35.22
-31.37
-26.29
-22.65
-22.73
-27.63
-36.78
-48.22
-59.39
-67.89
-72.15
-71.54
-66.18
-56.66
-43.86
-28.98
-13.59
0.66
12.39
20.71
25.21
25.74
22.18
14.58
3.59
-9.19
-21.28
-29.99
-33.54
-31.67
-25.72
-17.88
-10.26
-4.27
-0.47
1.11
0.68
-1.44
-4.5
-7.41
-8.99
-8.48
-6.01
-2.51
0.77
2.96
3.95
4.29
4.63
5.09
5.17
4
0.92
-4.01
-9.99
-15.77
-20.02
-21.87
-21.09
-18.17
-14.32
-11.31
-10.99
-14.69
-22.68
-33.86
-46.12
-56.91
-63.94
-65.81
-62.07
-53.17
-40.31
-25.23
-9.93
3.61
14.01
20.86
24.83
27.29
29.58
32.41
35.57
38.33
39.92
40.12
39.32
38.18
37.24
36.53
35.85
35.06
34.45
34.55
35.67
37.33
38.07
36.15
30.39
21.09
10.06
-0.12
-7.23
-10.31
-9.95
-7.9
-6.17
-6.15
-8.29
-12.11
-16.61
-20.75
-23.81
-25.49
-25.82
-25.03
-23.4
-21.24
-18.87
-16.69
-14.84
-13.23
-11.38
-8.96
-6.31
-4.63
-5.64
-10.56
-19.12
-29.22
-37.57
-41.07
-38.34
-30.35
-19.81
-9.6
-1.27
5.66
13.22
23.41
36.8
51.91
65.82
75.58
79.54
78.09
73.13
67
61.25
56.17
51.15
45.49
39.16
32.81
27.5
23.92
22.06
21.17
20.05
17.77
14
9.31
4.81
1.61
0.35
0.89
2.36
3.66
4.1
3.52
2.27
0.75
-1.01
-3.29
-6.31
-9.82
-13.02
-14.75
-14.35
-12.16
-9.61
-8.86
-11.65
-18.68
-29.17
-41.04
-51.55
-58.15
-59.18
-54.07
-43.53
-29.16
-13.04
2.9
17.33
29.62
39.7
47.58
52.94
54.88
52.36
44.87
33.14
19.24
6.04
-3.86
-9.02
-9.5
-6.55
-1.81
3.39
8.31
12.65
15.98
17.7
17.19
14.17
8.96
2.45
-4.42
-11.08
-17.33
-23.11
-28.22
-32.25
-34.87
-36.21
-36.98
-38.15
-40.39
-43.48
-46.46
-48.17
-48.03
-46.38
-44.25
-42.91
-43.19
-45.3
-48.93
-53.45
-58.04
-61.66
-63.12
-61.3
-55.55
-46.01
-33.57
-19.55
-5.31
8.21
20.41
30.67
38.28
42.46
42.83
39.76
34.44
28.48
23.37
19.89
17.92
16.75
15.65
14.25
12.65
11.14
9.85
8.49
6.46
3.26
-0.94
-5.21
-8.04
-8.08
-4.87
0.82
7.23
12.22
14.08
12.09
6.46
-2.1
-12.61
-24.08
-35.28
-44.6
-50.46
-51.79
-48.7
-42.71
-36.25
-31.86
-31.28
-34.93
-41.89
-50.3
-57.86
-62.2
-61.38
-54.36
-41.28
-23.59
-3.65
15.88
32.8
45.83
54.75
60.11
63.02
64.7
66.03
67.18
67.56
66.1
61.99
55.29
47.07
39.22
33.54
30.72
30.01
29.65
27.84
23.65
17.43
10.52
4.53
0.67
-0.67
0.22
2.73
6.26
10.2
13.87
16.46
17.12
15.44
11.84
7.65
4.45
3.36
4.46
6.82
9.13
10.49
10.84
10.56
9.81
7.91
3.62
-3.99
-14.69
-27.02
-38.9
-48.65
-55.51
-59.41
-60.31
-57.67
-50.78
-39.33
-24.23
-7.37
9.08
23.62
35.94
46.36
55.11
61.7
65.11
64.45
59.74
52.06
43.02
34.04
25.81
18.4
11.75
6.16
2.4
1.37
3.47
8.28
14.6
20.83
25.47
27.47
26.47
22.85
17.64
12.2
7.88
5.41
4.54
4.02
1.98
-3.18
-11.85
-22.77
-33.36
-40.55
-41.97
-37.18
-27.92
-17.7
-10.75
-10.49
-18.41
-33.47
-52.45
-70.97
-84.94
-91.57
-89.86
-80.55
-65.59
-47.49
-28.79
-11.56
2.78
13.58
20.94
25.25
26.95
26.33
23.73
19.75
15.42
11.83
9.82
9.5
10.2
10.76
10.27
8.54
6.15
4.05
2.91
2.76
3.13
3.34
3.18
3
3.42
4.74
6.54
7.76
7.2
4.39
-0.02
-4.5
-7.45
-8.17
-7.22
-6.2
-6.82
-10.02
-15.52
-22.12
-28.35
-33.14
-36.1
-37.28
-37.06
-36.04
-35.25
-36.02
-39.57
-46.27
-55.07
-63.54
-68.55
-67.63
-59.85
-46.07
-28.34
-8.87
10.6
29.04
45.58
59.23
68.67
72.9
71.8
66.54
59.38
52.8
48.45
46.68
46.5
46.3
44.88
41.93
38.04
34.18
31.08
28.92
27.42
26.27
25.41
25.16
25.81
27.25
29.08
30.71
31.65
31.73
31.09
29.82
28.01
25.76
23.26
20.88
18.98
17.56
16.18
14.07
10.41
4.74
-2.85
-11.67
-20.41
-27.55
-31.69
-32.03
-29.08
-24.66
-21.42
-21.78
-26.84
-35.8
-46.3
-55.23
-59.93
-58.86
-51.63
-38.72
-21.39
-1.43
18.87
36.95
50.59
58.51
60.62
57.92
52.26
45.6
39.63
35.55
33.84
34.23
35.77
37.17
37.32
35.78
32.99
30.03
28.05
27.71
28.92
30.94
32.73
33.25
31.72
27.66
21.03
12.41
3.05
-5.23
-10.7
-12.32
-10.45
-6.8
-3.78
-3.41
-6.49
-12.22
-18.63
-23.53
-25.52
-24.54
-21.93
-19.79
-20.05
-23.8
-31.06
-40.89
-51.86
-62.51
-71.65
-78.09
-80.69
-78.31
-70.2
-56.46
-38.34
-18.25
0.94
16.71
27.63
33.55
35.24
33.88
30.5
26.02
21.25
17.08
14.36
13.74
15.34
18.47
21.96
24.46
24.96
22.9
18.35
11.68
3.47
-5.55
-14.58
-22.72
-29.25
-33.65
-35.67
-35.28
-32.73
-28.54
-23.47
-18.43
-14.22
-11.41
-10.41
-11.5
-14.99
-20.94
-28.9
-37.56
-44.98
-49.27
-49.49
-46.17
-41.07
-36.47
-33.99
-34.14
-36.29
-39.23
-41.64
-42.39
-40.47
-34.97
-25.5
-12.53
2.43
17.24
29.85
39.09
44.87
48.01
49.6
50.39
50.67
50.37
49.39
47.65
45.24
42.18
38.44
34.03
29.15
24.35
20.37
17.92
17.4
18.57
20.6
22.34
22.99
22.35
20.89
19.39
18.49
18.36
18.71
19.01
18.9
18.32
17.49
16.64
15.91
15.36
14.94
14.45
13.45
11.34
7.5
1.7
-5.4
-12.23
-16.85
-17.65
-14.2
-7.61
-0.43
4.11
3.29
-4.18
-17.55
-34.27
-50.74
-63.31
-69.23
-67.18
-57.39
-41.3
-21.35
-0.52
18.13
32.12
40.19
42.57
40.92
37.71
35.44
35.66
38.53
42.89
46.77
48.22
46.04
40.44
32.96
26.12
22.31
22.77
26.87
32.32
36.2
36.22
31.72
23.82
14.66
6.28
-0.08
-4.23
-6.63
-7.74
-7.85
-7.17
-6.17
-5.71
-6.62
-9.21
-13.06
-17.09
-20.08
-21.09
-19.77
-16.49
-12.3
-8.89
-8.34
-12.55
-22.43
-37.16
-54.01
-69.08
-78.68
-80.77
-75.56
-65.17
-52.42
-39.58
-27.84
-17.41
-8.07
0.32
7.7
13.95
19.02
22.85
25.21
25.39
22.49
15.99
6.37
-4.5
-13.88
-19.18
-19.07
-14.3
-7.31
-1.19
1.73
0.72
-3.15
-7.79
-11.19
-12.31
-11.23
-8.7
-5.47
-2.03
1.25
3.81
4.87
3.59
-0.25
-5.88
-11.69
-16.08
-18.39
-19.07
-19.37
-20.2
-21.59
-22.65
-22.42
-20.8
-19.03
-19.22
-23.07
-30.93
-41.35
-51.69
-58.94
-60.87
-56.64
-46.78
-32.88
-16.95
-1.09
12.91
23.89
31.44
35.7
37.15
36.45
34.16
30.81
26.95
23.29
20.62
19.59
20.4
22.56
25.11
26.83
26.96
25.37
22.6
19.53
16.82
14.61
12.58
10.41
8.14
6.32
5.87
7.41
10.74
14.73
17.77
18.44
16.17
11.5
5.85
0.75
-2.79
-4.54
-4.88
-4.34
-3.16
-1.21
1.59
4.94
7.8
8.71
6.37
0.25
-8.93
-19.42
-29.15
-36.38
-40
-39.55
-34.92
-26.19
-13.84
1.04
16.7
31.05
42.32
49.75
53.66
55.23
55.66
55.65
55.21
54.01
51.85
48.9
45.64
42.45
39.34
35.91
31.59
26.04
19.4
12.24
5.28
-0.99
-6.6
-11.87
-17.02
-21.87
-25.79
-28.13
-28.58
-27.57
-26.04
-25.14
-25.62
-27.63
-30.81
-34.48
-37.93
-40.36
-40.89
-38.71
-33.47
-25.81
-17.56
-11.43
-9.98
-14.53
-24.5
-37.59
-50.59
-60.49
-65.36
-64.53
-58.26
-47.29
-32.62
-15.54
2.23
18.44
30.86
37.7
38.36
33.67
25.7
17
9.89
5.65
4.24
4.62
5.3
5.16
3.89
1.92
0.06
-0.98
-0.96
-0.05
1.34
2.77
3.88
4.31
3.73
2.08
-0.29
-2.62
-3.96
-3.5
-1.14
2.38
5.68
7.3
6.29
2.55
-2.96
-8.35
-11.32
-10.06
-4.15
4.94
14.19
20
19.41
11.2
-3.71
-22.59
-41.75
-57.44
-66.72
-67.89
-60.79
-46.84
-28.77
-9.96
6.6
19.07
27.14
31.77
34.34
35.77
36.18
34.95
31.43
25.45
17.75
9.57
2.11
-3.97
-8.62
-12.09
-14.4
-15.14
-13.76
-10.18
-5.14
-0.08
3.49
4.75
3.96
2.22
0.8
0.34
0.78
1.77
3.2
5.36
8.63
12.99
17.55
20.77
21.18
18.2
12.59
6.26
1.42
-0.42
1.14
5.22
10.26
14.44
16.16
14.36
8.63
-0.54
-11.7
-22.42
-29.88
-31.52
-25.88
-13.15
4.83
25.03
44.27
60.01
71.07
77.69
81.2
83.44
85.89
89.05
92.24
93.96
92.69
87.8
79.89
70.54
61.49
53.72
47.09
40.47
32.63
23.12
12.53
2.24
-6.29
-12.26
-15.83
-17.84
-19.29
-20.81
-22.56
-24.51
-26.72
-29.56
-33.42
-38.5
-44.3
-49.62
-52.85
-52.7
-48.92
-42.7
-36.5
-33.14
-34.86
-42.49
-55.08
-70.08
-84.07
-93.55
-95.84
-89.72
-75.68
-55.82
-33.25
-11.32
7.18
20.61
28.77
32.63
33.63
33.09
31.66
29.34
25.81
20.83
14.6
7.73
1.1
-4.55
-8.69
-11.21
-12.31
-12.36
-11.73
-10.73
-9.71
-9.09
-9.32
-10.79
-13.62
-17.5
-21.68
-25.25
-27.47
-28.2
-27.94
-27.6
-27.88
-28.96
-30.46
-31.72
-32.23
-31.81
-30.51
-28.53
-26.15
-24
-23.23
-25.17
-30.78
-39.91
-50.99
-61.19
-67.43
-67.5
-60.73
-48.1
-31.85
-14.71
0.9
13.43
22.51
28.82
33.62
38.12
43.01
48.1
52.65
55.78
56.87
55.8
52.73
47.97
41.76
34.41
26.46
18.83
12.53
8.4
6.69
6.96
8.24
9.51
10.02
9.47
7.97
5.74
2.88
-0.63
-4.85
-9.52
-14.01
-17.39
-18.87
-18.13
-15.57
-12.23
-9.34
-7.89
-8.19
-9.93
-12.48
-15.36
-18.54
-22.28
-26.86
-32.32
-38.36
-44.39
-49.69
-53.43
-54.75
-52.82
-47.13
-37.61
-24.69
-9.28
7.49
24.35
39.99
53.03
62.05
66.03
64.71
58.92
50.42
41.19
32.59
25.01
17.99
10.89
3.58
-3.37
-8.78
-11.54
-11.08
-7.73
-2.5
3.23
8.16
11.53
13.14
13.42
13.11
13.03
13.61
14.92
16.68
18.56
20.46
22.4
24.33
25.7
25.5
22.67
16.84
8.82
0.56
-5.58
-7.96
-6.47
-2.77
0.48
0.55
-4.32
-14.37
-28.33
-43.91
-58.39
-69.02
-73.62
-70.9
-60.79
-44.71
-25.18
-5.37
11.94
24.97
33.36
37.86
39.75
40.24
40.14
39.86
39.64
39.77
40.49
41.93
43.89
46
47.78
48.97
49.66
50.02
50.36
50.87
51.52
51.99
51.91
50.88
48.73
45.85
42.83
40.37
38.8
37.75
36.31
33.52
28.76
22.17
14.63
7.32
1.4
-2.55
-4.69
-6.04
-8.2
-12.98
-21.86
-35.29
-52.35
-70.65
-87.01
-98.32
-102.42
-98.75
-88.31
-73.15
-55.64
-37.87
-21.36
-6.98
4.84
14.03
20.69
25.05
27.42
28.21
27.85
26.77
25.19
23.09
20.14
15.9
10.18
3.32
-3.73
-9.69
-13.37
-14.25
-12.76
-10.18
-8.04
-7.44
-8.62
-10.95
-13.45
-15.39
-16.67
-17.94
-20.13
-23.87
-29.19
-35.3
-40.93
-44.81
-46.08
-44.51
-40.67
-35.83
-31.71
-30.11
-32.4
-38.96
-48.76
-59.42
-67.88
-71.33
-68.33
-59.15
-45.63
-30.2
-14.91
-0.73
12.37
24.7
36.02
45.37
51.48
53.59
52.11
48.53
44.54
41.05
37.76
33.56
27.6
20.2
13
8.19
7.4
10.64
16.27
21.75
24.82
24.47
21.01
15.68
9.86
4.54
0.17
-2.96
-4.46
-4.02
-1.72
1.55
4.28
4.79
2.12
-3.4
-10.22
-16.44
-20.71
-22.75
-23.35
-23.74
-24.93
-27.51
-31.65
-37.3
-44.05
-50.86
-55.98
-57.27
-53.01
-42.69
-27.56
-10.24
6.09
18.98
27.38
31.87
34.16
36.22
39.41
43.83
48.28
50.7
49.2
42.92
32.52
20.04
8.1
-0.97
-5.75
-5.87
-1.87
5.16
13.75
22.2
28.82
32.2
31.63
27.37
20.47
12.49
4.93
-1.04
-4.71
-5.86
-4.9
-2.74
-0.61
0.25
-0.88
-3.8
-7.45
-10.47
-11.91
-11.75
-10.93
-10.87
-12.61
-16.17
-20.63
-24.64
-27.08
-27.56
-26.48
-24.5
-22.22
-20.18
-19.13
-20.13
-24.27
-31.89
-41.67
-50.57
-54.66
-50.73
-37.66
-17.15
6.9
29.98
48.67
61.73
70
75.47
80.09
84.94
89.94
94.43
97.97
100.61
102.87
105.29
107.91
110.17
111.29
110.76
108.45
104.45
98.53
90.11
78.6
64.06
47.71
31.74
18.64
10.23
7.12
8.61
13.37
19.89
26.95
33.73
39.68
44.42
47.53
48.49
46.7
41.69
33.36
22.15
9.2
-4.12
-16.47
-26.97
-35.39
-42.12
-48.04
-54.34
-62.2
-72.34
-84.67
-97.89
-109.53
-116.57
-116.6
-108.59
-93.63
-74.67
-55.44
-39.36
-28.38
-22.52
-20.17
-19
-17.01
-13.35
-8.6
-4.35
-2.35
-3.52
-7.45
-12.54
-16.59
-17.79
-15.35
-9.73
-2.33
5.11
10.97
14.17
14.27
11.58
7.12
2.4
-1.05
-2.1
-0.63
2.6
6.34
9.43
11.27
11.74
10.99
9
5.77
1.48
-3.12
-6.94
-8.94
-8.7
-6.92
-5.16
-5.28
-8.54
-15.05
-23.63
-32.24
-38.94
-42.45
-42.69
-40.67
-38.13
-36.97
-38.66
-43.8
-52.04
-62.2
-72.5
-80.84
-85.35
-84.75
-78.74
-67.98
-53.86
-37.93
-21.46
-5.22
10.34
24.91
38.06
49.18
57.67
63.07
65.2
64.13
60.22
54.11
46.78
39.64
34.05
30.86
30.03
30.59
31.13
30.51
28.37
25.02
21.12
17
12.61
7.77
2.71
-1.7
-4.27
-4.14
-1.57
2.13
5.21
6.51
5.93
4.17
1.96
-0.77
-4.93
-11.64
-21.16
-32.29
-42.57
-49.32
-50.88
-47.29
-40.28
-32.69
-27.51
-27.18
-32.99
-44.54
-59.54
-74.08
-83.59
-84.31
-74.61
-55.54
-30.28
-2.91
22.92
44.85
61.86
73.82
81.03
84.05
83.84
81.75
79.27
77.62
77.25
77.81
78.34
77.7
75.12
70.6
64.86
59.13
54.7
52.39
52.24
53.55
55.12
55.68
54.2
50.19
43.83
36.02
28.17
21.85
18.2
17.35
18.35
19.51
19.26
16.91
12.92
8.2
3.48
-1.44
-7.44
-15.3
-24.88
-34.78
-42.95
-47.61
-48.15
-45.4
-41.35
-38.32
-38.2
-41.91
-49.07
-58.21
-67.01
-72.82
-73.31
-67.25
-54.83
-37.64
-18.33
0.26
15.84
27.32
34.99
40.33
45.26
51.21
58.3
65.1
69.23
68.4
61.59
49.52
34.42
19.23
6.4
-2.68
-7.75
-9.38
-8.49
-6.17
-3.6
-2.04
-2.44
-5.01
-8.91
-12.42
-13.52
-10.86
-4.42
4.38
13.07
19.04
20.28
16.01
6.82
-5.5
-18.41
-29.25
-35.99
-38.04
-36.56
-34.25
-34.29
-39.08
-49.25
-63.26
-78.04
-90.1
-96.73
-96.72
-90.35
-78.91
-63.97
-46.94
-28.87
-10.7
6.56
21.72
33.57
41.19
44.37
43.66
40.28
35.8
31.44
27.79
24.7
21.64
18.18
14.36
10.61
7.5
5.44
4.46
4.16
4
3.39
1.82
-1.03
-5.17
-10.31
-15.81
-20.84
-24.61
-26.58
-26.7
-25.33
-23.13
-20.97
-19.85
-20.76
-24.46
-30.89
-39.04
-47.18
-53.51
-57.07
-58.08
-57.85
-58.04
-59.94
-64
-69.72
-76.09
-81.66
-84.73
-83.47
-76.27
-62.23
-41.84
-17.24
8.38
31.74
50.54
64.03
72.93
78.74
82.79
85.62
86.88
85.77
81.64
74.55
65.32
55.19
45.41
36.82
29.74
24.15
19.88
16.67
14.12
11.68
8.88
5.56
2.05
-0.9
-2.48
-2.29
-0.74
1.16
2.21
1.52
-1.07
-5.08
-9.69
-14.08
-17.57
-19.91
-21.29
-22.49
-24.58
-28.45
-34.28
-41.13
-47.08
-50.16
-49.35
-45.33
-40.39
-37.53
-39.06
-45.57
-55.63
-66.27
-74.02
-75.79
-69.51
-54.54
-31.95
-4.36
24.43
50.47
70.74
83.96
90.79
93.05
92.68
90.94
88.38
85.22
81.97
79.4
78.08
77.95
78.04
77.01
73.93
68.91
62.92
57.09
52.04
47.5
42.66
36.84
29.99
22.83
16.44
11.76
9.16
8.14
7.63
6.4
3.57
-1.03
-6.71
-12.45
-17.32
-21.01
-23.87
-26.53
-29.29
-31.77
-33.2
-33.18
-32.29
-32.01
-34.05
-39.25
-47.08
-55.79
-63.18
-67.5
-67.95
-64.54
-57.56
-47.19
-33.51
-16.85
1.77
20.7
38.01
52.08
62.01
67.67
69.33
67.27
61.8
53.33
42.75
31.48
21.29
13.73
9.48
8.23
8.8
9.83
10.32
9.84
8.39
6.06
2.91
-1.03
-5.58
-10.27
-14.39
-17.1
-17.81
-16.47
-13.88
-11.6
-11.55
-15.23
-22.89
-33.08
-42.77
-48.48
-47.88
-41.31
-32.12
-25.61
-26.78
-38.03
-57.82
-81.12
-101.42
-113.29
-114.15
-104.74
-88.11
-68.05
-47.58
-28.57
-11.84
2.39
14.33
24.52
33.66
42.26
50.08
56.09
58.78
57.03
50.86
41.76
32.18
24.62
20.67
20.59
23.39
27.48
31.15
33.07
32.43
29.04
23.43
16.73
10.33
5.37
2.36
1
0.43
-0.29
-1.82
-4.37
-7.97
-12.79
-19.08
-27
-36.07
-45.02
-51.99
-55.44
-54.93
-51.53
-47.51
-45.31
-46.51
-51.21
-57.98
-64.5
-68.46
-68.24
-63.29
-53.9
-40.9
-25.25
-7.76
10.77
29.34
46.65
61.22
71.74
77.56
79.03
77.42
74.44
71.63
69.7
68.42
66.95
64.34
60.1
54.41
48.04
42.03
37.31
34.47
33.61
34.46
36.38
38.61
40.38
41.21
40.91
39.61
37.66
35.35
32.86
30.32
27.69
24.81
21.32
16.79
10.87
3.6
-4.31
-11.52
-16.5
-18.11
-16.41
-12.83
-9.94
-10.63
-17
-29.6
-46.86
-65.34
-80.58
-88.36
-86.11
-73.89
-54.38
-31.85
-10.59
6.69
19.5
29.17
37.57
45.73
53.32
59.06
61.76
61.19
58.27
54.38
50.49
46.63
42.27
37.13
31.79
27.55
25.67
26.4
28.65
30.36
29.57
25.37
18.38
10.39
3.47
-0.88
-2.23
-1.32
0.47
1.59
0.76
-2.67
-8.61
-16.11
-23.62
-29.35
-31.84
-30.48
-25.85
-19.81
-15.06
-14.27
-19.14
-29.76
-44.27
-59.53
-71.92
-78.61
-78.26
-71.07
-58.39
-42.06
-24.06
-6.28
9.36
21.11
27.78
29.27
26.86
22.72
18.9
16.53
15.25
13.64
10.34
4.98
-1.5
-7.4
-11.18
-12.14
-10.58
-7.55
-4.2
-1.53
-0.31
-1.13
-4.38
-9.96
-17.11
-24.31
-29.84
-32.54
-32.32
-30.21
-27.89
-26.89
-27.9
-30.68
-34.25
-37.39
-39.21
-39.34
-38.16
-36.47
-35.23
-35.29
-37.1
-40.58
-45.12
-49.79
-53.53
-55.29
-54.14
-49.37
-40.61
-28.2
-13.36
2.07
16.16
27.66
36.28
42.61
47.45
51.25
53.86
54.83
53.91
51.34
47.92
44.48
41.58
39.27
37.28
35.3
33.09
30.5
27.31
23.4
18.83
14.05
9.82
6.8
5.19
4.55
4.08
2.94
0.78
-2.07
-4.85
-6.7
-7.06
-6.01
-4.32
-3.16
-3.8
-7.09
-13.08
-20.86
-28.78
-35.02
-38.25
-38.21
-35.68
-32.24
-29.73
-29.63
-32.56
-38.1
-44.91
-51
-54.19
-52.58
-44.98
-31.25
-12.42
9.39
31.49
51.19
66.35
75.9
79.93
79.5
76.24
71.79
67.38
63.58
60.38
57.35
53.98
49.89
45.07
39.93
35.3
32.04
30.64
31.03
32.5
33.9
34.24
33.02
30.39
27.03
23.6
20.57
18.01
15.85
13.98
12.48
11.39
10.6
9.75
8.35
6.04
2.82
-0.92
-4.68
-8.01
-10.76
-13.2
-15.89
-19.6
-25.05
-32.65
-42.14
-52.39
-61.43
-67.11
-67.75
-62.88
-53.54
-41.62
-29
-16.78
-5.02
6.66
18.25
28.87
37.02
41.09
40.34
35.23
27.19
17.86
8.57
-0.04
-7.81
-14.48
-19.58
-22.39
-22.41
-19.68
-15.1
-10.08
-5.9
-3.45
-2.95
-3.99
-5.89
-7.98
-9.78
-10.98
-11.44
-11.22
-10.75
-10.82
-12.27
-15.45
-19.74
-23.57
-25.1
-23.3
-18.7
-13.37
-10.08
-10.88
-16.46
-25.87
-37.21
-48.4
-57.8
-64.14
-66.17
-62.67
-53.35
-39.78
-25.05
-12.53
-3.81
2.38
9.31
19.63
33.01
45.67
52.49
50.36
40.33
27.03
15.77
9.28
6.52
4.19
-0.35
-6.97
-12.96
-15.36
-13.23
-8.32
-3.91
-2.85
-5.94
-11.85
-18.4
-23.69
-26.95
-28.39
-28.73
-28.72
-28.86
-29.25
-29.89
-30.69
-31.69
-33.08
-35.02
-37.31
-39.24
-39.76
-37.91
-33.62
-28.03
-23.21
-21.42
-23.97
-30.57
-39.28
-47.44
-52.58
-53.18
-48.85
-39.94
-27.23
-11.62
5.83
23.73
40.34
53.93
63.3
68.14
69.11
67.46
64.56
61.47
58.8
56.82
55.5
54.63
53.9
52.91
51.3
48.88
45.57
41.4
36.56
31.35
26.29
22
19.13
17.95
18.25
19.33
20.19
20.07
18.81
16.91
15.23
14.65
15.6
17.77
20.37
22.32
22.75
21.22
17.77
12.83
7.05
1.18
-3.94
-7.55
-9.18
-8.76
-6.94
-4.94
-4.33
-6.53
-12.46
-22.14
-34.42
-47.08
-57.14
-61.69
-58.73
-48
-31.09
-10.96
9.15
26.64
40.11
49.28
54.6
56.67
56.05
53.17
48.45
42.28
35.03
27.07
18.75
10.56
3
-3.32
-7.94
-10.69
-11.82
-11.9
-11.83
-12.42
-14.18
-17.05
-20.31
-22.86
-23.61
-21.98
-18.05
-12.62
-6.86
-1.91
1.21
1.87
-0.17
-4.45
-9.76
-14.32
-16.45
-15.51
-12.36
-9.29
-8.93
-13.1
-21.94
-33.91
-46.6
-57.74
-65.68
-69.55
-68.91
-63.64
-54
-40.91
-25.95
-10.99
2.45
13.66
22.66
29.79
35.15
38.25
38.43
35.4
29.61
22.29
15.06
9.29
5.55
3.67
2.9
2.32
1.31
-0.43
-2.78
-5.24
-7.1
-7.59
-6.14
-2.79
1.69
5.96
8.58
8.72
6.61
3.34
0.27
-1.74
-2.73
-3.63
-5.78
-10.15
-16.75
-24.66
-32.42
-38.64
-42.57
-44.23
-44.3
-43.72
-43.42
-44.08
-46.11
-49.57
-53.99
-58.27
-60.72
-59.46
-52.99
-40.84
-24.03
-4.85
13.82
29.58
41.19
48.73
53.19
55.7
56.9
56.75
54.9
51.24
46.2
40.7
35.76
31.98
29.28
26.96
24.2
20.66
16.7
13.19
11.12
11.03
12.74
15.47
18.23
20.31
21.5
21.98
22.16
22.29
22.39
22.34
22.06
21.66
21.35
21.2
21.02
20.37
18.72
15.57
10.78
4.64
-2.14
-8.62
-13.89
-17.49
-19.61
-21.11
-23.39
-27.75
-34.85
-44.23
-54.34
-62.78
-67
-65.15
-56.49
-41.76
-22.86
-2.38
17.05
33.36
45.29
52.62
55.95
56.44
55.42
54.1
53.09
52.38
51.52
49.83
46.8
42.34
36.8
30.95
25.74
21.98
19.97
19.42
19.6
19.63
18.91
17.34
15.13
12.6
9.9
6.97
3.8
0.62
-2.19
-4.36
-6.08
-7.9
-10.39
-13.39
-15.85
-16.21
-13.44
-7.89
-1.54
2.65
2.01
-4.76
-17.15
-32.92
-49
-62.3
-70.29
-71.38
-65.29
-52.98
-36.44
-18.22
-0.6
14.86
27.47
37.19
43.97
47.55
47.52
43.64
36.26
26.48
15.76
5.58
-3
-9.54
-14.15
-17.2
-19.12
-20.34
-21.15
-21.84
-22.68
-23.94
-25.79
-28.28
-31.2
-34.11
-36.41
-37.34
-36.37
-33.53
-29.59
-26.01
-24.43
-25.86
-30.11
-35.63
-40.06
-41.44
-39.07
-33.79
-27.6
-22.61
-20.3
-21.22
-25.15
-31.27
-38.37
-44.77
-48.52
-47.86
-42
-31.57
-18.41
-4.78
7.71
18.54
28.05
36.68
44.18
49.63
52.09
51.3
47.98
43.53
39.13
35.15
31.15
26.44
20.79
14.88
9.94
7.05
6.46
7.36
8.31
7.92
5.59
1.75
-2.45
-5.7
-7.14
-6.51
-4.19
-0.83
2.91
6.41
9.17
10.69
10.68
9.03
5.92
1.71
-3.08
-7.82
-11.92
-14.78
-15.99
-15.55
-14.09
-12.73
-12.77
-15.05
-19.45
-24.83
-29.46
-31.66
-30.46
-25.68
-17.89
-7.84
3.77
16.3
28.92
40.62
50.18
56.54
59.21
58.49
55.34
50.85
45.94
41.13
36.58
32.46
29.03
26.69
25.61
25.52
25.71
25.38
24.07
21.89
19.5
17.69
16.99
17.41
18.6
20.04
21.27
22.16
22.71
22.99
23.01
22.68
21.77
20.06
17.37
13.68
9.35
5.14
1.97
0.5
0.7
1.63
1.65
-0.95
-7.28
-17.27
-29.78
-42.9
-54.56
-62.97
-66.95
-65.82
-59.56
-48.73
-34.52
-18.74
-3.37
9.96
20.39
27.89
33.16
36.94
39.62
41.11
40.85
38.33
33.34
26.16
17.51
8.38
-0.16
-7.04
-11.18
-11.84
-9.02
-3.88
1.46
4.66
4.04
-0.54
-7.73
-15.2
-20.79
-23.28
-22.67
-19.91
-16.2
-12.68
-10.2
-9.33
-10.2
-12.48
-15.12
-16.71
-16.22
-13.64
-10.29
-8.46
-10.47
-17.69
-29.77
-44.71
-59.52
-71.32
-78.1
-79.13
-74.8
-66.18
-54.61
-41.47
-28.05
-15.53
-4.81
3.69
10.03
14.58
17.58
18.96
18.58
16.38
12.8
8.89
5.92
4.87
5.99
8.83
12.5
15.98
18.39
19.1
17.92
15.2
11.85
9.16
8.14
9.07
11.24
13.28
13.81
12.22
8.81
4.53
0.44
-2.81
-5.16
-6.93
-8.56
-10.43
-12.81
-15.91
-19.58
-23.34
-26.49
-28.31
-28.47
-27.35
-25.97
-25.7
-27.77
-32.77
-40.34
-49.2
-57.39
-62.83
-63.66
-58.84
-48.34
-33.05
-14.59
5.03
23.74
39.68
51.41
58.09
59.79
57.51
52.83
47.48
42.95
40.03
38.83
38.84
39.21
39.11
37.97
35.68
32.68
29.67
27.37
26.26
26.31
27.11
28.03
28.5
28.26
27.45
26.59
26.23
26.66
27.76
28.89
29.23
28.13
25.49
21.86
18.18
15.34
13.8
13.37
13.35
12.89
11.18
7.78
2.73
-3.37
-9.41
-13.99
-16.05
-15.45
-13.22
-11.38
-12.14
-16.91
-25.67
-36.77
-47.43
-54.77
-56.68
-52.43
-42.81
-29.66
-15.07
-0.85
11.92
22.86
31.9
39.05
44.23
47.29
48.13
46.89
43.7
38.84
32.76
26.31
20.73
17.36
17.01
19.38
23.03
25.87
26.26
23.72
19.11
14.05
9.9
7.12
5.26
3.43
1.04
-1.78
-4.41
-6.22
-6.92
-6.77
-6.5
-6.85
-8.35
-11.09
-14.68
-18.43
-21.5
-23.11
-22.89
-20.96
-18.12
-15.67
-15.21
-18.07
-24.63
-33.96
-43.82
-51.37
-54
-50.26
-40.42
-26.2
-10.11
5.5
19.03
29.75
37.53
42.53
44.89
44.7
42.11
37.39
30.93
23.13
14.5
5.62
-2.7
-9.41
-13.6
-14.83
-13.49
-10.76
-8.13
-6.69
-6.91
-8.59
-11.26
-14.52
-18.18
-22.2
-26.45
-30.49
-33.54
-34.87
-34.13
-31.59
-28.24
-25.46
-24.54
-26.21
-30.28
-35.45
-39.92
-42.14
-41.55
-38.96
-36.01
-34.39
-35.13
-38.2
-42.79
-47.78
-52.12
-54.95
-55.4
-52.5
-45.46
-33.91
-18.41
-0.53
17.51
33.39
45.31
52.47
55.1
54.28
51.52
48.25
45.39
43.2
41.39
39.48
37.06
34.05
30.7
27.23
23.76
20.08
16.03
11.69
7.54
4.22
2.26
1.71
2
2.26
1.76
0.42
-1.29
-2.61
-3.03
-2.75
-2.54
-3.38
-5.74
-9.16
-12.39
-14
-13.15
-10.09
-6.18
-3.37
-3.51
-7.63
-15.67
-26.58
-38.76
-50.43
-59.84
-65.4
-65.76
-60.01
-48.01
-30.74
-10.29
10.55
29.13
43.62
53.59
59.76
63.34
65.4
66.47
66.5
65.3
62.81
59.19
54.67
49.5
44
38.72
34.5
32.11
31.86
33.15
34.66
34.9
33.06
29.38
25.02
21.27
18.83
17.49
16.48
14.92
12.19
8.12
2.85
-3.21
-9.29
-14.24
-16.88
-16.69
-14.37
-11.98
-12.14
-16.97
-26.87
-40.18
-53.87
-64.6
-69.95
-69.04
-62.35
-51.32
-37.7
-23.14
-8.89
4.25
15.79
25.41
32.67
37.09
38.11
35.39
29.09
20.01
9.34
-1.47
-11.09
-18.57
-23.37
-25.36
-24.89
-22.76
-20.1
-18.12
-17.63
-18.69
-20.57
-22.09
-22.25
-20.66
-17.66
-14.1
-10.9
-8.7
-7.72
-7.95
-9.26
-11.48
-14.17
-16.66
-18.22
-18.38
-17.26
-15.6
-14.5
-14.95
-17.54
-22.2
-28.42
-35.35
-41.8
-46.44
-47.98
-45.44
-38.47
-27.66
-14.35
-0.32
12.73
23.63
31.81
37.36
40.71
42.44
42.98
42.43
40.72
37.86
34.22
30.57
27.83
26.48
26.11
25.51
23.35
18.93
12.88
6.96
3.09
2.38
4.47
7.72
10.19
10.62
8.96
6.2
3.8
2.91
4.05
6.97
10.78
14.25
16.18
15.71
12.59
7.37
1.2
-4.53
-8.74
-11.08
-11.99
-12.53
-13.98
-17.36
-23.14
-31.08
-40.19
-48.94
-55.42
-57.7
-54.32
-44.66
-29.29
-10
10.45
29.09
43.62
53.14
58.38
61.11
63.26
65.77
68.17
68.93
66.54
60.54
51.88
42.56
34.6
29.07
25.77
23.65
21.65
19.42
17.5
16.82
17.98
20.73
23.93
26.18
26.45
24.71
21.89
19.43
18.54
19.74
22.54
25.7
27.76
27.67
25.12
20.6
15.13
9.76
5.4
2.35
0.14
-2.42
-6.95
-14.88
-26.71
-41.62
-57.52
-71.69
-81.59
-85.57
-83.21
-75.18
-62.92
-48.27
-33.06
-18.9
-6.85
2.69
9.98
15.54
19.7
22.29
22.77
20.68
16.27
10.58
5.16
1.48
0.25
1.23
3.36
5.34
6.03
4.85
1.72
-3.01
-8.75
-14.82
-20.51
-25.38
-29.23
-32.05
-33.79
-34.29
-33.24
-30.48
-26.34
-21.77
-18.08
-16.36
-16.86
-18.77
-20.68
-21.26
-19.98
-17.43
-14.84
-13.37
-13.68
-15.77
-19.39
-24.34
-30.36
-36.88
-42.62
-45.65
-44.08
-37.02
-25.06
-10.3
4.66
17.61
27.42
34.01
37.87
39.46
39.03
36.9
33.49
29.66
26.25
23.75
22.08
20.72
19.12
17.14
15.11
13.52
12.7
12.56
12.67
12.52
11.79
10.38
8.28
5.44
1.83
-2.24
-6.06
-8.65
-9.14
-7.37
-4.07
-0.69
1.38
1.39
-0.49
-3.43
-6.52
-9.3
-11.86
-14.52
-17.38
-20.09
-21.96
-22.4
-21.34
-19.4
-17.64
-17.23
-18.94
-22.84
-28.3
-34.01
-38.23
-39.1
-35.1
-25.56
-11.09
6.53
24.7
40.87
53.4
61.93
67.23
70.48
72.5
73.33
72.41
69.24
63.92
57.25
50.35
44.05
38.54
33.38
28.02
22.43
17.17
13.24
11.54
12.27
14.87
18.19
20.95
22.25
21.92
20.33
18.3
16.61
15.78
15.88
16.57
17.24
17.37
16.55
14.64
11.81
8.43
5.01
2.08
-0.06
-1.5
-2.81
-5
-9.16
-15.95
-25.43
-36.92
-49.06
-60.12
-68.25
-71.79
-69.73
-61.97
-49.41
-33.75
-17.03
-1.06
12.84
23.92
31.83
36.32
37.18
34.45
28.59
20.57
11.54
2.55
-5.78
-13.15
-19.45
-24.4
-27.49
-28.27
-26.66
-23.28
-19.34
-16.29
-15.2
-16.42
-19.45
-23.24
-26.66
-29
-30.15
-30.49
-30.68
-31.35
-32.9
-35.42
-38.69
-42.31
-45.79
-48.48
-49.64
-48.61
-45
-38.99
-31.54
-24.25
-19.03
-17.49
-20.22
-26.55
-34.67
-42.26
-47.29
-48.52
-45.58
-38.82
-28.87
-16.43
-2.4
12.14
25.96
37.82
46.77
52.39
54.63
53.69
50
44.11
36.83
29.28
22.66
17.78
14.9
13.6
13.17
13.22
13.77
15.19
17.71
20.93
23.7
24.61
22.65
17.74
10.9
3.69
-2.39
-6.43
-8.23
-8.18
-6.91
-5.02
-3.03
-1.36
-0.37
-0.23
-1.12
-3.2
-6.61
-11.27
-16.73
-22.19
-26.64
-29.47
-30.85
-31.78
-33.63
-37.42
-43.23
-50.11
-56.45
-60.55
-61.04
-57.06
-48.24
-34.89
-18.05
0.5
18.64
34.42
46.69
55.31
60.91
64.35
66.27
66.9
66.18
64.16
61.1
57.46
53.67
50.09
46.95
44.39
42.44
40.89
39.25
36.91
33.53
29.27
24.87
21.22
18.93
17.95
17.61
17
15.58
13.43
11.19
9.53
8.78
8.73
8.85
8.62
7.81
6.47
4.79
2.88
0.79
-1.37
-3.26
-4.54
-5.31
-6.37
-9.21
-15.37
-25.62
-39.31
-54.29
-67.61
-76.69
-80.04
-77.48
-69.71
-57.7
-42.35
-24.62
-5.89
11.79
26.12
35.34
38.81
37.2
32.05
25.2
18.06
11.55
6.03
1.64
-1.54
-3.54
-4.6
-5.17
-5.77
-6.8
-8.34
-10.24
-12.21
-13.95
-15.25
-16.03
-16.27
-15.98
-15.27
-14.28
-13.14
-11.91
-10.57
-9.12
-7.64
-6.42
-5.88
-6.41
-8.2
-11.17
-14.96
-18.97
-22.57
-25.23
-26.63
-26.74
-25.86
-24.65
-24.06
-25.14
-28.66
-34.89
-43.26
-52.37
-60.35
-65.29
-65.71
-60.89
-50.98
-37.02
-20.61
-3.65
12.07
25.25
35.31
42.47
47.38
50.66
52.41
52.35
50.21
46.26
41.47
37.12
34.14
32.54
31.49
29.95
27.41
24.31
21.75
20.64
21.16
22.45
23.29
22.78
20.83
18.05
15.3
13.17
11.76
10.72
9.56
7.94
5.7
2.9
-0.11
-2.75
-4.31
-4.3
-2.72
-0.22
2.17
3.47
3.07
0.87
-3.02
-8.43
-15.08
-22.31
-28.91
-33.3
-34.22
-31.63
-26.94
-22.72
-21.44
-24.27
-30.5
-37.91
-43.69
-45.47
-41.94
-32.81
-18.66
-0.54
20.08
41.31
60.96
77.02
88.22
94.43
96.56
96.06
94.2
91.57
88.09
83.39
77.25
69.82
61.54
52.93
44.33
35.87
27.64
19.87
13.04
7.64
3.91
1.57
-0.11
-1.89
-4.01
-6.04
-7.14
-6.59
-4.39
-1.39
1.12
2.08
1.27
-0.62
-2.52
-3.51
-3.39
-2.6
-1.96
-2.18
-3.59
-6.09
-9.26
-12.35
-14.5
-14.97
-13.61
-11.15
-9.3
-10.09
-15.04
-24.47
-37.21
-50.89
-62.78
-70.55
-72.71
-68.77
-59.09
-44.69
-27.09
-8.07
10.54
27.15
40.63
50.41
56.33
58.47
56.98
52.18
44.6
34.99
24.22
13.15
2.68
-6.31
-12.98
-16.68
-17.19
-14.94
-11.03
-6.97
-4.2
-3.68
-5.54
-9.27
-13.98
-18.85
-23.29
-27.04
-29.96
-32.06
-33.34
-33.93
-34.16
-34.48
-35.23
-36.61
-38.54
-40.74
-42.87
-44.6
-45.67
-45.84
-45.08
-43.59
-41.87
-40.52
-40.14
-41.14
-43.56
-47.14
-51.4
-55.52
-58.41
-58.73
-55.14
-46.77
-33.7
-17.03
1.4
19.6
36.06
49.9
60.72
68.33
72.46
72.89
69.76
63.77
56.12
48.21
41.18
35.58
31.44
28.57
26.78
25.8
25.25
24.57
23.16
20.71
17.42
13.9
10.9
8.86
7.79
7.34
7.17
7.02
6.71
5.91
4.22
1.33
-2.61
-6.76
-10.06
-11.78
-12.05
-11.91
-12.73
-15.48
-20.07
-25.32
-29.6
-31.67
-31.29
-29.27
-27.03
-26.05
-27.24
-30.67
-35.63
-40.9
-44.93
-46.23
-43.48
-35.76
-22.78
-4.99
16.29
38.63
58.79
73.35
79.83
77.61
68.15
54.67
40.86
29.58
22.08
18.16
16.84
17.21
18.93
22.17
27.04
33.03
38.89
43.04
44.18
41.95
36.91
30.32
23.58
17.69
13.14
9.97
8.04
7.32
7.75
9.14
11.09
13.14
14.95
16.36
17.41
18.18
18.6
18.61
18.33
18.04
17.87
17.49
15.79
11.32
3.24
-7.83
-19.7
-29.44
-34.94
-36.02
-34.56
-33.47
-35.02
-39.66
-46.04
-52.14
-56.41
-58.33
-57.98
-55.26
-49.42
-39.54
-25.72
-9.63
5.88
17.98
25.23
28.08
28.15
27.06
25.51
23.06
19.01
13.29
6.92
1.49
-1.63
-1.99
-0.16
2.6
4.93
5.99
5.52
3.81
1.41
-1.15
-3.55
-5.7
-7.64
-9.37
-10.68
-11.5
-12.02
-12.65
-13.88
-15.84
-18.06
-19.55
-19.39
-17.34
-14.19
-11.42
-10.44
-11.97
-15.6
-20.24
-24.54
-27.53
-28.91
-29.01
-28.59
-28.52
-29.59
-32.26
-36.57
-42.07
-47.77
-52.21
-53.71
-50.78
-42.57
-29.34
-12.51
5.61
22.48
36.19
45.82
51.56
54.31
55.16
54.81
53.45
50.96
47.12
41.93
35.68
29.03
22.8
17.84
14.68
13.45
13.73
14.67
15.34
14.94
13.15
10.21
6.9
4.16
2.63
2.25
2.25
1.58
-0.38
-3.39
-6.51
-8.71
-9.54
-9.52
-9.75
-11.14
-13.59
-16.03
-17.11
-15.99
-13.07
-9.69
-7.44
-7.28
-9.21
-12.38
-15.75
-18.65
-20.84
-22.34
-23.08
-22.88
-21.71
-19.96
-18.65
-19.07
-22.16
-27.7
-34.15
-38.94
-39.49
-34.18
-23.02
-7.69
9.23
25.2
38.51
48.33
54.55
57.31
56.91
53.9
49.25
44.39
40.74
39.2
39.66
41.18
42.54
42.84
41.96
40.48
39.07
37.94
36.61
34.18
30.02
24.28
18.04
12.9
10.21
10.41
12.78
15.92
18.5
20
20.75
21.55
23.08
25.24
27.33
28.44
28.13
26.59
24.43
22.21
20.01
17.41
13.85
8.92
2.82
-3.75
-9.88
-14.71
-17.75
-19.02
-19.06
-18.92
-19.93
-23.28
-29.61
-38.64
-49.06
-58.89
-65.96
-68.7
-66.54
-59.92
-49.94
-37.88
-24.76
-11.3
1.72
13.37
22.46
27.97
29.51
27.6
23.47
18.57
13.95
9.9
6.28
3.02
0.6
-0.2
1.25
4.69
8.88
12.09
12.79
10.42
5.52
-0.68
-7.03
-12.97
-18.39
-23.33
-27.53
-30.38
-31.29
-30.16
-27.71
-25.09
-23.57
-23.88
-25.87
-28.58
-30.64
-30.87
-28.85
-25.16
-21.3
-19.17
-20.34
-25.35
-33.27
-41.96
-48.89
-52.24
-51.65
-48.49
-45.2
-44.33
-47.46
-54.54
-63.96
-73.06
-79
-79.45
-73.32
-60.89
-43.58
-23.53
-2.97
16.36
33.3
47.16
57.53
64.06
66.65
65.61
61.81
56.61
51.39
47.13
44.06
41.74
39.32
36.24
32.45
28.42
25.01
22.95
22.64
23.94
26.04
27.65
27.49
24.85
19.8
13.24
6.33
0.01
-5.41
-10.23
-14.83
-19.32
-23.32
-26.3
-27.89
-28.14
-27.31
-25.47
-22.39
-17.72
-11.72
-5.67
-1.64
-1.43
-5.58
-12.92
-21.04
-27.57
-31.28
-32.59
-33.27
-35.25
-39.75
-46.89
-56.05
-66.23
-76.51
-85.86
-92.85
-95.71
-92.75
-83.24
-67.93
-49.07
-29.69
-12.52
0.84
10.38
17.35
23.71
31.24
40.9
52.69
65.71
78.41
89.13
96.57
100.13
100.02
97.16
92.79
88.11
83.86
80.23
76.91
73.22
68.54
62.55
55.53
48.34
42.11
37.69
35.24
34.29
33.97
33.58
32.79
31.73
30.66
29.7
28.55
26.62
23.39
18.64
12.65
6.11
-0.25
-6.04
-11.32
-16.43
-21.73
-27.12
-32.05
-35.7
-37.59
-38.14
-38.72
-41.32
-47.62
-58.01
-71.08
-83.91
-92.96
-95.4
-90.16
-78.28
-62.41
-45.62
-30.29
-17.47
-6.98
1.94
9.92
16.94
22.4
25.5
25.74
23.14
18.3
12.22
5.93
0.46
-3.41
-5.18
-4.64
-1.94
2.39
7.42
11.96
14.88
15.47
13.73
10.45
6.92
4.36
3.42
3.95
5.12
5.9
5.55
3.97
1.6
-0.97
-3.37
-5.74
-8.53
-12.12
-16.37
-20.5
-23.5
-24.7
-24.2
-22.85
-21.73
-21.44
-21.87
-22.45
-22.65
-22.53
-22.92
-25.1
-30.12
-38.25
-48.58
-59.05
-67.03
-70.12
-66.88
-57.35
-43.16
-26.82
-10.85
3.08
14.43
23.51
30.88
36.96
41.9
45.69
48.29
49.67
49.64
48.05
44.88
40.6
36.21
32.95
31.89
33.28
36.52
40.22
42.8
43.04
40.57
35.87
30.12
24.8
21.22
19.97
20.66
22.13
22.94
22.09
19.44
15.76
12.34
10.4
10.51
12.42
15.3
18.05
19.65
19.44
17.16
12.96
7.26
0.67
-6
-11.93
-16.26
-18.3
-17.81
-15.35
-12.38
-10.98
-13.15
-19.92
-30.82
-43.93
-56.49
-65.83
-70.27
-69.38
-63.66
-54
-41.24
-26.07
-9.23
8.39
25.64
41.26
54.29
64.25
71.06
74.92
76.07
74.85
71.61
66.92
61.44
55.81
50.53
45.94
42.24
39.61
38.06
37.3
36.7
35.35
32.55
28.08
22.48
16.82
12.26
9.29
7.58
6.3
4.61
2.33
-0.07
-1.81
-2.43
-2.08
-1.51
-1.52
-2.39
-3.94
-5.84
-8.2
-11.67
-16.9
-23.86
-31.42
-37.78
-41.51
-42.57
-42.64
-44.2
-49.25
-58.11
-69.22
-79.94
-87.72
-91.02
-89.36
-82.98
-72.49
-58.64
-42.44
-25.19
-8.33
6.76
18.98
27.72
32.8
34.57
33.91
32.1
30.55
30.26
31.4
33.35
35
35.46
34.51
32.67
30.72
29.16
27.92
26.52
24.55
21.98
19.11
16.22
13.4
10.33
6.6
2.18
-2.34
-5.85
-7.26
-6.13
-3.09
0.43
2.65
2.36
-0.6
-5.42
-10.77
-15.58
-19.45
-22.66
-25.72
-28.91
-32
-34.37
-35.56
-35.65
-35.39
-35.92
-38.24
-42.73
-48.96
-55.69
-61.14
-63.56
-61.7
-55.2
-44.62
-31.23
-16.59
-1.89
12.18
25.37
37.46
48.09
56.72
62.99
67.03
69.28
70.19
69.74
67.58
63.24
56.86
49.32
42.06
36.45
33.24
32.4
33.27
35.1
37.19
39.05
40.15
39.84
37.65
33.52
28.34
23.73
21.64
23.38
28.88
36.48
43.56
47.72
47.8
44.47
39.67
35.51
33.14
32.3
31.64
29.58
25.11
18.04
8.88
-1.53
-12.24
-22.21
-30.3
-35.41
-36.85
-34.91
-30.95
-27.18
-26.01
-29.1
-36.75
-47.57
-58.73
-66.84
-69.08
-64.12
-52.61
-36.91
-20.2
-5.29
6.24
14.39
20.21
25
29.47
33.31
35.64
35.69
33.35
29.31
24.55
19.75
14.96
9.92
4.5
-0.8
-4.89
-6.66
-5.52
-1.99
2.5
6.19
7.71
6.52
2.94
-2.16
-7.67
-12.34
-15.02
-15
-12.22
-7.49
-2.28
1.82
3.66
2.9
0.02
-4.1
-8.65
-13.1
-17.16
-20.53
-22.87
-24.01
-24.34
-25
-27.54
-33.15
-41.9
-52.5
-62.63
-69.82
-72.38
-69.82
-62.65
-51.79
-38.14
-22.57
-6.21
9.24
21.76
29.55
31.85
29.35
24
18.03
13.02
9.36
6.27
2.69
-2
-7.57
-13.08
-17.48
-20.15
-21
-20.36
-18.7
-16.38
-13.61
-10.61
-7.65
-5.08
-3.21
-2.09
-1.56
-1.35
-0.94
0.19
2.39
5.66
9.44
12.58
13.8
12.13
7.45
0.5
-7.45
-15.3
-22.39
-28.5
-33.43
-36.71
-37.88
-36.99
-35.14
-34.3
-36.45
-42.4
-51.08
-59.73
-65.11
-64.87
-58.43
-46.85
-32.01
-15.67
0.98
17.18
32.09
44.53
53.15
57.11
56.62
52.91
47.82
43
39.34
36.71
34.27
31.15
26.84
21.59
16.17
11.63
8.74
7.87
8.86
11.35
14.72
18.33
21.5
23.58
24.17
23.12
20.71
17.65
14.88
13.29
13.34
14.89
17.18
19.09
19.58
18.27
15.58
12.65
10.71
10.37
11.33
12.43
12.33
10.21
6.13
0.87
-4.56
-9.22
-12.58
-14.37
-14.62
-13.83
-13.05
-13.78
-17.43
-24.65
-34.94
-46.8
-58.17
-67.14
-72.28
-72.76
-68.13
-58.41
-44.2
-26.84
-8.37
9.06
23.69
34.89
43.06
49.23
54.26
58.32
60.89
61.05
58.05
51.84
43.4
34.52
27.33
23.49
23.62
26.98
31.76
35.91
37.93
37.48
35.11
31.76
28.04
24.02
19.47
14.38
9.32
5.24
2.91
2.33
2.68
2.65
1.03
-2.5
-7.47
-12.87
-17.76
-21.69
-24.69
-26.89
-28.2
-28.34
-27
-24.4
-21.64
-20.42
-22.48
-28.7
-38.59
-50.3
-61.19
-68.69
-71.15
-68.14
-60.45
-49.56
-37.16
-24.7
-13.01
-2.44
7.06
15.54
22.84
28.32
30.89
29.4
23.16
12.6
-0.76
-14.51
-26.25
-34.24
-37.85
-37.54
-34.33
-29.35
-23.51
-17.59
-12.27
-8.11
-5.32
-3.61
-2.35
-0.93
0.89
2.68
3.76
3.74
2.77
1.41
0.16
-1.06
-2.9
-6.11
-11
-17.05
-23.06
-27.81
-30.56
-31.37
-30.91
-30.07
-29.62
-30.02
-31.34
-33.46
-36.15
-39.24
-42.64
-46.29
-49.87
-52.66
-53.41
-50.54
-42.8
-29.88
-12.73
6.64
25.77
42.58
55.72
64.54
69.01
69.49
66.63
61.43
54.98
48.28
41.89
35.91
30.21
24.81
20.08
16.54
14.69
14.56
15.65
17.12
18.18
18.28
17.36
15.72
13.96
12.72
12.47
13.16
14.22
14.72
13.92
11.72
8.87
6.67
6.21
7.75
10.44
12.71
13
10.62
6.01
0.53
-4.32
-7.69
-9.69
-11.22
-13.37
-16.83
-21.6
-27.14
-32.74
-37.93
-42.62
-47.01
-51.22
-54.87
-57.17
-56.99
-53.14
-44.84
-32.26
-16.55
0.23
15.66
27.89
36.27
41.41
44.66
47.31
49.9
52.17
53.53
53.61
52.59
50.94
49.07
47.12
45.09
43.12
41.7
41.47
42.75
45.17
47.74
49.35
49.24
47.32
44.03
40.1
36.18
32.71
30.08
28.45
27.75
27.57
27.27
26.27
24.32
21.45
17.83
13.56
8.67
3.26
-2.15
-6.71
-9.39
-9.73
-8.33
-6.93
-7.68
-12.31
-21.25
-33.4
-46.54
-58.08
-65.92
-68.75
-66.31
-59.16
-48.47
-35.66
-22.14
-9.21
2.24
11.69
18.9
23.76
26.23
26.36
24.51
21.45
18.22
15.66
14.16
13.42
12.76
11.56
9.69
7.53
5.65
4.24
2.96
1.18
-1.52
-4.99
-8.59
-11.59
-13.62
-14.77
-15.47
-16.06
-16.54
-16.77
-16.64
-16.43
-16.7
-18.03
-20.65
-24.49
-29.03
-33.49
-37.09
-39.52
-41.28
-43.71
-48.45
-56.58
-67.61
-79.49
-89.15
-93.78
-91.86
-83.56
-70.42
-54.39
-37.16
-19.82
-3.16
12.05
24.88
34.49
40.49
43.14
43.32
42.03
39.95
37.2
33.39
28
21.14
13.73
7.53
4.28
4.8
8.48
13.47
17.5
18.76
16.56
11.49
4.96
-1.43
-6.34
-9.07
-9.65
-8.79
-7.55
-7.06
-8
-10.38
-13.57
-16.7
-19.2
-21
-22.53
-24.34
-26.63
-29.07
-31.06
-32.14
-32.45
-32.73
-34.02
-37.05
-41.64
-46.57
-49.8
-49.33
-43.87
-33.35
-18.93
-2.58
13.53
27.74
39.24
48.13
55.01
60.5
64.75
67.32
67.44
64.54
58.74
50.95
42.62
35.21
29.74
26.5
25.02
24.52
24.26
23.95
23.67
23.8
24.71
26.54
29.05
31.71
33.9
34.97
34.32
31.67
27.06
20.96
14.32
8.34
3.96
1.41
0.08
-1.07
-2.81
-5.21
-7.77
-9.94
-11.76
-13.92
-17.19
-21.62
-26.3
-29.79
-31.24
-31.25
-31.89
-35.59
-43.7
-55.4
-67.85
-77.4
-81.22
-78.21
-68.98
-55.14
-38.53
-20.75
-3.1
13.39
27.94
40.22
50.48
59.35
67.4
74.6
80.18
83.04
82.34
78.1
71.37
63.85
57.25
52.82
50.91
51.11
52.52
54.02
54.52
53.29
50.05
44.99
38.89
32.92
28.34
25.99
25.82
26.85
27.58
26.64
23.56
18.97
14.15
10.22
7.51
5.62
3.81
1.67
-0.79
-3.32
-5.86
-8.75
-12.4
-16.86
-21.52
-25.52
-28.43
-30.9
-34.31
-40.05
-48.56
-58.88
-68.92
-76.45
-79.86
-78.5
-72.57
-62.79
-50.16
-35.82
-21.08
-7.28
4.49
13.64
19.97
23.44
23.89
21.06
14.98
6.44
-2.95
-11.19
-16.66
-18.7
-17.75
-14.97
-11.5
-7.95
-4.42
-0.99
2.02
3.98
4.16
2.3
-0.93
-4.18
-5.86
-4.98
-1.63
2.89
6.67
8.09
6.5
2.57
-2.1
-5.71
-7.18
-6.61
-5.04
-3.89
-4.19
-6.25
-9.69
-13.86
-18.23
-22.49
-26.4
-29.58
-31.67
-32.56
-32.75
-33.52
-36.55
-42.91
-52.26
-62.51
-70.41
-72.85
-68.06
-56.32
-39.77
-21.52
-4.5
9.34
19.24
25.35
28.3
28.92
28.07
26.54
24.86
23.21
21.53
19.59
17.27
14.69
12.12
9.63
7.07
4.11
0.62
-2.97
-5.65
-6.15
-3.58
2
9.63
17.86
25.51
31.9
36.93
40.7
43.04
43.36
40.86
35.07
26.19
15.28
4.02
-5.65
-11.81
-12.95
-8.43
1.03
13.27
25.03
32.81
34.13
28.62
18.3
6.78
-2.22
-6.4
-5.75
-2.39
0.63
0.84
-2.62
-8.81
-15.61
-20.78
-22.92
-21.66
-17.38
-10.72
-2.26
7.21
16.47
23.9
27.94
27.85
24.4
19.59
15.93
15.17
17.4
21.09
23.94
24.13
21.2
16.21
11.07
7.53
6.47
7.72
10.45
13.65
16.61
18.99
20.55
20.86
19.37
15.86
10.75
5.4
1.72
1.47
5.42
12.84
21.64
29.28
33.73
34.19
31.34
26.91
22.86
20.58
20.42
21.68
23.01
23.17
21.41
17.9
13.58
9.74
7.49
7.32
8.91
11.11
12.39
11.18
6.4
-2.25
-14.12
-27.69
-40.9
-51.59
-57.97
-58.98
-54.62
-45.96
-35.09
-24.42
-15.93
-10.4
-7.2
-4.71
-1.15
4.43
11.65
19.14
25.29
29.08
30.44
30.01
28.55
26.43
23.62
19.95
15.5
10.66
6.22
3.06
1.66
1.88
2.87
3.21
1.45
-3.16
-10.19
-17.94
-24.03
-26.37
-24.15
-18.28
-11.09
-5.32
-2.99
-4.84
-10.2
-17.58
-25.3
-31.83
-36.02
-37.16
-35.16
-30.85
-26.03
-23.17
-24.52
-30.98
-41.43
-53.02
-62.27
-66.49
-64.78
-58.32
-49.45
-40.44
-32.56
-25.74
-19.12
-11.68
-2.89
7.04
17.19
26.24
32.73
35.43
33.65
27.49
18.1
7.48
-1.93
-8.1
-10.02
-8.07
-3.97
0.07
2.37
2.37
0.78
-1.03
-1.74
-0.75
1.66
4.48
6.57
6.93
4.92
0.44
-6.07
-13.55
-20.55
-25.71
-28.32
-28.66
-27.95
-27.74
-29.19
-32.51
-37.13
-42.15
-46.86
-50.84
-53.91
-56.06
-57.33
-58.1
-59.23
-61.91
-66.9
-73.81
-80.81
-84.94
-83.37
-74.57
-59.04
-39.1
-17.89
1.91
18.81
32.44
42.93
50.34
54.47
55.14
52.72
48.29
43.46
39.66
37.55
36.89
36.95
37.09
37.09
37.24
37.86
38.91
39.89
39.99
38.59
35.62
31.54
27.19
23.45
20.96
19.91
20.06
20.84
21.47
21.18
19.48
16.52
13.04
10.11
8.69
9.29
11.68
15.09
18.53
21.11
22.19
21.53
18.92
14.42
8.22
0.72
-7.37
-15.14
-21.65
-26.17
-28.51
-29.49
-30.87
-35.03
-43.74
-57.08
-72.97
-87.53
-96.57
-97.22
-89.05
-74.05
-55.67
-37.23
-20.79
-7.01
4.46
14.21
22.47
28.84
32.61
33.08
30.07
24.45
18.01
13.33
12.58
16.58
24.25
33.08
40.19
43.73
43.54
41
38.06
36.04
35.31
35.4
35.69
35.93
36.25
36.76
37.15
36.81
35.13
32.05
28.23
24.8
22.71
22.16
22.68
23.34
23.1
21.14
17.04
10.92
3.47
-3.98
-9.97
-13.32
-13.82
-12.36
-10.58
-9.96
-11.15
-13.65
-16.32
-18.31
-19.65
-21.36
-24.76
-30.7
-39.09
-48.97
-58.92
-67.41
-73.05
-74.62
-71.15
-62.08
-47.57
-28.76
-7.67
13.32
32.16
47.54
59.15
67.27
72.45
75.1
75.26
72.85
67.97
61.16
53.64
46.89
42.23
40.26
40.73
42.57
44.45
45.28
44.58
42.59
39.97
37.55
35.95
35.43
35.82
36.64
37.36
37.43
36.55
34.7
32.1
29.12
26.05
22.99
19.83
16.38
12.52
8.31
3.92
-0.32
-4.18
-7.7
-11.08
-14.69
-18.72
-23.09
-27.49
-31.66
-35.78
-40.53
-46.91
-55.49
-65.75
-75.74
-82.6
-83.48
-76.96
-63.75
-46.47
-28.49
-12.45
0.63
11.33
20.92
30.2
38.9
45.84
49.66
49.67
46.28
40.7
34.55
29.46
26.69
27.06
30.6
36.41
42.65
47.18
48.34
45.68
40.13
33.48
27.3
22.32
18.4
14.97
11.63
8.28
5.01
1.76
-1.74
-5.66
-9.84
-13.65
-16.46
-18.18
-19.64
-22.21
-27.07
-34.36
-42.97
-51.1
-57.08
-60.31
-61.44
-61.84
-62.89
-65.29
-69.02
-73.47
-77.69
-80.55
-80.91
-77.69
-70.02
-57.77
-41.65
-23.02
-3.41
15.96
34.13
50.13
62.67
70.45
72.66
69.67
63.18
55.74
49.43
44.93
41.32
36.94
30.59
22.46
14.21
8.18
6.14
8.34
13.5
19.45
24.21
26.81
27.42
27.1
26.87
27.07
27.17
26.07
22.74
16.78
8.72
-0.22
-8.76
-16.07
-22
-26.84
-30.97
-34.65
-37.99
-41.12
-44.52
-48.79
-54.28
-60.68
-66.84
-71.23
-72.74
-71.45
-68.72
-66.76
-67.48
-71.5
-77.87
-84.3
-88.12
-87.25
-80.78
-69.1
-53.44
-35.25
-15.7
4.26
23.76
41.77
56.93
67.79
73.31
73.31
68.53
60.63
51.5
42.9
35.95
31.05
27.93
25.99
24.62
23.51
22.59
21.81
21.02
19.89
18.16
15.9
13.64
12.16
12.17
13.75
16.35
18.95
20.56
20.61
19.13
16.55
13.38
10.13
7.21
5.01
3.93
4.06
4.91
5.31
3.86
-0.51
-7.79
-16.83
-25.64
-32.27
-35.64
-36
-34.79
-33.95
-35.32
-39.88
-47.57
-57.16
-66.45
-72.77
-73.71
-67.93
-55.6
-38.47
-19.26
-0.75
15.12
27.67
37.27
44.86
51.3
56.91
61.5
64.69
66.27
66.4
65.59
64.39
63.06
61.42
59.07
55.85
52.25
49.23
47.88
48.61
50.74
52.6
52.24
48.5
41.59
33.17
25.55
20.57
18.77
19.22
20.1
19.71
17.26
13.08
8.12
3.4
-0.53
-3.68
-6.36
-8.74
-10.55
-11.52
-11.77
-12.27
-14.67
-20.7
-31.34
-45.98
-62.33
-77.16
-87.32
-90.73
-86.88
-76.63
-61.67
-43.88
-25
-6.53
10.18
24.02
34.3
40.88
44.07
44.37
42.17
37.8
31.58
23.94
15.64
7.71
1.14
-3.35
-5.4
-5.21
-3.43
-1.07
0.8
1.34
0.16
-2.51
-6.01
-9.48
-12.3
-14.22
-15.37
-16.19
-17.29
-19.43
-23.28
-29.18
-36.74
-44.65
-50.87
-53.56
-51.89
-46.74
-40.46
-36.12
-36.2
-41.67
-51.63
-63.7
-74.77
-81.98
-83.32
-78.13
-67.15
-52.25
-35.8
-20
-6.32
4.73
13.34
19.98
25.03
28.6
30.67
31.29
30.64
29.01
26.72
24.08
21.38
18.86
16.6
14.44
12.11
9.43
6.59
4.1
2.53
1.99
1.89
1.2
-0.91
-4.55
-8.81
-12.18
-13.37
-12.14
-9.47
-7.14
-6.8
-9.21
-13.81
-19.03
-22.93
-24.09
-22.13
-17.9
-13.14
-9.91
-9.88
-13.83
-21.43
-31.2
-40.93
-48.31
-51.48
-49.35
-41.71
-29.14
-12.78
5.84
24.89
42.46
56.81
66.57
71.27
71.34
68.04
62.95
57.53
52.62
48.41
44.7
41.23
37.86
34.63
31.69
29.17
27.07
25.28
23.56
21.57
19.03
15.84
12.11
8.19
4.48
1.24
-1.53
-4.02
-6.34
-8.36
-9.59
-9.54
-8.13
-5.89
-3.83
-3.01
-3.98
-6.55
-9.92
-13.17
-15.68
-17.37
-18.61
-19.91
-21.95
-25.48
-31.31
-39.97
-51.42
-64.5
-76.72
-84.76
-85.49
-77.16
-60.18
-37.2
-12.27
10.48
27.96
38.9
43.8
44.45
43.12
41.62
40.9
40.76
40.31
38.46
34.43
28.23
20.88
14.22
10.49
11.85
19.59
33.66
52.45
72.88
90.91
102.72
105.88
100.07
87.36
71.34
55.92
44.06
36.93
33.68
32.09
29.74
25.07
18.1
10.17
3.24
-1.2
-2.92
-3.09
-3.91
-7.53
-14.94
-25.63
-37.82
-49.3
-58.13
-63.16
-63.88
-60.17
-52.19
-40.36
-25.63
-9.41
6.48
20.18
30.04
34.97
34.6
29.35
20.43
9.63
-1.08
-10.08
-16.66
-21.03
-23.85
-25.6
-26.21
-25.25
-22.6
-19.04
-16.25
-16.03
-19.32
-25.42
-32.25
-37.36
-39.14
-37.55
-33.96
-30.35
-28.21
-27.92
-28.85
-30.01
-30.7
-30.89
-31.02
-31.59
-32.79
-34.36
-35.68
-36.12
-35.48
-34.11
-32.81
-32.62
-34.37
-38.34
-44.18
-50.96
-57.4
-62.07
-63.69
-61.11
-53.61
-41.14
-24.45
-5.08
14.91
33.45
49.22
61.81
71.7
79.52
85.49
89
89.04
84.74
76.1
64.34
51.47
39.56
30
23.14
18.48
15.24
12.74
10.72
9.19
8.23
7.83
7.76
7.8
7.62
6.85
5.18
2.6
-0.54
-3.72
-6.36
-8.31
-10.11
-12.75
-17.17
-23.72
-31.77
-39.8
-46.02
-49.06
-48.56
-45.25
-40.69
-36.84
-35.44
-37.59
-43.5
-52.39
-62.45
-71.24
-76.04
-74.59
-65.54
-48.93
-26.25
-0.11
26.33
50.31
70
85.01
96.03
104.26
110.49
114.72
116.29
114.57
109.7
102.91
96.12
90.92
87.87
86.29
84.91
82.77
79.71
76.21
72.75
69.32
65.2
59.65
52.41
44.09
35.93
29.08
24.11
20.8
18.36
15.84
12.46
7.84
1.96
-4.84
-12
-18.76
-24.39
-28.45
-30.76
-31.47
-30.96
-29.94
-29.38
-30.56
-34.67
-42.39
-53.47
-66.47
-79.08
-88.67
-93.02
-90.73
-81.61
-66.45
-46.85
-24.93
-2.95
17.12
33.86
46.59
55.3
60.3
61.94
60.56
56.57
50.81
44.48
38.76
34.31
30.88
27.59
23.55
18.58
13.34
9
6.3
4.97
3.92
1.77
-2.09
-7.2
-12.33
-16.27
-18.51
-19.44
-20
-20.96
-22.74
-25.23
-27.92
-30.11
-31.03
-30
-26.85
-22.24
-17.68
-15.11
-16.13
-21.42
-30.54
-42.14
-54.44
-65.63
-74.01
-78
-76.42
-68.95
-56.46
-41
-24.97
-10.26
2.48
13.65
24.07
33.95
42.48
48.14
49.61
46.72
40.66
33.52
27.26
22.82
19.79
17.05
13.57
9.07
4.12
-0.4
-3.97
-6.78
-9.59
-13.23
-17.89
-23.13
-28
-31.51
-33.18
-33.25
-32.46
-31.74
-31.91
-33.36
-36.03
-39.51
-43.18
-46.39
-48.63
-49.63
-49.32
-47.95
-46.12
-44.91
-45.54
-48.89
-55.1
-63.09
-70.85
-76.02
-76.67
-71.86
-61.89
-47.99
-31.72
-14.42
3.03
20.04
36.04
50.26
61.9
70.29
75.13
76.52
74.89
70.85
65.04
58.12
50.61
42.98
35.73
29.27
24.18
20.98
20.04
21.26
23.91
26.64
28.1
27.54
25.22
22.38
20.51
20.41
21.66
22.71
21.7
17.49
10.18
1.08
-7.87
-14.91
-19
-19.97
-18.39
-15.38
-12.27
-10.48
-11.2
-14.97
-21.49
-29.56
-37.4
-43.32
-46.46
-47.14
-46.8
-47.4
-50.47
-56.49
-64.35
-71.6
-75.39
-73.35
-64.33
-48.7
-27.96
-4.09
20.98
45.59
68.2
87.22
101.17
109.04
110.73
107.37
101.11
94.45
89.58
87.57
88.11
89.71
90.45
88.61
83.51
75.67
66.41
57.27
49.37
43.15
38.35
34.31
30.43
26.45
22.2
17.69
12.99
8.36
4.23
1.06
-0.84
-1.61
-1.7
-1.82
-2.61
-4.47
-7.55
-11.75
-16.6
-21.32
-24.85
-26.22
-25.2
-22.75
-20.95
-22.19
-28.14
-38.69
-51.87
-64.63
-74.11
-78.56
-77.64
-71.98
-62.5
-49.8
-34.35
-16.8
1.68
19.29
34.07
44.63
50.71
53.09
53.15
52.12
50.45
47.81
43.53
37.3
29.81
22.57
17.29
15.11
16.04
18.83
21.58
22.53
20.68
16.09
9.61
2.32
-4.93
-11.61
-17.58
-22.82
-27.24
-30.78
-33.53
-35.85
-38.25
-40.91
-43.45
-44.86
-43.94
-40.17
-34.34
-28.52
-25.52
-27.66
-35.62
-48.06
-61.94
-73.62
-80.1
-80.01
-73.68
-62.83
-49.62
-35.92
-22.94
-11.18
-0.69
8.55
16.4
22.52
26.34
27.32
25.33
20.89
15.16
9.66
5.73
4.18
5.04
7.73
11.43
15.24
18.27
19.63
18.51
14.47
7.86
0.03
-7.02
-11.49
-12.58
-10.9
-8.13
-6.22
-6.56
-9.56
-14.84
-21.68
-29.41
-37.4
-44.88
-50.77
-53.89
-53.7
-50.84
-47.23
-45.43
-47.53
-53.88
-62.78
-71
-75.13
-73.03
-64.65
-51.79
-37.06
-22.72
-9.87
1.57
12.1
21.98
30.97
38.51
44.28
48.45
51.38
53.27
53.65
51.61
46.48
38.49
29.01
20.06
13.42
9.82
8.81
9.26
10.1
10.88
11.64
12.48
13.18
13.16
11.94
9.5
6.36
3.19
0.42
-2.03
-4.51
-7.13
-9.58
-11.43
-12.64
-13.75
-15.6
-18.74
-22.97
-27.24
-30.33
-31.52
-31.09
-30.06
-29.57
-30.34
-32.44
-35.67
-39.84
-44.89
-50.65
-56.32
-60.32
-60.51
-55.04
-43.12
-25.71
-5.37
14.63
31.38
43.41
50.87
55.23
58.21
60.96
63.67
65.73
66.4
65.39
63.02
60.04
57.13
54.52
52.18
49.89
47.58
45.37
43.43
41.8
40.13
37.89
34.62
30.36
25.73
21.71
19.24
18.86
20.63
24.06
28.21
31.83
33.57
32.3
27.37
19.02
8.4
-2.73
-12.68
-20.32
-25.36
-28.25
-29.87
-31.2
-33.17
-36.7
-42.47
-50.66
-60.63
-70.8
-78.87
-82.58
-80.44
-72.34
-59.62
-44.51
-29.2
-15.11
-2.71
8.19
17.9
26.5
33.73
39.23
42.83
44.84
45.84
46.3
46.34
45.7
44.05
41.51
38.8
37
37.08
39.31
42.89
46.29
47.75
46.07
41.09
33.83
26.13
19.82
16.06
14.89
15.24
15.42
13.75
9.27
2.06
-6.76
-15.34
-21.73
-24.57
-23.66
-20.31
-17.05
-17
-22.85
-35.77
-54.75
-76.61
-96.62
-109.9
-112.86
-104.38
-86.16
-62.28
-37.74
-16.9
-2.17
6.52
11.21
14.69
19
24.65
30.64
35.23
36.95
35.28
30.74
24.5
17.82
11.74
6.85
3.51
1.87
1.9
3.29
5.42
7.5
8.88
9.18
8.37
6.62
4.16
1.36
-1.2
-2.86
-3.1
-1.87
0.05
1.24
0.1
-4.43
-12.34
-22.41
-32.67
-41.19
-46.73
-49.19
-49.56
-49.5
-50.76
-54.59
-61.19
-69.52
-77.63
-83.12
-83.98
-79.2
-68.92
-54.12
-36.26
-16.69
3.46
23.24
41.68
57.85
71.02
80.64
86.48
88.34
86.02
79.61
69.87
58.45
47.52
39.13
34.34
32.84
33.3
34.1
34.03
32.59
29.75
25.69
20.8
15.74
11.39
8.76
8.37
9.89
12.18
13.9
14.17
12.87
10.46
7.46
4
0.06
-4.09
-7.72
-9.76
-9.63
-7.8
-5.85
-5.51
-7.45
-10.7
-13.17
-13.22
-10.79
-7.57
-6.02
-7.85
-12.85
-19.15
-24.5
-27.37
-27.43
-25.15
-20.82
-14.02
-3.79
10.38
27.66
45.91
62.34
74.77
82.55
86.54
88.4
89.46
89.94
88.87
85
77.69
67.68
56.97
47.83
41.8
39
38.29
38.09
37.32
35.67
33.25
30.24
26.43
21.36
14.65
6.55
-1.99
-9.64
-15.33
-18.67
-20.05
-20.66
-21.75
-23.99
-27.16
-30.26
-32.03
-31.59
-28.99
-25.35
-22.4
-21.67
-23.85
-28.73
-35.35
-42.67
-49.91
-56.39
-61.18
-62.83
-59.69
-50.71
-36.34
-18.64
-0.6
15.13
27.34
36.34
43.07
47.95
50.34
48.94
42.96
33.12
21.59
11.03
3.15
-1.98
-5.61
-9
-12.46
-15.22
-16.22
-15.18
-13.13
-12.03
-13.52
-17.89
-23.77
-29
-31.85
-31.92
-30.34
-29.06
-29.66
-32.64
-37.31
-42.08
-45.26
-45.67
-43.07
-38.21
-32.49
-27.56
-24.87
-25.31
-28.96
-35.25
-43.1
-51.08
-57.67
-61.4
-61.21
-56.64
-48.1
-36.66
-23.73
-10.53
2.19
14.18
25.36
35.41
43.62
49.05
50.99
49.33
44.68
38.19
31.05
24.18
17.98
12.38
7.05
1.82
-3.15
-7.3
-9.93
-10.68
-9.68
-7.52
-4.97
-2.61
-0.69
0.69
1.26
0.63
-1.58
-5.15
-9.04
-11.59
-11.33
-7.96
-2.7
1.91
3.51
1.04
-4.7
-11.51
-17.02
-19.88
-20.3
-19.69
-19.8
-21.83
-26.26
-32.85
-40.81
-48.94
-55.44
-58.29
-55.66
-46.73
-32.08
-13.77
5.46
23.04
37.17
46.86
51.82
52.3
49.02
43.39
37.37
33.02
31.8
33.92
38.35
43.32
47.07
48.51
47.57
44.93
41.57
38.48
36.32
35.4
35.58
36.5
37.51
37.93
37.31
35.57
33.22
31
29.61
29.29
29.75
30.28
30.18
28.87
26.2
22.35
17.75
13.1
9.18
6.64
5.43
4.53
2.22
-3.26
-12.75
-25.68
-40.04
-53.09
-62.42
-66.62
-65.48
-59.72
-50.47
-38.91
-26.25
-13.58
-1.86
8.25
16.52
23.05
27.94
31.25
32.85
32.58
30.43
26.64
21.68
16.15
10.74
6.02
2.58
0.68
0.31
0.89
1.36
0.53
-2.32
-6.98
-12.43
-17.25
-20.42
-21.66
-21.39
-20.3
-18.81
-17.1
-15.22
-13.36
-11.84
-10.84
-10.16
-9.27
-7.82
-6.22
-5.76
-8.13
-14.54
-24.84
-37.31
-49.21
-57.91
-61.91
-61.2
-56.95
-50.75
-43.8
-36.48
-28.52
-19.54
-9.41
1.38
11.8
20.5
26.36
28.68
27.39
23
16.51
9.13
2.09
-3.67
-7.64
-9.76
-10.26
-9.56
-8.08
-6.29
-4.7
-3.77
-3.92
-5.32
-7.78
-10.78
-13.65
-15.81
-17.09
-17.78
-18.62
-20.45
-23.73
-28.32
-33.33
-37.41
-39.18
-37.95
-33.91
-28.23
-22.58
-18.72
-17.94
-20.74
-26.67
-34.37
-41.89
-46.96
-47.57
-42.57
-32.11
-17.67
-1.66
13.36
25.43
33.6
37.88
38.87
37.35
34.05
29.63
24.85
20.47
16.98
14.39
12.25
9.88
6.89
3.68
1.3
0.93
2.93
6.49
9.77
10.84
8.76
4.17
-1.01
-4.61
-5.25
-3.01
0.94
5.03
8.04
9.38
9.05
7.39
4.84
1.91
-0.81
-2.71
-3.36
-2.81
-1.6
-0.51
-0.44
-2.24
-6.44
-13.23
-22.14
-31.95
-40.83
-46.7
-47.88
-43.65
-34.47
-21.49
-6.21
10.03
26.26
41.6
55.26
66.5
74.71
79.73
81.85
81.56
79.3
75.32
69.77
62.99
55.75
49.16
44.37
42.03
41.88
42.91
43.69
42.98
40.32
35.95
30.7
25.55
21.28
18.3
16.75
16.65
17.8
19.76
21.57
22.01
19.98
15.28
8.88
2.83
-0.72
-0.54
2.95
7.7
10.85
9.91
3.83
-6.62
-19.23
-31.16
-39.93
-43.96
-42.76
-36.74
-26.97
-14.86
-2
10.13
20.5
28.57
34.42
38.33
40.4
40.32
37.38
30.96
21.11
8.93
-3.61
-14.25
-21.29
-24.18
-23.47
-20.65
-17.41
-15.07
-14.35
-15.4
-17.83
-20.9
-23.78
-25.71
-26.28
-25.58
-24.22
-23.09
-23.26
-25.43
-29.65
-35.23
-40.7
-44.5
-45.47
-43.62
-40.09
-36.94
-36.28
-39.46
-46.63
-56.61
-67.33
-76.33
-81.5
-81.25
-74.72
-61.99
-44.21
-23.34
-1.84
17.93
34.27
46.39
54.27
58.35
59.15
57.1
52.73
46.72
39.87
32.98
26.67
21.11
16.17
11.65
7.51
3.94
1.29
-0.23
-0.81
-1.03
-1.54
-2.7
-4.37
-5.89
-6.65
-6.46
-5.83
-5.55
-6.21
-7.74
-9.43
-10.47
-10.68
-10.74
-11.81
-14.68
-19.1
-23.86
-27.41
-28.76
-28.15
-26.87
-26.6
-28.6
-33.09
-39.12
-44.96
-48.61
-48.42
-43.43
-33.66
-20.08
-4.51
10.99
24.6
35.01
41.76
45.12
45.92
45.2
43.99
42.85
41.85
40.57
38.31
34.64
29.68
24.11
18.98
15.33
13.69
13.95
15.45
17.39
19.11
20.3
20.95
21.25
21.54
22.23
23.72
26.24
29.73
33.71
37.4
39.9
40.66
39.53
36.73
32.6
27.62
22.2
16.92
12.37
9.26
8.08
8.82
10.85
12.85
13.32
10.77
4.39
-5.7
-18.32
-31.49
-42.92
-50.49
-52.83
-49.39
-40.63
-27.73
-12.5
3.02
17.09
28.63
37.56
44.54
50.55
56.03
60.69
63.6
63.75
60.57
54.35
45.99
36.64
27.3
18.64
11.18
5.27
1.1
-1.55
-3.27
-4.88
-7.13
-10.35
-14.23
-17.94
-20.45
-21.02
-19.31
-15.54
-10.51
-5.38
-1.47
0.11
-1.04
-4.46
-8.92
-12.77
-14.71
-14.44
-12.92
-11.93
-13.31
-18.15
-26.26
-36.24
-45.95
-53.34
-56.93
-56.21
-51.5
-43.74
-34.15
-23.84
-13.61
-3.99
4.54
11.57
16.57
19.05
18.67
15.48
10.01
3.1
-4.28
-11.31
-17.47
-22.69
-27.24
-31.53
-35.82
-39.88
-43.05
-44.42
-43.34
-39.85
-34.85
-29.68
-25.64
-23.26
-22.11
-21.09
-19.01
-15.2
-9.93
-4.42
-0.22
1.36
-0.17
-4.27
-9.65
-14.81
-18.61
-20.54
-20.59
-19.06
-16.49
-13.78
-12.45
-14.33
-20.73
-31.4
-43.93
-54.34
-58.75
-55.31
-45.07
-31.38
-17.98
-7.2
0.8
7.46
14.23
21.66
29.16
35.86
41.45
46.24
50.71
54.72
57.54
58.27
56.67
53.42
49.71
46.48
43.89
41.6
39.2
36.8
34.81
33.54
32.76
31.63
29.34
25.73
21.65
18.52
17.59
19.18
22.38
25.48
26.48
24.02
17.69
8.08
-3.46
-15.05
-24.77
-31.07
-33.17
-31.56
-27.85
-24.35
-23.29
-26.26
-33.53
-44.13
-56.18
-67.33
-75.47
-79.02
-77.22
-70.11
-58.46
-43.33
-25.97
-7.73
10.07
26.16
39.53
49.92
57.78
64.13
69.96
75.48
79.86
81.65
79.63
73.73
65.2
56.24
49.12
45.18
44.54
46.32
49.19
51.73
52.91
52.13
49.38
45.01
39.3
32.38
24.32
15.39
6.31
-1.71
-7.35
-9.73
-8.81
-5.3
-0.36
4.95
9.68
12.71
12.59
7.78
-2.69
-18.26
-36.6
-54.15
-67.33
-74.07
-74.25
-69.38
-61.43
-51.88
-41.31
-29.92
-18.13
-6.87
2.66
9.71
14.21
16.67
17.64
17.23
15.14
11.14
5.64
-0.18
-4.68
-6.64
-5.78
-2.9
0.52
2.94
3.14
0.57
-4.58
-11.38
-18.46
-24.33
-27.83
-28.73
-27.71
-26.25
-26.02
-28.25
-33.37
-41.07
-50.46
-60.33
-69.48
-76.92
-82.22
-85.5
-87.54
-89.38
-91.77
-94.63
-96.94
-97.05
-93.34
-85.06
-72.41
-56.27
-37.54
-16.91
5.01
27.02
47.16
63.18
73.26
76.75
74.48
68.38
60.54
52.39
44.47
36.69
28.97
21.44
14.54
8.65
3.86
0.09
-2.72
-4.42
-4.76
-3.62
-1.36
1.22
3.09
3.33
1.64
-1.58
-5.5
-9.35
-12.96
-16.84
-21.62
-27.39
-33.39
-38.06
-39.89
-38.2
-33.81
-28.69
-25.25
-25.26
-28.93
-34.94
-40.92
-44.33
-43.37
-37.55
-27.76
-15.81
-3.69
7.36
17.16
26.53
36.46
47.27
58.1
67.19
72.63
73.5
70.36
64.89
59.08
54.33
50.93
48.38
46.06
43.62
41.17
38.98
37.17
35.69
34.32
32.73
30.74
28.35
25.63
22.81
20.26
18.49
17.99
18.99
21.37
24.61
27.68
29.38
28.71
25.42
20.43
15.67
13.5
15.52
21.66
29.75
36.22
37.38
30.86
16.52
-3.54
-25.64
-45.65
-60.07
-66.76
-65.12
-56.15
-42.01
-25.4
-8.69
6.59
19.83
31.04
40.34
47.6
52.37
54.34
53.65
51.04
47.57
44.09
40.79
37.27
32.93
27.62
22.08
17.68
15.59
16.06
18.07
19.65
18.88
14.84
8.11
0.45
-5.99
-9.77
-10.68
-9.62
-8.07
-7.35
-8.13
-10.42
-13.8
-17.62
-20.93
-22.55
-21.32
-16.63
-9.05
-0.68
5.26
5.55
-1.58
-15.4
-32.66
-48.87
-59.87
-63.21
-58.85
-48.75
-35.82
-22.76
-11.22
-1.66
6.28
13.2
19.41
24.68
28.41
30.07
29.35
26.3
21.24
14.72
7.37
-0.02
-6.65
-11.72
-14.65
-15.18
-13.42
-9.84
-5.42
-1.35
1.12
1.04
-1.67
-6.08
-10.66
-13.97
-15.5
-15.82
-16.14
-17.7
-21.08
-26.06
-31.86
-37.71
-43.05
-47.55
-50.88
-52.52
-51.99
-49.28
-45.01
-40.44
-37.16
-36.5
-39.04
-44.33
-51
-57.12
-60.65
-59.95
-54.24
-43.81
-29.82
-14.06
1.61
15.73
27.61
37.3
45.22
51.64
56.34
58.66
57.94
53.98
47.39
39.43
31.6
25.05
20.23
16.91
14.62
12.9
11.47
10.15
8.84
7.35
5.44
3.02
0.24
-2.48
-4.58
-5.68
-5.87
-5.64
-5.66
-6.44
-8.04
-9.95
-11.5
-12.2
-11.97
-11.19
-10.52
-10.67
-12.13
-14.92
-18.51
-21.97
-24.34
-25.03
-24.27
-23.06
-22.83
-24.81
-29.49
-36.35
-44
-50.59
-54.39
-54.28
-49.89
-41.75
-30.96
-18.83
-6.33
6.04
18.2
30.06
41.17
50.8
58.21
63.01
65.32
65.71
64.76
62.83
60.01
56.3
51.96
47.49
43.7
41.28
40.66
41.79
44.16
46.95
49.3
50.57
50.43
48.9
46.16
42.58
38.63
34.9
31.97
30.17
29.38
28.89
27.77
25.16
20.63
14.46
7.59
1.47
-2.37
-2.7
0.94
7.84
16.03
22.65
24.89
20.82
10.32
-4.85
-21.69
-36.94
-48
-53.45
-52.97
-46.82
-35.56
-20.18
-2.43
14.96
28.84
36.78
38.21
34.92
30.24
27.36
27.76
30.69
33.86
34.92
32.82
28.05
22.11
16.57
12.45
9.99
8.88
8.44
7.81
6.08
2.49
-3.19
-10.35
-17.59
-23.33
-26.47
-26.91
-25.53
-23.72
-22.79
-23.59
-26.31
-30.64
-35.65
-39.97
-42.02
-40.45
-34.91
-26.69
-18.73
-14.64
-17.3
-27.37
-42.91
-60.11
-74.76
-83.66
-85.33
-79.97
-68.98
-54.38
-38.35
-22.85
-9.4
1.23
9.21
15.24
20.05
23.86
26.14
26.13
23.63
19.19
14.04
9.29
5.36
2.03
-1.15
-4.23
-6.48
-6.84
-4.79
-0.87
3.32
5.98
6.25
4.59
2.39
1.04
1.09
2.04
2.98
3.27
2.78
1.71
0.09
-2.35
-6.03
-11.04
-16.86
-22.45
-26.75
-29.4
-30.74
-31.73
-33.34
-36.1
-40.11
-45.14
-50.95
-57.28
-63.75
-69.49
-73.18
-73.29
-68.74
-59.47
-46.43
-31.21
-15.12
1.15
17.46
33.27
47.07
56.51
59.34
55.01
45.25
33.82
24.72
20.44
20.89
23.91
26.74
27.59
26.46
24.63
23.6
24.08
25.78
27.83
29.3
29.75
28.95
26.7
22.63
16.59
9.15
1.87
-3.08
-4.12
-1.04
4.52
10.02
13.2
13.29
11.15
8.46
6.76
6.5
7.2
7.95
8.04
7.13
5.05
1.21
-5.38
-15.52
-29.1
-44.39
-58.33
-67.4
-68.96
-62.22
-48.52
-30.68
-11.77
5.81
20.91
33.38
43.34
50.78
55.48
57.41
57.21
56.16
55.64
56.39
58.11
59.53
59.14
55.98
50.1
42.65
35.27
29.56
26.41
25.66
26.2
26.47
25.16
21.9
17.43
13.24
10.77
10.68
12.49
14.79
16.05
15.38
12.98
9.99
7.84
7.49
8.77
10.33
9.98
5.71
-3.44
-16.65
-31.46
-44.64
-53.39
-56.31
-53.67
-46.95
-37.88
-27.76
-17.19
-6.29
4.93
16.13
26.63
35.56
42.09
45.59
45.6
41.81
34.28
23.6
11.08
-1.2
-10.93
-16.12
-15.84
-10.74
-2.99
4.45
8.85
8.61
3.7
-4.49
-13.73
-21.77
-26.82
-27.91
-25.16
-19.81
-14.04
-10.38
-10.87
-16.27
-25.37
-35.35
-42.93
-45.89
-44.24
-40.2
-37.05
-37.43
-42.28
-50.71
-60.68
-70.04
-77.16
-80.94
-80.54
-75.26
-64.84
-50.04
-32.66
-15.19
0.03
11.7
19.93
25.68
30.13
33.99
37.15
38.95
38.53
35.26
29.1
20.71
11.41
2.86
-3.54
-7.16
-8.36
-8.32
-8.37
-9.19
-10.58
-11.79
-12.05
-11.15
-9.53
-7.87
-6.53
-5.32
-3.69
-1.52
0.42
0.6
-2.63
-9.87
-19.87
-29.88
-36.63
-37.97
-34.01
-27
-20.25
-16.48
-16.69
-20.1
-25.23
-30.97
-37.09
-43.96
-51.46
-58.34
-62.49
-61.88
-55.72
-45
-31.98
-19.02
-7.69
1.52
8.85
14.55
18.53
20.4
19.93
17.49
14.29
11.98
12.1
15.23
20.62
26.39
30.12
29.8
24.79
16.09
5.74
-4.07
-12.03
-18.17
-23.59
-29.55
-36.6
-44.29
-51.23
-55.68
-55.99
-50.85
-39.62
-22.55
-1.09
21.95
42.98
58.48
66.17
65.77
58.8
47.66
34.49
20.42
5.73
-9.6
-25.08
-39.52
-51.3
-59.09
-62.12
-60.04
-52.67
-40.04
-22.76
-2.34
18.64
37.16
50.86
59.11
63.22
65.86
69.73
76.32
85.33
94.94
102.83
107.15
107.23
103.72
98.01
91.61
85.48
79.77
73.98
67.41
59.75
51.26
42.6
34.55
27.69
22.21
18.12
15.41
14.26
14.9
17.16
20.38
23.33
24.69
23.64
20.32
15.78
11.64
9.36
9.68
12.43
16.61
20.81
23.63
24.11
22.05
18.09
13.64
10.44
9.83
11.99
15.71
18.84
19.28
15.99
9.49
1.67
-5.18
-9.24
-9.84
-7.44
-3.44
0.36
2.3
1.28
-2.97
-9.87
-18.19
-26.31
-32.67
-36.15
-36.34
-33.67
-29.47
-25.8
-25
-28.84
-37.69
-50.08
-62.92
-72.44
-75.56
-71.05
-59.83
-44.46
-28.05
-13.12
-0.97
8.26
15.17
20.41
24.32
26.92
28.29
28.71
28.79
29.25
30.55
32.57
34.59
35.68
35.27
33.59
31.73
31.13
32.88
37.09
42.68
47.67
50.09
48.79
43.88
36.67
29.07
22.87
19.06
17.64
17.76
18.2
17.86
16.22
13.39
9.8
5.94
1.97
-2.18
-6.68
-11.46
-16.24
-20.6
-24.42
-28.18
-32.95
-40.04
-50.33
-63.69
-78.55
-92.09
-100.81
-101.58
-92.77
-75.02
-51.35
-26.41
-4.94
9.84
17
17.86
14.94
10.69
6.73
3.71
1.91
1.43
2.14
3.26
3.17
-0.1
-7.8
-19.51
-33
-45
-52.71
-54.92
-52.32
-46.7
-39.87
-32.93
-26.25
-20
-14.52
-10.28
-7.45
-5.55
-3.43
-0.07
4.66
9.7
13.17
13.4
9.73
3.09
-4.53
-10.95
-14.72
-15.77
-15.28
-15.29
-17.89
-24.55
-35.45
-49.16
-62.9
-73.18
-76.99
-72.93
-61.83
-46.36
-29.87
-14.95
-2.78
6.83
14.67
21.46
27.55
32.88
37.42
41.33
44.64
46.94
47.42
45.27
40.21
32.96
24.98
17.84
12.49
8.98
6.84
5.53
4.89
5.11
6.41
8.88
12.47
16.99
22.12
27.37
31.92
34.48
33.76
29.06
20.92
11.19
2.33
-3.41
-4.94
-2.5
2.54
8.39
13.39
16.44
17.11
15.55
12.37
8.39
4.26
0.14
-4.4
-10.27
-18.22
-28.29
-39.52
-50.02
-57.61
-60.64
-58.61
-52.2
-42.95
-32.55
-22.4
-13.52
-6.47
-1.44
1.73
3.66
5.39
8.01
12.15
17.48
22.59
25.68
25.34
21.2
14.36
6.84
0.65
-3.04
-4.3
-4.16
-3.91
-4.48
-6.02
-7.92
-9.21
-9.19
-7.76
-5.46
-3.27
-2.14
-2.67
-4.94
-8.4
-12.19
-15.52
-17.73
-18.48
-17.84
-16.25
-14.46
-13.4
-14.02
-16.97
-22.22
-28.86
-35.29
-39.9
-41.71
-41.08
-39.67
-39.83
-43.73
-52.3
-64.69
-78.26
-89.3
-94.1
-90.23
-77.18
-56.51
-31.18
-4.53
20.7
42.9
61.57
76.74
88.43
96.46
100.62
101.11
98.67
94.49
89.83
85.6
82.24
79.81
78.32
77.83
78.36
79.74
81.44
82.52
82.06
79.52
74.92
68.76
61.76
54.7
48.3
43.27
40.16
39.17
39.83
40.96
40.96
38.45
32.93
25.01
16.14
7.93
1.52
-2.75
-5.2
-6.49
-7.49
-9.28
-13.12
-20.22
-31.18
-45.55
-61.64
-76.85
-88.46
-94.53
-94.42
-88.63
-78.32
-64.65
-48.64
-31.09
-13.04
4.11
18.71
29.49
36.01
38.89
39.65
39.86
40.55
41.81
42.98
43.25
42.32
40.65
39.24
39.01
40.23
42.29
43.81
43.29
39.65
32.71
23.29
12.97
3.6
-3.27
-6.94
-7.85
-7.46
-7.57
-9.55
-13.72
-19.06
-23.83
-26.3
-25.69
-22.74
-19.58
-18.77
-22.19
-30.14
-41.08
-52.33
-61.16
-65.9
-66.51
-64.17
-60.41
-56.06
-50.72
-43.1
-32.02
-17.34
-0.44
16.18
29.86
38.75
42.39
41.59
37.8
32.42
26.35
20.05
13.72
7.82
2.99
-0.18
-1.52
-1.49
-1.02
-1.22
-2.72
-5.53
-8.96
-12.08
-14.14
-15.01
-15.06
-14.76
-14.43
-14.15
-13.93
-13.94
-14.81
-17.24
-21.59
-27.37
-33.17
-37.3
-38.56
-36.99
-33.97
-31.63
-31.88
-35.6
-42.23
-49.81
-55.58
-56.72
-51.16
-38.1
-18.36
5.8
31.37
55.41
75.79
91.53
102.59
109.16
111.29
108.85
101.72
90.23
75.47
59.1
42.93
28.43
16.39
6.85
-0.61
-6.6
-11.5
-15.37
-17.99
-18.98
-18.1
-15.37
-11.2
-6.21
-1.15
3.31
6.62
8.32
8.12
5.88
1.63
-4.34
-11.45
-18.95
-26.05
-32.17
-37.11
-40.97
-44.14
-46.92
-49.32
-50.96
-51.43
-50.68
-49.42
-48.99
-50.99
-56.58
-65.74
-76.96
-87.69
-95.19
-97.46
-93.72
-84.43
-70.66
-53.59
-34.21
-13.42
7.61
27.43
44.62
58.09
67.44
72.79
74.44
72.66
67.71
60.17
51.29
42.81
36.18
31.95
29.6
27.89
25.89
23.52
21.67
21.52
23.78
28.25
34.08
40.43
46.75
52.85
58.38
62.54
64.32
63.05
58.99
53.36
47.89
43.93
41.92
41.19
40.53
38.92
36.1
32.46
28.71
25.15
21.46
16.88
10.87
3.73
-3.41
-9.04
-12.23
-13.18
-13.35
-14.81
-19.28
-27.47
-38.76
-51.51
-63.66
-73.12
-78
-76.94
-69.52
-56.46
-39.66
-21.8
-5.5
7.56
16.96
23.5
28.6
33.6
39.28
45.66
52.09
57.74
62.11
65.19
67.36
69.17
70.93
72.38
72.78
71.16
66.69
59.12
48.95
37.45
26.36
17.43
12.01
10.7
13.21
18.58
25.51
32.61
38.76
42.98
44.28
41.86
35.46
25.64
13.98
2.54
-6.83
-13.2
-16.99
-19.86
-23.83
-30.35
-39.76
-51.07
-62.43
-72.05
-78.77
-82.16
-82.23
-79.17
-73.17
-64.6
-54.04
-42.38
-30.69
-19.88
-10.5
-2.74
3.3
7.31
8.8
7.42
3.27
-2.91
-9.76
-15.88
-20.22
-22.25
-21.96
-19.73
-16.32
-12.91
-11.07
-12.28
-17.48
-26.43
-37.46
-47.93
-55.24
-57.9
-56
-51.15
-45.57
-41.26
-39.36
-40.11
-43.24
-48.08
-53.5
-57.74
-58.69
-54.74
-45.74
-33.8
-22.78
-16.96
-18.96
-28.56
-42.62
-56.56
-66.26
-69.46
-66.02
-56.96
