-102.65
-118.78
-132.43
-142.71
-149.57
-153.81
-156.67
-159.31
-162.41
-165.95
-169.43
-172.15
-173.62
-173.75
-172.83
-171.36
-169.8
-168.38
-166.99
-165.37
-163.16
-160.22
-156.7
-153.02
-149.79
-147.55
-146.59
-146.92
-148.27
-150.61
-154
-158.6
-164.65
-172.4
-181.96
-193.27
-205.95
-219.38
-233.2
-247.32
-261.87
-277.25
-293.91
-312.15
-331.94
-352.82
-374.04
-395.65
-417.9
-441.1
-465.36
-490.65
-517.13
-545.51
-576.9
-612.08
-652.51
-696.97
-740.81
-776.99
-798.53
-801.39
-785.79
-755.4
-715.33
-674.54
-639.77
-614.06
-596.79
-585.09
-575.87
-567.06
-557.54
-546.71
-541.52
-548.4
-570.25
-604.77
-645.71
-685.91
-720.11
-745.63
-761.92
-778.57
-804.19
-841.78
-886.89
-929.66
-959.89
-970.82
-960.13
-870.72
-670.72
-359.97
24.2
421.5
775.61
1052.5
1242.3
1352.8
1399.9
1398.9
1361.3
1297
1217.4
1134.5
1058.4
994.49
944.44
903.72
860.57
804
728.58
636.79
537.67
442.52
360.75
297.5
253
219.55
187.57
150.57
107.98
64.88
29.02
7.22
2.77
14.61
36.35
59.89
79.04
91.31
97.73
100.91
102.94
104.45
104.83
102.79
97.64
90.23
82.57
76.74
73.97
74.24
76.55
79.57
82.4
84.48
85.57
85.62
84.66
82.83
80.44
77.98
75.93
74.6
73.9
73.36
72.47
70.86
68.46
65.44
61.91
57.78
52.84
46.92
40.01
32.33
24.12
15.32
5.63
-5.26
-17.38
-30.3
-43.35
-55.89
-67.68
-78.83
-89.49
-99.15
-106.47
-109.46
-106.16
-95.65
-78.51
-56.77
-33.3
-10.93
8.34
23.58
34.84
42.87
48.59
52.92
56.67
60.5
64.93
70.27
76.61
83.62
90.65
96.78
101.1
103.04
102.54
100.17
96.78
93.23
90
87.15
84.34
81.24
77.73
73.94
70.12
66.45
62.94
59.37
55.56
51.41
46.97
42.32
37.58
32.84
28.21
23.86
19.91
16.54
13.77
11.45
9.43
7.56
5.89
4.61
4.08
4.53
5.9
7.67
8.82
8.09
4.54
-1.92
-10.23
-18.25
-23.4
-23.5
-17.61
-6.28
8.73
25.17
41.18
55.67
68.49
79.83
89.7
97.66
102.81
104.2
101.37
94.74
85.57
75.62
66.57
59.49
54.6
51.52
49.63
48.38
47.46
46.63
45.54
43.73
40.82
36.75
31.88
26.75
21.66
16.57
11.12
5.08
-1.23
-7
-11.37
-14.03
-15.47
-16.63
-18.3
-20.52
-22.63
-23.67
-23.16
-21.46
-19.75
-19.47
-21.71
-26.82
-34.25
-42.84
-50.89
-56.65
-58.57
-55.61
-47.53
-34.93
-19.15
-1.85
15.33
31.03
44.25
54.41
61.24
64.83
65.59
64.2
61.56
58.34
54.94
51.32
47.19
42.39
37.08
31.85
27.48
24.51
22.98
22.5
22.4
22.17
21.61
20.75
19.65
18.23
16.24
13.51
10.09
6.24
2.21
-1.83
-5.84
-9.76
-13.38
-16.35
-18.51
-20.06
-21.66
-24.12
-27.88
-32.78
-38.03
-42.72
-46.28
-48.83
-51.06
-53.75
-57.39
-61.91
-66.81
-71.2
-74.01
-74.05
-70.31
-62.07
-49.35
-33.06
-14.93
2.93
18.69
31.29
40.6
47.14
51.64
54.58
56.15
56.35
55.23
53.03
50.03
46.48
42.57
38.47
34.43
30.88
28.31
27.04
27.14
28.31
29.95
31.44
32.28
32.27
31.49
30.23
28.73
27.23
25.85
24.63
23.58
22.67
21.82
20.92
19.8
18.4
16.76
15.04
13.25
11.2
8.44
4.54
-0.59
-6.53
-12.44
-17.38
-20.9
-23.26
-25.37
-28.44
-33.38
-40.28
-48.2
-55.26
-59.25
-58.41
-52
-40.59
-25.83
-9.92
5.11
17.85
27.63
34.42
38.51
40.25
39.94
37.69
33.6
27.82
20.76
13.11
5.82
-0.25
-4.6
-7.21
-8.53
-9.09
-9.34
-9.39
-9.25
-8.94
-8.69
-8.91
-9.98
-11.99
-14.68
-17.49
-19.85
-21.49
-22.51
-23.45
-24.97
-27.6
-31.44
-36.08
-40.61
-43.96
-45.28
-44.22
-41.07
-36.8
-32.76
-30.38
-30.84
-34.72
-41.7
-50.55
-59.34
-65.87
-68.29
-65.46
-57.24
-44.38
-28.33
-10.94
5.93
20.79
32.78
41.8
48.28
52.8
55.74
57.1
56.55
53.89
49.31
43.52
37.47
31.99
27.47
23.85
20.87
18.32
16.28
15.03
14.74
15.23
15.92
16.06
14.98
12.53
9.13
5.46
2.19
-0.49
-2.84
-5.34
-8.27
-11.47
-14.41
-16.48
-17.47
-17.61
-17.58
-18.06
-19.59
-22.39
-26.46
-31.59
-37.37
-43.12
-47.92
-50.92
-51.69
-50.7
-49.2
-48.7
-50.11
-53.1
-56.08
-56.79
-53.38
-45.09
-32.57
-17.41
-1.46
13.68
27.02
38.02
46.42
52.1
55.12
55.75
54.49
51.88
48.45
44.6
40.7
37.12
34.14
31.79
29.84
27.92
25.79
23.58
21.79
21.01
21.47
22.82
24.23
24.87
24.37
22.93
21.17
19.59
18.17
16.4
13.63
9.61
4.75
0.06
-3.35
-4.8
-4.32
-2.64
-0.71
0.65
1.09
0.73
-0.14
-1.31
-2.88
-5.16
-8.49
-12.9
-18.12
-23.65
-28.93
-33.41
-36.46
-37.35
-35.32
-29.88
-21.16
-9.99
2.14
13.76
23.85
32.05
38.46
43.15
45.75
45.54
41.93
35.03
25.93
16.39
8.17
2.4
-0.82
-2.17
-2.57
-2.65
-2.57
-2.36
-2.31
-3.13
-5.66
-10.42
-17.05
-24.35
-30.67
-34.68
-35.9
-34.9
-33.03
-31.75
-32.11
-34.43
-38.29
-42.72
-46.61
-49.02
-49.37
-47.8
-44.99
-42.03
-40.06
-39.93
-41.97
-45.89
-50.84
-55.43
-58.12
-57.52
-52.88
-44.34
-32.9
-20.15
-7.72
3.27
12.41
19.99
26.53
32.37
37.34
40.79
41.95
40.41
36.44
31.03
25.47
21.04
18.56
18.05
18.9
20.06
20.54
19.67
17.24
13.51
8.99
4.36
0.22
-2.91
-4.84
-5.65
-5.68
-5.47
-5.59
-6.48
-8.42
-11.47
-15.49
-20.21
-25.23
-30.08
-34.27
-37.44
-39.5
-40.55
-40.93
-41.02
-41.21
-41.84
-43.18
-45.41
-48.5
-52.02
-54.99
-56.07
-53.97
-48.01
-38.49
-26.79
-14.83
-4.36
3.69
9.39
13.49
16.86
19.9
22.51
24.29
24.91
24.39
23.1
21.52
19.9
18.25
16.34
13.92
10.95
7.63
4.35
1.62
-0.02
-0.08
1.8
5.56
10.68
16.22
21.1
24.54
26.37
27.21
28.01
29.55
32.04
35
37.61
39.13
39.27
38.15
36.12
33.49
30.47
27.23
24.12
21.66
20.35
20.33
21.07
21.38
19.75
14.94
6.5
-4.86
-17.32
-28.41
-35.71
-37.61
-33.89
-25.64
-14.89
-4.02
5.05
11.27
14.49
15.25
14.33
12.4
9.87
7
4
1.2
-0.99
-2.29
-2.64
-2.28
-1.69
-1.36
-1.58
-2.35
-3.39
-4.26
-4.63
-4.38
-3.73
-3.11
-3.03
-3.82
-5.59
-8.13
-11.07
-14.01
-16.53
-18.34
-19.33
-19.5
-19.09
-18.54
-18.33
-18.83
-20.21
-22.31
-24.74
-27.18
-29.52
-31.93
-34.8
-38.39
-42.64
-47.01
-50.52
-52.21
-51.31
-47.62
-41.44
-33.48
-24.63
-15.7
-7.29
0.37
7.32
13.8
19.96
25.64
30.31
33.29
33.97
32.23
28.61
24.13
19.96
17.11
16.03
16.65
18.52
21
23.47
25.43
26.54
26.63
25.67
23.75
21.11
18.08
15.08
12.47
10.39
8.67
6.87
4.53
1.42
-2.27
-6.08
-9.52
-12.42
-14.96
-17.55
-20.41
-23.31
-25.65
-26.77
-26.44
-25.07
-23.49
-22.6
-22.84
-23.99
-25.48
-26.68
-27.35
-27.55
-27.31
-26.34
-23.95
-19.32
-12.05
-2.56
7.78
17.06
23.52
26.21
25.39
22.31
18.67
15.87
14.46
14
13.47
11.97
9.15
5.46
1.91
-0.47
-1.15
-0.15
2.04
4.79
7.5
9.64
10.63
9.89
7.11
2.38
-3.55
-9.45
-13.98
-16.17
-15.81
-13.47
-10.26
-7.37
-5.75
-5.77
-7.27
-9.69
-12.42
-14.98
-17.23
-19.34
-21.57
-24.09
-26.81
-29.46
-31.63
-33.02
-33.5
-33.01
-31.45
-28.52
-23.88
-17.39
-9.3
-0.38
8.35
15.86
21.42
24.7
25.79
24.98
22.57
18.87
14.25
9.34
4.99
2.13
1.46
3.17
6.76
11.16
15.11
17.49
17.74
15.97
12.84
9.24
6.05
3.85
3
3.58
5.5
8.47
12.06
15.71
18.75
20.56
20.86
19.73
17.65
15.24
12.98
11.11
9.58
8.29
7.18
6.27
5.52
4.58
2.75
-0.73
-6.44
-14.32
-23.52
-32.53
-39.52
-42.93
-41.84
-36.31
-27.3
-16.52
-5.87
3.13
9.78
14.3
17.54
20.59
24.12
28.19
32.16
35.07
36.11
34.96
31.88
27.59
23
18.97
16.17
15.09
15.9
18.45
22.14
26
28.89
29.9
28.63
25.36
20.81
15.72
10.56
5.39
0.07
-5.46
-10.99
-16.17
-20.57
-23.95
-26.32
-27.81
-28.64
-29.04
-29.38
-30.25
-32.39
-36.31
-42.04
-48.89
-55.61
-60.8
-63.3
-62.47
-58.32
-51.42
-42.71
-33.22
-23.9
-15.32
-7.7
-0.9
5.3
10.95
15.74
19.1
20.45
19.59
16.87
12.9
8.42
3.86
-0.66
-5.09
-9.13
-12.2
-13.48
-12.3
-8.48
-2.44
4.82
11.93
17.58
20.75
20.99
18.46
13.95
8.5
3.17
-1.34
-4.85
-7.48
-9.53
-11.19
-12.49
-13.41
-14.18
-15.36
-17.79
-22.08
-28.21
-35.43
-42.25
-47.06
-48.73
-47.24
-43.71
-40.15
-38.65
-40.62
-46.11
-53.62
-60.61
-64.27
-62.75
-55.71
-44.64
-32.28
-21.76
-15.79
-16.11
-23.49
-37.77
-57.64
-80.2
-101.02
-114.83
-117.07
-105.65
-81.67
-48.81
-11.63
26.32
63.22
98.61
132.21
162.75
187.45
202.93
206.7
198.84
182.91
164.91
150.6
142.43
138.02
131.13
115.6
89.63
58.02
30.6
17.05
21.32
38.79
58.16
67.21
59.07
35.29
4.4
-23.17
-40.5
-47.26
-49.09
-54.29
-69.43
-96.01
-129.86
-162.89
-186.59
-195.79
-190.43
-174.98
-155.98
-138.68
-124.92
-113.35
-101.26
-86.73
-69.72
-51.26
-31.92
-10.65
14.51
43.87
73.92
97.37
106.17
96.16
70.53
39.67
17.25
14.13
34.1
73.35
123.76
177.17
228.21
274.33
313.68
343.6
360.76
363.36
353.43
337.11
322.3
315.05
317
325.3
334.93
341.72
344.28
343.95
343.4
344.52
348.03
353.48
360.1
367.29
374.65
381.73
387.67
390.98
389.76
382.41
368.37
348.43
324.58
299.28
274.62
251.8
230.74
209.78
186.86
160.28
129.26
94.13
55.97
16.14
-24.13
-64.07
-105.62
-150.96
-201.56
-257.11
-315.07
-371.42
-421.97
-463.48
-494.58
-520.15
-546.33
-578.28
-617.73
-662.1
-705.78
-742.59
-767.75
-779.28
-784.98
-794.55
-816.72
-856.32
-913.14
-983.11
-1060
-1136.1
-1202.2
-1257.3
-1300.8
-1333.5
-1357
-1374.1
-1389.7
-1409.7
-1438.6
-1420.9
-1313.3
-1091.2
-765.76
-381.12
6.62
352.35
632.33
842.54
991.66
1084.8
1127.5
1125.7
1088.1
1027.3
957.59
891.57
837.72
799.25
767.83
733.69
687.8
627.42
557.24
486.76
426.02
382.02
357.03
344.39
334.81
319.69
294.74
261.08
223.32
186.84
155.53
131.16
111.62
94.27
77.18
59.66
43.03
29.15
18.99
12.08
6.95
1.15
-7.11
-18.45
-32.08
-46.34
-59.62
-70.98
-80.31
-87.93
-94.37
-100.09
-105.54
-111.18
-117.4
-124.32
-131.36
-137.22
-139.97
-137.73
-129.3
-114.55
-94.47
-70.63
-44.87
-18.78
6.26
29.08
48.48
63.39
73.2
78.02
78.82
77.06
74.28
71.71
70.18
70.1
71.62
74.73
79.15
84.36
89.54
93.79
96.35
96.81
94.95
90.77
84.36
75.93
66.02
55.67
46.19
38.74
33.84
31.01
29
26.34
22.06
16.08
9.15
2.36
-3.5
-8.01
-11.12
-12.91
-13.45
-13.05
-12.48
-13.21
-17.05
-25.56
-39.13
-56.62
-75.33
-91.61
-101.83
-103.33
-95.08
-77.91
-54.08
-26.72
0.99
26.38
47.53
63.31
73.33
77.8
77.62
74.19
69.27
64.36
60.46
57.81
56.08
54.87
54.11
54.13
55.29
57.63
60.64
63.4
64.98
65.01
63.72
61.73
59.59
57.44
55.07
52.08
48.18
43.35
37.84
32.09
26.61
21.95
18.63
17.02
17.12
18.31
19.37
18.81
15.34
8.5
-1.06
-11.6
-20.78
-26.24
-26.37
-20.42
-8.8
7.22
25.79
44.75
62.05
76.01
85.67
90.93
92.45
91.29
88.51
84.83
80.6
75.88
70.74
65.46
60.48
56.22
52.82
50.08
47.71
45.48
43.38
41.57
40.1
38.59
36.27
32.32
26.52
19.54
12.7
7.54
4.89
4.48
5.1
5.32
4.35
2.33
0.42
0.1
2.71
8.89
18.25
29.35
39.9
47.15
48.69
43.31
31.55
15.68
-1.23
-16.32
-27.9
-35.56
-39.68
-40.8
-39.1
-34.55
-27.21
-17.57
-6.49
5.07
16.47
27.4
37.64
46.71
53.7
57.53
57.39
53.02
44.92
34.12
21.89
9.39
-2.45
-12.82
-21.04
-26.48
-28.9
-28.51
-26.04
-22.35
-17.84
-11.99
-3.79
7.18
19.78
30.84
36.15
32.21
18.4
-2.38
-24.71
-43
-53.84
-57.05
-55.1
-51.24
-47.79
-45.34
-43.5
-41.83
-40.63
-40.83
-43.05
-47.14
-51.97
-56.14
-58.92
-60.6
-62.17
-64.31
-66.88
-68.81
-68.7
-65.37
-58.33
-47.78
-34.16
-18.01
0.01
18.9
37.33
53.7
66.45
74.54
77.7
76.55
72.37
66.59
60.4
54.71
49.76
45.43
41.52
37.86
34.67
32.34
31.32
31.93
34.15
37.6
41.46
44.73
46.42
46.08
43.96
40.92
38.07
35.95
34.35
32.38
29.13
24.31
18.59
13.38
9.96
8.76
8.95
8.93
7.22
3.44
-1.35
-5.19
-6.37
-4.56
-1.07
1.56
0.73
-4.9
-14.86
-27.11
-38.91
-47.67
-51.68
-50.24
-43.51
-32.32
-17.98
-2.28
12.86
25.59
34.73
40.02
42.07
41.91
40.18
36.91
31.48
23.39
13.07
2.46
-5.61
-8.54
-5.39
2.37
11.56
18.65
21.47
20.08
16.95
15.18
16.84
21.79
27.98
32.77
34.37
32.69
29.08
26.37
26.95
31.93
40.72
51.49
62.13
71.03
77.22
80.36
82.09
84.68
90.7
101.91
118.3
137.76
156.11
167.62
166.63
151.3
123.95
91.1
61.64
44.22
44.96
65.85
104.27
142.62
164.04
157.32
123.04
71.86
16.81
-33.23
-74.59
-106.81
-130.04
-142.14
-140.71
-125.06
-97.62
-63.84
-30.03
-0.77
22.01
39.41
56.11
77.66
108.43
149.26
196.48
242.42
277.88
294.99
290.07
265.78
229.2
188.73
150.2
116.88
88.32
61.8
34.12
3.67
-28.68
-60.89
-91.12
-118.77
-144.47
-169.38
-194.12
-218.91
-242.81
-264.22
-281.79
-294.92
-304.07
-310.5
-315.9
-321.63
-329.62
-340.53
-353.82
-368.21
-381.99
-393.62
-402.02
-406.65
-407.61
-408.07
-412.06
-423.83
-446.29
-479.24
-518.34
-555.67
-582.2
-590.87
-581.61
-558.27
-526.56
-491.45
-455.87
-421.36
-389.63
-363.38
-327.6
-273.31
-195.65
-96.06
17.82
135.03
244.83
339.22
414.02
468.62
502.54
517.31
515.49
500.42
476.07
446.62
415.76
386.71
360.66
335.62
309.42
280.5
248.43
214.07
179.05
145.2
114.07
87.08
64.46
46.44
32.97
23.55
16.96
11.34
6
-0.44
-8.58
-18.33
-28.53
-37.64
-44.37
-47.96
-48.12
-44.83
-38.34
-28.91
-17.16
-4.13
8.65
19.54
27.16
30.85
30.73
27.54
22.62
17.5
13.44
11.26
11.27
13.35
17.2
22.3
27.92
33.19
37.08
38.57
37.14
32.93
26.89
20.43
14.81
10.6
7.61
5.1
2.29
-1.17
-5.14
-9.27
-13.44
-17.9
-23.23
-29.9
-37.95
-46.87
-55.73
-63.66
-70.1
-75.04
-79.17
-83.67
-89.84
-98.55
-109.68
-121.78
-132.36
-138.59
-138.36
-131.1
-117.86
-100.78
-82.08
-63.3
-44.94
-26.89
-9.05
8.2
23.96
37.19
47.24
54.11
58.33
60.71
61.83
61.95
61.11
59.38
57.08
54.82
53.33
53.22
54.64
57.12
59.76
61.57
61.73
59.99
56.7
52.64
48.67
45.29
42.51
39.95
37.15
33.86
30.22
26.57
23.12
19.81
16.25
11.92
6.44
-0.32
-8.34
-17.51
-27.61
-38.22
-48.5
-57.24
-63.26
-66.06
-66.28
-65.68
-66.45
-70.24
-77.11
-85.32
-91.83
-93.43
-88.01
-75.17
-56.17
-33.43
-9.58
13.22
33.51
50.54
64.04
73.95
80.4
83.82
84.98
84.92
84.7
85.05
86.14
87.53
88.49
88.38
86.96
84.51
81.61
78.78
76.27
74.09
72.31
71.09
70.72
71.14
71.77
71.61
69.56
65.05
58.41
50.89
44.11
39.48
37.56
37.97
39.6
41.03
41.04
38.96
34.69
28.64
21.62
14.5
8.13
3.07
-0.57
-3.21
-5.81
-9.7
-16.05
-25.31
-36.81
-48.64
-58.12
-62.61
-60.32
-50.91
-35.55
-16.53
3.38
21.63
36.39
46.78
52.79
55.08
54.66
52.68
50.15
47.8
46.03
44.83
43.98
43.19
42.36
41.68
41.42
41.8
42.65
43.38
43.13
41.22
37.53
32.69
27.91
24.42
23.01
23.59
25.23
26.52
26.21
23.75
19.48
14.36
9.44
5.39
2.3
-0.24
-2.76
-5.61
-8.82
-12.18
-15.51
-18.78
-22.15
-25.93
-30.35
-35.46
-41.16
-47.13
-52.85
-57.54
-60.25
-59.93
-55.72
-47.4
-35.53
-21.5
-7.1
6.01
16.89
25.47
32.4
38.5
44.25
49.6
54.05
57.01
58.08
57.14
54.32
49.9
44.33
38.26
32.52
27.96
25.22
24.58
25.79
28.23
31.06
33.47
34.74
34.35
32.04
27.96
22.66
16.97
11.77
7.69
4.94
3.33
2.47
1.99
1.64
1.22
0.47
-0.83
-2.85
-5.53
-8.58
-11.56
-14.12
-16.1
-17.59
-18.8
-19.89
-20.9
-21.81
-22.6
-23.37
-24.35
-25.8
-27.91
-30.7
-34.02
-37.51
-40.64
-42.66
-42.72
-40.15
-34.84
-27.27
-18.46
-9.56
-1.36
5.95
12.63
19.1
25.47
31.41
36.34
39.87
42.05
43.38
44.38
45.24
45.68
45.16
43.38
40.62
37.72
35.65
35.05
35.93
37.8
39.92
41.62
42.44
41.96
39.89
36.14
31.05
25.44
20.53
17.42
16.72
18.28
21.28
24.57
27.04
27.85
26.73
23.91
20.08
16.25
13.38
11.92
11.53
11.25
9.92
6.85
2.25
-2.86
-7.27
-10.14
-11.71
-13.09
-15.78
-20.84
-28.25
-36.88
-44.87
-50.42
-52.41
-50.74
-46.18
-39.83
-32.73
-25.59
-18.78
-12.55
-7.21
-3.1
-0.4
1.08
1.87
2.5
3.06
2.96
1.27
-2.7
-8.74
-15.65
-21.66
-25.32
-26.17
-24.94
-22.99
-21.51
-20.93
-20.94
-20.92
-20.49
-19.78
-19.15
-18.9
-18.89
-18.7
-17.93
-16.6
-15.16
-14.27
-14.37
-15.36
-16.8
-18.21
-19.5
-20.96
-23.03
-25.93
-29.35
-32.52
-34.56
-34.84
-33.3
-30.51
-27.43
-25.16
-24.62
-26.31
-30.06
-35.04
-39.82
-42.83
-42.77
-39.08
-32
-22.61
-12.37
-2.76
5.07
10.48
13.36
14.05
13.19
11.73
10.62
10.59
11.74
13.49
14.7
14.05
10.77
4.95
-2.3
-9.28
-14.25
-16.05
-14.41
-9.84
-3.36
3.8
10.43
15.49
18.3
18.67
16.95
14.01
10.92
8.61
7.44
7.17
7.14
6.68
5.47
3.68
1.79
0.31
-0.48
-0.64
-0.53
-0.6
-1.22
-2.61
-4.77
-7.39
-10.01
-12.09
-13.3
-13.63
-13.54
-13.79
-15.17
-18.19
-22.79
-28.3
-33.6
-37.32
-38.27
-35.66
-29.34
-19.83
-8.13
4.45
16.63
27.31
35.77
41.67
45.06
46.27
45.85
44.4
42.5
40.65
39.24
38.52
38.52
39.04
39.58
39.4
37.77
34.18
28.74
22.28
16.15
11.73
9.96
10.94
13.92
17.72
21.1
23.31
24.21
24.1
23.36
22.2
20.54
18.21
15.15
11.66
8.21
5.17
2.65
0.4
-1.93
-4.62
-7.61
-10.75
-14.08
-18.1
-23.68
-31.54
-41.64
-52.77
-62.84
-69.58
-71.53
-68.59
-62.07
-53.98
-46.13
-39.41
-33.77
-28.5
-23.06
-17.52
-12.64
-9.43
-8.62
-10.26
-13.7
-17.88
-21.76
-24.72
-26.57
-27.43
-27.46
-26.65
-24.86
-21.91
-17.79
-12.63
-6.66
-0.15
6.68
13.55
19.95
25.13
28.19
28.33
25.34
19.69
12.66
5.83
0.51
-2.78
-4.38
-5.29
-6.55
-8.71
-11.64
-14.79
-17.55
-19.6
-21.07
-22.25
-23.3
-24.22
-24.87
-25.23
-25.54
-26.15
-27.22
-28.52
-29.33
-28.76
-26.17
-21.37
-14.72
-6.9
1.28
9.1
15.93
21.26
24.71
26.01
25.1
22.16
17.73
12.65
7.89
4.34
2.53
2.47
3.65
5.4
7.13
8.58
9.85
11.02
12.13
12.94
13.16
12.7
11.81
10.94
10.45
10.37
10.28
9.5
7.47
4.04
-0.47
-5.25
-9.53
-12.84
-15.04
-16.26
-16.61
-16.08
-14.68
-12.65
-10.6
-9.52
-10.4
-13.63
-18.76
-24.56
-29.56
-32.6
-33.29
-31.88
-28.93
-24.92
-20.05
-14.37
-7.96
-1.06
5.94
12.69
18.99
24.69
29.75
34.01
37.16
38.9
39.01
37.52
34.71
31.12
27.47
24.43
22.55
22.01
22.72
24.3
26.26
28.13
29.49
30.01
29.4
27.48
24.22
19.97
15.41
11.55
9.41
9.66
12.19
15.87
18.69
18.3
12.98
2.6
-10.96
-24.2
-33.42
-36.33
-33.28
-27.29
-22.86
-23.98
-32.23
-46.17
-61.88
-74.79
-81.48
-80.9
-74.6
-65.89
-58.75
-56.4
-60.01
-67.87
-75.19
-75.31
-61.83
-31.5
13.48
64.86
110.24
136.73
135.5
105.23
52.72
-8.88
-64.49
-101.66
-114.54
-105.27
-82.5
-57.64
-40.51
-36.13
-43.91
-59.06
-75.14
-86.54
-89.49
-82.35
-65.19
-39.44
-7.79
25.86
57.2
82.31
98.79
105.83
103.77
92.7
71.68
38.95
-6.32
-62.06
-121.9
-175.63
-212.09
-223.35
-208.51
-174.67
-134.2
-99.52
-77.91
-69.05
-66.75
-63.38
-54.66
-41.62
-29
-21.23
-18.79
-17.84
-12.89
-0.76
17.05
35.24
48.49
55.26
59.05
66.29
81.98
106.02
133.04
155.35
167.41
168.56
162.57
154.47
147.32
140.92
133.42
124.3
116.4
115.27
126.76
153.81
194.66
243.48
293.07
337.71
375
405.94
433.67
462.09
494.47
532.12
573.48
613.69
645.73
662.43
659.01
634.73
593.42
541.71
486.42
432.45
382.06
335.85
294.18
257.84
226.3
197.86
169.05
135.47
93.49
41.81
-17.92
-81.56
-143.95
-203.44
-260.39
-316.81
-374.83
-434.95
-495.18
-551.35
-598.19
-631.08
-651.75
-664.66
-675.8
-690.48
-711.7
-740.4
-776.65
-820.3
-870.21
-928.09
-991.61
-1054.3
-1107.6
-1144.6
-1164
-1171.2
-1174.6
-1146.6
-1064.6
-913.93
-698.38
-442.12
-179.59
58.67
254.91
405.28
516
592.16
638.65
658.85
656.08
635.05
602.17
564.35
528.35
498.39
472.44
446.99
418.29
384.2
345.11
303.54
262.75
225.09
191.92
161.27
131.16
100.66
70.75
44.02
23.24
12.14
10.96
17.41
26.73
34.62
38.41
37.77
34.1
29.4
25.26
21.96
19.21
16.28
12.85
9.16
5.86
3.7
3.08
3.83
4.98
5.62
5.31
4.23
3.05
2.37
2.41
2.89
3.38
3.51
3.43
3.67
4.58
5.92
6.62
5.15
0.19
-8.82
-21.52
-36.72
-52.79
-68.01
-80.72
-89.29
-92.37
-89.11
-79.54
-64.87
-47.16
-28.9
-12.28
1.37
11.72
19.31
24.88
28.98
31.68
32.8
32.23
30.34
28.08
26.66
27.18
29.96
34.34
38.99
42.47
43.94
43.42
41.67
39.52
37.36
34.92
31.53
26.65
20.25
12.87
5.19
-2.39
-10.06
-18.21
-27.01
-36.04
-44.2
-50.3
-53.57
-54.13
-53.06
-52.13
-53.1
-57.14
-64.47
-74.23
-84.78
-93.97
-99.54
-99.7
-93.4
-80.73
-62.92
-42.19
-20.94
-1.27
15.73
29.95
41.91
52.26
61.24
68.66
74.09
77.28
78.28
77.34
74.87
71.35
67.48
64.13
62.16
62.26
64.54
68.54
73.21
77.27
79.54
79.28
76.33
71.1
64.59
57.91
52.01
47.32
43.78
40.93
38.33
35.79
33.31
30.94
28.55
25.76
22.17
17.6
12.26
6.59
1.14
-3.95
-8.75
-13.61
-18.89
-24.68
-30.89
-37.26
-43.6
-49.85
-56.13
-62.41
-68.31
-72.89
-74.74
-72.47
-65.18
-52.91
-36.72
-18.49
-0.21
16.45
30.63
42.27
51.72
59.36
65.29
69.45
71.8
72.6
72.51
72.38
72.96
74.43
76.47
78.26
78.94
78
75.41
71.71
67.76
64.43
62.21
61
60.26
59.22
57.48
55.04
52.31
49.9
48.17
47.1
46.41
45.76
44.85
43.57
41.75
39.15
35.58
30.91
25.29
19.03
12.68
6.67
1.31
-3.34
-7.4
-10.97
-14.15
-16.8
-18.67
-19.54
-19.56
-19.35
-19.94
-22.45
-27.5
-34.89
-43.34
-50.93
-55.61
-55.81
-50.8
-40.86
-27.2
-11.57
4.04
18.09
29.71
38.74
45.69
51.18
55.62
58.96
60.87
60.93
59
55.31
50.38
44.9
39.56
34.99
31.79
30.44
31.03
33.13
35.88
38.07
38.68
37.12
33.58
28.7
23.19
17.63
12.34
7.49
3.02
-1.19
-5.49
-10.01
-14.8
-19.83
-24.89
-29.63
-33.67
-36.91
-39.64
-42.56
-45.99
-50
-54.39
-58.64
-62.15
-64.44
-65.53
-66.36
-68.59
-72.37
-77.53
-83.56
-89.54
-94.06
-95.19
-90.9
-79.91
-62.64
-37.92
-6.75
27.22
58.65
82.51
96.57
102.49
105.09
109.64
125.71
158.95
208.97
269.74
332.69
390.6
439.97
480.94
514.55
549.45
592.18
645
705.57
769.09
831.19
889.28
941.99
948.25
883.48
743.32
548.37
333.66
131.65
-37.56
-166.3
-246.98
-290.95
-303.3
-289.66
-258.59
-222.02
-192.23
-177.67
-182.33
-203.34
-235.71
-267.79
-291.16
-302.89
-305.11
-302.17
-297.59
-293.06
-289.01
-287.38
-286.5
-285.65
-285.06
-285.5
-287.27
-289.15
-288.6
-282.4
-268.75
-245.03
-210.82
-168.35
-122.04
-77.03
-37.43
-5.07
20.68
41.4
59.41
75.54
88.66
96.51
97.25
90.61
78.06
61.87
43.55
23.61
1.9
-21.16
-43.64
-62.39
-74.35
-78.32
-75.95
-71.45
-69.82
-74.75
-87.08
-104.63
-123.26
-138.69
-148.05
-150.68
-147.78
-141.45
-133.85
-126.51
-120.37
-115.79
-112.74
-110.81
-109.35
-107.76
-105.87
-104.5
-105.35
-110.7
-122.18
-140.07
-163.18
-189.47
-217.05
-245.04
-273.76
-304.44
-339.1
-379.43
-426.04
-477.7
-530.65
-578.54
-613.61
-628.95
-620.97
-591.95
-548.42
-499.03
-451.75
-411.65
-380.36
-356.76
-338.47
-322.93
-309.24
-296.2
-282.21
-265.73
-245.67
-221.89
-194.92
-165.44
-133.84
-101.4
-67.5
-29.83
14.28
66.03
123.29
179.98
227.49
268.64
303.02
331.76
358.16
385.95
417.16
450.2
480.41
502.75
514.29
513.74
503.04
485.49
463.49
438.11
409.89
378.66
345.02
310.65
276.56
244.09
214.24
186.97
161.48
136.64
111.43
85.48
58.68
29.91
-2.02
-36.04
-70.58
-102.48
-127.41
-141.25
-141.74
-129.72
-109.34
-85.92
-63.87
-45.68
-31.55
-20.54
-11.88
-5.32
-0.84
2
4.54
8.56
15.09
23.83
33.24
41.21
46.15
47.64
46.46
44.01
41.57
39.7
38.28
36.67
34.06
29.86
24.01
17.04
9.98
4.03
-0.03
-2.04
-2.57
-2.71
-3.6
-6.17
-10.93
-18.08
-27.45
-38.52
-50.17
-60.78
-68.63
-72.67
-73.23
-72.12
-72.07
-75.49
-83.39
-94.82
-107.2
-117.18
-121.77
-119.06
-108.54
-91.11
-68.81
-44.43
-20.97
-0.89
14.56
25.62
33.69
40.53
47.34
54.34
60.8
65.69
68.38
68.92
68.01
66.52
65.16
64.16
63.51
63.17
63.27
64
65.39
67.14
68.58
68.93
67.7
64.92
61.24
57.56
54.61
52.48
50.65
48.22
44.47
39.18
32.76
26
19.64
14.13
9.59
6.01
3.35
1.56
0.31
-1.2
-4.28
-10.25
-19.8
-32.53
-46.8
-60.17
-70.1
-74.74
-73.27
-65.96
-53.9
-38.59
-21.68
-4.63
11.38
25.47
37.12
46.12
52.56
56.61
58.44
58.07
55.56
51.16
45.59
40.03
35.9
34.37
35.86
39.89
45.16
50.21
53.88
55.62
55.47
53.69
50.55
46.27
41.23
36.06
31.53
28.31
26.55
25.85
25.3
24.01
21.43
17.59
12.86
7.83
2.96
-1.41
-5.1
-8
-10.22
-12.09
-14.27
-17.43
-22.05
-28.02
-34.51
-40.13
-43.44
-43.42
-39.84
-33.24
-24.59
-14.85
-4.68
5.63
15.9
25.83
34.94
42.64
48.38
51.9
53.2
52.46
50.02
46.43
42.43
38.96
36.86
36.54
37.76
39.74
41.52
42.41
42.2
41.19
39.86
38.52
37.3
36.12
34.92
33.67
32.3
30.6
28.21
24.76
20.13
14.64
9
4.06
0.44
-1.73
-2.83
-3.64
-4.96
-7.25
-10.49
-14.3
-18.21
-21.96
-25.54
-29.19
-33.18
-37.46
-41.6
-44.8
-46.13
-44.72
-40
-31.79
-20.47
-7
7.14
20.3
31.09
38.82
43.74
46.71
48.73
50.46
51.99
53.06
53.3
52.58
51.06
49
46.67
44.23
41.85
39.79
38.36
37.71
37.84
38.47
39.24
39.77
39.79
39.1
37.56
35.09
31.8
28.12
24.72
22.23
20.99
20.83
21.26
21.71
21.81
21.41
20.47
18.91
16.63
13.69
10.47
7.72
6.16
6.12
7.2
8.32
8.1
5.43
-0.06
-7.91
-17
-25.85
-33.01
-37.26
-37.93
-34.91
-28.79
-20.6
-11.66
-3.19
3.88
9.1
12.39
13.87
13.7
11.93
8.63
3.99
-1.49
-7.01
-11.66
-14.6
-15.38
-13.96
-10.78
-6.59
-2.35
0.97
2.58
1.98
-0.84
-5.42
-10.76
-15.66
-19.02
-20.17
-19.2
-16.84
-14.31
-12.8
-13.17
-15.58
-19.57
-24.22
-28.5
-31.55
-32.86
-32.3
-30.09
-26.89
-23.67
-21.58
-21.67
-24.4
-29.47
-35.77
-41.72
-45.81
-47.14
-45.59
-41.8
-36.77
-31.33
-25.89
-20.32
-14.31
-7.79
-1.08
5.03
9.68
12.33
13.12
12.61
11.56
10.48
9.44
8.1
6.03
3.09
-0.48
-4.1
-7.21
-9.36
-10.44
-10.45
-9.34
-7.04
-3.52
1
5.87
10.1
12.76
13.17
11.31
7.76
3.39
-0.83
-4.22
-6.44
-7.44
-7.38
-6.66
-5.86
-5.62
-6.53
-8.83
-12.33
-16.41
-20.28
-23.29
-25.2
-26.24
-27.05
-28.37
-30.59
-33.6
-36.65
-38.68
-38.71
-36.24
-31.36
-24.69
-17.02
-8.98
-0.91
7.08
14.85
22.03
27.99
32.04
33.76
33.12
30.58
26.95
23.08
19.72
17.46
16.66
17.52
20.06
24.02
28.85
33.59
37.13
38.55
37.42
34.1
29.63
25.35
22.47
21.65
22.89
25.56
28.67
31.09
31.91
30.57
27.06
21.87
15.91
10.18
5.53
2.41
0.81
0.43
0.88
1.75
2.76
3.63
4.11
3.78
2.21
-0.96
-5.76
-11.75
-18
-23.26
-26.45
-26.99
-24.93
-20.84
-15.52
-9.74
-4.1
0.99
5.21
8.31
10.16
10.82
10.41
9.07
6.88
3.95
0.5
-3.05
-6.21
-8.61
-10.1
-10.83
-11.02
-10.79
-10.1
-8.82
-6.94
-4.69
-2.62
-1.37
-1.51
-3.2
-6.25
-10.11
-14.16
-17.88
-21.02
-23.56
-25.5
-26.83
-27.53
-27.77
-28.01
-28.76
-30.33
-32.47
-34.42
-35.29
-34.62
-32.88
-31.18
-30.78
-32.3
-35.32
-38.68
-41.12
-42.02
-41.5
-40.09
-38.08
-35.15
-30.48
-23.34
-13.69
-2.38
8.97
18.58
25.05
27.78
26.93
23.22
17.75
11.72
6.34
2.56
0.84
0.98
2.21
3.51
3.98
3.3
1.64
-0.43
-2.35
-3.88
-5.02
-5.97
-6.86
-7.63
-8.05
-7.94
-7.32
-6.57
-6.34
-7.27
-9.72
-13.54
-18.11
-22.46
-25.76
-27.48
-27.65
-26.72
-25.31
-24.05
-23.41
-23.72
-25.14
-27.66
-31
-34.48
-37.14
-37.9
-35.94
-30.94
-23.27
-13.9
-4.08
5.05
12.73
18.64
22.73
25.06
25.7
24.85
22.96
20.81
19.33
19.17
20.39
22.49
24.53
25.73
25.74
24.79
23.44
22.25
21.48
21.14
21.1
21.36
22.12
23.58
25.85
28.62
31.23
32.8
32.55
30.14
25.79
20.24
14.51
9.63
6.36
5.13
5.97
8.5
11.87
14.85
15.93
13.77
7.68
-1.95
-13.54
-24.66
-32.66
-35.61
-32.87
-25.27
-14.75
-3.62
6.19
13.63
18.64
21.78
23.79
25.18
26.12
26.47
26.07
24.86
22.88
20.28
17.2
13.78
10.13
6.43
2.98
0.16
-1.69
-2.38
-2
-1
-0.03
0.31
-0.33
-1.99
-4.33
-6.88
-9.2
-11.08
-12.64
-14.21
-16.11
-18.51
-21.15
-23.41
-24.51
-23.9
-21.78
-19.17
-17.61
-18.46
-22.23
-28.27
-35.02
-40.56
-43.32
-42.55
-38.29
-31.21
-22.3
-12.75
-3.77
3.55
8.44
10.75
10.91
9.72
7.91
6.05
4.37
2.95
1.75
0.55
-0.99
-3.37
-6.96
-11.66
-16.84
-21.66
-25.59
-28.59
-31.01
-32.94
-33.88
-32.75
-28.77
-22.27
-15.06
-9.94
-9.58
-15.32
-26.55
-41.06
-55.99
-68.84
-77.86
-81.91
-80.22
-72.44
-59.21
-42.53
-25.74
-12.67
-6.03
-6.19
-10.51
-14.23
-12.35
-1.65
18.03
43.93
71.81
97.93
120.64
140.82
160.73
182.29
205.02
225.19
236.68
233.2
211.51
173.5
126
78.31
38.62
10.89
-5.98
-16.49
-25.59
-35.95
-47.04
-56.37
-61.51
-61.94
-59.28
-56.29
-55.15
-56.32
-58.46
-59.52
-58.01
-53.74
-47.72
-41.33
-35.61
-30.98
-27.81
-26.93
-29.89
-38.26
-52.54
-71.65
-93.17
-114.37
-133.24
-148.78
-160.32
-166.61
-165.72
-156.19
-139
-118.53
-101.66
-94.76
-100.23
-114.58
-129.45
-135.25
-125.15
-97.61
-56.22
-7.67
40.72
82.29
111.36
123.65
117.37
94.94
63.66
34.46
18.15
21.12
42.43
73.85
102.96
117.68
110.38
80.24
33.23
-19.98
-67.28
-98.65
-108.97
-98.97
-73.91
-40.59
-4.08
33.88
74.01
116.76
159.79
197.47
222.92
231.18
221.29
196.47
162.18
124.14
87.43
56.53
35.27
26.18
28.72
38.25
47.24
48.42
38.76
21.73
6.15
1.94
14.97
44.2
82.56
120.94
152.51
174.82
188.85
195.96
195.46
184.62
161.16
126.01
84.77
45.93
16.81
-0.17
-8.86
-16.73
-30.2
-51.05
-76
-99.66
-118.53
-132.73
-144.72
-156.42
-166.58
-171.3
-167.25
-155.29
-141.79
-136.68
-148.43
-179.06
-222.31
-265.98
-297.71
-310.62
-305.76
-290.3
-272.62
-257.7
-244.67
-228.51
-203.58
-167.77
-124.49
-81.6
-47.96
-29.3
-25.66
-31.52
-38.44
-38.58
-27.72
-6.3
21.61
50.8
77.57
101.7
125.96
153.79
186.8
222.74
256.06
280.54
292.62
293.58
289.21
287.08
292.61
306.39
324.57
341.84
355.11
365.35
376.43
391.77
411.2
430.86
445.17
450.54
448.15
443.43
442.94
450.58
465.31
481.69
493.11
494.6
484.65
465.29
440.31
413.1
385.52
357.58
327.87
295.92
261.59
225.14
187.07
147.54
105.96
61.31
12.55
-41.63
-98.86
-156.61
-212.52
-264.03
-309.33
-347.88
-380.51
-409.04
-437.63
-464.68
-489.68
-512.97
-534.1
-552.48
-568.07
-581.64
-594.63
-612.42
-632.48
-656.13
-687.74
-730.11
-782.94
-841.84
-898.56
-943.55
-973.98
-981.39
-967.7
-942.46
-914.26
-887.08
-859.47
-826.94
-755.52
-685.19
-616.56
-531.5
-422.15
-286.42
-129.16
39.15
205.63
358.18
482.33
577.94
644.75
683.11
697.44
693.99
678.91
656.93
630.97
598.98
566.34
534.6
502.9
470.31
436.52
402.09
368.1
335.62
303.04
273.43
247.2
222.67
198.61
174.19
149.44
124.96
101.55
78.55
57.22
36.99
15.51
-7.73
-33.87
-63.26
-94.74
-125.39
-151.48
-168.31
-173.05
-165.77
-149.14
-127.81
-106.42
-88.21
-74.39
-64.4
-56.82
-50.11
-43.2
-35.55
-27.21
-18.47
-9.87
-2.16
3.97
8.14
10.53
11.83
13
14.65
16.84
19.16
20.98
22.09
22.78
23.85
25.94
29.1
32.47
34.63
34.33
31.02
25.13
17.74
10.03
2.73
-4.02
-10.56
-17.26
-24.29
-31.56
-38.85
-45.88
-52.54
-58.9
-65.33
-72.41
-80.71
-90.41
-100.98
-111.14
-119.14
-123.39
-123.01
-118.04
-109.11
-97.03
-82.38
-65.59
-47.33
-28.71
-11.15
4.28
17.46
29.31
41.14
53.58
65.94
76.24
82.19
82.53
77.8
70.19
62.56
57.21
55.29
56.74
60.84
66.61
72.99
78.64
82.01
81.81
77.58
70.21
61.58
53.84
48.5
45.93
45.57
46.44
47.63
48.38
48.02
45.8
41.18
34.08
25.23
15.89
7.41
0.63
-4.4
-8.24
-11.55
-14.71
-17.69
-20.25
-22.27
-24.07
-26.4
-30.39
-37.09
-47
-59.6
-73.07
-84.49
-90.69
-89.32
-79.73
-63.2
-42.38
-20.29
0.66
19.16
34.86
47.87
58.38
66.59
72.81
77.51
81.19
84.18
86.28
86.96
85.73
82.57
78.1
73.39
69.57
67.44
67.4
69.47
73.41
78.72
84.44
89.15
91.27
89.74
84.43
76.5
67.88
60.71
56.49
55.66
57.49
60.42
62.52
62.06
58.04
50.55
40.81
30.73
22.17
16.36
13.4
12.4
11.96
10.79
7.88
2.72
-4.81
-14.52
-25.69
-37.03
-46.76
-53.05
-54.58
-50.97
-42.92
-31.77
-19.08
-5.99
6.72
18.61
29.2
37.81
43.68
46.23
45.45
41.92
36.79
31.28
26.46
23.06
21.45
21.66
23.38
25.94
28.46
30.08
30.12
28.36
25
20.63
16.1
12.31
10.1
9.88
11.41
13.77
15.75
16.2
14.37
10.22
4.25
-2.76
-10.07
-17.09
-23.28
-27.88
-30.19
-30.01
-27.95
-25.4
-23.96
-24.68
-27.71
-32.26
-36.64
-39.35
-39.49
-36.96
-32.04
-24.97
-15.76
-4.45
8.63
23.57
39.78
55.85
69.85
80.26
86.75
90.42
93.27
97.26
105.44
119.1
137.03
156.11
172.93
185.72
194.84
202.5
211.28
226.16
249.44
278.91
307.51
325.74
325.52
303.44
262.42
211.28
166.53
143.64
151.2
188.02
245.01
310.07
372.92
427.65
445.35
409.57
320.16
194.13
55.83
-75.14
-187.98
-278.38
-345.48
-390.52
-412.32
-411.78
-393.54
-365.05
-333.78
-304.72
-278.79
-254.19
-228.46
-196.48
-154.35
-101.36
-40.61
21.82
78.39
121.93
147.15
152.19
139.25
115.77
90.98
72.35
63.41
63.64
69.94
78.42
85.75
90.57
92.26
89.38
79.75
61.77
35.65
4.24
-28.15
-57.33
-80.29
-95.94
-105.2
-110.05
-112.46
-114.33
-116.9
-121.07
-127.66
-137.39
-150.53
-167
-186.21
-207.19
-229.93
-254.33
-280.28
-307.58
-335.77
-364.43
-393.66
-424.19
-456.71
-492.61
-530.82
-567.21
-595.57
-609.56
-605.46
-583.96
-549.58
-508.2
-466.22
-426.32
-388.02
-350.04
-312.92
-280.26
-257.54
-248.98
-240.09
-216.88
-167.32
-87.65
14.73
124.59
225.97
308.18
368.2
409.11
434.57
448.14
451.81
446.42
433.13
414.21
392.78
372.35
355.6
342.09
330.13
317.37
301.62
282.14
259.93
236.46
213.57
192.81
174.03
156.55
139.6
122.43
105.07
88.2
72.62
58.98
47.52
37.6
28.55
19.85
10.83
1.3
-8.72
-19.32
-30.84
-43.99
-60.14
-81.18
-105.54
-132.38
-159.98
-185.6
-206.13
-218.91
-222.61
-217.48
-205.1
-187.56
-167.31
-146.03
-124.79
-104.34
-85.35
-68.63
-54.95
-44.86
-38.32
-34.9
-33.32
-31.87
-29.13
-24.61
-19.06
-13.92
-10.38
-8.45
-7.03
-4.31
1.08
9.11
18.47
27.3
34.21
38.8
41.48
42.67
42.23
39.53
34.02
26.04
17.02
9.2
4.51
3.56
5.2
6.98
6.33
1.63
-7.21
-18.77
-31.01
-42.09
-51.09
-58.15
-64.07
-69.76
-76.01
-83.22
-91.46
-100.5
-109.6
-117.43
-122.07
-121.44
-113.96
-99.37
-79.04
-55.55
-31.84
-10.31
7.85
22.54
34.04
42.54
47.9
49.99
49.22
46.73
44.1
42.7
43.09
44.94
47.3
49.3
50.59
51.39
52.12
53.07
54.12
54.79
54.58
53.24
50.88
47.85
44.5
41.04
37.5
33.83
30.01
26.23
22.83
20.19
18.69
18.52
19.62
21.44
22.95
22.65
19.02
11.1
-0.89
-15.3
-29.32
-39.75
-44.03
-40.93
-30.75
-15.15
3.49
22.54
39.78
53.57
63.2
68.83
71.28
71.56
70.42
68.09
64.64
60.27
55.72
52.11
50.33
50.62
52.27
54.04
54.83
54.19
52.34
49.8
46.89
43.53
39.45
34.54
29.08
23.6
18.51
13.76
8.95
3.71
-1.86
-7.1
-11.02
-13.08
-13.65
-14.07
-16.03
-20.72
-27.98
-36.42
-43.83
-48.26
-48.57
-44.64
-37.05
-26.67
-14.31
-0.8
13.05
26.33
38.31
48.61
57.34
64.9
71.53
77.02
80.7
81.83
80.14
76.14
70.99
66.09
62.5
60.58
59.99
59.95
59.72
58.89
57.38
55.29
52.65
49.4
45.48
41.04
36.42
32.06
28.14
24.48
20.54
15.75
9.9
3.29
-3.27
-8.91
-13.04
-15.71
-17.63
-19.77
-23.01
-27.68
-33.43
-39.22
-43.64
-45.25
-43.05
-36.75
-26.82
-14.44
-1.06
12.03
23.95
34.3
42.97
49.88
54.88
57.83
58.67
57.63
55.13
51.82
48.35
45.33
43.22
42.14
41.87
41.82
41.39
40.34
38.94
37.78
37.32
37.51
37.72
37.17
35.51
33.14
30.93
29.59
29.02
28.37
26.52
22.97
18.16
13.29
9.57
7.58
7.13
7.51
8
8.07
7.37
5.46
1.71
-4.42
-12.83
-22.46
-31.32
-37.22
-38.56
-34.89
-26.98
-16.35
-4.63
6.99
17.92
28
37.24
45.54
52.62
58.08
61.62
63.15
62.76
60.66
57.14
52.5
47.01
41.02
34.89
29.12
24.15
20.21
17.19
14.57
11.63
7.76
2.79
-2.94
-8.66
-13.63
-17.57
-20.89
-24.58
-29.62
-36.38
-44.24
-51.71
-57.02
-58.98
-57.45
-53.47
-48.74
-45.05
-43.69
-45.19
-49.27
-55.06
-61.23
-66.25
-68.66
-67.41
-62.09
-52.93
-40.83
-27.04
-12.99
-0.09
10.39
17.62
21.31
21.83
20
16.85
13.28
9.79
6.58
3.7
1.15
-1.11
-3.15
-5.15
-7.18
-9.04
-10.25
-10.28
-8.97
-6.67
-4.16
-2.32
-1.7
-2.36
-3.98
-6.1
-8.31
-10.41
-12.3
-13.92
-15.25
-16.31
-17.3
-18.47
-19.97
-21.71
-23.36
-24.53
-24.98
-24.79
-24.36
-24.23
-24.83
-26.24
-28.06
-29.52
-29.81
-28.37
-25.2
-20.68
-15.46
-10.02
-4.49
1.19
7.08
12.85
17.77
20.9
21.72
20.4
17.9
15.43
13.99
13.88
14.75
15.95
16.99
17.83
18.71
19.79
20.89
21.53
21.31
20.23
18.85
17.93
18
18.98
20.32
21.34
21.72
21.58
21.3
21.03
20.57
19.46
17.43
14.69
11.93
9.94
9.17
9.46
10.22
10.63
9.94
7.68
3.63
-2.04
-8.72
-15.3
-20.46
-23.09
-22.82
-20.16
-16.11
-11.63
-7.07
-2.2
3.42
9.81
16.31
21.84
25.49
26.99
26.76
25.51
23.81
21.89
19.78
17.58
15.64
14.38
14
14.24
14.52
14.19
12.91
10.72
7.88
4.59
0.89
-3.34
-8.11
-13.12
-17.91
-22.04
-25.32
-27.92
-30.21
-32.55
-35.04
-37.43
-39.24
-40.13
-40.05
-39.48
-39.13
-39.65
-41.28
-43.69
-46.14
-47.75
-47.87
-46.19
-42.82
-38.05
-32.26
-25.78
-18.91
-12.02
-5.53
0.09
4.51
7.61
9.47
10.29
10.2
9.23
7.39
4.83
1.87
-1.02
-3.42
-5.16
-6.32
-7.16
-7.9
-8.56
-8.98
-9.03
-8.72
-8.22
-7.75
-7.42
-7.21
-7.11
-7.15
-7.51
-8.3
-9.45
-10.61
-11.35
-11.36
-10.75
-9.99
-9.77
-10.66
-12.77
-15.72
-18.76
-21.1
-22.15
-21.78
-20.29
-18.41
-16.97
-16.62
-17.63
-19.73
-22.22
-24.22
-24.96
-23.95
-21.09
-16.59
-10.83
-4.26
2.54
9
14.5
18.56
20.92
21.66
21.12
19.85
18.52
17.79
18.1
19.48
21.58
23.71
25.16
25.54
24.98
24.16
24.02
25.3
28.13
32.01
35.88
38.62
39.42
38.08
35.16
31.72
28.93
27.65
28.05
29.53
30.94
31.11
29.24
25.26
19.84
14.18
9.64
7.42
8.2
11.74
16.48
19.61
17.87
8.94
-6.96
-26.53
-44.31
-54.92
-55.46
-46.81
-33.02
-19.13
-8.66
-2.27
1.89
6.5
13.17
21.68
30.32
37.11
40.82
41.35
39.42
36.34
33.56
32.5
34.17
38.69
44.96
50.75
53.54
51.76
45.81
38.1
32
30.27
33.75
41.09
49.31
54.79
54.3
45.57
27.93
2.92
-25.25
-50.44
-66.4
-69.19
-58.85
-39.3
-16.34
5.08
22.46
35.4
43.81
46.1
39.01
19.33
-13.55
-56.03
-100.71
-138.87
-163.78
-173.14
-169.48
-158.44
-145.96
-135.66
-127.61
-118.99
-106.28
-87.73
-64.68
-41.13
-21.59
-8.84
-2.52
0.24
2.95
7.65
14.07
20.04
22.94
21.07
14.37
4.27
-7.1
-17.69
-25.97
-31.01
-32.53
-30.78
-26.6
-21.29
-16.47
-13.75
-14.2
-17.8
-23.28
-28.66
-32.23
-33.48
-33.46
-34.3
-37.96
-45.11
-54.63
-64.17
-71.23
-74.2
-72.76
-67.76
-60.75
-53.61
-48.24
-46.27
-48.74
-55.44
-64.68
-73.56
-78.88
-78
-69.32
-52.23
-27.03
5.06
41.72
79.16
112.32
136.03
146.59
143.03
127.19
102.83
74.2
45.08
18.8
-1.33
-11.92
-10.53
2.68
23.6
44.75
57.87
57.76
45.02
26.2
10.81
6.97
17.74
40.28
67.97
93.84
113.46
125.75
131.91
133.51
131.22
124.86
114.35
100.5
84.81
68.37
50.55
29.07
1.63
-31.45
-65.5
-92.04
-102.07
-90.72
-60.68
-22.13
11.28
28.35
25.11
5.84
-19.63
-40.81
-51.15
-49.46
-38.92
-24.61
-11.15
-1.43
3.57
4.54
3.29
2.17
3.27
7.77
15.81
27.01
40.99
57.27
74.28
88.7
95.86
91.8
76.04
53.01
30.95
18.25
19.4
32.59
50.52
63.89
65.51
52.67
27.02
-7.14
-44.7
-80.7
-110.64
-130.79
-139
-135.73
-124.44
-110.36
-98.59
-92.05
-90.66
-92.54
-95.76
-99.94
-106.29
-116.19
-129.46
-143.38
-153.42
-155.48
-148
-132.92
-114.91
-99.38
-90.25
-88.82
-93.77
-102.14
-110.39
-115.1
-113.68
-105.33
-91.45
-75.56
-61.91
-53.38
-49.7
-46.95
-39.44
-22.65
4
36.3
67
88.98
98.42
95.77
84.62
69.58
54.37
40.96
29.8
20.34
11.26
0.66
-13.52
-32.53
-55.7
-80.07
-100.97
-113.66
-115.16
-105.3
-86.3
-61.48
-33.86
-5.54
22.04
47.61
69.63
87.02
99.64
108.68
116.6
126.51
141.27
162.51
189.92
220.91
251.01
275.25
289.86
293.58
287.96
276.2
261.4
245.35
228.41
210.53
192.53
176.47
164.98
159.78
160.68
165.66
172.01
177.88
182.94
188.3
195.43
205.32
217.96
232.61
248.46
265
281.97
298.74
313.95
325.56
331.62
331.14
324.78
314.69
303.62
293.66
285.42
277.98
269.62
258.87
245.3
229.55
212.87
196.41
180.86
166.35
152.71
139.54
126.35
112.65
98.02
82.17
64.95
46.43
26.87
6.51
-14.29
-35.21
-55.99
-76.72
-97.67
-119.01
-140.28
-160.18
-176.92
-188.43
-193.11
-190.28
-180.55
-165.6
-147.95
-130.59
-116.39
-108.12
-107.18
-113.07
-123.54
-135.53
-146.52
-155.64
-163.92
-173.7
-188.92
-212.18
-243.83
-281.81
-322.65
-362.88
-400.07
-433.1
-462
-490.54
-522.15
-559.01
-601.68
-649.76
-702.53
-758.69
-815.13
-866.14
-909.11
-940.85
-959
-962.87
-954.06
-936.42
-914.88
-893.29
-873.34
-860.9
-859.14
-867.58
-881.13
-891.24
-888.65
-866.21
-820.78
-714.94
-533.57
-285.84
-5.86
262.19
484.91
650.75
766.43
846.11
902.12
934.88
941.9
922.8
883.04
832.64
781.73
736.62
698.7
666.03
630.83
587.73
534.66
474.48
413.03
356.13
307.56
268.75
239.66
216.54
196.04
175.96
155.74
135.7
116.06
96.49
76.65
56.73
36.25
15.73
-3.42
-19.03
-28.84
-31.64
-27.79
-19.04
-7.78
3.28
12.37
18.87
23.2
25.98
27.55
27.68
25.96
22.24
16.89
10.68
4.47
-1.06
-5.54
-8.88
-11.01
-12.03
-12.17
-11.85
-11.84
-12.92
-15.5
-19.55
-24.71
-30.56
-36.82
-43.42
-50.38
-57.7
-65.03
-71.55
-76.21
-78.08
-76.8
-72.8
-67.18
-61.37
-56.69
-53.97
-53.54
-55.38
-59.27
-64.92
-71.83
-79.18
-85.87
-90.7
-92.61
-91.13
-86.51
-79.18
-69.71
-58.53
-45.85
-31.76
-16.22
0.45
17.27
32.49
44.28
51.31
53.44
52.09
49.52
47.9
48.47
51.49
56.4
62.59
69.72
77.52
85.44
92.52
97.63
100.03
99.99
98.83
98.47
100.54
105.73
113.64
122.78
131.07
136.27
136.56
130.94
119.46
103.1
83.43
62.14
40.63
20.06
1.44
-14.46
-27.15
-36.66
-43.59
-48.67
-52.24
-53.83
-52.27
-46.12
-34.6
-18.26
0.98
20.55
37.99
51.73
61.15
66.41
68.1
67.1
64.48
61.46
59.31
59.06
61.11
65.23
70.56
75.8
79.59
80.96
79.54
75.87
71.09
66.31
61.94
57.4
51.51
43.3
32.7
21.03
10.77
4.8
5.57
14.33
30.65
52.39
76.04
97.42
112.67
119.25
116.66
106.44
91.55
75.19
59.75
46.29
34.66
24.07
13.74
3.38
-6.52
-14.66
-19.38
-19.26
-13.65
-3.1
10.78
25.64
39.2
49.78
56.51
59.26
58.39
54.61
48.89
42.55
37.17
34.2
34.45
37.68
42.64
47.49
50.63
51.4
50.19
48.19
46.63
46.1
46.3
46.22
44.66
40.78
34.41
25.9
16
5.52
-4.56
-13.03
-18.56
-19.99
-16.8
-9.47
0.35
10.29
17.86
21.14
19.2
12.15
0.92
-12.91
-27.38
-40.36
-49.72
-53.78
-51.72
-43.78
-31.27
-16.19
-0.71
13.37
24.93
33.53
39.15
41.79
41.43
38.38
33.61
28.74
25.72
26.03
29.76
35.61
41.38
45.11
45.85
43.79
39.8
34.81
29.44
24.11
19.34
15.74
13.64
12.65
11.52
8.63
2.97
-5.18
-14.1
-21.35
-24.87
-24.05
-19.99
-15.04
-11.79
-12.24
-17.22
-26.18
-37.51
-49.06
-58.57
-64.03
-64.14
-58.56
-48.08
-34.53
-20.21
-7.36
2.47
8.77
12.02
13.25
13.62
13.91
14.3
14.34
13.29
10.58
6.26
1.23
-3.01
-4.89
-3.45
1.1
7.43
13.58
17.74
18.86
16.82
12.26
6.15
-0.64
-7.49
-14.02
-20.03
-25.23
-29.26
-31.66
-31.97
-29.78
-25.12
-18.49
-11.07
-4.66
-1.31
-2.63
-9.43
-21.48
-37.58
-55.92
-74.23
-90.03
-100.82
-104.41
-99.46
-86.11
-66.22
-43.07
-20.45
-1.64
11.41
18.21
19.44
16.43
10.76
4.17
-1.46
-4.35
-3.16
2.53
11.89
22.84
32.43
37.64
36.26
27.6
12.68
-6.02
-25.3
-42.26
-54.9
-62.3
-64.32
-61.31
-53.91
-43.14
-30.66
-18.83
-10.24
-6.85
-9.23
-16.28
-25.67
-34.87
-42.06
-46.66
-49.11
-50.3
-50.85
-50.83
-49.78
-47.18
-42.72
-36.4
-28.48
-19.23
-8.92
2.09
13.03
22.71
29.86
33.59
33.95
31.94
29.12
26.9
25.95
26.01
26.26
25.79
24.11
21.18
17.22
12.56
7.51
2.56
-1.53
-3.73
-3.12
0.67
7.07
14.67
21.59
26.13
27.26
24.93
20
13.81
7.7
2.66
-0.89
-2.95
-3.69
-3.21
-1.48
1.53
5.69
10.58
15.59
20.01
23.19
24.48
23.23
18.91
11.37
1.25
-9.95
-20.1
-27.09
-29.67
-27.81
-22.64
-15.84
-8.85
-2.5
3.04
7.9
12.13
15.59
18.13
19.88
21.26
22.9
25.23
28.16
30.98
32.63
32.01
28.53
22.31
14.23
5.71
-1.67
-6.59
-8.28
-6.79
-2.93
1.93
6.29
8.94
9.3
7.51
4.28
0.54
-2.93
-5.6
-7.25
-7.93
-7.76
-6.88
-5.46
-3.75
-2.1
-1
-1.01
-2.53
-5.78
-10.67
-16.8
-23.55
-30.12
-35.73
-39.72
-41.63
-41.28
-38.78
-34.55
-29.21
-23.41
-17.65
-12.08
-6.58
-0.95
4.84
10.38
14.83
17.11
16.4
12.48
5.94
-1.97
-9.76
-16.18
-20.53
-22.74
-23.13
-22.21
-20.49
-18.36
-16.24
-14.55
-13.58
-13.39
-13.72
-14.08
-14.09
-13.61
-12.83
-12.19
-12.13
-12.98
-14.85
-17.7
-21.31
-25.31
-29.19
-32.35
-34.4
-35.38
-35.85
-36.61
-38.4
-41.46
-45.44
-49.58
-53.04
-55.22
-55.67
-54.12
-50.39
-44.37
-36.28
-26.73
-16.67
-7.01
1.68
9.47
16.77
23.81
30.29
35.36
38.05
37.97
35.6
32.21
29.26
27.62
27.23
27.3
26.8
25.16
22.47
19.4
16.67
14.71
13.42
12.43
11.29
9.72
7.7
5.37
2.87
0.33
-2.16
-4.44
-6.28
-7.37
-7.55
-6.88
-5.78
-4.85
-4.69
-5.63
-7.65
-10.42
-13.46
-16.29
-18.56
-20.16
-21.22
-22.03
-22.94
-24.13
-25.58
-27.04
-28.07
-28.14
-26.74
-23.32
-17.48
-9.04
1.68
13.72
25.54
35.51
42.39
45.93
46.8
46.25
45.4
44.76
44.21
43.33
41.91
40.24
38.88
38.25
38.25
38.13
36.99
34.36
30.53
26.45
23.27
21.68
21.58
22.19
22.49
21.68
19.52
16.4
13.02
10.12
8.17
7.22
6.86
6.4
5
2.02
-2.73
-8.7
-14.77
-19.55
-21.93
-21.48
-18.59
-14.32
-10.06
-7.05
-5.96
-6.85
-9.35
-12.89
-16.89
-20.78
-23.99
-25.87
-25.75
-23.17
-18.07
-10.91
-2.58
5.82
13.36
19.48
23.98
26.8
27.93
27.32
24.98
21.19
16.41
11.25
6.29
1.94
-1.54
-4.03
-5.44
-5.68
-4.79
-3
-0.81
1.17
2.32
2.3
1.07
-1.02
-3.44
-5.58
-7.06
-7.9
-8.48
-9.49
-11.54
-14.9
-19.24
-23.79
-27.55
-29.84
-30.56
-30.17
-29.6
-29.75
-31.25
-34.19
-38.13
-42.25
-45.57
-47.15
-46.3
-42.63
-36.17
-27.37
-17.06
-6.42
3.27
10.92
15.89
18.11
18.07
16.55
14.27
11.69
8.97
6.18
3.51
1.32
0.09
-0.02
0.75
1.82
2.57
2.72
2.46
2.32
2.86
4.25
6.2
8.06
9.17
9.09
7.79
5.49
2.55
-0.65
-3.78
-6.53
-8.64
-9.96
-10.58
-10.74
-10.82
-11.19
-12.18
-13.96
-16.61
-20.09
-24.25
-28.85
-33.45
-37.47
-40.19
-40.97
-39.39
-35.29
-28.93
-21.05
-12.74
-5.18
0.77
4.82
7.34
9
10.38
11.57
12.26
11.97
10.5
8.22
5.95
4.56
4.47
5.52
7.13
8.71
9.99
11.04
12.06
13.14
14.05
14.35
13.62
11.81
9.32
6.93
5.41
5.2
6.29
8.23
10.27
11.66
11.8
10.42
7.63
3.95
0.25
-2.58
-3.89
-3.65
-2.49
-1.49
-1.73
-3.76
-7.43
-11.97
-16.49
-20.33
-23.38
-26.04
-28.97
-32.69
-37.3
-42.39
-46.98
-49.92
-50.12
-46.88
-40.14
-30.44
-18.73
-6.23
5.88
16.74
25.8
32.98
38.48
42.62
45.6
47.43
47.91
46.9
44.49
41.11
37.41
34.04
31.4
29.52
28.11
26.78
25.22
23.37
21.33
19.34
17.66
16.41
15.5
14.66
13.54
11.9
9.74
7.31
5.02
3.22
2.05
1.54
1.62
2.17
3.09
4.16
5.08
5.58
5.4
4.5
3.01
1.12
-1.11
-3.75
-7.02
-11.17
-16.3
-22.36
-29.03
-35.73
-41.62
-45.66
-46.74
-44.02
-37.24
-26.95
-14.38
-1.21
10.84
20.38
26.53
28.99
28
24.28
19
13.55
9.24
6.81
6.28
6.88
7.43
6.88
4.74
1.26
-2.79
-6.45
-9.08
-10.45
-10.74
-10.45
-10.09
-10.09
-10.66
-11.83
-13.37
-14.86
-15.7
-15.37
-13.6
-10.59
-7.1
-4.33
-3.56
-5.54
-10.18
-16.47
-22.97
-28.37
-32.04
-34.24
-35.8
-37.59
-40.01
-42.71
-44.82
-45.33
-43.51
-39.13
-32.43
-24.01
-14.68
-5.3
3.27
10.4
15.71
19.24
21.38
22.76
23.88
25
26.05
26.77
26.91
26.41
25.35
23.94
22.32
20.53
18.48
16.02
13.03
9.57
5.87
2.37
-0.46
-2.3
-3.11
-3.18
-2.96
-2.9
-3.2
-3.74
-4.22
-4.4
-4.23
-3.89
-3.73
-3.99
-4.83
-6.2
-8.05
-10.34
-13.07
-16.11
-19.2
-21.98
-24.1
-25.54
-26.57
-27.83
-29.98
-33.29
-37.36
-41.14
-43.23
-42.41
-38.21
-30.95
-21.62
-11.42
-1.36
7.94
16.2
23.32
29.21
33.8
37.06
39.05
39.95
39.92
39.08
37.53
35.39
32.88
30.28
27.8
25.61
23.77
22.3
21.09
19.96
18.66
16.92
14.61
11.81
8.85
6.18
4.23
3.19
3.14
4.01
5.65
7.93
10.55
13.19
15.51
17.22
18.09
17.98
16.8
14.6
11.69
8.75
6.66
6.05
6.91
8.43
9.19
7.7
3.07
-4.63
-14.4
-24.58
-33.41
-39.28
-41.11
-38.5
-31.84
-22.18
-10.96
0.41
10.82
19.65
26.73
32.14
36.08
38.72
40.14
40.35
39.18
36.49
32.39
27.41
22.5
18.76
16.94
17.12
18.67
20.59
21.95
22.2
21.22
19.12
16.02
12.1
7.62
3.08
-0.83
-3.43
-4.36
-3.78
-2.44
-1.42
-1.71
-3.84
-7.67
-12.39
-16.82
-19.98
-21.44
-21.51
-21.06
-21.19
-22.77
-26.19
-31.22
-37.03
-42.48
-46.34
-47.63
-45.91
-41.29
-34.36
-25.95
-16.94
-8.08
0.1
7.25
13.24
18.02
21.65
24.09
25.15
24.51
21.98
17.8
12.72
7.87
4.28
2.54
2.54
3.54
4.64
5.15
4.87
3.88
2.39
0.42
-2.18
-5.59
-9.68
-13.9
-17.47
-19.76
-20.74
-21
-21.36
-22.41
-24
-25.29
-25.28
-23.52
-20.5
-17.43
-15.59
-15.61
-17.18
-19.26
-20.91
-21.77
-22.3
-23.38
-25.57
-28.67
-31.72
-33.47
-32.85
-29.49
-23.63
-15.94
-7.2
1.93
10.96
19.53
27.34
34.11
39.53
43.3
45.22
45.24
43.48
40.29
36.26
32.05
28.31
25.44
23.49
22.15
20.91
19.28
17
14.17
11.22
8.71
7.01
6.17
5.92
5.9
5.91
5.89
5.95
6.03
5.98
5.46
4.26
2.39
0.16
-2.04
-3.91
-5.37
-6.61
-7.88
-9.35
-10.96
-12.54
-13.86
-14.75
-15.22
-15.41
-15.67
-16.48
-18.33
-21.51
-25.79
-30.34
-33.89
-35.15
-33.26
-28.19
-20.69
-11.93
-3
5.43
13.18
20.33
26.85
32.5
36.85
39.55
40.61
40.36
39.32
37.95
36.54
35.07
33.46
31.69
29.88
28.32
27.23
26.59
26.15
25.56
24.53
22.94
20.84
18.39
15.8
13.27
11.01
9.27
8.3
8.21
8.89
9.96
10.81
10.81
9.57
7.09
3.79
0.37
-2.38
-3.92
-4.32
-4.25
-4.86
-7.2
-11.74
-18.02
-24.74
-30.27
-33.28
-33.26
-30.55
-25.97
-20.34
-14.16
-7.65
-1.02
5.39
11.07
15.49
18.35
19.61
19.4
17.83
14.89
10.66
5.44
-0.13
-5.19
-9.02
-11.33
-12.35
-12.46
-11.95
-10.89
-9.21
-6.95
-4.39
-1.96
0
1.43
2.55
3.49
4.13
3.96
2.4
-0.83
-5.52
-11.09
-16.92
-22.63
-28.13
-33.28
-37.71
-40.79
-41.97
-41.21
-39.13
-36.81
-35.34
-35.34
-36.68
-38.65
-40.33
-40.96
-40.13
-37.75
-33.96
-28.93
-22.78
-15.51
-7.14
2.06
11.47
20.08
26.78
30.76
31.98
31.08
29.08
26.83
24.65
22.41
19.84
16.92
14.02
11.7
10.32
9.77
9.41
8.5
6.57
3.73
0.57
-2.19
-3.95
-4.57
-4.28
-3.56
-2.93
-2.73
-3.1
-3.94
-4.93
-5.79
-6.32
-6.53
-6.62
-6.87
-7.61
-9.02
-11.07
-13.53
-16.09
-18.51
-20.7
-22.81
-25.03
-27.5
-30.18
-32.8
-34.94
-36.19
-36.19
-34.69
-31.45
-26.28
-19.08
-9.99
0.41
11.17
21.15
29.4
35.39
39.06
40.6
40.37
38.75
36.16
33.17
30.38
28.34
27.33
27.35
28.08
29.11
30.05
30.57
30.45
29.56
28
26.08
24.33
23.27
23.27
24.25
25.79
27.23
27.95
27.57
26
23.46
20.34
17.15
14.43
12.6
11.78
11.68
11.57
10.62
8.21
4.25
-0.66
-5.46
-8.94
-10.22
-9.11
-6.2
-2.72
-0.22
0
-2.72
-8.09
-14.9
-21.38
-25.81
-27.02
-24.81
-19.85
-13.26
-6.16
0.75
7.15
12.99
18.07
21.99
24.26
24.58
23.15
20.65
17.95
15.7
14.02
12.48
10.54
7.98
5.17
2.88
1.82
2.13
3.31
4.39
4.44
3.12
0.79
-1.69
-3.4
-3.81
-2.98
-1.38
0.35
1.65
2.1
1.43
-0.55
-3.81
-8.13
-12.96
-17.58
-21.31
-23.78
-25.16
-26.18
-27.81
-30.89
-35.76
-42.11
-49.02
-55.22
-59.44
-60.7
-58.62
-53.5
-46.1
-37.44
-28.4
-19.57
-11.25
-3.6
3.19
8.8
12.77
14.74
14.59
12.63
9.61
6.52
4.27
3.45
4.05
5.51
7.01
7.8
7.62
6.64
5.41
4.37
3.72
3.28
2.75
1.97
1.04
0.26
-0.18
-0.33
-0.49
-1.09
-2.41
-4.45
-6.94
-9.5
-11.83
-13.87
-15.67
-17.26
-18.65
-19.86
-21.07
-22.6
-24.89
-28.23
-32.6
-37.51
-42.19
-45.73
-47.29
-46.27
-42.4
-35.85
-27.16
-17.2
-6.91
2.87
11.56
18.91
24.87
29.42
32.49
33.96
33.87
32.47
30.21
27.55
24.82
22.1
19.25
16.17
12.98
10.16
8.28
7.76
8.57
10.14
11.62
12.24
11.63
10
7.94
6.07
4.67
3.61
2.47
0.8
-1.57
-4.41
-7.23
-9.48
-10.95
-11.75
-12.19
-12.57
-12.87
-12.67
-11.45
-9
-5.72
-2.68
-1.2
-2.29
-6.13
-11.93
-18.21
-23.45
-26.63
-27.35
-25.58
-21.42
-14.89
-5.98
4.88
16.77
28.41
38.6
46.59
52.13
55.3
56.16
54.64
50.78
44.94
37.98
31.03
25.04
20.47
17.34
15.42
14.45
14.25
14.58
15.07
15.22
14.73
13.64
12.34
11.36
11
11.16
11.5
11.56
11.01
9.76
7.98
6
4.27
3.29
3.44
4.84
7.17
9.67
11.31
11.07
8.26
2.71
-5.09
-14.07
-22.74
-29.42
-32.71
-31.94
-27.41
-20.21
-11.88
-3.75
3.34
9.19
13.99
18.01
21.34
23.82
25.14
25.08
23.63
21.04
17.76
14.31
11.18
8.72
7.02
5.89
4.95
3.71
1.77
-1.06
-4.67
-8.63
-12.34
-15.1
-16.46
-16.4
-15.38
-14.27
-13.97
-15.06
-17.49
-20.59
-23.36
-24.89
-24.74
-23.09
-20.74
-18.81
-18.45
-20.53
-25.28
-32.1
-39.73
-46.48
-50.75
-51.48
-48.47
-42.23
-33.76
-24.08
-14.03
-4.26
4.7
12.4
18.54
23.08
26.18
28.16
29.25
29.55
29.09
27.91
26.16
24.11
22.04
20.07
18.13
16.03
13.67
11.14
8.69
6.65
5.21
4.39
3.99
3.68
3.16
2.24
0.87
-0.84
-2.72
-4.66
-6.7
-8.93
-11.49
-14.41
-17.57
-20.71
-23.54
-25.88
-27.72
-29.21
-30.53
-31.81
-33.18
-34.77
-36.7
-38.9
-40.97
-42.1
-41.34
-37.89
-31.61
-23.11
-13.56
-4.12
4.44
11.96
18.65
24.62
29.69
33.42
35.33
35.31
33.75
31.33
28.66
26.08
23.56
20.93
18.14
15.42
13.17
11.77
11.3
11.55
12.03
12.21
11.74
10.56
8.95
7.46
6.65
6.87
8.03
9.55
10.61
10.49
8.89
6.1
2.73
-0.57
-3.51
-6.06
-8.35
-10.42
-12.1
-13.17
-13.54
-13.45
-13.28
-13.32
-13.59
-13.92
-14.16
-14.47
-15.34
-17.38
-20.85
-25.45
-30.25
-33.99
-35.55
-34.28
-30.19
-23.7
-15.45
-6.12
3.69
13.47
22.74
31.02
37.93
43.18
46.67
48.53
49.1
48.75
47.72
46.03
43.53
40.13
35.98
31.69
28.14
26.2
26.31
28.26
31.29
34.38
36.59
37.4
36.72
34.77
31.93
28.62
25.15
21.76
18.61
15.79
13.33
11.2
9.32
7.56
5.84
4.09
2.35
0.65
-1.05
-2.93
-5.26
-8.16
-11.48
-14.73
-17.32
-18.96
-19.93
-21.12
-23.56
-27.87
-33.75
-39.97
-44.8
-46.7
-44.87
-39.54
-31.75
-22.91
-14.28
-6.65
-0.28
4.93
9.13
12.33
14.35
14.9
13.86
11.37
7.84
3.8
-0.36
-4.31
-7.87
-10.76
-12.64
-13.26
-12.63
-11.09
-9.15
-7.33
-5.89
-4.95
-4.47
-4.45
-4.88
-5.74
-6.89
-8.06
-9.02
-9.69
-10.21
-10.86
-11.85
-13.2
-14.7
-16.05
-16.91
-17
-16.28
-15
-13.74
-13.27
-14.37
-17.43
-22.32
-28.36
-34.59
-39.98
-43.72
-45.2
-44.07
-40.27
-34.06
-26.07
-17.22
-8.45
-0.42
6.55
12.44
17.27
20.94
23.23
23.97
23.28
21.61
19.59
17.77
16.42
15.48
14.76
14.08
13.44
12.96
12.71
12.62
12.48
12.05
11.19
10
8.79
7.88
7.51
7.67
8.07
8.31
8.08
7.22
5.82
4.16
2.45
0.75
-1.07
-3.2
-5.75
-8.65
-11.68
-14.51
-16.94
-18.98
-20.78
-22.56
-24.5
-26.72
-29.38
-32.6
-36.46
-40.66
-44.52
-46.94
-46.81
-43.33
-36.4
-26.77
-15.75
-4.84
4.75
12.29
17.69
21.33
23.8
25.69
27.43
29.24
31.14
33.04
34.72
35.91
36.32
35.8
34.51
32.94
31.79
31.62
32.65
34.51
36.4
37.44
37.08
35.27
32.44
29.4
27.05
26.32
27.72
31.12
35.57
39.4
40.75
38.18
31.38
21.26
9.75
-1.01
-9.36
-14.64
-17.13
-17.62
-16.86
-15.27
-12.88
-9.7
-6.07
-2.75
-0.83
-1.35
-4.77
-10.77
-18.39
-26.28
-33.26
-38.41
-41.1
-40.92
-37.61
-31.17
-22.03
-11.06
0.56
11.6
21.09
28.37
33.08
35.11
34.53
31.62
26.9
21.17
15.39
10.47
7.1
5.57
5.83
7.45
9.84
12.32
14.31
15.36
15.26
14.06
12
9.48
6.99
4.97
3.72
3.34
3.69
4.37
4.79
4.33
2.56
-0.59
-4.6
-8.54
-11.35
-12.33
-11.52
-9.89
-9.06
-10.7
-15.87
-24.48
-35.3
-46.34
-55.49
-61.13
-62.53
-59.81
-53.69
-45.24
-35.52
-25.41
-15.59
-6.55
1.3
7.64
12.2
14.79
15.33
13.86
10.64
6.19
1.33
-2.96
-5.71
-6.32
-4.83
-1.96
1.11
3.28
3.92
3.17
1.76
0.6
0.28
0.75
1.53
1.98
1.75
0.95
0.03
-0.65
-1.06
-1.73
-3.35
-6.41
-10.82
-15.85
-20.47
-23.81
-25.51
-25.79
-25.21
-24.35
-23.63
-23.31
-23.69
-25.03
-27.42
-30.45
-33.23
-34.65
-33.75
-30.23
-24.47
-17.23
-9.31
-1.22
6.84
14.66
21.86
27.79
31.79
33.51
33.13
31.27
28.69
25.96
23.32
20.69
17.99
15.29
12.84
10.96
9.82
9.31
9.06
8.77
8.35
8.02
8.04
8.54
9.3
9.81
9.5
8.08
5.65
2.72
-0.16
-2.67
-4.93
-7.36
-10.35
-13.92
-17.57
-20.46
-21.89
-21.73
-20.59
-19.55
-19.65
-21.44
-24.76
-28.94
-33.08
-36.35
-38.09
-37.79
-35.09
-29.84
-22.22
-12.75
-2.21
8.62
19.14
28.96
37.81
45.32
51.05
54.58
55.79
54.99
52.8
49.98
47.06
44.34
41.81
39.42
37.15
35.07
33.27
31.73
30.35
28.9
27.26
25.39
23.41
21.51
19.84
18.47
17.28
16.05
14.5
12.43
9.77
6.6
3.15
-0.26
-3.21
-5.24
-6.04
-5.61
-4.47
-3.65
-4.44
-7.86
-14.26
-23
-32.63
-41.25
-47.04
-48.77
-46.01
-39.24
-29.66
-18.88
-8.4
0.76
8.29
14.37
19.35
23.3
25.88
26.56
24.94
21.13
15.8
9.93
4.49
0.11
-2.96
-4.8
-5.55
-5.45
-4.72
-3.69
-2.74
-2.19
-2.26
-2.9
-3.95
-5.27
-6.85
-8.91
-11.73
-15.46
-19.95
-24.68
-28.94
-32.04
-33.48
-33.17
-31.47
-29.12
-27.12
-26.47
-27.83
-31.25
-36.12
-41.18
-45.04
-46.51
-44.95
-40.38
-33.2
-24.07
-13.62
-2.51
8.54
18.63
26.91
32.76
36.01
36.95
36.24
34.57
32.47
30.13
27.55
24.74
21.86
19.17
16.95
15.3
14.05
12.87
11.46
9.69
7.74
5.95
4.62
3.78
3.15
2.3
0.95
-0.9
-2.93
-4.83
-6.42
-7.97
-9.96
-12.85
-16.68
-20.99
-25.01
-28.02
-29.79
-30.64
-31.33
-32.61
-34.78
-37.63
-40.44
-42.28
-42.31
-39.87
-34.62
-26.54
-15.92
-3.49
9.69
22.39
33.44
42.02
47.82
51
52.02
51.49
49.92
47.63
44.94
42.02
39.09
36.38
34.04
31.99
30.05
27.94
25.54
23.05
20.91
19.61
19.39
20.12
21.28
22.32
22.75
22.38
21.34
19.89
18.28
16.66
15.05
13.35
11.4
9
6
2.52
-1.13
-4.37
-6.62
-7.47
-6.9
-5.37
-3.86
-3.68
-6.09
-11.87
-20.9
-32.01
-43.19
-52.14
-57
-56.87
-51.97
-43.38
-32.53
-20.68
-8.72
2.81
13.56
23.27
31.73
38.78
44.3
48.17
50.23
50.37
48.61
45.37
41.38
37.59
34.76
33.14
32.45
32.05
31.29
29.84
27.85
25.74
23.91
22.42
20.98
19.1
16.44
13.13
9.81
7.29
6.16
6.43
7.42
8.05
7.37
5.03
1.47
-2.29
-5.19
-6.63
-6.71
-6.23
-6.38
-8.29
-12.81
-20.17
-29.81
-40.5
-50.5
-57.98
-61.53
-60.59
-55.52
-47.38
-37.46
-26.83
-16.24
-6.2
2.77
10.04
14.94
17.07
16.51
13.81
9.9
5.68
1.87
-1.07
-2.92
-3.65
-3.36
-2.36
-1.12
-0.11
0.33
0.13
-0.54
-1.49
-2.63
-4
-5.77
-8.04
-10.65
-13.23
-15.28
-16.42
-16.63
-16.3
-16.15
-16.9
-18.99
-22.29
-26.15
-29.66
-32.05
-33.16
-33.39
-33.5
-34.17
-35.66
-37.71
-39.8
-41.41
-42.21
-42.03
-40.71
-37.93
-33.22
-26.28
-17.19
-6.6
4.5
15.01
24.07
31.22
36.35
39.59
41.11
41.11
39.82
37.49
34.49
31.1
27.54
23.91
20.25
16.63
13.23
10.31
8.13
6.76
6.03
5.55
4.93
3.95
2.72
1.73
1.46
2.16
3.64
5.25
6.18
5.8
4
1.23
-1.75
-4.21
-5.8
-6.61
-7.12
-7.89
-9.34
-11.59
-14.44
-17.5
-20.34
-22.68
-24.41
-25.62
-26.51
-27.3
-28.26
-29.57
-31.27
-33.11
-34.47
-34.45
-32.04
-26.47
-17.56
-5.88
7.42
20.96
33.44
43.98
52.18
58
61.64
63.39
63.57
62.47
60.36
57.46
53.99
50.08
45.89
41.57
37.29
33.27
29.69
26.64
24.1
21.97
20.1
18.34
16.59
14.84
13.18
11.7
10.51
9.77
9.6
10.03
10.96
12.09
12.97
13.14
12.25
10.32
7.79
5.41
3.88
3.56
4.16
4.77
4.18
1.25
-4.54
-12.87
-22.72
-32.56
-40.8
-46.22
-48.18
-46.6
-41.93
-34.93
-26.5
-17.55
-8.82
-0.89
5.77
10.85
14.13
15.43
14.66
11.88
7.39
1.87
-3.74
-8.46
-11.51
-12.53
-11.69
-9.54
-6.91
-4.67
-3.57
-4.05
-6.15
-9.44
-13.19
-16.72
-19.59
-21.7
-23.28
-24.58
-25.82
-27.11
-28.6
-30.54
-33.11
-36.06
-38.62
-39.71
-38.53
-35.14
-30.75
-27.17
-26.02
-27.88
-32.05
-36.96
-40.96
-42.93
-42.49
-39.72
-34.82
-27.96
-19.33
-9.41
0.96
10.8
19.34
26.23
31.56
35.51
38.12
39.17
38.45
35.93
32.04
27.57
23.37
20.07
17.86
16.46
15.41
14.22
12.55
10.34
7.68
4.8
1.98
-0.59
-2.85
-4.78
-6.48
-7.97
-9.21
-10.21
-11.08
-12.14
-13.75
-16.22
-19.49
-23.02
-25.92
-27.38
-27.04
-25.22
-22.79
-20.82
-20.22
-21.44
-24.47
-28.9
-33.94
-38.56
-41.49
-41.39
-37.32
-29.12
-17.65
-4.6
8.02
18.66
26.66
32.29
36.29
39.34
41.63
42.91
42.88
41.58
39.42
36.98
34.62
32.32
29.8
26.87
23.73
20.95
19.16
18.65
19.12
19.84
20.11
19.66
18.79
18.13
18.2
19.09
20.37
21.41
21.71
21.19
20.09
18.71
17.22
15.46
13.13
10.08
6.6
3.3
0.91
-0.19
-0.13
0.41
0.47
-0.84
-3.99
-9.02
-15.6
-23.02
-30.4
-36.66
-40.68
-41.58
-38.93
-32.9
-24.23
-14.02
-3.3
7.17
16.96
25.78
33.3
39.05
42.56
43.59
42.26
39.13
34.95
30.46
26.09
22.01
18.21
14.83
12.23
10.84
10.93
12.35
14.52
16.64
18.03
18.41
17.88
16.71
15.07
12.86
9.84
5.87
1.18
-3.68
-8.02
-11.37
-13.62
-15.02
-15.86
-16.26
-16.08
-15.17
-13.73
-12.55
-12.91
-16.09
-22.79
-32.66
-44.22
-55.3
-63.78
-68.21
-68.09
-63.85
-56.4
-46.78
-35.93
-24.65
-13.7
-3.81
4.3
10.06
13.23
13.93
12.62
9.96
6.62
3.25
0.37
-1.58
-2.35
-1.94
-0.58
1.3
3.35
5.31
7.04
8.39
9.14
9.02
7.85
5.79
3.31
1.09
-0.27
-0.59
-0.1
0.62
0.98
0.49
-1.07
-3.79
-7.56
-12.17
-17.15
-21.9
-25.83
-28.58
-30.24
-31.36
-32.69
-34.84
-37.96
-41.62
-44.97
-46.96
-46.69
-43.62
-37.61
-28.93
-18.17
-6.26
5.73
16.69
25.79
32.59
37.06
39.48
40.23
39.61
37.82
35.1
31.74
28.19
24.85
22
19.78
18.18
17.11
16.46
16.06
15.64
14.94
13.78
12.19
10.46
8.86
7.62
6.65
5.62
4.17
2.07
-0.66
-3.73
-6.65
-8.99
-10.57
-11.56
-12.43
-13.75
-15.83
-18.48
-20.97
-22.3
-21.71
-19.24
-15.77
-12.78
-11.72
-13.35
-17.42
-22.73
-27.6
-30.44
-30.2
-26.51
-19.61
-10.18
0.84
12.4
23.47
33.08
40.57
45.64
48.53
49.86
50.43
50.88
51.42
51.83
51.6
50.34
47.99
44.94
41.84
39.25
37.48
36.59
36.38
36.63
37.03
37.13
36.32
33.99
29.88
24.38
18.57
13.75
10.74
9.44
8.88
7.73
5.08
0.9
-4.04
-8.58
-11.82
-13.33
-13.17
-11.68
-9.49
-7.53
-7.13
-9.78
-16.49
-27.19
-40.42
-53.71
-64.39
-70.45
-71.06
-66.57
-58.17
-47.35
-35.48
-23.65
-12.61
-2.85
5.28
11.58
15.74
17.51
16.65
13.24
7.84
1.39
-4.89
-10.02
-13.46
-15.26
-15.93
-16.07
-16.05
-15.93
-15.52
-14.53
-12.88
-10.82
-8.79
-7.26
-6.46
-6.32
-6.6
-7.06
-7.6
-8.41
-9.8
-12.13
-15.55
-19.87
-24.5
-28.57
-31.27
-32.22
-31.8
-31.03
-31.14
-33.1
-37.01
-42.05
-46.73
-49.43
-48.89
-44.62
-36.73
-25.82
-12.73
1.54
15.95
29.4
40.88
49.73
55.68
58.89
59.74
58.62
55.82
51.65
46.53
41.15
36.43
33.07
31.26
30.49
29.69
27.75
23.98
18.46
11.92
5.23
-0.94
-6.4
-11.19
-15.43
-19.07
-22.02
-24.32
-26.3
-28.33
-30.51
-32.49
-33.56
-33.24
-31.79
-30.31
-30.19
-32.28
-36.31
-40.97
-44.73
-46.64
-46.91
-46.54
-46.46
-46.74
-46.4
-44.03
-38.61
-30.24
-20
-9.36
0.51
9.15
16.52
22.68
27.34
30.11
30.95
30.65
30.66
32.53
37.11
44.05
51.92
59.03
64.24
67.39
69.13
70.24
71.2
71.96
72.11
71.23
69.16
65.92
61.69
56.65
51.07
45.3
39.66
34.19
28.67
22.75
16.35
9.92
4.23
-0.22
-3.85
-7.97
-14.25
-23.53
-34.91
-45.85
-53.15
-54.48
-49.64
-40.6
-30.72
-23.22
-20.12
-21.8
-27.39
-35.26
-43.5
-50.15
-53.38
-51.8
-44.71
-32.81
-18.09
-2.83
11.64
25.91
41.99
61.95
85.98
111.45
133.32
145.69
144.01
126.74
95.82
55.95
13.18
-26.64
-59.22
-82.86
-98.4
-108.63
-116.85
-125.24
-133.7
-140.16
-141.89
-137.21
-126.42
-111.6
-95.49
-80.58
-68.32
-59.41
-54.16
-52.42
-53.4
-55.24
-55.26
-50.74
-40.06
-23.12
-1.11
24.09
50.54
76.54
100.58
121.37
138.15
151.17
161.86
172.2
183.63
195.97
207.22
214.36
214.88
207.69
193.62
174.72
153.51
132.39
113.43
98.35
88.57
85.22
88.74
98.43
112.2
126.69
138.1
143.41
141.43
132.97
120.52
107.25
95.68
86.97
80.76
75.43
68.84
58.93
44.44
25.39
3.03
-20.77
-44.69
-68.76
-94
-121.19
-149
-173.59
-190.21
-195.89
-191.94
-184.16
-180.75
-188.82
-211.62
-247.5
-290.88
-334.26
-370.1
-392.08
-395.95
-380
-345.71
-297.21
-240.35
-180.98
-123.4
-69.6
-19.65
27.03
70.61
110.23
144.45
171.85
191.59
203.34
206.99
202.28
188.69
165.79
134.03
95.33
53.12
11.67
-25.06
-54.36
-75.18
-87.83
-93.36
-93.17
-88.75
-81.79
-73.99
-66.73
-60.67
-55.58
-50.71
-45.43
-40.04
-35.83
-34.41
-36.53
-41.16
-45.57
-46.37
-41.11
-29.52
-13.65
3.03
17.25
27.24
33.13
36.48
39.12
42.21
45.83
49.42
52.26
54.1
55.35
56.9
59.62
63.8
68.97
73.93
77.21
78.04
76.83
75.28
75.42
78.48
83.99
90.13
94.58
95.95
94.41
91.19
87.66
84.27
80.61
76.05
70.57
64.81
59.77
56.11
54.07
53.35
53.04
51.71
47.32
37.81
22.19
1.91
-19.08
-35.54
-43.49
-42.2
-34.56
-25.16
-17.64
-12.73
-8.48
-2.52
5.71
14.55
21.22
23.61
21.54
16.33
9.66
2.12
-6.6
-16.85
-27.92
-37.95
-45.25
-49.68
-52.77
-56.54
-61.92
-68.03
-73.13
-76.34
-78.61
-81.96
-87.73
-95.02
-101.1
-103.15
-100.25
-94.08
-87.8
-84
-83.03
-83.04
-81.6
-77.38
-70.83
-63.74
-58.09
-55.09
-54.88
-56.8
-59.47
-61.22
-60.41
-55.78
-46.98
-34.67
-20.07
-4.47
11.27
26.73
41.52
54.9
65.9
73.58
77.65
78.56
77.05
73.76
68.95
62.64
55.12
47.18
39.88
33.81
28.69
23.42
16.92
8.87
0.08
-7.94
-13.91
-17.42
-18.96
-19.31
-18.99
-17.99
-16.19
-13.85
-11.49
-9.91
-9.84
-11.7
-15.57
-21.25
-28.39
-36.52
-45.01
-53.27
-61.14
-68.75
-76.35
-83.81
-90.49
-95.36
-97.48
-96.39
-92.08
-84.79
-74.67
-61.83
-46.61
-29.99
-13.52
1.32
13.71
23.91
32.91
42.05
52.47
65.04
80.43
99.33
121.99
147.67
174.33
198.85
218.02
229.77
233.99
232.38
227.37
221.01
214.25
207.18
199.47
190.85
181.16
170.05
156.96
141.16
122.03
99.06
72.04
41.02
6.51
-30.08
-66.39
-99.75
-128.59
-153.3
-175.9
-198.33
-220.6
-239.91
-252.04
-253.86
-245.49
-230.53
-213.9
-199.09
-186.65
-174.7
-160.93
-144.6
-126.71
-108.56
-90.26
-70.45
-47.49
-21.41
5.32
28.59
44.71
52.15
52.31
48.43
43.82
40.57
39.45
40.85
45.49
54.29
67.58
84.19
101.17
114.5
120.59
117.64
106.03
88.07
66.74
44.53
22.47
-0.08
-24.57
-52.12
-82.29
-112.52
-138.51
-155.52
-159.74
-149.44
-125.44
-90.58
-48.94
-5.03
36.96
73.62
102.52
122.29
132.7
134.61
130.03
121.49
111.1
99.58
86
68.39
45.41
17.76
-11.46
-37.49
-56
-64.64
-63.89
-56.77
-47.59
-40.26
-36.89
-37.31
-39.37
-39.89
-35.92
-25.72
-9.58
10.37
31.06
49.75
64.89
76.08
83.31
86.25
84.44
77.57
66.11
51.11
33.65
14.36
-6.6
-29.18
-53.17
-77.8
-101.79
-123.3
-140.3
-150.69
-152.5
-144.48
-126.65
-100.79
-70.23
-39.02
-10.47
13.78
33.68
49.72
61.79
68.77
69.1
61.92
47.92
29.45
9.86
-7.52
-19.97
-25.87
-24.74
-17.17
-4.66
10.65
26.59
41.24
53.14
61.39
65.54
65.71
62.56
57.29
51.35
45.83
41.02
36.42
31.31
25.46
19.49
14.64
11.96
11.66
12.87
14.12
14.03
11.86
7.55
1.68
-4.72
-10.4
-14.1
-15.03
-13.29
-10.13
-7.54
-7.32
-10.09
-14.88
-19.61
-22.3
-22.25
-20.42
-18.9
-19.8
-23.99
-30.65
-37.54
-42.17
-42.8
-39.17
-32.35
-24.07
-15.85
-8.31
-1.11
6.51
14.98
23.97
32.39
38.86
42.41
43.01
41.41
38.82
36.42
34.85
34.23
34.39
35.03
35.65
35.44
33.32
28.45
21.09
12.94
6.78
5.16
8.77
15.73
22.15
24.16
19.89
10.58
-0.46
-9.93
-16.49
-21.29
-26.66
-34.12
-43.02
-51
-55.71
-56.53
-55.07
-54.26
-56.72
-63.08
-71.82
-79.89
-83.93
-81.36
-70.99
-53.06
-29.29
-2.69
23.01
44.17
58.24
64.43
63.79
58.59
51.49
44.79
40.12
38.49
40.26
44.96
51.21
57.12
60.75
60.75
56.83
49.8
41.15
32.53
25.39
20.51
17.68
15.77
13.18
8.61
1.72
-6.73
-15.32
-22.59
-27.62
-30.17
-30.6
-29.4
-27.02
-23.78
-19.96
-15.93
-12.14
-9.24
-8.04
-9.28
-13.01
-18.28
-23.31
-26.1
-25.57
-22.51
-19.42
-19.17
-23.4
-31.59
-41.13
-48.66
-51.75
-49.77
-43.71
-35.09
-24.9
-13.31
-0.1
14.51
29.36
42.53
52.04
56.68
56.67
53.53
49.45
46.43
45.61
47.04
49.82
52.64
54.31
54.16
52.07
48.38
43.5
37.82
31.62
25.24
19.12
13.61
8.65
3.74
-1.77
-8.14
-14.78
-20.24
-22.89
-21.81
-17.42
-11.36
-5.71
-1.95
-0.51
-1
-2.84
-5.81
-10.16
-16.17
-23.64
-31.78
-39.45
-45.73
-50.3
-53.5
-55.99
-58.17
-59.76
-59.72
-56.6
-49.24
-37.4
-22.15
-5.63
9.68
22.02
30.94
37.25
42.22
46.66
50.4
52.48
51.94
48.48
42.65
35.62
28.6
22.38
17.31
13.48
11
10.05
10.75
12.98
16.25
19.9
23.12
25.1
25.19
23.04
18.71
12.73
6
-0.37
-5.3
-7.99
-8.22
-6.33
-3.18
0.36
3.76
7.04
10.57
14.5
18.3
20.78
20.63
17.17
10.86
3.08
-4.64
-11.57
-18.06
-25.11
-33.56
-43.34
-53.36
-61.98
-67.85
-70.52
-70.56
-69.08
-67.11
-64.9
-61.89
-57.07
-49.67
-39.6
-27.77
-15.78
-5.34
2.44
7.31
9.83
11.02
11.76
12.46
13.09
13.39
13.38
13.36
13.88
15.45
18.25
21.95
25.91
29.48
32.32
34.47
36.25
37.93
39.47
40.62
41.09
40.85
40.1
39.18
38.26
37.12
35.34
32.45
28.22
22.71
16.27
9.35
2.34
-4.35
-10.39
-15.42
-19.3
-22.11
-24.1
-25.54
-26.67
-27.78
-29.33
-32.1
-36.93
-44.38
-54.25
-65.37
-75.83
-83.52
-86.67
-84.3
-76.38
-63.65
-47.46
-29.43
-11.11
6.22
21.72
34.86
45.16
52.12
55.56
55.92
54.5
53.2
53.68
56.64
61.46
66.54
70.13
71.2
69.93
67.41
65
63.65
63.44
63.84
63.98
63.24
61.45
58.79
55.55
51.83
47.43
41.89
34.83
26.22
16.51
6.43
-3.34
-12.46
-20.91
-28.72
-35.67
-41.21
-44.78
-46.34
-46.72
-47.61
-50.86
-57.67
-67.8
-79.57
-90.51
-98.23
-101.2
-99.06
-92.19
-81.34
-67.22
-50.61
-32.59
-14.66
1.36
13.78
21.52
24.53
23.71
20.6
16.79
13.36
10.66
8.53
6.65
4.93
3.57
2.96
3.36
4.63
6.24
7.6
8.43
8.87
9.39
10.44
12.1
14.01
15.55
16.15
15.52
13.78
11.35
8.86
6.97
6.04
6.11
6.81
7.47
7.18
5
0.09
-7.91
-18.71
-31.27
-43.9
-54.53
-61.2
-62.45
-57.68
-47.26
-32.56
-15.74
0.66
14.55
24.77
31.27
34.91
36.68
37.09
36
32.95
27.79
21.07
13.93
7.58
2.96
0.43
-0.16
0.72
2.39
4.03
4.88
4.45
2.77
0.37
-2.01
-3.74
-4.66
-5.01
-5.25
-5.76
-6.8
-8.62
-11.41
-15.24
-19.84
-24.57
-28.64
-31.55
-33.39
-34.85
-36.84
-39.97
-44.16
-48.57
-51.84
-52.5
-49.53
-42.56
-32.02
-18.88
-4.33
10.43
24.36
36.53
46.24
52.9
56.22
56.21
53.32
48.31
42.08
35.56
29.53
24.59
21.14
19.27
18.69
18.79
18.86
18.35
17.19
15.73
14.5
13.84
13.86
14.41
15.31
16.48
17.89
19.56
21.26
22.62
23.19
22.6
20.73
17.67
13.65
8.97
3.94
-1.2
-6.27
-11.2
-16.01
-20.88
-26.09
-31.97
-38.79
-46.46
-54.34
-61.07
-64.92
-64.36
-58.64
-48.04
-33.69
-17.16
0
16.43
30.93
42.53
50.68
55.57
58.06
59.27
60.09
60.56
59.94
57.12
51.22
42.03
30.2
17.04
4.4
-5.73
-11.57
-12.22
-8.09
-0.94
6.66
12.41
15.1
14.98
13.28
11.35
10.04
9.44
9.22
9
8.62
7.93
6.7
4.56
1.18
-3.25
-7.93
-11.77
-13.93
-14.18
-13.28
-12.59
-13.56
-17.18
-23.49
-31.41
-38.84
-43.22
-42.36
-35.32
-22.84
-7.26
8.1
20.12
26.89
28.29
25.63
20.71
14.8
8.15
0.22
-9.55
-20.91
-32.62
-42.79
-49.67
-52.4
-51.25
-47.22
-41.43
-34.71
-27.34
-19.43
-11.35
-3.77
2.34
6.14
7.19
5.67
2.2
-2.32
-7.08
-11.58
-15.67
-19.39
-22.66
-25.06
-25.85
-24.35
-20.39
-14.74
-9.13
-5.82
-6.72
-12.68
-23.03
-35.79
-48.34
-58.21
-63.91
-65.09
-62.43
-57.06
-50.01
-41.97
-33.17
-23.66
-13.52
-3
7.51
17.66
27.09
35.48
42.54
48.18
52.64
56.64
61.11
66.9
74.37
83.22
92.34
100.14
105.03
105.98
102.7
95.68
85.76
73.42
58.24
39.01
14.5
-15.47
-49.3
-83.78
-115.17
-140.54
-158.54
-169.38
-174.02
-173.34
-167.76
-157.78
-144.44
-129.16
-113.33
-97.27
-79.77
-58.69
-32.56
-2.3
28.44
54.36
70.68
75.19
69.34
57.57
45.18
36.07
31.4
29.75
28.57
25.85
21.16
15.62
11.16
9.57
11.95
18.58
29.14
42.9
58.72
75.24
91.18
105.25
116.16
122.89
124.4
119.91
109.33
93.62
74.93
56.05
39.43
26.28
16.29
7.96
-0.31
-9.37
-19.11
-28.91
-38.42
-47.82
-57.6
-67.85
-77.92
-86.4
-91.84
-93.58
-92.1
-88.63
-84.47
-80.37
-76.4
-72.38
-68.3
-64.54
-61.53
-59.41
-57.9
-56.45
-54.71
-52.7
-50.72
-48.9
-46.82
-43.39
-37.03
-26.25
-10.1
11.47
37.47
65.65
92.58
114.3
127.33
129.77
122
106.78
88.55
72.12
61.36
58.11
61.79
69.75
78.47
84.84
87.31
86.07
82.64
78.8
75.63
73.3
71.35
69.3
66.99
64.37
60.96
55.64
47.12
34.72
19.09
2.17
-13.49
-25.85
-34.18
-39.07
-41.81
-43.61
-45.09
-46.28
-47.09
-47.65
-48.48
-50.14
-53
-56.88
-61.17
-65.02
-67.69
-68.84
-68.55
-67.21
-65.39
-63.63
-62.23
-61.2
-60.21
-58.53
-55.16
-49.01
-39.29
-25.94
-9.88
7.14
22.99
35.9
45.02
50.6
53.66
55.36
56.46
57.2
57.53
57.49
57.38
57.68
58.72
60.44
62.37
63.92
64.72
64.84
64.84
65.35
66.74
68.64
69.99
69.33
65.47
58.06
47.73
35.96
24.56
15.03
8.1
3.67
1.06
-0.58
-1.97
-3.53
-5.33
-7.21
-9.02
-10.67
-12.26
-14.01
-16.09
-18.53
-21.11
-23.56
-25.84
-28.23
-31.23
-35.23
-40.11
-45.16
-49.29
-51.51
-51.54
-49.97
-47.99
-46.92
-47.5
-49.54
-52
-53.38
-52.28
-47.92
-40.39
-30.57
-19.82
-9.52
-0.55
6.74
12.44
16.64
19.19
19.72
17.89
13.64
7.43
0.05
-7.57
-14.62
-20.45
-24.52
-26.34
-25.54
-22.03
-16.2
-8.96
-1.62
4.48
8.41
9.89
9.39
7.9
6.44
5.61
5.41
5.28
4.54
2.77
0.03
-3.2
-6.26
-8.67
-10.25
-11.07
-11.31
-11.19
-10.82
-10.23
-9.39
-8.45
-7.84
-8.22
-10.32
-14.55
-20.64
-27.61
-34.17
-39.1
-41.45
-40.62
-36.17
-27.95
-16.48
-3.08
10.3
21.76
30.26
35.96
39.75
42.44
44.01
43.68
40.61
34.78
27.29
19.93
14.3
11.02
9.72
9.59
9.95
10.63
11.73
13.24
14.91
16.21
16.54
15.54
13.09
9.36
4.82
0.18
-3.71
-6.08
-6.68
-5.97
-4.96
-4.76
-6.01
-8.44
-11.02
-12.49
-12.18
-10.46
-8.66
-8.47
-11.09
-16.65
-24.23
-32.45
-40.2
-47.08
-53.3
-59.34
-65.47
-71.51
-76.9
-80.85
-82.61
-81.41
-76.59
-67.73
-54.89
-38.81
-20.93
-2.96
13.53
27.44
38.3
46.08
50.95
53.18
53.14
51.31
48.28
44.66
40.99
37.7
35.06
33.24
32.34
32.23
32.55
32.76
32.34
30.99
28.76
25.94
22.9
19.94
17.16
14.61
12.38
10.73
9.94
10.19
11.31
12.79
13.98
14.46
14.24
13.77
13.56
13.81
14.19
13.98
12.4
9.06
4.16
-1.6
-7.36
-12.47
-16.48
-19.17
-20.47
-20.46
-19.57
-18.73
-19.29
-22.7
-29.9
-40.74
-53.71
-66.19
-75.06
-77.67
-72.67
-60.42
-42.79
-22.57
-2.55
15.16
29.54
40.5
48.49
53.99
57.3
58.43
57.26
53.67
47.83
40.22
31.63
22.93
14.92
8.17
2.98
-0.55
-2.46
-2.89
-2.02
-0.15
2.37
5.2
8.16
11.22
14.35
17.39
19.96
21.57
21.86
20.75
18.45
15.32
11.65
7.58
3.1
-1.87
-7.31
-12.97
-18.33
-22.77
-25.83
-27.46
-28.02
-28.22
-28.89
-30.73
-34.11
-39.07
-45.37
-52.43
-59.32
-64.74
-67.18
-65.32
-58.44
-46.82
-31.69
-14.85
1.82
16.87
29.44
39.31
46.53
51.22
53.46
53.23
50.66
46.18
40.5
34.5
29.07
24.94
22.55
21.98
22.92
24.7
26.44
27.28
26.71
24.69
21.6
18.02
14.48
11.27
8.52
6.36
4.86
4
3.48
2.7
0.98
-2.01
-6.01
-10.06
-12.99
-13.96
-12.86
-10.54
-8.44
-8
-10.1
-14.74
-21.13
-28.11
-34.61
-39.94
-43.85
-46.57
-48.63
-50.88
-54.17
-58.95
-64.8
-70.09
-72.33
-69.16
-59.36
-43.62
-24.33
-4.69
12.54
25.85
35.12
41.07
44.65
46.8
48.42
50.49
53.81
58.68
64.5
69.85
73
72.67
68.61
61.65
53.18
44.61
36.9
30.45
25.26
21.06
17.42
13.76
9.51
4.39
-1.23
-6.35
-9.56
-9.64
-6.18
0.2
7.87
14.84
19.43
20.8
19.12
15.34
10.65
5.97
1.65
-2.56
-7.22
-12.81
-19.39
-26.51
-33.39
-39.18
-43.31
-45.68
-46.85
-47.91
-50.14
-54.4
-60.66
-67.78
-73.8
-76.49
-74.21
-66.31
-53.31
-36.5
-17.5
2.14
21.08
38.23
52.76
64.14
72.23
77.31
79.92
80.69
80.2
78.91
77.03
74.55
71.28
66.86
61.03
54.04
46.58
39.59
33.84
29.45
25.76
21.54
15.52
6.88
-4.27
-16.91
-29.4
-40
-47.42
-51.23
-51.81
-50.11
-47.21
-43.93
-40.8
-38.24
-36.5
-35.77
-36.03
-36.88
-37.48
-37
-35.18
-32.77
-31.38
-32.72
-37.74
-45.95
-55.57
-64.22
-69.94
-71.86
-70.38
-66.65
-61.83
-56.65
-51.29
-45.64
-39.43
-32.51
-24.91
-16.9
-8.91
-1.32
5.53
11.57
17.28
23.66
31.83
42.53
55.49
69.53
83.52
96.73
108.69
118.56
124.75
125.42
119.83
109.52
98.53
92.24
93.82
101.72
109.43
108.24
91.54
58.15
12.52
-37.4
-83.33
-117.53
-134.61
-133.47
-117.9
-94.57
-69.66
-47.05
-30.44
-18.54
-10.2
-5.57
-5.81
-12.33
-26.1
-46.21
-72.28
-104.29
-141.57
-182.32
-222.37
-255.15
-273.21
-270.73
-245.93
-202.28
-147.09
-88.24
-31.98
18.76
64.08
105.43
143.89
179.05
208.94
231.09
243.98
247.38
242.51
231.56
216.97
200.51
183.44
166.65
151.29
138.7
129.48
122.36
113.65
98.16
71.47
32.6
-14.68
-62.41
-101.08
-123.33
-126.93
-115.71
-97.96
-82.99
-77.31
-82.33
-93.96
-104.57
-105.82
-91.79
-60.64
-15
39.01
93.63
141.62
178.12
201.55
213.24
215.76
210.93
198.75
177.67
146.51
106.34
61.48
18.53
-15.73
-36.81
-43.94
-40.06
-30.75
-22.6
-21.57
-31.18
-51.15
-77.08
-101.82
-118.54
-124.05
-120.62
-115.17
-116.58
-131.93
-163.63
-208.68
-259.48
-305.88
-337.61
-346.71
-329.26
-286.66
-225.88
-158.26
-96.87
-52.92
-32.26
-33.82
-50.2
-70.22
-82.8
-80.23
-59.82
-23.63
23.23
74.65
125.23
171
209.55
239.74
261.13
273.37
275.73
267.02
245.8
211.47
165.27
110.93
54.06
0.7
-44.34
-78.45
-101.18
-113.58
-117.38
-114.43
-106.31
-93.98
-77.29
-54.91
-25.01
13.66
60.5
112.42
164.28
210.64
247.96
276.12
298.12
318.08
338.33
357.63
371.42
374.06
361.92
335.49
299.35
260.13
223.5
192.09
165.34
141.03
117.38
94.43
73.84
57.64
46.72
40.12
35.3
29.11
18.91
3.46
-16.79
-40.12
-64.38
-87.79
-109.59
-130.19
-150.84
-173.29
-199.42
-231.2
-269.81
-314.83
-363.02
-407.93
-440.56
-451.75
-435.21
-390.11
-322.03
-242.06
-163.98
-100.49
-59.72
-43.17
-45.77
-58
-69.48
-72.5
-64.13
-46.29
-23.75
-1.57
17.03
31.31
42.03
50.13
56
59.71
61.71
63.27
65.92
69.9
73.36
72.63
63.56
43.73
14.24
-20.32
-53.85
-81.68
-103
-120.96
-140.43
-164.36
-191.13
-214.74
-227.62
-224.48
-205.01
-173.97
-138.52
-104.79
-75.45
-49.8
-25.86
-2.97
17.09
30.8
34.94
28.69
14.69
-1.9
-15.57
-23
-24.72
-24.93
-29.62
-43.91
-69.61
-104.63
-144.09
-182.24
-214.31
-237.34
-250.2
-253.03
-246.57
-231.97
-210.49
-183.03
-150.15
-112.72
-73.16
-35.94
-6.81
10
14.4
11.48
9.57
16.34
35.16
63.96
97.63
131.15
161.79
188.39
209.12
220.03
216.19
195.08
159.14
115.71
73.59
38.64
11.84
-8.82
-24.74
-34.04
-32.66
-18.08
7.34
36.14
59.68
73.16
78.39
82.72
94.09
116.74
149.26
186.3
221.49
249.8
268.14
275.06
270.39
255.16
231.9
204.19
175.31
146.96
118.91
90.03
59.33
26.83
-6.74
-40.81
-75.65
-111.94
-149.41
-185.55
-215.84
-235.61
-241.94
-235.25
-218.61
-196.05
-170.8
-144.05
-115.43
-84.17
-50.59
-16.18
17.18
48.65
78.98
109.97
142.85
176.7
207.98
231.53
242.38
237.64
217.42
184.67
143.95
100.07
57.11
18.14
-14.77
-40.74
-60.26
-75.17
-87.84
-100.3
-113.02
-124.67
-132.88
-135.42
-131.25
-120.69
-104.73
-83.97
-58.19
-26.68
10.46
51.45
92.8
130.29
160.11
179.56
187.38
183.55
169.04
145.66
115.56
80.64
41.87
-0.54
-46.62
-95.44
-144.5
-189.95
-227.67
-254.78
-270.54
-276.39
-274.93
-268.74
-259.59
-248.33
-235.33
-220.76
-204.51
-186.24
-165.47
-141.88
-115.66
-87.58
-58.87
-30.68
-3.9
21.2
45.18
69.66
97.06
129.41
166.71
205.59
239.2
259.38
259.81
239.12
201.89
157.13
115.31
85.26
72.34
78.32
102.03
139.93
185.87
231.22
265.86
280.45
269.22
232.05
174.54
106.11
37.13
-23.93
-72.26
-106.94
-130.32
-146.04
-157.25
-165.41
-170.05
-169.49
-162.11
-147.6
-127.76
-106.13
-86.79
-72.86
-65.45
-63.71
-65.69
-69.45
-73.87
-78.79
-84.49
-90.66
-95.99
-98.23
-94.87
-84.08
-65.33
-39.54
-8.75
24.25
56.52
85.84
111.36
133.96
155.61
178.1
201.78
225.12
245.21
259
264.37
260.53
247.84
227.43
201.04
171.24
141.6
116.17
98.32
89.39
88.02
90.7
93.29
92.89
88.85
82.65
76.63
72.5
70.34
68.64
65.21
58.4
47.76
33.97
18.33
1.91
-14.76
-31.37
-47.39
-61.97
-74.1
-83.29
-89.98
-95.42
-101.05
-107.9
-115.94
-124.13
-130.77
-134.14
-133.12
-127.79
-119.61
-111.32
-106.35
-107.55
-115.86
-129.47
-144.17
-154.84
-157.42
-150.38
-135.06
-114.68
-92.54
-70.75
-49.8
-29.36
-9.29
9.69
26.24
39.19
48.42
54.91
60.1
64.83
68.71
70.05
66.6
56.69
40.07
18.38
-5.09
-26.47
-42.29
-50.31
-50.08
-42.95
-31.56
-19.03
-7.86
0.76
6.95
11.73
16.09
20.11
22.79
22.72
18.88
11.32
1.01
-10.68
-22.5
-33.55
-43
-49.89
-52.93
-51.06
-43.97
-32.37
-17.85
-2.25
12.83
26.31
37.46
45.75
50.8
52.69
52.39
51.69
52.64
56.65
63.68
72.1
78.88
80.8
75.94
64.77
50.24
36.74
28.07
25.7
28.18
31.82
32.54
27.65
17.08
3.22
-10.04
-18.94
-21.02
-15.62
-3.64
12.86
31.21
48.53
62
69.5
69.77
62.74
49.38
31.54
11.55
-8.2
-25.51
-38.65
-46.51
-48.78
-45.83
-38.62
-28.27
-15.64
-1.13
15.39
34.18
55.1
77.22
98.79
117.56
131.38
138.9
139.84
135
125.78
113.75
100.11
85.67
70.89
56.19
42.05
28.85
16.79
5.64
-5.12
-15.92
-26.7
-36.8
-45.17
-51.01
-54.34
-56.2
-58.34
-62.45
-69.43
-79.06
-90.19
-101.34
-111.3
-119.37
-125.11
-127.91
-126.81
-120.72
-109.13
-92.52
-72.54
-51.31
-30.76
-12.09
4.35
18.6
30.74
40.65
48.22
53.47
56.63
57.94
57.33
54.43
48.76
40.18
29.19
17.02
5.26
-4.77
-12.69
-19.44
-26.98
-37.47
-52.3
-71.24
-92.35
-112.81
-130.1
-143.05
-152.07
-158.59
-163.99
-168.93
-173.34
-176.97
-179.87
-182.13
-183.38
-182.22
-176.35
-163.31
-141.67
-111.85
-76.18
-38.1
-1
32.63
61.33
84.34
101.19
111.5
115.37
113.77
108.67
102.52
97.07
92.7
88.41
82.79
75.26
66.91
60.21
57.68
60.45
67.53
76.39
84.41
90.18
94.09
97.6
102.07
107.51
112.33
113.94
109.77
98.27
79.54
55.29
28.46
2.54
-19.29
-34.73
-42.6
-42.84
-36.18
-23.92
-7.68
10.6
28.66
44.19
55.22
60.58
60.21
54.95
46.2
35.45
23.97
12.69
2.24
-6.9
-14.4
-19.93
-23.21
-23.89
-21.79
-17.18
-11.03
-4.95
-0.78
0
-3.09
-9.46
-17.67
-26.11
-33.46
-38.95
-42.33
-43.69
-43.37
-41.94
-40.15
-38.74
-38.1
-38.07
-37.75
-35.76
-30.81
-22.19
-10.19
3.94
18.43
31.55
42.05
49.38
53.52
54.84
53.82
50.98
46.71
41.29
34.88
27.59
19.59
11.27
3.26
-3.66
-8.73
-11.59
-12.42
-11.96
-11.25
-11.19
-12.28
-14.47
-17.29
-20.27
-23.03
-25.43
-27.45
-29.18
-30.74
-32.46
-34.89
-38.55
-43.3
-47.81
-49.61
-46.02
-35.68
-19.63
-1.33
14.64
24.52
27.05
23.9
19.03
16.91
20.93
32.33
50.01
71.14
92.04
109.24
120.21
124.06
121.66
115.25
107.42
100.02
93.45
86.7
78.14
66.51
51.63
34.26
15.55
-3.74
-23.62
-44.6
-66.87
-89.71
-111.47
-130.09
-144
-152.65
-156.36
-155.86
-151.65
-143.93
-133.02
-119.75
-105.63
-92.41
-81.33
-72.46
-64.69
-56.15
-45.05
-30.48
-12.81
6.66
26.3
44.67
60.89
74.55
85.4
93.16
97.52
98.43
96.31
92.01
86.62
81
75.42
69.4
62.06
52.61
40.97
27.96
15.2
4.45
-3.08
-7.17
-8.71
-9.29
-10.63
-14
-19.89
-27.95
-37.11
-46.01
-53.32
-58.16
-60.21
-59.82
-57.86
-55.51
-53.98
-54.2
-56.49
-60.3
-64.11
-65.96
-64.16
-58.19
-48.84
-37.72
-26.27
-14.88
-2.88
10.77
26.57
43.83
61
76.27
88.44
96.93
101.44
101.47
96.51
86.79
74.03
61.36
52.06
47.63
46.55
44.74
37.71
23.1
2.2
-20.61
-40.15
-52.93
-58.34
-58.14
-54.67
-49.45
-43
-35.66
-28.79
-24.73
-25.67
-31.98
-41.51
-50.17
-53.38
-48.02
-33.28
-10.69
16.78
45.65
72.66
95.02
110.92
119.8
122.5
121.25
118.81
117.52
118.44
121.15
124.26
126.03
124.92
119.86
110.63
97.79
82.55
66.36
50.07
33.46
15.14
-6.43
-31.28
-56.59
-77.29
-88.16
-86.33
-72.85
-52.04
-29.23
-8.64
7.15
16.75
19.01
13.51
1.65
-12.44
-22.4
-22.32
-10.02
10.77
31.52
43.03
40.15
24.07
1.18
-20.97
-38.28
-51.99
-67.26
-89.71
-122.09
-162.95
-207.57
-249.97
-284.61
-307.06
-314.09
-304.1
-278.22
-241.14
-200.22
-163.07
-134.88
-116.87
-106.97
-101.85
-98.73
-95.71
-90.72
-80.38
-60.01
-25.5
24.46
86.87
154.58
217.55
265.35
289.57
285.82
255.32
205.37
147.8
95.65
58.79
40.65
37.6
41.34
43.04
37.35
24.01
6.75
-9.64
-21.83
-28.95
-31.79
-31.16
-26.74
-17.25
-2.06
17.32
36.79
51.01
55.57
48.91
33.05
12.51
-7.52
-23.34
-33.7
-39.81
-44.36
-50.08
-58.42
-68.88
-79.33
-86.97
-89.88
-88.02
-83.19
-78.09
-74.88
-74.07
-74.15
-72.63
-67.35
-57.58
-44.08
-28.3
-11.55
5.54
22.61
38.98
53.36
64.32
71.2
74.63
76.23
77.53
78.76
78.61
75.06
66.85
54.52
40.43
27.57
18.06
12.38
9.84
9.43
10.65
13.5
17.87
22.89
26.91
28.18
25.69
19.81
12.06
4.41
-1.62
-5.45
-7.39
-8.28
-9.18
-10.96
-14.06
-18.25
-22.7
-26.23
-27.92
-27.69
-26.56
-26.32
-28.82
-35.19
-45.34
-57.91
-70.76
-81.57
-88.43
-90.3
-87.08
-79.48
-68.64
-55.84
-42.09
-28.08
-14.32
-1.31
10.33
19.9
26.83
30.87
32.13
31.16
28.89
26.4
24.86
25.19
27.73
32.16
37.52
42.52
45.93
46.95
45.25
41.07
35.06
28.2
21.59
16.28
13.02
11.93
12.36
13.18
13.35
12.2
9.68
6.21
2.48
-0.78
-2.95
-3.61
-2.78
-1.19
-0.29
-1.85
-7
-15.52
-25.51
-33.81
-37.29
-34.24
-25.18
-12.43
1.16
13.57
24.31
33.89
43.01
51.7
59.21
64.43
66.72
66.24
63.75
60.02
55.53
50.4
44.59
38.19
31.46
24.71
18.23
12.34
7.45
4
2.1
1.16
0.05
-2.38
-6.54
-11.65
-16.07
-18.3
-17.81
-15.39
-12.71
-11.39
-12.19
-14.93
-18.83
-23.01
-26.89
-30.31
-33.42
-36.52
-40.14
-45.04
-51.95
-61.08
-71.67
-81.92
-89.64
-93.06
-91.53
-85.56
-76.32
-64.99
-52.14
-37.86
-22.11
-5.39
10.93
25.03
35.42
41.6
44.27
45
45.45
46.8
49.47
53.22
57.52
61.82
65.77
69.13
71.64
72.92
72.65
70.83
67.93
64.78
62.23
60.72
60.17
59.99
59.4
57.83
55.13
51.41
46.9
41.69
35.76
29.18
22.25
15.53
9.64
5
1.56
-1.23
-4.35
-8.93
-15.92
-25.73
-37.9
-51.13
-63.44
-72.66
-76.99
-75.45
-68.22
-56.5
-42.13
-27.13
-13.12
-0.99
9.03
17.17
23.84
29.46
34.34
38.72
42.82
46.87
51.05
55.31
59.37
62.75
65
65.79
65.06
63.1
60.47
57.85
55.8
54.44
53.41
51.92
49.15
44.68
38.55
31.2
23.21
15.16
7.55
0.76
-4.89
-9.23
-12.32
-14.4
-15.69
-16.39
-16.7
-16.97
-17.8
-19.99
-24.23
-30.69
-38.9
-47.82
-56.12
-62.44
-65.7
-65.25
-61.1
-53.93
-44.98
-35.75
-27.4
-20.34
-14.16
-7.84
-0.53
7.83
16.47
24.14
29.69
32.47
32.47
30.24
26.72
22.98
20.08
18.68
18.79
19.81
20.73
20.62
19.26
17.31
15.96
16.38
19.08
23.69
29.26
34.77
39.6
43.67
47.22
50.61
54.18
58.44
64.09
71.79
81.62
92.63
102.78
109.61
111.45
108.39
102.36
95.86
90.48
86.15
81.49
75.16
66.86
57.72
49.43
43.08
38.37
33.71
27.05
16.57
0.88
-21.17
-50.53
-87.36
-129.9
-173.78
-212.28
-238.26
-246.82
-237.32
-213.7
-183.14
-153.58
-131.15
-118.77
-115.91
-119.63
-126.02
-131.29
-132.65
-128.7
-119.37
-105.74
-89.37
-71.67
-53.47
-35.13
-16.98
0.15
14.71
25.04
30.05
29.6
24.27
14.9
2.03
-13.8
-31.57
-49.44
-65.01
-76.29
-82.52
-84.37
-83.51
-81.69
-79.74
-77.37
-73.47
-66.76
-56.58
-43.23
-28.22
-14.05
-3.26
2.52
3.38
1.17
-1.21
-1.09
2.96
10.72
20.64
30.85
39.99
47.48
53.3
57.8
61.2
63.52
64.54
63.88
61.42
57.38
52.62
48.35
45.53
44.53
45.04
46.58
48.95
52.4
57.2
63.18
69.44
74.42
76.66
75.26
70.18
62.23
53.07
44.71
39.07
37.26
38.97
42.22
44.11
42.04
34.81
23.29
9.98
-2.09
-10.84
-16.16
-19.74
-24.46
-33.04
-46.93
-65.53
-86.4
-105.97
-120.62
-128.06
-128.05
-122.4
-113.92
-105.29
-98.44
-94.22
-92.34
-91.65
-90.44
-86.78
-79.07
-66.54
-49.65
-30.18
-10.83
5.77
18.16
26.66
32.94
38.89
45.47
52.06
56.78
57.8
54.48
47.8
39.72
32.28
26.54
22.1
17.73
12.36
5.93
-0.75
-6.6
-11.13
-14.77
-18.31
-22.2
-26.06
-29.06
-30.63
-31.23
-32.23
-35.19
-40.77
-48.25
-55.55
-60.22
-60.45
-55.59
-46.44
-34.72
-22.26
-10.27
0.81
10.91
20.01
27.57
32.87
35.54
36.16
36.22
37.24
39.76
42.68
43.94
41.98
36.99
30.98
26.53
25.12
26.2
27.63
27.08
23.28
16.45
7.81
-1.21
-9.16
-14.75
-17.2
-16.43
-13.49
-10.53
-10.1
-13.82
-21.46
-30.88
-39.03
-43.48
-43.55
-40.58
-37.15
-35.75
-37.74
-42.75
-48.97
-53.92
-55.45
-52.49
-45.32
-35.37
-24.48
-14.12
-4.88
3.39
11.1
18.32
24.64
29.34
31.66
31.44
29.06
25.06
19.95
14.26
8.57
3.81
1.28
2.23
7.06
14.9
23.74
31.29
36.05
38.1
38.97
40.64
44.53
50.76
58.17
65.14
70.52
74.07
76.17
77.09
76.55
73.86
68.54
60.95
52.35
44.51
38.61
34.71
32.05
29.5
26.08
21.28
14.8
6.28
-4.55
-17.56
-31.9
-45.86
-57.44
-65.06
-68.13
-67.11
-63.01
-56.72
-48.68
-38.9
-27.39
-14.64
-1.69
10.4
20.87
29.52
36.51
41.89
45.32
46.16
43.76
38.18
30.69
23.47
18.84
18.41
22.45
30.05
39.66
49.86
59.61
68.35
75.75
81.77
86.61
91.04
96.31
103.71
114.1
127.24
141.53
154.4
163.57
168.38
170.47
173.28
180.25
193.08
210.51
228.59
242.29
247.7
243.43
230.72
212.45
191.61
170.31
149.84
131.25
115.77
104.66
98.53
96.41
95.74
93.1
85.52
71.43
51.12
26.56
0.26
-25.82
-51.09
-76.58
-104.71
-138.62
-180.97
-232.17
-289.14
-344.78
-389.31
-413.01
-409.55
-377.96
-322.52
-250.93
-171.83
-92.68
-18.67
47.32
104.2
151.94
190.84
221.09
242.57
255.21
259.61
257.66
252.56
248
246.5
248.46
252.22
255.19
255.44
252.39
246.59
238.67
228.36
214.76
196.8
174.12
147.52
119.04
91.1
65.81
44.34
26.69
12.02
-0.77
-12.46
-23.13
-32.17
-38.7
-42.01
-41.97
-39.13
-34.58
-29.47
-24.84
-21.3
-19.09
-18.36
-19.43
-22.88
-29.51
-39.98
-54.48
-72.48
-92.65
-113.19
-132.27
-148.55
-161.39
-170.87
-177.5
-181.77
-183.88
-183.69
-180.95
-175.82
-169.27
-163.11
-159.72
-161.36
-169.39
-183.78
-203.27
-225.6
-248.47
-270.24
-290.31
-309.39
-329.45
-353.38
-384.15
-423.14
-468.29
-513.28
-548.54
-564.04
-553.18
-515.48
-456.73
-386.69
-314.99
-247.75
-186.37
-128.72
-71.16
-10.41
55.61
127.33
203.03
278.36
346.49
399.51
431
438.74
425.4
397.66
363.42
328.91
297.27
268.86
242.86
218.68
196.53
176.85
159.61
143.71
127.67
110.51
92.56
74.69
58.21
43.97
31.89
20.28
5.67
-16.07
-48.33
-92.6
-148.79
-215.35
-290.42
-372.32
-459.33
-549.19
-637.06
-715.66
-776.9
-816.61
-835.42
-837.66
-827.88
-808.24
-779.98
-742.09
-693.45
-633.23
-566.34
-499.79
-439.5
-387.39
-342.49
-307.64
-284.98
-274.56
-269.74
-267.86
-267.19
-266.55
-263.19
-254.48
-246.35
-243.21
-245.11
-241.42
-229.5
-210.48
-188.18
-164.74
-141.73
-130.16
-137.27
-162.85
-191.65
-218.19
-241.83
-265.64
-290.74
-257.95
-142.29
39.48
186.38
279.52
324.13
346.23
356.18
361.13
366.18
365.37
355.24
338.35
330.95
338.09
358.86
388.01
422.11
458.61
488.06
504.18
506.41
505.65
505.23
504.94
502.21
496.65
488.94
475.44
453.98
425.29
396.67
370.34
346.43
323.99
303.86
287.73
274.93
264.82
257.29
254.95
257.76
264.99
275.94
291.19
311.91
338.58
371.9
412.72
461.84
516.77
571.56
617.47
645.58
649.58
627.99
584.5
526.45
461.83
396.85
334.93
277.33
224.58
177.29
136.02
100.4
68.62
37.78
5.1
-30.71
-69.12
-108.19
-145.73
-180.75
-214.02
-247.96
-286.01
-331.69
-387.42
-453.15
-525.16
-595.91
-655.44
-694.16
-706.25
-691.7
-656.21
-608.67
-557.62
-508.45
-462.71
-419.56
-377.95
-338.16
-301.74
-270.16
-243.4
-219.52
-195.45
-168.62
-138.3
-105.93
-74.63
-47.59
-26.55
-10.98
1.67
14.96
31.76
53.05
77.51
102.28
124.25
141.6
154.53
164.97
175.7
189.34
207.62
231.25
259.63
290.27
318.5
337.62
340.2
320.45
276.45
211.52
133.49
52.37
-22.93
-86.72
-137
-174.24
-199.32
-212.33
-212.7
-200.67
-179.12
-154.03
-132.92
-121.99
-123.32
-133.67
-146.09
-153.33
-151.26
-140.52
-125.52
-111.45
-101.61
-96
-92.09
-86.99
-79.3
-69.81
-60.65
-53.68
-49.17
-45.55
-40.18
-30.5
-15.41
4.26
26.09
47.15
65.21
79.73
91.96
104.34
119.42
138.67
162.02
188.04
214.88
241.18
267
293.4
321.82
353.15
388.19
427.56
471.57
519.31
567.82
611.92
644.74
659.75
653
625.49
582.47
531.34
478.74
428.89
384.22
345.71
313.79
288.13
268.87
255.31
245.49
236.44
225.45
212.86
200.05
187.95
174.58
159.16
140.84
118.18
88.2
47.65
-1.47
-54.79
-106.22
-152.24
-184.39
-194.4
-177.35
-134.86
-73.28
4.89
95.3
190.15
272.74
333.9
370.05
383.57
379.31
364.47
354.64
361.34
387.17
418.62
448.43
473.51
495.16
514.11
482.5
377.32
209.61
66.14
-32.87
-89.6
-125.88
-150.35
-169.02
-186.24
-197.37
-199.37
-194.35
-196.99
-213.33
-244.07
-285.36
-334
-386.67
-433.93
-468.59
-488.8
-504.12
-519.09
-535.57
-552.68
-570.27
-587.84
-600.84
-605.77
-602.46
-597.86
-595.62
-597.64
-604.3
-616.99
-637.25
-663.71
-693.17
-720.44
-740.68
-746.68
-732.73
-697.38
-645.08
-584.04
-522.24
-465.31
-415.66
-373.97
-339.19
-310.5
-287.58
-270.44
-258.35
-249.48
-241.44
-232.28
-221.19
-208.53
-195.52
-183.21
-171.87
-160.75
-148.46
-133.54
-115.1
-93.28
-69.11
-44.16
-19.91
2.64
23.28
42.38
60.63
78.73
97.03
115.54
133.95
151.74
168.33
183.23
196.21
207.29
216.82
225.38
233.65
242.09
250.85
259.56
267.6
274.3
279.39
283.19
286.63
290.83
296.63
304.12
312.6
320.94
328.05
333.59
338.24
343.46
351.16
363.31
381.78
408.07
442.62
484.01
528.28
569.09
599.11
612.03
604.68
577.91
536.08
485.32
431.71
379.96
333.07
292.44
258.04
228.46
200.94
171.89
138.04
97.83
52.05
3.78
-43.08
-85.37
-122.2
-155.47
-189.26
-228.62
-277.56
-337.09
-403.65
-468.9
-521.37
-549.75
-546.96
-513.56
-458.82
-398.64
-350.44
-327.18
-332.95
-361.93
-401.43
-437.12
-458.23
-460.38
-445.2
-417.65
-382.82
-344.07
-303.08
-261.06
-220.22
-183.69
-154.26
-132.84
-117.46
-104.04
-87.97
-66.27
-38.78
-8.22
21.17
45.64
63.59
76.29
87.27
100.84
120.32
146.69
178.42
212.37
245.31
275.26
302.31
328.25
355.82
387.88
426.64
473.33
527.47
586.19
643.65
691.79
722.13
728.7
710.31
671.1
619
562.54
508.1
458.53
413.89
373.27
336.41
304.14
277.4
256.02
238.13
220.72
200.81
176.85
149.02
118.8
87.91
57.46
27.98
-0.26
-26.7
-50.47
-70.83
-87.79
-102.34
-116.05
-130.49
-146.66
-165.07
-186.05
-210.05
-237.36
-267.75
-299.82
-331.39
-360.26
-385.27
-407.15
-428.36
-452.27
-481.9
-518.71
-561.67
-607.03
-648.78
-679.93
-694.41
-688.86
-663.53
-621.98
-569.66
-512.04
-453.24
-395.73
-340.78
-289.35
-242.41
-200.56
-163.39
-129.13
-94.97
-58.22
-17.51
26.52
71.52
114.67
153.92
189
221.42
253.87
289.39
330.6
378.95
433.78
491.53
545.72
587.97
610.47
608.86
584.03
541.78
490.41
437.5
387.33
340.43
295.38
251.1
208.42
170.22
139.82
119.12
107.32
101.39
97.71
93.74
88.94
84.81
83.52
86.5
93.53
102.99
112.84
121.68
129.24
135.91
141.78
145.84
146.18
140.78
128.46
109.56
85.88
59.85
33.9
9.84
-11.51
-30.5
-48.29
-66.67
-87.6
-112.6
-142.2
-175.63
-211.22
-247.08
-281.77
-314.9
-347.17
-380.16
-416.06
-457.34
-505.88
-561.82
-622.21
-680.54
-727.7
-754.77
-756.14
-731.83
-687.47
-631.95
-574.1
-519.77
-470.93
-426.68
-385.21
-345.55
-307.88
-273.09
-241.66
-213.35
-187.18
-162.01
-136.98
-111.69
-86.43
-61.68
-38.03
-15.87
4.79
24.4
43.72
63.46
84.1
105.77
128.55
152.88
179.65
209.19
240
267.8
286.19
289.15
273.65
241.51
199
154.22
113.8
80.51
53.21
28.72
4.44
-19.98
-42.65
-60.92
-73.05
-79.02
-80.13
-77.88
-72.91
-64.9
-53.1
-37.07
-17.51
3.73
24.62
43.68
60.39
75.17
88.88
102.04
114.38
124.45
130.04
129.28
122.13
111.23
101.55
98.37
104.57
118.92
136.5
151.15
158.73
159
155.23
151.8
151.43
154.16
158.19
161.75
164.61
167.84
172.29
177.36
180.7
179.34
171.69
158.48
142.42
126.83
114.11
104.64
96.74
88.04
77
63.61
49.61
37.71
30.46
29.27
33.76
41.83
50.5
56.85
59.05
57.19
53.08
49.61
49.45
53.99
62.73
73.28
81.79
84.05
76.64
58.43
31.49
1.26
-24.28
-36.78
-29.95
-1.75
44.57
101.14
157.84
205.72
240.08
261.5
273.97
281.78
286.36
285.23
273.64
248.06
209.07
162.04
115.08
75.55
46.89
28.06
15.13
4.02
-7.49
-19.34
-30.16
-38.39
-43
-43.74
-41.68
-39.39
-40.44
-47.93
-62.4
-81.02
-98.57
-110.55
-116.39
-121.04
-132.97
-159.73
-203.6
-259.73
-318.35
-369.37
-407.02
-431.44
-446.96
-458.38
-467.92
-474.41
-474.65
-465.72
-446.66
-418.91
-385.57
-349.86
-313.85
-278.1
-242.08
-205.08
-167.1
-129.06
-92.61
-59.33
-29.78
-3.21
22.14
48.29
76.61
107.01
138.21
168.26
195.52
219.46
241.18
262.94
287.28
315.88
348.62
383.12
415.04
439.16
450.74
447.07
428.44
398.07
360.86
321.94
285.23
252.73
224.72
200.33
178.39
157.94
138.4
119.48
101.14
83.5
66.71
50.99
36.56
23.61
12.25
2.51
-5.99
-14.04
-22.87
-33.63
-46.58
-60.75
-74.04
-84.29
-90.18
-91.51
-89.18
-84.64
-79.21
-73.67
-68.62
-64.55
-61.89
-60.61
-60.08
-59.01
-55.99
-49.94
-40.55
-28.41
-14.59
-0.44
12.66
23.26
29.76
30.25
22.69
5.38
-21.98
-56.89
-93.65
-124.02
-139.57
-134.72
-109.27
-69.04
-24.06
14.86
39.91
48.4
42.96
30.24
18.78
16.97
31.18
64.11
113.47
171.85
228.7
273.98
301.43
309.99
303.24
287.07
267.31
248.34
232.75
221.42
213.44
206.39
196.84
182.02
161.3
137.16
114.14
96.63
86.45
81.84
78.63
72.38
60.47
42.68
20.39
-4.6
-31.1
-58.6
-86.95
-115.68
-143.4
-167.97
-187.56
-201.87
-213.13
-226.12
-246.6
-278.77
-322.83
-374.07
-424
-463.41
-485.23
-486.45
-468.41
-436.03
-396.85
-359.75
-333.6
-325.15
-336.67
-364.31
-398.66
-427.68
-441.05
-433.91
-407.97
-369.67
-326.55
-284.06
-244.2
-206.56
-170.23
-134.99
-101.48
-70.53
-42.25
-15.69
10.54
37.53
65.41
93.41
120.47
145.95
170.28
194.6
219.78
245.48
269.65
288.8
299.4
299.56
290.01
274.17
256.8
242.18
232.31
226.2
220.46
210.88
194.56
171.26
143.59
115.86
92.38
76
67.23
64.64
65.93
69.12
72.82
76.32
78.88
79.54
77.01
70.2
59.01
44.32
27.78
11.43
-2.47
-11.91
-15.43
-12.76
-5.13
5.07
15.1
22.62
26.32
26.12
22.96
18.09
12.77
8.2
5.61
6.03
9.79
15.97
22.36
26.33
26.1
21.89
16.01
12.16
14
24
42.23
65.76
89.37
107.24
115.23
112.62
102.33
89.31
78.17
71.27
68.35
67.7
67.87
68.65
70.59
73.65
76.22
75.27
67.68
52.03
29.58
3.93
-20.45
-39.94
-52.85
-59.75
-63.01
-65.8
-70.79
-79.08
-89.95
-101.12
-109.54
-112.77
-109.78
-101.05
-88.29
-73.82
-60.21
-49.77
-44.15
-43.95
-48.49
-55.98
-64.06
-70.63
-74.41
-75.39
-74.29
-71.73
-67.67
-61.41
-52.18
-39.54
-23.83
-5.82
13.58
33.58
53.19
70.51
82.79
87.35
82.96
70.78
54.35
38.19
25.99
19.04
15.91
13.68
9.29
0.77
-12.55
-29.92
-49.24
-67.26
-79.92
-83.26
-74.41
-52.73
-20.07
19.88
62.81
104.83
142.95
174.99
199.22
214.48
220.13
216.26
203.96
185.09
161.68
135.49
107.66
78.67
48.61
17.34
-15.35
-49.7
-86.03
-124.76
-165.91
-208.58
-250.72
-289.12
-320.09
-340.38
-347.93
-342.1
-323.54
-293.85
-255.45
-211.69
-166.77
-125.45
-92.12
-69.67
-58.79
-57.87
-63.59
-71.79
-78.35
-79.79
-73.87
-59.87
-38.75
-13.02
13.99
39.23
60.63
77.5
90.07
98.61
102.96
102.82
98.69
92.62
88
88.15
94.36
104.95
115.95
123.12
124.19
119.76
112.44
105.05
98.93
93.56
87.46
79.77
71
62.91
57.42
55.32
55.66
56.06
53.78
46.93
35.42
20.73
5
-10.22
-24.77
-39.69
-55.99
-73.46
-89.92
-101.84
-105.87
-100.23
-85.2
-62.57
-34.8
-4.64
24.71
49.55
65.98
71.23
65.03
50.27
31.98
15.67
5.22
1.75
3.93
9.07
14.29
17.19
15.95
9.29
-3.23
-20.8
-41.15
-60.73
-75.55
-82.16
-78.56
-64.97
-43.78
-19.05
4.62
23.14
33.85
35.96
30.68
20.53
8.49
-2.74
-11.27
-15.85
-15.83
-10.98
-1.63
11.18
25.83
40.21
52.34
60.63
64.25
63.23
58.45
51.39
43.66
36.78
31.9
29.68
30.19
33.06
37.48
42.44
46.77
49.13
48.33
43.73
35.59
25.04
13.82
3.69
-3.97
-8.4
-9.6
-8.19
-5.39
-2.62
-1.18
-1.75
-4.16
-7.51
-10.58
-12.5
-12.94
-12.18
-10.79
-9.3
-8.25
-8.37
-10.47
-15.14
-22.12
-29.82
-35.67
-36.98
-32.3
-22.09
-8.6
5.2
16.74
24.73
29.36
31.67
32.82
33.54
33.98
33.92
33
30.95
27.62
23.04
17.35
10.81
3.79
-3.27
-9.98
-15.89
-20.5
-23.29
-23.89
-22.33
-19.16
-15.33
-11.98
-10.12
-10.35
-12.69
-16.61
-21.13
-25.06
-27.33
-27.33
-25.12
-21.44
-17.42
-14.1
-11.95
-10.69
-9.61
-8.16
-6.36
-4.53
-2.86
-0.99
2.11
7.73
16.64
28.71
42.9
57.84
72.44
86.23
99.12
111.12
122.13
131.95
140.52
147.92
154.22
159.26
162.54
163.27
160.77
154.61
144.6
130.85
113.71
93.82
72.16
50.13
29.08
9.8
-7.86
-24.89
-42.49
-61.33
-81.2
-100.99
-119.13
-134.16
-145.14
-151.86
-154.76
-154.36
-150.98
-144.82
-136.13
-125.55
-114.1
-102.95
-92.96
-84.33
-76.6
-69.18
-61.93
-55.3
-50.01
-46.4
-44.11
-42.39
-40.4
-37.8
-34.36
-29.72
-22.76
-12.3
2.39
20.99
42.32
64.95
88.12
112.48
139.61
170.87
205.96
242.68
277.51
306.97
328.82
342.45
348.39
347.37
339.92
326.53
308.63
288.84
270.46
256.04
246.03
238.5
230.07
217.74
200.68
180.3
159.18
139.24
120.91
103.12
84.55
64.64
44.14
24.54
6.66
-10
-27.36
-47.86
-73.44
-104.32
-138.84
-174.1
-207
-235.58
-259.65
-280.79
-301.77
-325.85
-355.77
-392.69
-434.9
-477.27
-511.75
-529.25
-522.73
-489.98
-434.86
-365.94
-293.26
-224.81
-164.23
-111.56
-65.24
-24.6
9.32
34.62
49.67
54.44
50.59
41.2
30.39
23.45
26.53
45.23
82.56
136.9
201.69
267.07
323.3
363.8
386.39
392.42
384.77
366.12
338.56
304.26
266.14
227.86
192.82
163.18
139.11
118.96
100.25
80.82
59.62
36.71
12.94
-10.58
-33.33
-55.71
-78.55
-102.13
-125.28
-145.55
-160.41
-168.82
-171.59
-170.32
-165.81
-156.93
-140.73
-113.89
-74.55
-23.61
35.14
95.72
151.25
195.18
222.46
230.67
220.76
196.96
165.59
133.09
103.72
78.8
57.36
37.67
18.65
0.24
-17.12
-33.21
-48.28
-63.13
-78.86
-96.49
-116.64
-139.38
-164.2
-190.07
-215.95
-241.17
-265.82
-290.75
-317.1
-346.12
-378.9
-416.43
-459.5
-507.87
-559.06
-607.67
-646.21
-667.59
-668.25
-650.17
-620.25
-587.22
-557.61
-532.99
-510.22
-484.13
-451.06
-410.85
-366.65
-322.58
-281.31
-242.83
-205.28
-166.62
-126.25
-85.66
-47.4
-13.94
14.12
38.32
62.14
89.32
122.41
161.77
204.96
247.69
284.67
310.69
321.37
313.87
287.65
245.17
191.63
133.97
79.69
35.14
4.56
-10.41
-10.7
0.7
19.45
40.75
60.29
74.62
80.91
76.42
58.39
24.73
-23.8
-82.28
-141.41
-189.82
-218.15
-222.69
-206.43
-176.81
-142.31
-108.73
-77.91
-48.68
-18.91
12.67
45.77
79.48
113.38
147.83
184.03
222.21
260.87
296.59
325.21
344.05
353.95
359.73
368.46
386.2
415.03
451.88
489.71
520.15
536.36
534.46
513.57
474.95
421.24
356.22
284.79
212.46
144.35
83.76
31.44
-14.25
-56.57
-99.13
-144.96
-195.86
-251.63
-309.29
-362.66
-403.67
-424.77
-421.77
-395.78
-352.71
-300.58
-245.91
-191.53
-136.56
-78.87
-18.18
42.6
98.31
144.51
180.15
208.24
234.28
263.68
299.65
342.43
389.6
437.09
479.96
513.17
532.38
534.97
520.95
493.11
456.11
414.97
373.56
333.99
297.07
263.06
232.39
205.41
181.91
160.65
139.8
117.77
93.98
69.18
45.02
23.39
5.59
-8.12
-18.44
-26.54
-33.53
-39.96
-45.65
-49.9
-51.87
-51.06
-47.48
-41.68
-34.46
-26.55
-18.35
-9.91
-0.87
9.17
20.42
32.83
45.99
59.34
72.22
84.04
94.28
102.49
108.28
111.12
110.51
105.95
97.19
84.36
68.02
49.11
28.73
7.98
-12.33
-31.73
-50.09
-67.37
-83.49
-98.17
-110.99
-121.65
-130.25
-137.55
-144.9
-154.06
-166.66
-183.76
-205.48
-231.15
-259.59
-289.69
-320.8
-352.72
-385.49
-418.87
-451.86
-482.71
-509.42
-530.42
-545.39
-555.55
-563.44
-572.3
-585.69
-606.92
-638.49
-680.92
-731.59
-784.04
-828.8
-855.84
-858
-833.58
-786.95
-726.57
-661.68
-599.14
-542.21
-491.14
-444.97
-403.05
-365.38
-332.02
-302.22
-274.21
-245.83
-215.6
-183.48
-150.84
-120.01
-93.19
-71.61
-55.26
-43.1
-33.64
-25.68
-18.78
-13.22
-9.68
-8.66
-10.13
-13.45
-17.55
-21.27
-23.89
-25.25
-25.68
-25.74
-25.8
-25.78
-25.05
-22.62
-17.35
-8.3
5.08
22.96
45.02
70.63
98.86
128.64
158.68
187.62
214.01
236.54
254.08
265.82
271.38
270.79
264.49
253.25
238.05
219.97
200.19
179.82
159.91
141.36
124.91
111.05
100.12
92.23
87.29
85.04
85.1
87.01
90.4
94.93
100.34
106.53
113.47
121.22
129.84
139.3
149.54
160.4
171.58
182.63
193.02
202.14
209.39
214.19
216.04
214.62
209.89
202.12
191.83
179.74
166.64
153.32
140.39
128.32
117.45
108.03
100.31
94.52
90.85
89.36
89.94
92.32
96.09
100.93
106.65
113.34
121.37
131.33
143.79
159.23
177.96
200.08
225.39
253.46
283.76
315.73
349.04
383.89
420.86
460.47
502.33
544.5
583.34
614.11
632.18
634.27
619.22
588.16
544.05
490.77
432.53
373.35
316.54
264.52
218.4
177.79
140.77
104.49
66.55
26.41
-13.88
-50.31
-78.51
-95.8
-102.42
-101.08
-95.37
-88.13
-80.63
-73.08
-65.69
-59.3
-54.98
-52.92
-51.75
-48.99
-42.51
-32.04
-19.58
-8.28
-0.81
1.76
-0.13
-5.41
-13.6
-25.13
-40.83
-60.87
-83.72
-106.17
-123.84
-132.36
-128.82
-113.08
-87.84
-57.76
-27.66
-0.43
23.7
46.43
69.38
92.14
111.57
123.13
123.37
111.98
91.86
67.45
42.62
19.62
-0.46
-16.85
-28.6
-35.65
-39.85
-44.98
-55.09
-72.21
-94.72
-117.83
-135.85
-145.03
-145.12
-138.94
-130.25
-121.69
-113.74
-105.29
-95
-82.52
-68.67
-55.1
-43.49
-34.89
-29.36
-26.13
-24
-21.8
-18.86
-15.15
-11.21
-7.72
-5.18
-3.72
-3.08
-2.88
-2.87
-3.07
-3.6
-4.27
-4.44
-3.11
0.38
5.85
11.96
16.86
19.29
19.36
18.49
18.4
19.89
22.14
23.18
21.1
15.45
7.43
-0.86
-7.77
-13.08
-18
-24.04
-31.81
-40.53
-48.35
-53.48
-55.02
-53.45
-49.98
-45.84
-41.67
-37.66
-33.88
-30.69
-28.74
-28.56
-29.86
-31.58
-32.56
-32.62
-33.16
-36.72
-45.66
-60.71
-80
-99.7
-115.48
-124.34
-125.81
-121.78
-115.26
-109.07
-104.76
-102.52
-101.43
-99.83
-95.56
-86.21
-69.52
-44.08
-10.03
30.25
72.49
111.18
140.96
157.87
160.09
148.18
124.9
94.63
62.38
32.73
8.82
-7.99
-17.69
-20.83
-17.88
-9.49
2.72
15.55
24.62
25.81
17.32
0.94
-18.02
-32.99
-38.92
-34.26
-21.05
-3.15
15.85
34.03
51.08
67.14
81.65
92.77
98.08
95.71
85.55
69.38
50.41
31.9
15.99
3.2
-7.08
-15.7
-22.8
-27.52
-28.63
-25.45
-18.66
-10.43
-3.63
-0.46
-1.34
-4.83
-8.27
-9.25
-6.59
-0.77
6.69
14.02
19.8
23.19
23.73
21.31
16.31
9.87
3.78
-0.01
-0.16
3.34
9.07
14.56
17.26
15.53
9.08
-0.99
-12.8
-24.32
-33.97
-41.08
-45.96
-49.45
-52.6
-55.95
-59.29
-62.01
-63.55
-63.95
-63.66
-63.18
-62.22
-59.83
-54.83
-46.5
-35.28
-22.5
-9.91
1.09
9.73
15.92
19.85
21.84
22.38
22.15
22.08
22.95
25.02
27.84
30.41
31.7
31.14
28.83
25.19
20.95
16.81
13.31
10.72
8.85
7.13
4.77
1.11
-4.13
-10.59
-17.59
-24.41
-30.6
-35.97
-40.2
-42.86
-43.29
-41.15
-36.7
-31.1
-25.87
-22.22
-20.41
-19.53
-18.12
-15.26
-11.18
-7.21
-5.08
-5.74
-8.74
-12.48
-15
-14.9
-12.06
-7.48
-2.55
1.74
5.3
8.51
11.67
14.64
16.79
17.45
16.47
14.29
11.87
10.05
9.11
8.63
7.91
6.49
4.78
3.83
4.65
7.29
10.61
12.72
11.89
7.56
0.36
-8.13
-16.28
-22.93
-27.56
-30
-30.09
-27.73
-23.33
-18.05
-13.4
-10.73
-10.24
-10.71
-10.1
-6.54
0.64
10.6
21.51
31.44
39.13
44.27
47.22
48.41
48.04
46.07
42.62
38.35
34.35
31.68
30.72
30.96
31.23
30.45
28.08
24.24
19.6
14.78
10.09
5.47
0.57
-5.14
-12.03
-20.43
-30.25
-40.79
-50.82
-58.88
-63.87
-65.66
-65.09
-63.6
-62.5
-62.31
-62.45
-61.75
-59.1
-54.23
-47.94
-41.69
-36.69
-33.21
-30.35
-26.64
-20.98
-13.36
-5.11
1.71
5.48
5.83
3.8
1.13
-0.61
-0.8
0.33
1.99
3.45
4.26
4.4
4.07
3.58
3.28
3.37
4.01
5.12
6.42
7.45
7.82
7.39
6.4
5.18
3.97
2.77
1.41
-0.12
-1.59
-2.54
-2.57
-1.74
-0.49
0.44
0.55
-0.08
-0.84
-1
-0.28
0.99
2.02
2.27
1.79
1.33
1.95
4.31
8.32
12.98
17.01
19.42
20
19.24
18.06
17.25
17.44
18.93
21.82
26.26
32.08
38.75
45.31
50.71
54.22
55.8
56.2
56.61
58.03
60.87
64.88
69.36
73.39
76.02
76.55
74.77
71.14
66.78
63.31
62.26
64.37
69.12
74.75
78.86
79.22
74.31
63.75
48.2
29.3
9.32
-9.45
-25.3
-37.99
-49.07
-61.61
-79.19
-104.9
-140.18
-184.36
-234.28
-284.82
-329.79
-363.39
-381.8
-384.27
-373.56
-355
-334.71
-317.57
-305.83
-298.75
-293.33
-285.78
-272.61
-251.65
-222.53
-187.03
-149.11
-114.24
-87.83
-73.29
-70.57
-75.84
-82.62
-84.19
-76
-57.2
-30.86
-2.71
21.32
37.27
44.43
44.78
41.4
36.79
31.79
26.23
20.19
15.23
14.4
21.14
37.14
60.76
86.97
108.77
119.68
115.79
96.7
65.4
27.55
-9.87
-39.79
-56.67
-57.91
-44.23
-19.04
12.94
47.06
79.75
108.6
132.18
149.71
161.2
168.01
172.72
178.49
187.65
200.27
213.99
225.47
232.49
235.17
236
238.16
243.31
250.15
254.44
250.86
235.63
208.44
172.72
134.25
98.62
69.24
46.8
30.25
18.66
12.61
13.92
23.78
40.26
57.21
65.76
58.26
32.15
-8.12
-52.95
-91.75
-117.47
-128.89
-129.7
-125.42
-119.82
-113.06
-102.4
-84.22
-56.37
-19.49
22.82
65.13
101.88
129.04
144.81
149.59
145.02
132.98
114.93
92.28
67.11
42.79
23.48
12.75
11.95
19.15
29.51
36.93
36.65
26.97
9.36
-12.64
-35.05
-54.45
-67.9
-72.53
-65.63
-45.67
-13.79
25.51
65.42
99.42
123.87
139.1
148.38
155.34
161.6
166.11
166.33
160.44
148.89
134.2
119.41
106.35
94.36
80.41
60.83
33.62
0.06
-35.48
-67.16
-89.83
-100.8
-100.14
-89.88
-73.06
-53.22
-34.74
-22.75
-22.25
-36.41
-65.03
-104.03
-146.93
-187.39
-221.68
-249.39
-272.04
-290.63
-304.11
-309.71
-304.53
-287.51
-260.48
-227.57
-193.12
-159.56
-126.25
-90.03
-47.17
4.37
63.11
123.85
179.12
221.58
246.24
251.7
240.37
217.87
191.75
169.08
154.39
148.65
149.61
153.22
155.5
153.7
146.69
135.04
119.65
101.17
80.32
58.54
38.02
21
8.35
-1.15
-9.38
-18.79
-31.76
-49.89
-74.12
-105.24
-143.93
-189.9
-240.28
-286.66
-317.82
-324.15
-302.16
-256.78
-200.33
-147.78
-110.26
-90.35
-79.3
-64.01
-35.16
8.15
59.57
110.02
153.37
189.49
208.83
206.45
184.34
150.09
110.75
70.03
29.27
-9.9
-44.9
-72.79
-89.46
-91.57
-81.84
-65.52
-46.94
-29.59
-15.25
-3.84
6.31
19.23
38.57
66.09
98.68
135.03
172.75
207.8
234.3
245.73
237.98
210.05
164.29
100.34
29.24
-33.17
-74.85
-93.62
-95.16
-86.27
-71.83
-54.79
-37.18
-19.63
-5.35
3.97
