9.57
8.02
10.6
13.97
15.3
14.07
11.76
10.17
9.92
10.36
10.29
9.32
8.09
7.44
7.44
7.25
5.78
2.41
-2.66
-8.67
-14.66
-19.31
-20.98
-17.71
-8.18
7.32
26.32
45.17
60.77
72.13
80.24
87.07
93.75
99.84
103.59
102.83
96.31
84.17
68.08
50.59
34.76
23.19
16.95
15.14
15.4
15.23
13.22
9.65
5.79
2.53
-0.5
-4.43
-9.83
-15.78
-20.14
-20.89
-17.62
-12.28
-8.22
-8.57
-14.73
-25.87
-39.75
-53.73
-65.76
-74.67
-80.09
-82.08
-80.9
-76.97
-71.07
-64.76
-60.34
-60.05
-65.01
-74.2
-84.18
-90.2
-88.26
-76.86
-57.61
-34.13
-10.4
10.68
27.53
39.45
45.85
46.64
42.99
37.67
34.17
34.57
38.2
41.96
42.32
37.75
30.05
23.35
21.44
25.32
32.56
38.93
40.84
37.15
29.27
20.16
12.55
7.81
5.87
5.93
6.89
7.53
6.75
4.16
0.38
-3.27
-5.47
-5.73
-4.99
-5
-7.18
-11.59
-16.79
-20.83
-22.48
-21.87
-20.28
-19.65
-21.29
-25.39
-30.94
-36.41
-40.83
-44.23
-47.44
-51.57
-57.3
-63.92
-69.29
-70.68
-66.15
-55.43
-40.02
-22.56
-5.58
9.27
21.43
30.6
36.25
37.81
35
28.39
19.64
11.06
4.6
1.21
0.63
1.73
3.36
4.78
6.08
7.82
10.66
14.7
19.19
22.79
24.34
23.47
20.69
17.05
13.23
9.16
4.35
-1.51
-7.9
-13.59
-17.07
-17.77
-16.63
-16.01
-18.59
-25.56
-35.96
-46.94
-55.26
-58.84
-57.48
-52.62
-46.44
-41.01
-37.77
-37.73
-41.58
-49.66
-61.36
-74.86
-87.34
-95.88
-98.39
-94.3
-84.43
-70.06
-52.38
-32.38
-11.18
9.88
29.51
46.76
61.29
73.04
81.88
87.37
88.81
85.87
79.12
70.13
61.15
54.28
50.89
51.52
55.73
62.32
69.38
74.4
74.92
69.43
58.14
43.32
28.6
17.62
13.01
15.72
25
38.39
52.22
62.13
64.28
56.76
40.7
20.26
1.2
-11.59
-16.29
-14.64
-10.98
-10.04
-14.52
-24.19
-36.35
-47.25
-53.66
-53.88
-48.12
-38.02
-25.73
-13.23
-1.91
7.44
14.48
19.14
21.58
22.01
20.91
19.02
17.13
15.73
14.91
14.31
13.4
11.71
9.05
5.77
2.83
1.58
3.23
8.17
15.47
22.99
28.08
28.86
25.13
18.42
11.21
5.79
3.24
3.27
4.8
6.51
7.34
6.52
3.55
-1.64
-8.58
-16.28
-23.61
-29.84
-35.29
-41.1
-48.41
-57.49
-67.08
-74.87
-78.75
-78.17
-74.35
-69.66
-66.1
-64.13
-62.63
-59.59
-53.5
-44.36
-33.78
-23.8
-15.78
-9.43
-3.11
4.95
15.44
27.28
37.89
44.46
45.37
40.73
32.34
22.75
14.24
8.15
4.68
3.31
3.27
3.86
4.67
5.5
6.46
7.55
8.63
9.36
9.25
7.78
4.79
0.74
-3.37
-6.33
-7.29
-6.08
-3.51
-0.95
0.13
-1.4
-6
-13.27
-21.88
-29.94
-35.37
-36.51
-32.93
-25.77
-17.69
-11.96
-11.14
-16.14
-25.86
-37.64
-48
-54
-53.79
-47.1
-35.27
-20.78
-6.41
5.67
14.52
20.53
24.57
27.34
29.13
29.93
29.87
29.46
29.5
30.33
31.43
31.61
30.02
26.84
23.43
21.6
22.46
25.59
29.3
31.71
31.65
29.15
24.94
19.97
15.08
10.88
7.74
6.02
5.98
7.47
9.67
11.38
11.65
10.48
8.92
8.9
12.39
20.39
32.41
46.54
60.11
70.59
76.38
76.89
72.46
63.91
52.61
40.5
30.1
23.77
22.6
26.02
31.88
37.49
40.83
41.62
40.76
39.38
37.78
35.31
31.27
25.49
18.78
12.21
6.26
0.3
-7.09
-16.98
-29.18
-42.08
-53.48
-61.47
-65.15
-64.82
-61.62
-57.31
-53.59
-51.8
-52.47
-55.17
-58.39
-60.28
-59.95
-57.86
-55.39
-53.73
-53.34
-53.8
-54.45
-55.31
-57.16
-60.67
-64.89
-67.17
-64.46
-55.61
-42.64
-29.86
-21.72
-20.17
-23.66
-28.43
-31
-30.33
-27.8
-25.46
-24.09
-22.54
-18.46
-10.32
1.5
14.67
26.36
34.83
40.07
43.16
45.37
47.51
49.68
51.67
53.17
53.9
53.27
50.21
43.82
34.03
22.35
11.63
4.95
4.19
8.93
16.45
23.21
26.64
26.36
23.96
21.45
19.76
17.98
14.26
7.63
-0.82
-8.21
-11.78
-10.75
-6.92
-3.5
-2.98
-5.39
-8.39
-9.35
-7.78
-6.41
-9.58
-20.23
-37.31
-55.6
-68.42
-71.24
-64.24
-52.23
-41.83
-37.79
-40.79
-47.65
-53.85
-56.19
-54
-48.8
-42.36
-35.12
-25.78
-12.65
4.84
25.49
46.37
63.86
75.11
79.08
76.6
69.85
61.36
53.43
47.24
42.71
39.01
35.35
31.68
28.61
26.75
25.91
24.62
20.56
12.19
0.19
-12.36
-21.36
-23.86
-19.58
-10.93
-1.71
4.93
7.93
7.89
5.83
2.38
-2.12
-6.77
-9.65
-8.12
-0.3
13.48
30.05
44.61
53.01
53.5
47.23
37.21
26.69
17.64
10.56
5.21
1.56
0.08
1.07
3.67
5.87
5.39
0.9
-6.96
-15.43
-20.87
-20.38
-13.16
-0.36
15.57
32.03
47.09
59.7
69.52
76.39
80.4
81.8
80.91
78
73.57
68.42
63.59
59.94
57.47
55.42
52.36
47.28
40.43
33.31
27.72
24.63
23.39
22.07
18.85
13.26
6.43
0.3
-3.78
-6
-7.87
-11.23
-17.15
-25.32
-34.43
-42.74
-48.74
-51.63
-51.67
-49.91
-47.83
-46.75
-47.02
-47.9
-48.02
-46.57
-44.04
-42.05
-42.02
-44.07
-46.63
-47.33
-44.73
-39.33
-33.34
-29.3
-28.58
-30.56
-33.4
-35.2
-34.77
-31.82
-26.29
-17.84
-5.94
9.36
26.71
43.58
57
64.8
66.25
62.19
54.52
45.32
36.44
29.15
24.05
20.93
18.87
16.22
11.13
2.41
-9.57
-22.64
-33.43
-38.57
-36.2
-26.68
-12.37
3.45
17.66
28.16
34.12
35.57
32.96
26.84
18.16
8.12
-1.52
-8.77
-12.12
-11.28
-7.45
-2.88
0
-0.27
-3.58
-8.23
-12
-13.68
-13.71
-13.82
-16.05
-21.52
-29.88
-39.66
-49.11
-56.94
-62.29
-64.5
-62.96
-57.66
-49.78
-41.7
-36.22
-35.19
-38.51
-44.11
-49.19
-52.07
-53.08
-53.91
-56.2
-60.6
-66.44
-72.55
-78.2
-83.3
-87.75
-90.35
-88.71
-80.23
-63.78
-40.68
-14.61
10.19
30.5
45.07
54.31
59.02
59.46
55.29
46.35
33.45
18.53
3.9
-8.52
-17.88
-24.12
-27.42
-27.44
-23.62
-15.96
-5.57
5.34
14.18
19.18
20.2
18.76
17.1
17.07
19.36
23.38
28.01
32.51
37.14
42.78
50.54
60.73
72.47
83.8
92.47
96.81
96.36
91.99
85.43
78.63
72.85
68.08
63.22
56.73
47.53
35.94
23.88
13.99
8.23
6.91
8.61
11.21
13.04
13.45
12.66
10.73
6.86
-0.19
-10.97
-24.21
-36.76
-44.99
-46.61
-41.75
-32.81
-22.93
-14.16
-6.8
0.06
7.41
15.15
21.96
26.11
26.51
23.37
18.33
13.58
10.66
10.13
11.51
13.8
16.28
18.77
21.34
23.89
25.74
25.76
23.13
17.8
10.79
3.86
-1.34
-3.9
-3.97
-2.52
-0.8
0.19
-0.16
-1.84
-4.27
-6.52
-7.42
-6.05
-2.31
2.87
7.79
10.64
10.33
6.82
0.82
-6.66
-14.82
-23.4
-32.14
-40.59
-48.13
-54.44
-59.54
-63.75
-67
-68.46
-66.68
-60.39
-49.65
-36.44
-24.32
-17.16
-17.36
-24.79
-36.77
-49.15
-57.95
-60.71
-56.92
-47.73
-35.25
-21.62
-8.64
2.56
11.24
16.96
19.41
18.76
15.93
12.45
9.82
8.9
9.48
10.43
10.48
8.96
6.04
2.54
-0.7
-3.31
-5.56
-8.05
-11.13
-14.67
-18.16
-21.27
-24.02
-26.89
-30.39
-34.57
-38.75
-41.89
-43.08
-42.06
-39.32
-35.79
-32.48
-30.12
-29.01
-29.05
-29.8
-30.82
-31.93
-33.51
-36.56
-42.39
-51.77
-64.13
-77.47
-89
-96.51
-99.46
-99.35
-99.04
-101.49
-108.34
-119.12
-131.35
-141.01
-143.45
-134.62
-112.28
-77
-32.45
15.17
58.66
91.84
111.15
116.27
109.68
95.42
77.84
60.77
46.84
37.54
33.65
35.58
43.54
57.22
75.3
95.42
114.62
130.05
139.93
143.88
142.82
138.04
130.64
121.27
110.44
98.87
88.03
79.78
75.68
76.01
79.39
83.21
84.55
81.46
73.8
62.99
51.04
39.39
28.41
17.92
8.08
-0.04
-4.86
-5.72
-4.06
-2.97
-5.63
-13.04
-22.8
-30.23
-31.01
-23.98
-11.91
0.05
7.53
9.32
7.64
6.12
7.09
10.02
12.14
10.41
3.6
-7.25
-19.87
-32.14
-42.72
-50.84
-55.6
-55.84
-50.7
-40.55
-27.16
-13
0.1
11.9
23.06
34
43.79
50.25
51.21
46.07
36.77
26.98
20.62
19.66
23.59
29.63
34.41
35.76
33.82
30.65
28.89
29.84
32.51
34.18
32.31
26.4
18.46
11.57
7.69
6.27
4.72
0.41
-6.69
-13.6
-16.44
-13.21
-5.48
2.29
5.52
2.6
-4.15
-10.26
-12.36
-10.52
-7.95
-8.76
-15.19
-26.1
-37.78
-46.08
-48.81
-46.55
-41.9
-37.77
-35.86
-36.54
-39.25
-43.15
-47.59
-52.17
-56.34
-58.94
-58.33
-53.09
-42.68
-27.94
-11.07
4.82
16.97
23.96
26.15
25.24
23.39
22.06
21.28
19.81
16.22
10.17
2.71
-4.22
-8.88
-10.89
-11.31
-11.8
-13.45
-16.04
-18.21
-18.51
-16.51
-13.01
-9.61
-7.44
-6.5
-5.38
-2.35
3.54
11.34
18.26
20.87
16.79
6.33
-7.32
-19.68
-27.34
-29.59
-28.64
-27.78
-29.07
-31.84
-33.38
-31.36
-26.03
-20.27
-17.8
-20.58
-27.4
-34.87
-39.83
-41.55
-41.77
-42.97
-46.21
-50.29
-52.79
-52.13
-48.9
-45.73
-45.59
-49.83
-57.14
-64.38
-68.41
-67.76
-62.82
-55.2
-46.34
-36.47
-24.71
-10.13
6.93
24.6
40.11
51.14
56.83
58.27
57.77
57.39
57.98
59.05
59.59
58.99
57.53
56.14
55.75
56.73
58.68
60.84
62.63
63.89
64.91
66.12
67.58
68.84
68.77
66.13
60.27
51.79
42.58
35.33
32.26
33.89
38.51
42.94
44.34
41.76
36.47
30.8
26.38
22.99
18.88
12.59
4.3
-3.83
-8.97
-9.67
-6.87
-3.51
-2.79
-6.26
-13.35
-22.39
-31.79
-40.98
-49.97
-58.39
-65.05
-68.08
-66.11
-58.9
-47.66
-34.27
-20.6
-7.99
2.71
10.88
16.01
17.83
16.69
13.74
10.71
9.16
9.85
12.38
15.42
17.39
17.14
14.53
10.43
6.33
3.57
2.82
3.79
5.31
6.12
5.28
2.71
-1.13
-5.46
-9.58
-12.98
-15.2
-15.68
-13.92
-10.03
-5.02
-0.78
0.64
-1.98
-8.31
-16.51
-24.05
-28.95
-30.77
-30.93
-32.06
-36.67
-45.88
-58.74
-72.55
-83.85
-89.76
-88.99
-82.15
-71.35
-59.29
-48.28
-39.57
-33.15
-28.12
-23.13
-16.81
-8.19
3.13
16.85
32.03
47.28
61.12
72.39
80.4
84.99
86.54
85.78
83.57
80.61
77.45
74.4
71.46
68.38
64.71
60.15
54.7
48.95
43.9
40.46
38.68
37.64
35.55
30.61
21.99
10.29
-2.52
-13.95
-22.05
-26.1
-26.71
-25.24
-23.05
-20.9
-18.94
-16.97
-14.83
-12.67
-10.82
-9.44
-8.26
-6.68
-4.25
-1.22
1.22
1.36
-2.22
-9.78
-20.24
-31.51
-41.39
-48.44
-52.47
-54.34
-55.31
-56.32
-57.68
-59
-59.53
-58.51
-55.6
-51.14
-46.1
-41.78
-39.3
-39.21
-41.35
-45.03
-49.22
-52.79
-54.61
-53.54
-48.65
-39.6
-26.91
-11.99
3.16
16.63
27.2
34.59
39.25
41.87
42.94
42.77
41.71
40.31
39.36
39.66
41.52
44.66
48.21
51.15
52.79
52.9
51.8
50.17
48.62
47.48
46.63
45.59
43.85
41.17
37.63
33.53
29.33
25.49
22.52
20.81
20.46
21.11
21.96
22.02
20.66
17.99
14.76
11.97
10.25
9.37
8.51
6.82
4.06
0.78
-2.2
-4.34
-5.69
-6.71
-7.6
-8.01
-7.37
-5.66
-4.03
-4.44
-8.81
-17.78
-30.08
-42.96
-53.29
-58.84
-58.89
-53.96
-45.2
-33.73
-20.41
-6.16
7.84
20.07
29.28
34.91
37.2
36.99
35.19
32.37
28.85
25.01
21.26
18.08
16
15.24
15.73
17.32
19.88
23.4
27.83
32.76
37.25
40.05
40.08
37.11
32
26.45
22.07
19.74
19.2
19.34
18.91
17.33
14.97
12.77
11.82
12.5
14.3
16
16.22
13.92
8.73
0.94
-8.75
-19.33
-29.83
-39.52
-47.94
-54.93
-60.53
-65.02
-68.88
-72.95
-78.39
-85.99
-95.43
-105.06
-112.4
-115.4
-113.85
-109.83
-106.71
-107.46
-112.76
-120.15
-125.19
-123.73
-113.77
-96.34
-74.43
-51.2
-28.66
-7.37
12.89
31.82
48.23
60.62
67.99
70.33
68.7
64.56
59.21
53.39
47.36
41.28
35.25
29.35
23.6
18.09
13.19
9.56
7.69
7.33
7.42
6.57
3.82
-0.43
-4.4
-5.79
-3.02
3.94
13.49
23.04
30.21
33.78
33.86
31.65
28.6
25.76
23.5
21.65
19.8
17.54
14.75
11.28
7
1.82
-4.15
-10.35
-15.76
-19.3
-20.43
-19.72
-18.44
-17.97
-18.8
-20.23
-20.7
-18.73
-13.99
-7.76
-2.38
-0.01
-1.59
-6.61
-13.74
-21.54
-28.96
-35.24
-39.21
-39.12
-33.27
-20.74
-2.41
18.96
39.76
56.82
68.34
74.09
74.68
70.93
63.83
54.95
46.96
43
45.4
54.31
67.27
79.82
87.58
88.28
82.39
72.58
62
52.53
44.22
36.07
27.28
18.39
11.33
8.23
10.28
17.02
26.24
35.07
41.19
43.6
42.76
40.07
36.68
32.94
28.2
21.27
11.49
-0.64
-13.29
-24
-30.95
-33.82
-33.9
-33.54
-35.02
-39.49
-46.77
-55.7
-64.64
-72.02
-76.54
-77.09
-72.94
-64
-51
-35.58
-19.82
-5.42
6.8
16.97
25.61
32.88
38.11
40.26
38.53
33.16
25.51
17.63
11.37
7.96
7.62
9.89
13.8
18.11
21.33
22.15
19.92
14.96
8.46
1.95
-3.1
-5.67
-5.26
-1.99
3.39
9.35
13.75
14.59
10.86
3.21
-6.14
-14.45
-19.53
-20.55
-18.38
-15.05
-12.76
-13.06
-16.62
-23.17
-31.74
-40.81
-48.7
-53.86
-55.25
-52.57
-46.71
-39.76
-34.69
-34.41
-40.52
-52.41
-67.04
-79.95
-87.08
-86.56
-78.83
-65.84
-49.77
-31.89
-12.84
6.49
24.08
36.8
41.8
38.58
29.76
19.97
13.61
12.42
14.78
16.85
15.35
9.57
1.69
-4.98
-8.16
-7.83
-5.87
-4.52
-4.66
-5.34
-4.58
-1.04
5.02
11.9
17.54
20.58
21.11
20.41
19.75
19.58
19.25
17.58
13.75
8.01
1.62
-3.55
-5.98
-5.2
-1.96
1.87
4.05
2.57
-3.33
-12.73
-23.04
-30.98
-33.86
-30.98
-24.25
-17.46
-14.48
-17.45
-26.09
-38.13
-50.58
-61.05
-68.18
-71.23
-69.8
-63.6
-52.98
-39.37
-24.93
-11.64
-0.12
10.7
22.89
37.97
55.53
72.97
86.68
93.75
93.3
86.58
76.15
64.79
54.72
47.58
44.54
46.08
51.39
58.18
63.17
63.51
58.35
49.51
40.79
35.78
35.77
39.2
42.68
43.39
40.99
37.64
36.12
37.56
40.17
40.35
35.33
25.33
13.96
6.19
5.34
10.85
18.51
22.85
20.22
10.55
-3.26
-17.48
-29.57
-38.84
-45.61
-49.63
-49.68
-44.5
-34.16
-20.72
-7.49
2.55
8.35
10.99
12.37
13.7
14.49
13.32
9.06
2
-6.3
-14.04
-20.32
-25.21
-29.06
-31.94
-33.49
-33.45
-32.16
-30.62
-29.64
-29.27
-28.92
-28.16
-27.41
-28.03
-31.08
-35.95
-39.94
-39.61
-33.04
-21.56
-9.44
-1.55
-0.58
-5.56
-12.92
-18.76
-21.15
-20.52
-18.32
-15.36
-10.9
-3.68
6.33
16.91
24.49
26.27
22.27
15.54
10.35
9.6
13.39
19.51
25.36
29.65
32.74
35.41
37.53
37.8
34.84
28.82
22.11
17.94
18.25
22.29
26.93
28.98
27.44
24.13
21.87
22.04
23.31
22.7
18.12
10.31
2.74
-0.94
0.39
4.29
6.32
2.94
-6.1
-17.67
-27.37
-32.17
-31.91
-28.84
-25.84
-24.71
-25.57
-27.42
-29.44
-31.58
-34.38
-38.28
-43.14
-48.03
-51.95
-54.49
-56.13
-57.78
-60.22
-63.3
-66.09
-67.5
-66.97
-64.91
-62.38
-60.47
-59.48
-58.75
-57.14
-53.94
-49.34
-44.29
-39.77
-36.1
-33.1
-30.47
-28.56
-28.42
-31.07
-36.35
-42.18
-45.3
-42.57
-32.8
-17.39
0.37
17.2
31.33
43.09
53.62
63.16
70.55
73.75
71.77
65.8
58.89
54.2
53.04
54.25
55.19
53.83
50.18
46.22
44.09
44.56
46.58
47.99
47.11
43.63
38.37
32.31
25.67
18.21
9.89
1.37
-6.23
-11.99
-15.8
-18.32
-20.4
-22.39
-23.94
-24.3
-22.85
-19.63
-15.09
-9.87
-4.55
0.33
4.1
6.06
5.74
3.29
-0.51
-4.52
-7.87
-10.13
-11.21
-11.11
-10.04
-8.59
-7.77
-8.49
-10.87
-13.79
-15.2
-13.21
-7.36
0.82
8.24
11.67
9.39
1.97
-8.16
-17.93
-24.96
-28.04
-26.78
-21.1
-11.05
2.87
19.17
35.59
49.73
60.11
66.95
71.93
77.36
84.52
92.69
99.12
100.46
94.74
82.81
68.18
55.33
47.59
45.57
47.37
50.03
51.24
50.38
47.97
44.39
39.15
31.03
19.34
5.29
-7.91
-16.42
-18.16
-14.16
-8.3
-5.19
-7.4
-14.29
-22.5
-28.37
-30.34
-29.63
-29.08
-30.9
-35.12
-39.52
-41.61
-40.54
-38.1
-37.54
-41.1
-48.26
-55.88
-60.2
-59.41
-55.07
-51.16
-51.71
-58.05
-68.03
-77.34
-82.01
-80.57
-74.52
-67.04
-60.66
-55.57
-49.62
-39.76
-24.07
-3.14
19.92
40.62
54.87
60.65
58.48
50.78
40.71
30.99
23.3
18.16
15.29
14.15
14.1
14.57
15.15
15.81
16.81
18.44
20.69
22.95
23.88
22.09
16.82
8.61
-0.55
-7.87
-10.88
-8.41
-1.18
8.42
17.26
22.73
23.8
21.34
17.64
15.14
15.25
17.47
19.73
19.58
15.37
6.92
-4.52
-16.95
-28.4
-37.43
-43.23
-45.45
-44.21
-40.43
-35.8
-32.46
-32.18
-35.51
-41.35
-47.41
-51.2
-51.22
-47.79
-43.02
-39.77
-40.22
-44.87
-52.1
-58.82
-61.74
-58.83
-49.85
-35.95
-18.96
-0.54
18.13
36.15
52.31
65.05
73.06
76.02
75.02
72.1
69.41
68.23
68.55
69.01
67.69
62.93
54.08
41.79
27.91
14.92
5.14
-0.29
-1.94
-1.58
-1.12
-1.21
-0.8
2.03
8.47
17.62
26.28
30.73
28.91
21.76
12.63
5.42
2.35
2.81
4.29
4.41
2.7
0.71
0.6
3.28
7.51
10.71
10.63
6.78
0.52
-5.87
-10.85
-14.26
-16.79
-18.85
-19.87
-18.69
-14.94
-10.03
-7
-9.17
-18.13
-32.55
-48.64
-61.84
-68.68
-67.59
-59.02
-44.63
-26.7
-7.73
9.69
23.23
31.44
34.26
33.24
30.76
28.91
28.57
29.28
29.72
28.41
24.55
18.57
12.11
7.58
7.2
11.87
20.59
30.76
39.36
44.48
45.98
45.05
42.94
39.97
35.38
28.32
19.02
9.25
1.52
-2.4
-2.66
-1.13
-0.23
-1.22
-3.64
-5.71
-5.82
-3.36
0.8
5.03
7.69
7.95
5.74
1.38
-4.71
-12.07
-20.32
-29.05
-37.78
-45.96
-53.09
-58.73
-62.46
-64.08
-63.62
-61.32
-57.42
-51.83
-44.18
-33.92
-20.96
-6.06
8.92
21.77
30.56
34.52
34.39
31.95
28.88
26.03
23.16
19.24
13.58
6.82
0.83
-2.16
-1.16
2.91
7.32
8.97
6.12
-0.53
-8.32
-14.33
-16.93
-16.57
-15.06
-14.07
-13.56
-11.83
-6.73
2.65
15.01
27.2
35.6
38.13
35.09
28.63
21.49
15.43
10.67
6.47
2.07
-2.76
-7.62
-11.96
-15.74
-19.52
-24.01
-29.52
-35.72
-41.97
-47.96
-54.05
-61.09
-69.76
-79.83
-89.71
-96.94
-99.21
-95.07
-84.56
-69.06
-50.67
-31.41
-12.64
4.95
20.91
34.58
44.99
51.17
52.67
50.11
45.18
40.04
36.43
34.85
34.53
34.1
32.5
29.79
26.99
25.44
25.8
27.47
28.79
28
24.38
18.72
12.92
9.03
8.16
9.9
12.66
14.58
14.63
12.88
10.34
8.22
7.1
6.65
5.96
4.04
0.34
-5.02
-11.43
-18.09
-24.07
-28.45
-30.33
-28.89
-23.75
-15.22
-4.68
5.68
13.32
16.29
14.03
7.79
0.25
-5.71
-8.01
-6.08
-0.51
7.51
17.09
27.73
39.09
50.2
59.36
64.76
65.38
61.68
55.53
49.2
44.17
40.65
37.97
35.65
34.16
34.76
38.52
45.26
53.28
59.94
62.85
60.85
54.54
45.74
36.41
27.82
20.33
13.63
7.24
1.07
-4.32
-7.97
-9.11
-7.8
-5
-2.43
-2.08
-5.42
-12.7
-22.72
-33.09
-41.21
-45.16
-44.48
-40.46
-35.59
-32.48
-32.68
-36.31
-42.21
-48.73
-54.37
-58.09
-59.48
-58.39
-54.85
-49.09
-41.7
-33.36
-24.67
-15.92
-7.29
0.92
8.12
13.65
17.05
18.42
18.3
17.2
15.19
12.04
7.6
2.31
-2.92
-7.02
-9.42
-10.4
-10.89
-11.8
-13.35
-14.98
-15.79
-15.24
-13.44
-11.15
-9.36
-8.72
-9.26
-10.54
-12.09
-13.55
-14.95
-16.36
-17.78
-18.77
-18.77
-17.39
-14.98
-12.48
-11.2
-12.05
-14.92
-18.48
-20.63
-19.72
-15.79
-10.63
-6.96
-6.88
-10.87
-17.74
-25.71
-33.7
-41.75
-50.29
-58.9
-65.43
-66.62
-59.93
-45.22
-25.19
-4.21
13.79
27
35.95
42.25
47.22
51.05
53.1
52.48
49.04
43.55
37.3
31.31
25.99
21.19
16.49
11.63
6.76
2.33
-1.16
-3.56
-5.22
-6.62
-8.27
-10.34
-12.55
-14.45
-15.55
-15.6
-14.6
-12.72
-10.05
-6.55
-2.42
1.86
5.55
7.82
7.87
5.27
0.22
-6.45
-13.38
-18.92
-21.66
-21.11
-18.02
-14.11
-11.35
-10.84
-12.23
-14.12
-14.79
-13.32
-10.23
-7.08
-5.56
-6.5
-9.72
-14.48
-20.46
-28.13
-38.32
-51.29
-65.55
-77.86
-84.27
-81.98
-70.82
-53.42
-33.87
-15.82
-0.93
11.43
23.12
35.58
48.58
60.25
68.16
70.86
68.56
63.08
57.01
52.42
50.34
50.63
52.5
55.12
58.12
61.36
64.64
67.49
69.03
68.36
64.99
59.26
52.47
46.17
41.37
38.1
35.77
33.62
31.56
30.17
30.32
32.33
35.21
37.21
36.86
33.98
29.75
25.97
23.74
22.67
21.15
17.58
11.94
6.01
2.3
2.11
4.56
6.7
5.07
-2.11
-14.09
-27.98
-40.47
-49.45
-54.58
-56.72
-57.02
-56.22
-54.25
-50.96
-46.49
-41.42
-36.35
-31.48
-26.7
-21.91
-17.51
-14.32
-13.16
-14.27
-16.99
-20.01
-22
-22.34
-21.17
-19.15
-16.93
-14.87
-12.89
-10.87
-9.11
-8.22
-8.75
-10.59
-12.88
-14.4
-14.14
-11.72
-7.6
-2.76
1.96
6.3
10.61
15.45
21.12
27.14
32.36
35.28
34.88
31.15
25.08
18.12
11.56
6.18
2.34
0.17
0
2.36
7.45
14.56
21.96
27.29
28.49
24.78
16.69
5.66
-6.72
-19.22
-31
-41.33
-49.3
-53.87
-54.12
-49.85
-41.59
-30.62
-18.58
-7.02
3.11
11.36
17.79
22.82
26.52
28.48
27.88
24.19
17.95
10.77
4.57
0.54
-1.57
-3.09
-5.14
-7.64
-9.36
-8.89
-6.17
-3.1
-2.68
-6.98
-15.64
-25.83
-33.86
-37.35
-36.4
-33.19
-30.31
-28.93
-28.33
-26.55
-21.5
-12.38
-0.24
12.63
23.49
30.2
31.96
29.21
23.13
15.12
6.21
-3.08
-12.44
-21.54
-29.73
-36.26
-40.71
-43.25
-44.46
-44.99
-45.49
-46.39
-48.08
-51.02
-55.65
-61.95
-69.14
-75.69
-79.82
-80.13
-75.98
-67.67
-55.88
-41.42
-25
-7.34
10.68
27.73
42.36
53.39
60.21
63.04
62.78
60.54
57.28
53.33
48.71
43.59
38.76
35.51
35.13
38.26
44.33
51.71
58.47
63.16
65.33
65.36
63.85
61.23
57.83
54.03
50.53
48.06
46.98
47
47.2
46.51
44.28
40.63
36.2
31.77
27.88
24.51
21.28
17.66
13.36
8.63
4.16
0.89
-0.38
0.65
3.32
6.07
6.83
3.81
-3.77
-15.39
-29.42
-43.78
-56.71
-67
-73.93
-77
-75.85
-70.41
-61.29
-49.75
-37.7
-27.01
-18.9
-13.59
-10.59
-9.13
-8.65
-8.98
-9.9
-11.04
-11.87
-11.73
-10.28
-7.55
-3.93
0.19
4.53
9.09
13.86
18.64
23.13
26.84
29.44
30.95
31.57
31.54
30.92
29.61
27.48
24.55
21.04
17.49
14.5
12.45
11.25
10.43
9.28
7.28
4.35
0.65
-3.56
-8.22
-13.43
-19.16
-25.05
-30.26
-33.86
-35.33
-35.09
-34.33
-34.49
-36.51
-40.29
-44.87
-49.01
-51.71
-52.35
-50.55
-45.96
-38.21
-27.37
-14.23
-0.5
11.67
20.44
24.88
25.21
22.68
18.92
15.21
12.24
10.11
8.62
7.58
7.19
8.03
10.69
15.23
20.89
26.29
29.98
31.16
30.23
28.49
27.33
27.41
28.2
28.42
26.83
22.88
16.99
10.45
4.82
1.4
0.66
2.27
5.23
8.25
10.21
10.56
9.41
7.17
4.1
0.1
-5.16
-11.7
-18.99
-25.94
-31.46
-35.19
-37.77
-40.37
-43.91
-48.18
-51.89
-53.31
-51.32
-46.24
-40.03
-35.57
-35.37
-40.34
-49.18
-58.79
-65.42
-66.08
-59.68
-47.21
-30.9
-13.07
4.9
22.48
39.47
55.01
67.41
74.83
76.24
72.52
66.14
60
55.88
53.74
52.09
49.31
45.06
40.71
38.49
40.02
45.32
52.58
59.25
63.34
64.27
62.78
60.18
57.37
54.4
50.84
46.46
41.7
37.52
34.81
33.86
34.01
34.16
33.41
31.58
29.15
26.61
24.11
21.23
17.33
12.15
6.19
0.63
-3.4
-5.38
-5.55
-4.94
-5.08
-7.4
-12.89
-21.9
-34.01
-48.23
-62.94
-76.1
-85.66
-90.26
-89.51
-83.93
-74.75
-63.41
-51.13
-38.83
-27.42
-17.82
-10.95
-7.36
-6.87
-8.62
-11.28
-13.65
-15.32
-16.77
-18.84
-21.93
-25.5
-28.22
-28.49
-25.26
-18.64
-9.8
-0.48
7.87
14.68
20.07
24.41
27.85
30.31
31.62
31.98
32.32
33.93
37.57
42.73
47.72
50.37
49.09
43.71
35.51
26.24
17.04
7.99
-1.48
-11.77
-22.45
-32.09
-39.04
-42.4
-42.59
-41.06
-39.66
-39.62
-41.21
-43.99
-47.51
-51.61
-56.37
-61.69
-66.72
-69.96
-69.52
-64.21
-54.28
-41.36
-27.99
-16.68
-9.02
-5.24
-4.71
-6.47
-9.46
-12.69
-15.41
-17.16
-17.83
-17.86
-18.01
-18.92
-20.48
-21.78
-21.65
-19.37
-15.17
-10.08
-5.13
-0.68
3.76
8.99
15.04
20.85
24.81
25.8
24.2
21.87
21.31
24.17
30.23
37.33
42.57
44.03
41.7
37.33
33.1
30.25
28.34
25.62
20.44
12.39
2.66
-6.73
-14.25
-19.77
-24.35
-29.12
-34.36
-39.16
-41.9
-41.38
-37.45
-31.13
-24.06
-17.82
-13.64
-12.33
-14.36
-19.84
-28.36
-38.64
-48.56
-55.74
-58.13
-54.62
-45.43
-31.93
-16.11
-0.11
14.51
26.96
37.22
45.68
52.73
58.53
63.05
65.98
66.85
65.32
61.41
55.61
49.16
43.84
41.47
43.17
48.78
56.69
64.36
69.32
70.14
67
61.15
54.36
48.05
42.67
37.85
33.11
28.36
23.91
20.37
18.14
17.15
16.88
16.58
15.62
13.74
10.93
7.49
3.86
0.57
-2.02
-3.81
-5.15
-6.64
-9.03
-12.87
-18.36
-25.35
-33.61
-42.95
-53.05
-63.11
-71.77
-77.29
-78.01
-72.92
-62.31
-47.71
-31.28
-14.93
0.2
13.63
25.1
33.9
38.86
39.01
34.34
26.04
15.97
5.78
-3.82
-12.88
-21.43
-28.6
-32.69
-31.89
-25.69
-15.6
-4.63
4.05
8.52
8.83
6.69
4.61
4.6
7.61
13.37
20.82
28.31
34.17
37.21
36.9
33.47
27.55
20.04
11.65
2.87
-5.97
-14.32
-21.64
-27.85
-33.44
-39.27
-45.81
-52.59
-58.07
-60.28
-58
-51.84
-44.48
-39.46
-39.54
-45.28
-54.71
-64.39
-71.03
-72.69
-69.13
-61.31
-50.32
-36.94
-21.77
-5.5
10.79
25.66
37.62
45.68
49.47
49.06
44.69
36.91
26.84
16.31
7.71
3.07
3.25
7.4
13.37
18.91
22.81
25.43
28.12
32.03
37.22
42.41
45.83
46.46
44.56
41.52
38.92
37.58
37.34
37.49
37.32
36.51
35.19
33.46
31.23
28.23
24.08
18.49
11.24
2.31
-8.16
-19.69
-31.2
-41.26
-48.52
-52.48
-53.82
-54.03
-54.91
-58
-64.04
-72.96
-83.93
-95.44
-105.4
-111.36
-111.03
-102.92
-86.93
-64.48
-38.31
-11.88
11.7
30.28
43.04
50.45
54.12
56.05
58.06
61.08
64.71
67.71
68.75
67.09
63
57.57
51.86
46.49
41.51
36.78
32.63
29.75
28.77
29.77
32.12
34.75
36.95
38.79
40.88
43.84
47.63
51.59
54.96
57.13
57.81
56.73
53.35
47.02
37.65
26.16
14.62
5.36
-0.32
-2.95
-4.92
-9.49
-19.27
-34.83
-54.48
-74.65
-91.17
-100.69
-101.57
-94.14
-80.54
-63.88
-47
-31.65
-18.11
-5.66
6.53
18.37
28.41
34.52
34.91
29.51
20.19
9.91
1.3
-4.46
-7.87
-10.2
-12.05
-12.58
-10.14
-3.51
6.82
18.29
27.49
31.78
30.64
25.8
20.11
15.91
14.14
14.18
14.69
14.57
13.51
11.83
10.05
8.45
7.12
6.22
6.03
6.73
7.96
8.76
7.87
4.21
-2.67
-12.26
-23.24
-34.1
-43.51
-50.4
-53.92
-53.38
-48.16
-38.07
-23.82
-7.22
9.22
23.13
33.35
40.26
45.28
49.63
53.34
54.93
52.5
45.26
34.55
23.57
15.71
12.83
14.4
17.88
20.35
19.89
16.22
10.36
3.59
-3.21
-9.64
-15.46
-20.35
-23.79
-25.36
-24.98
-22.93
-19.88
-16.92
-15.33
-16.29
-20.57
-28
-37.4
-46.85
-54.48
-59.38
-61.91
-63.24
-64.56
-66.41
-68.38
-69.65
-69.69
-68.64
-67.34
-66.79
-67.52
-69.31
-71.24
-71.9
-69.94
-64.41
-55.05
-42.59
-28.3
-13.8
-0.39
11.55
22.63
33.78
45.41
56.9
66.71
73.25
75.8
75.17
73.4
72.54
73.41
75.36
76.76
75.99
72.54
67.2
61.52
56.73
52.97
49.31
44.41
37.37
28.14
17.74
7.76
-0.24
-5.03
-6
-3.35
1.87
7.84
12.44
13.94
11.52
5.4
-3.52
-14.21
-25.71
-37.35
-48.55
-58.52
-66.17
-70.6
-71.43
-68.9
-63.75
-56.93
-49.31
-41.68
-34.88
-29.96
-28.16
-30.37
-36.71
-46.32
-57.25
-66.55
-70.98
-67.76
-55.31
-33.87
-5.59
26.05
57.09
84.11
104.98
119.11
127.17
130.5
130.51
128.24
124.1
117.9
109.37
98.43
85.6
72.06
59.47
49.44
43.18
40.94
42.12
45.36
48.73
50.16
48.22
42.43
33.63
23.8
15.2
9.46
6.97
6.96
8.16
9.51
10.47
10.76
9.88
6.96
1.21
-7.46
-17.88
-27.67
-34
-34.92
-30.46
-22.76
-15.45
-12.13
-14.9
-23.44
-35.25
-46.99
-55.98
-61.18
-63.19
-63.33
-62.16
-58.95
-52.09
-40.22
-23.64
-4.75
12.89
26.24
34.02
36.99
37.03
35.72
33.38
29.19
22.43
13.67
4.98
-0.98
-2.4
0.62
6.15
11.97
16.93
21.13
25.08
28.56
30.31
28.83
23.62
15.81
7.85
2.17
-0.13
0.6
3.09
6.1
8.8
10.5
10.24
7.03
0.44
-8.77
-18.62
-26.75
-31.93
-34.85
-37.79
-43.2
-52.05
-63.22
-74.07
-81.68
-84.59
-83.51
-80.63
-78.46
-78.66
-81.54
-86.35
-92.13
-98.03
-103.28
-106.77
-106.67
-100.99
-88.79
-71.04
-50.66
-31.45
-16.44
-6.87
-2.03
0.18
2.14
5.43
10.59
17.29
24.62
31.55
37.2
41
42.91
43.37
43.17
43.09
43.5
44.16
44.51
44.01
42.51
40.39
38.03
35.53
32.71
29.5
26.37
24.62
25.73
30.17
36.55
41.59
41.6
34.44
20.97
4.9
-9.12
-17.88
-21.28
-21.79
-22.49
-24.96
-28.49
-30.99
-30.8
-28.06
-24.57
-22.55
-23.04
-25.38
-27.8
-28.6
-27.03
-23.36
-18.46
-13.4
-9.36
-7.66
-9.52
-15.35
-23.99
-32.82
-38.67
-39.07
-33.18
-21.89
-7.26
8.44
23.31
36.25
47.12
56.81
66.78
78.36
91.56
104.47
113.85
116.59
111.49
99.96
85.21
70.67
58.57
49.52
43.3
39.88
39.72
43.11
49.37
56.78
63.33
67.83
70.48
72.36
74.1
75
73.32
67.46
57.21
44.24
31.28
20.52
12.64
6.73
1.21
-4.87
-11.36
-17.32
-22.05
-25.76
-29.3
-33.09
-36.32
-37.18
-34.21
-27.77
-20.86
-18.02
-22.92
-36.02
-54.07
-71.6
-83.74
-88.7
-88.28
-86.04
-84.61
-83.96
-81.5
-74.09
-60.37
-41.83
-21.85
-3.99
9.95
20.31
28.54
35.71
41.71
45.31
45.21
40.93
32.99
22.55
10.91
-0.75
-11.02
-17.77
-18.73
-12.79
-1.16
12.49
23.49
28.38
26.69
21.1
15.59
13.08
13.99
16.24
16.89
13.82
6.55
-4.21
-17.23
-31.37
-45.45
-57.58
-65.28
-66.58
-61.3
-51.86
-42.58
-37.87
-40.04
-48.21
-58.85
-67.55
-71.32
-69.68
-64.58
-58.99
-55.34
-54.71
-56.81
-60.71
-65.45
-70.14
-73.62
-74.09
-69.35
-57.79
-39.47
-16.52
7.53
29.23
46.74
60.36
71.76
82.5
92.81
101.46
106.92
108.66
107.72
106.11
105.46
106.05
106.57
104.85
99.04
88.6
74.32
57.57
39.67
21.37
2.99
-15.17
-32.49
-48
-60.74
-70
-75.42
-76.99
-74.98
-70.05
-63.34
-56.44
-51.05
-48.43
-48.68
-50.46
-51.33
-49.3
-44.09
-37.59
-33.11
-33.43
-39.13
-48.06
-56.31
-60.35
-59.15
-54.46
-49.61
-47.53
-48.9
-51.86
-53.12
-49.9
-41.18
-28.06
-12.8
2.51
16.88
30.66
44.82
60.12
76.12
90.83
101.52
105.96
103.77
96.76
88.49
82.33
79.72
79.6
79.29
76.32
69.99
61.8
54.49
50.47
50.25
52.3
53.78
52
45.6
34.99
22.05
9.3
-1.01
-7.62
-10.55
-10.77
-9.49
-7.71
-6.02
-4.76
-4.28
-5.28
-8.4
-13.8
-20.61
-27.12
-31.41
-32.13
-29.26
-24.17
-19.17
-16.59
-17.96
-23.48
-32.14
-42.29
-52.11
-60.15
-65.42
-67.26
-65.3
-59.7
-51.34
-41.84
-33.07
-26.44
-22.37
-20.23
-18.66
-16.39
-12.75
-7.87
-2.46
2.76
7.59
12.27
17.45
23.69
30.73
37.32
41.52
41.57
36.79
28.23
18.07
8.75
1.81
-2.71
-5.86
-8.89
-12.41
-16
-18.65
-19.39
-17.84
-14.23
-9.41
-4.84
-2.2
-3.07
-8.37
-17.74
-29.48
-40.94
-49.62
-54.01
-54.06
-50.85
-46.03
-41.13
-37.48
-36.2
-38.13
-43.95
-53.58
-65.83
-78.41
-88.48
-93.59
-92.55
-85.94
-75.72
-64.38
-53.58
-43.69
-34.26
-24.89
-15.71
-7.27
0.01
6.63
14.03
23.78
36.45
50.82
64.2
73.59
77.28
75.62
70.87
65.97
63.29
63.75
66.76
70.94
74.59
76.28
74.81
69.42
59.96
47.04
32.07
17.19
4.71
-3.6
-7.02
-6.25
-3.11
0.12
1.52
0.15
-3.86
-9.36
-14.43
-17.09
-15.77
-9.88
0.04
12.19
24.04
33.02
37.11
35.34
27.91
16.3
2.94
-9.33
-17.93
-21.01
-17.86
-9.09
3.66
18.39
33.41
47.87
61.68
75.09
88.02
99.65
108.51
113.15
112.83
107.94
99.69
89.87
80.46
73.29
69.69
70.18
74.08
79.4
83.43
83.74
79.38
71.15
61
50.98
42.13
34.36
27.29
21.01
16.16
13.29
11.78
9.69
4.6
-4.86
-17.86
-31.49
-42.35
-48.29
-49.24
-46.81
-43.01
-39.27
-35.96
-33.05
-30.87
-30.24
-31.83
-35.62
-40.75
-45.91
-49.93
-52.31
-53.05
-52.26
-49.66
-44.41
-35.5
-22.4
-5.52
13.57
32.44
48.43
59.56
65.23
66.26
64.34
61.03
57.04
51.88
44.38
33.77
20.49
6.23
-6.87
-17.05
-23.42
-26.12
-25.98
-23.8
-20.28
-15.93
-11.21
-6.66
-3.02
-1.36
-2.91
-8.72
-18.99
-32.84
-48.32
-63.05
-75.19
-84.12
-90.88
-97.43
-105.37
-114.94
-124.84
-132.84
-136.87
-136.13
-131.54
-125.34
-119.97
-117.23
-117.64
-120.54
-124.49
-127.82
-128.98
-126.6
-119.55
-107.07
-89.3
-67.7
-44.94
-24.2
-7.97
2.83
9.05
12.75
16.1
20.14
24.51
28.12
30.09
30.41
29.85
29.47
29.9
30.94
32
32.74
33.5
35.1
38.21
42.41
46.17
47.33
44.39
37.22
27.52
18.03
11.34
8.84
10.37
14.65
20.11
25.43
29.7
32.25
32.53
30.15
25.28
18.65
11.46
4.67
-1.53
-7.73
-14.63
-22.22
-29.33
-34
-34.4
-30.07
-22.45
-14.26
-8.47
-7.19
-11.08
-19.67
-31.52
-44.59
-56.48
-64.63
-66.68
-61.34
-48.89
-31.25
-11.33
8.14
25.63
40.98
54.9
67.96
79.76
88.94
93.91
93.83
89.38
82.72
76.75
73.57
73.72
76.11
78.93
80.79
81.32
81.09
80.68
79.8
77.29
71.87
63.06
51.85
40.36
31.08
25.83
25.11
28.11
33.16
38.18
41.12
40.35
35.12
25.92
14.23
2
-9.16
-18.51
-26.24
-32.99
-39.16
-44.58
-48.59
-50.84
-51.72
-52.49
-54.72
-59.46
-66.2
-72.99
-77.25
-76.94
-71.55
-62.21
-50.72
-38.62
-26.35
-13.58
-0.1
13.44
25.52
34.29
38.56
38.2
34.09
27.75
20.82
14.74
10.32
7.49
5.45
3.18
0.52
-1.72
-1.96
0.92
6.37
11.95
14.63
12.52
6.4
-0.54
-4.62
-3.81
1.02
6.81
10.19
9.43
4.93
-1.6
-8.25
-14
-18.81
-23.24
-27.75
-32.22
-36.12
-39.04
-41.04
-42.8
-45.3
-48.92
-52.91
-55.62
-55.19
-50.95
-43.95
-36.68
-31.8
-30.83
-33.3
-37.43
-41.26
-43.35
-42.98
-39.73
-33.08
-22.65
-8.91
6.27
20.05
29.79
34.39
34.86
33.54
32.72
33.3
34.78
35.9
35.63
33.77
30.98
28.23
26.46
26.28
27.67
29.78
31.09
30.1
26.06
19.6
12.59
7.17
4.52
4.07
3.94
2.45
-0.64
-3.93
-5.33
-3.53
0.96
6.26
10.5
12.91
14.02
14.82
15.64
15.73
13.75
8.8
1.46
-6.35
-12.16
-14.17
-11.95
-6.79
-1.03
2.53
1.56
-5.12
-17.3
-33.23
-49.83
-63.6
-71.78
-72.97
-67.6
-57.45
-44.66
-30.94
-17.08
-3.03
11.32
25.52
38.68
50.01
59.29
67.08
74.15
80.74
86.03
88.54
87.17
82.17
75.29
69.01
65.3
64.64
66.03
67.68
68.11
66.93
64.36
60.79
56.39
51.18
45.18
38.68
32.2
25.91
19.55
12.63
5
-2.94
-10.33
-16.45
-20.94
-23.81
-25.04
-24.16
-20.69
-15.05
-9.2
-5.99
-7.96
-16.14
-29.3
-44.33
-57.73
-67.18
-72.19
-73.62
-72.73
-70.27
-66.38
-60.71
-53.3
-44.78
-36.15
-28.25
-21.35
-15.02
-8.36
-0.63
8.21
17.03
24.05
27.68
27.51
24.61
21.03
18.81
19.15
21.86
25.75
29.33
31.63
32.33
31.32
28.5
23.58
16.53
8.13
0.16
-5.29
-7.08
-5.68
-2.84
-0.75
-0.75
-2.54
-4.5
-5.1
-4.23
-3.35
-4.56
-9.19
-17.11
-26.78
-36.11
-43.61
-48.69
-51.34
-51.67
-49.86
-46.49
-42.66
-39.68
-38.53
-39.18
-40.35
-39.84
-35.85
-27.98
-17.42
-6.24
3.61
11
15.5
17.25
16.57
13.96
10.29
6.85
4.86
4.93
6.82
9.88
13.54
17.47
21.2
23.52
22.36
15.74
3.34
-12.36
-26.61
-34.65
-34.49
-28.08
-19.78
-13.32
-9.28
-5.15
1.82
11.57
20.25
22.7
16.14
2.93
-10.73
-18.55
-18.16
-12.47
-7.31
-7.17
-12.37
-19.33
-23.65
-23.39
-20.29
-17.98
-19.35
-24.58
-31.4
-36.76
-38.38
-35.67
-29.64
-22.36
-16.39
-14.09
-16.71
-23.63
-32.59
-40.65
-46.01
-48.93
-51.46
-55.34
-60.18
-62.94
-59.77
-48.59
-30.81
-10.9
6.24
18.3
26.55
34.17
43.6
54.84
65.7
73.55
77.08
77.02
75.33
73.55
71.92
69.61
65.65
59.85
53.02
46.49
41.46
38.73
38.64
41.24
46.22
52.74
59.25
64.03
66.14
65.76
63.98
61.99
60.5
59.27
57.29
53.5
47.58
40.05
32.05
25.01
20.32
19.01
21.2
25.63
29.66
29.96
23.89
11.02
-6.5
-24.68
-39.55
-48.94
-53.18
-54.26
-54.1
-53.36
-51.29
-46.72
-39.45
-30.71
-22.41
-16.16
-12.53
-10.81
-9.5
-7.21
-3.62
0.32
3.04
3.14
0.11
-5.16
-10.48
-13.46
-12.51
-7.51
0.56
10.27
20.37
30.05
38.79
45.66
49.13
47.87
41.94
33.51
26.02
22.54
24.11
28.91
33.02
32.26
24.38
9.88
-8.38
-26.53
-41.15
-50.14
-53.21
-51.62
-47.27
-42.03
-37.85
-36.55
-39.18
-45.59
-54.53
-64.04
-71.87
-75.84
-74.42
-67.46
-56.02
-41.95
-27.54
-14.89
-5.24
1.14
4.39
4.73
2.52
-1.52
-6.34
-10.64
-13
-12.43
-8.83
-3.1
3.22
8.75
12.82
15.39
16.66
16.64
14.93
10.89
4.26
-4.17
-12.39
-18.11
-19.95
-17.98
-13.52
-8.51
-4.67
-2.84
-2.68
-3.17
-3.46
-3.34
-3.02
-2.77
-2.85
-3.41
-4.55
-6.47
-9.41
-13.58
-18.73
-23.94
-28.09
-30.39
-30.96
-31.08
-32.59
-36.83
-43.48
-50.22
-53.97
-52.61
-45.94
-35.53
-23.92
-13.15
-3.88
4.49
12.72
20.64
27.04
30.59
30.83
28.52
25.32
22.81
21.52
20.76
19.38
16.79
13.54
10.97
10.49
12.45
15.73
18.23
18.01
14.53
9.06
3.86
1.12
2.05
6.17
11.56
15.73
16.73
13.78
7.38
-0.94
-9.34
-16.16
-20.44
-22.07
-21.64
-20.18
-18.78
-18.01
-17.68
-16.91
-14.57
-10.03
-3.68
3.07
8.3
10.63
9.8
6.71
2.83
-0.85
-4.08
-7.06
-9.73
-11.28
-10.08
-4.46
6.56
22.55
41.63
60.89
77.32
88.73
94.02
93.38
88.02
79.54
69.54
59.08
48.91
39.63
32
26.88
24.93
25.98
28.91
32.12
34.27
34.81
34.01
32.4
30.08
26.5
21.08
13.94
6.34
0.2
-3.11
-3.63
-2.67
-1.94
-2.49
-4.15
-6.17
-7.78
-8.67
-8.82
-7.89
-5.41
-1.29
3.49
6.79
5.98
-0.62
-12.55
-27.24
-41.25
-52.03
-58.53
-60.91
-59.92
-56.25
-50.39
-42.69
-33.67
-23.76
-13.29
-2.31
8.99
19.74
28.39
33.41
33.91
30.3
24.37
18.39
14.07
11.77
10.43
8.58
5.28
0.77
-3.72
-6.71
-7.4
-6.4
-5.3
-5.67
-7.84
-10.82
-13.14
-13.66
-12.49
-10.92
-10.48
-11.69
-13.83
-15.39
-15.25
-13.43
-10.91
-9.01
-8.68
-10.17
-13.46
-18.41
-24.67
-31.2
-36.31
-38.25
-36.17
-30.96
-25.1
-21.56
-22.35
-27.6
-35.68
-44.29
-51.41
-55.9
-57.28
-55.33
-49.88
-40.93
-28.94
-14.96
-0.44
12.96
23.65
30.16
31.56
28.02
21.16
13.71
8.32
6.28
6.69
6.99
4.7
-0.78
-7.41
-11.59
-10.34
-3.07
7.98
18.76
25.36
25.83
20.67
12.15
3.22
-3.56
-6.62
-5.52
-0.82
5.98
12.84
17.71
19.2
17.02
11.98
5.52
-1.06
-7.17
-12.84
-18.43
-24.07
-29.39
-33.63
-36.09
-36.6
-35.52
-33.47
-30.99
-28.53
-26.76
-26.58
-28.94
-34.29
-41.78
-49.29
-54.2
-54.57
-50.12
-42.34
-33.4
-24.89
-17.14
-9.42
-0.82
8.78
18.67
27.8
35.39
41.38
46.12
49.75
52.03
52.48
50.73
47.06
42.43
38.16
35.41
34.7
35.75
37.74
39.65
40.57
39.95
37.65
33.81
28.71
22.53
15.54
8.28
1.75
-2.78
-4
-1.28
4.96
13.32
21.83
28.74
33.15
35.01
34.89
33.5
31.41
29.09
27.13
26.07
26.36
28.1
30.62
32.73
32.97
30.2
23.94
14.6
3.35
-7.98
-17.36
-22.82
-23.05
-17.69
-7.42
6.3
21.83
37.54
51.81
62.66
68.18
67.02
59.22
46.53
31.91
18.43
8.15
1.65
-1.56
-2.09
-0.08
4.48
11.05
18.09
23.28
24.59
21.51
15.55
9.55
6.1
6.09
8.22
9.8
8.44
3.2
-4.93
-13.86
-21.64
-27.5
-32.01
-36.53
-42.25
-49.25
-56.58
-62.8
-67
-69.28
-70.17
-70.02
-68.52
-64.99
-59.31
-52.57
-46.77
-43.9
-44.6
-47.56
-50.28
-50.68
-48.21
-44.07
-39.9
-36.1
-31.2
-22.85
-9.64
7.28
24.51
38.44
46.97
50.55
51.15
50.68
49.7
47.67
43.95
39.02
34.32
31.1
29.54
28.58
26.85
23.72
19.8
16.38
14.33
13.39
12.26
9.82
5.86
1.03
-3.68
-7.59
-10.41
-12.26
-13.45
-14.52
-16
-18.61
-22.86
-28.38
-34.24
-39.23
-42.55
-44.26
-45.21
-46.5
-49.05
-53.39
-59.33
-66.36
-73.68
-80.33
-85.22
-87.38
-86.12
-81.18
-72.9
-62.09
-50.2
-39.26
-31.61
-29.16
-32.37
-39.34
-45.81
-46.76
-38.51
-20.74
3.14
27.39
46.61
58.23
63.26
64.94
66.34
68.4
69.66
67.86
62.12
53.86
45.86
40.31
37.22
34.67
30.75
25.27
20.46
19.68
24.97
35.15
46.03
52.38
50.7
40.93
26.33
11.67
1.05
-3.76
-3.41
-0.08
3.73
6.19
6.53
5.04
2.77
0.73
-0.52
-1.01
-1.14
-1.21
-0.97
0.29
3.29
8
13.22
16.98
17.43
13.75
6.5
-2.82
-12.54
-21.6
-29.53
-36.03
-40.22
-40.59
-35.61
-24.65
-8.7
9.77
27.84
43.35
55.32
63.93
69.68
72.7
72.71
69.37
62.97
54.7
46.23
38.97
33.55
29.58
26.01
21.82
16.62
10.89
5.77
2.55
2.07
4.07
6.99
8.66
7.44
3.22
-2.49
-7.41
-9.94
-9.77
-7.89
-5.7
-3.68
-1.41
1.6
4.83
6.64
5.34
0.52
-6.34
-12.6
-16.08
-16.66
-16.31
-17.85
-23.2
-32.36
-43.67
-54.86
-64.37
-71.51
-76.21
-78.04
-75.97
-68.89
-56.41
-39.58
-20.84
-3.31
10.44
19.24
23.71
25.67
27.1
29.47
33
36.76
39.27
39.51
37.44
34.25
31.81
31.7
34.3
38.32
41.44
41.5
37.7
31.03
23.82
18.39
15.68
15.03
14.73
13.42
11.01
8.52
7.08
7.04
7.73
7.8
6.33
3.19
-1.08
-5.91
-11.25
-17.26
-23.87
-30.58
-36.65
-41.24
-44.1
-45.57
-46.3
-46.77
-47.03
-47.34
-48.3
-50.72
-55.11
-61.12
-67.19
-70.97
-70.35
-64.25
-53.1
-38.63
-23.06
-8.43
3.88
13.48
20.63
25.49
28.1
28.14
25.38
20.17
13.5
6.56
0.35
-4.87
-9.43
-13.39
-16.01
-15.99
-12.3
-5.47
2.38
8.37
10.58
9.35
7.09
6.53
8.91
13.06
16.43
17.05
14.89
11.68
9.37
8.43
7.62
5.42
1.85
-1.17
-1.13
2.75
8.27
11.22
8.34
-0.32
-11.22
-19.57
-22.4
-20.29
-16.49
-14.42
-15.06
-16.66
-16.62
-14.09
-10.75
-9.62
-12.59
-19.02
-26.15
-31.22
-33.35
-33.4
-32.5
-30.4
-25.14
-14.54
1.62
20.81
38.9
52.54
61.35
67.64
74.14
81.5
87.63
89.24
84.36
74.04
61.89
51.6
44.83
40.76
37.53
34.08
31.06
30.08
32.17
36.55
41.03
43.53
43.33
41.34
38.83
36.61
34.65
32.39
29.41
25.78
21.72
17.2
11.95
6.01
0.44
-3.05
-3.43
-1.42
0.81
0.65
-3.3
-10.1
-16.87
-20.67
-20.67
-18.64
-17.82
-21.05
-29.29
-41.14
-53.73
-64.4
-71.72
-75.52
-76.25
-74.2
-69.44
-61.76
-51.04
-37.61
-22.51
-7.33
6.17
16.52
22.84
24.88
23.18
18.99
13.88
9.15
5.83
4.5
5.21
7.51
10.63
13.59
15.55
15.92
14.58
11.73
7.81
3.35
-0.92
-3.97
-4.6
-1.94
4.24
13.31
23.73
33.5
40.61
43.54
41.74
35.56
26.35
15.9
6.09
-1.81
-7.49
-11.52
-14.79
-18.13
-22.02
-26.47
-31.17
-35.75
-39.88
-43.32
-45.92
-47.62
-48.65
-49.64
-51.32
-54.19
-58.15
-62.34
-65.12
-64.5
-58.87
-47.7
-31.91
-13.69
4.32
20.16
33.38
44.71
55.28
65.33
73.73
78.31
76.79
67.97
52.54
33.15
13.46
-2.92
-13.58
-17.68
-15.95
-10.04
-1.89
6.79
14.54
19.87
21.36
17.93
9.59
-2.03
-13.97
-22.87
-26.55
-25.12
-20.73
-16.31
-14.11
-14.9
-18.12
-22.59
-27.32
-31.83
-35.75
-38.48
-39.23
-37.52
-33.54
-28.23
-22.96
-18.88
-16.59
-16.17
-17.47
-20.23
-23.77
-26.76
-27.44
-24.5
-17.86
-9.34
-2.06
0.85
-2.33
-10.97
-22.46
-33.58
-41.86
-46.19
-46.74
-44.06
-38.37
-29.32
-16.69
-1.25
15.07
29.79
40.83
47.45
50.63
52.5
55.01
58.84
63.05
65.43
63.79
57.08
46.28
34.43
25.4
22.23
25.82
34.36
44.17
51.39
53.63
50.78
44.63
37.58
31.37
26.92
24.67
25.09
28.62
35.16
43.37
50.77
54.76
54.12
49.87
44.72
41.49
41.48
43.79
45.88
45.13
40.34
32.25
23.08
15.3
10.45
8.31
6.93
3.52
-4.4
-17.8
-35.58
-54.68
-71.27
-82.17
-85.85
-82.71
-74.26
-62.07
-47.12
-30.15
-12.31
4.22
16.67
22.9
22.55
17.42
10.58
5
2.2
1.99
3.08
3.97
4.05
3.53
3
2.93
3.44
4.2
4.78
4.95
4.79
4.62
4.65
5.05
5.65
5.79
4.58
1.46
-3.33
-8.52
-12.33
-13.48
-11.84
-8.61
-5.54
-3.91
-3.75
-4.02
-3.54
-1.84
0.49
2.2
2.08
-0.45
-5.26
-11.74
-19.14
-26.89
-34.52
-41.9
-49.27
-56.9
-64.62
-71.37
-75.38
-74.81
-68.9
-58.65
-46.51
-34.85
-24.8
-16.02
-7.61
0.4
6.54
8.88
7
2.96
0.61
3.2
10.97
20.62
27.45
28.36
23.56
16.23
10
6.52
4.64
1.97
-2.75
-8.44
-12.52
-13
-10.24
-6.83
-5.7
-7.8
-11.11
-12.06
-7.96
1.19
12.59
22.28
27.47
27.85
25.5
23.33
23.09
23.88
22.69
16.26
3.33
-14.2
-31.71
-43.99
-47.81
-43.53
-34.75
-26.12
-20.95
-19.84
-21.25
-23.41
-25.99
-30.33
-38.08
-49.36
-61.73
-71.11
-73.7
-67.88
-54.81
-37.59
-19.58
-3.15
10.77
22.28
31.75
39.68
46.6
52.88
58.68
63.6
66.73
67.4
66.01
64.13
63.97
67.12
73.43
81.09
87.57
91.21
91.95
90.97
89.53
88.07
86.03
82.51
77.28
71.01
64.55
57.9
50.1
40.09
27.78
14.77
3.83
-2.42
-2.72
2.53
11.49
21.73
31.15
38.07
41.36
40.37
35.07
26.24
15.39
4.38
-5.21
-12.68
-18.44
-23.19
-27.35
-30.71
-32.58
-31.93
-27.98
-20.56
-10.52
0.88
12.74
24.61
36.21
47.16
56.62
63.79
68.9
73.45
79.51
88.45
99.57
110.14
116.81
117.34
111.72
101.73
89.55
76.27
61.53
44.68
26.39
9.19
-3.77
-10.59
-11.93
-10.93
-11.5
-16.37
-25.98
-38.94
-53.56
-69.16
-85.94
-104.08
-122.74
-139.27
-150.17
-152.89
-147.09
-134.77
-119.14
-102.59
-85.65
-67.42
-46.94
-25
-4.72
9.27
13.27
6.29
-9.6
-30.09
-51.03
-69.86
-86.15
-100.88
-115.16
-129.73
-144.9
-160.92
-177.64
-194.08
-207.57
-214.41
-210.88
-194.82
-166.46
-128.07
-82.9
-34.2
15.12
62.6
106.17
144.45
176.99
204.15
226.51
243.92
254.95
257.13
248.22
227.2
194.84
153.6
106.22
55.06
2.03
-51.1
-102.36
-149.68
-191.41
-226.83
-256
-279.44
-297.1
-308.06
-310.68
-303.98
-288.39
-266.08
-240.05
-212.31
-182.57
-148.32
-106.77
-57.24
-2.7
50.57
95.09
124.77
136.49
130.87
111.25
82.48
49.88
18.5
-7.83
-27.63
-42.38
-55.85
-72.03
-92.64
-115.57
-135.37
-145.8
-142.69
-125.73
-97.84
-62.67
-22.47
22.55
73.22
128.89
185.34
235.01
269.57
283.57
277.38
257.6
234.52
218.1
214.18
222.58
238.22
254.21
264.9
267.67
262.57
250.92
233.61
210.49
180.94
145.06
104.95
64.91
30.76
7.98
0.31
8.45
30.18
61.44
97.74
134.86
169.03
196.92
215.24
221.54
214.88
196.29
168.64
135.43
99.28
61.03
20.6
-21.3
-61.83
-95.98
-118.67
-127.56
-125.11
-118.08
-114.88
-122
-141.3
-170.28
-204.6
-241.51
-281.5
-327.16
-379.55
-435
-484.43
-516.26
-521.39
-497.23
-448.61
-385.45
-318.6
-255.91
-200.91
-153.77
-113.32
-78.57
-49.29
-25.4
-6.08
10.55
26.76
44.16
62.99
82.11
99.19
111.64
117.58
116.56
110
100.84
92.53
87.53
86.29
87.48
88.85
88.31
84.67
77.38
65.58
47.39
20.2
-18.07
-66.89
-121.65
-173.72
-213.12
-232.04
-227.35
-201.25
-159.85
-110.08
-57.43
-5.53
42.49
82.68
110.3
121.53
115.66
96.39
70.53
45.13
24.66
10.11
0.35
-6.07
-9.58
-9.81
-6.45
-0.09
7.74
15.28
21.42
26.1
29.83
32.82
35.14
37.17
40.13
45.33
53.14
62.38
70.47
75.02
75.82
75.68
79.17
90
108.26
129.58
146.53
152.12
142.9
120.59
90.85
60.25
33.69
13.2
-1.06
-9.81
-13.74
-13.77
-11.33
-8.6
-7.92
-10.51
-16.01
-22.9
-29.48
-34.71
-38.55
-41.41
-43.79
-45.8
-47.19
-47.85
-48.08
-48.4
-49.2
-50.35
-50.96
-49.84
-45.88
-38.05
-25.76
-9.13
10.66
31.12
48.59
58.95
59.09
48.02
27.73
2.57
-22.11
-41.96
-55.12
-62.63
-67.31
-71.97
-78.15
-85.38
-91.61
-94.26
-91.26
-81.61
-65.25
-42.82
-15.64
14.03
43.11
68.16
86.22
95.68
96.83
91.87
84.11
76.87
72.8
73.37
78.78
87.77
98.16
107.32
112.81
113.2
108.86
101.91
95.61
93.1
96.16
104.72
116.6
128.36
136.53
138.56
133.3
121.22
104.02
83.97
63.16
43.14
25.19
10.37
-0.43
-6.76
-9.08
-8.9
-8.53
-10.11
-14.66
-21.4
-28.31
-33.76
-37.61
-41.39
-47.12
-55.59
-65.27
-73.04
-76.18
-74.18
-68.98
-63.69
-60.52
-59.51
-58.84
-56.35
-51.27
-44.6
-38.09
-32.55
-27.35
-20.8
-11.06
2.49
18.77
35.61
50.59
61.97
69.21
72.72
73.6
73.44
74.15
77.89
86.74
102.15
124.04
150.57
178.49
204.44
226.38
244.11
258.71
270.87
279.49
281.67
274.09
255.14
226.18
191.1
154.22
118.48
84.46
51.07
17.03
-18.15
-53.75
-87.94
-118.38
-142.64
-158.54
-165.04
-163.2
-156.26
-148.23
-141.89
-136.98
-130.62
-119.54
-102.82
-83.4
-66.85
-58.16
-58.81
-66.07
-74.79
-80.71
-82.76
-83.32
-86.18
-93.78
-105.51
-118.11
-127.33
-129.91
-124.76
-113
-97.23
-80.3
-64.42
-50.77
-39.77
-31.61
-26.58
-25.1
-27.46
-33.43
-42.28
-52.82
-63.94
-74.64
-83.71
-89.83
-91.83
-89.36
-83.13
-75.11
-67.82
-63.15
-61.53
-61.83
-62.12
-60.68
-57.01
-52.07
-47.73
-45.67
-46.5
-49.62
-53.56
-56.94
-59.12
-60.51
-62.14
-64.87
-68.43
-71.14
-70.37
-63.75
-50.21
-30.69
-7.86
14.84
34.19
47.94
55.01
55.53
50.79
42.92
34.75
29.47
29.77
37.07
51.03
69.8
90.76
111.34
129.6
144.14
153.8
157.37
153.78
142.65
124.89
102.94
80.11
59.62
43.75
33.38
27.98
26
25.62
25.27
23.9
21.02
16.46
10.59
3.82
-3.39
-10.73
-17.91
-24.76
-31.4
-38.31
-46.09
-55
-64.74
-74.36
-82.72
-89.35
-94.72
-100.18
-106.99
-115.07
-122.51
-125.89
-121.4
-106.58
-81.52
-48.93
-13.32
20.41
48.43
68.96
82.34
90.09
93.65
93.3
88.4
78.09
62.71
44.64
28.19
17.77
15.84
21.79
32.27
43.3
52.42
59.79
67.61
78.16
91.88
106.94
119.99
127.97
129.59
125.86
119.26
112.09
104.79
95.69
82.12
61.94
34.81
2.85
-29.76
-58.22
-78.58
-88.74
-88.77
-80.57
-67.49
-53.61
-42.65
-37.11
-37.61
-42.75
-49.87
-55.92
-58.52
-56.62
-50.58
-41.73
-31.87
-22.62
-15.14
-9.9
-6.69
-4.63
-2.44
1.08
6.21
11.76
15.39
14.66
8.48
-2.12
-14.1
-23.66
-27.86
-25.97
-19.71
-12.12
-5.8
-1.62
1.35
4.93
10.36
17.75
26.06
33.68
39.34
42.48
43.16
41.78
38.46
32.82
24.23
12.69
-0.83
-14.49
-26.34
-35.35
-42.11
-48.37
-55.88
-65.13
-74.79
-82.52
-86.37
-86.14
-83.58
-81.26
-81.07
-83.19
-86.2
-88.09
-87.32
-83.4
-76.87
-68.61
-59.29
-49.21
-38.33
-26.71
-14.98
-4.31
4.05
9.11
10.6
9.37
7.36
6.83
9.53
15.91
25.06
35.22
44.42
51.17
54.72
54.97
52.31
47.39
41.13
34.39
27.74
21.28
14.9
8.62
2.73
-2.38
-6.66
-10.48
-14.46
-18.97
-23.72
-27.7
-29.86
-30.16
-30.05
-32.02
-38.5
-50.6
-67.4
-86.13
-102.82
-113.69
-116.21
-110.15
-97.72
-82.98
-70.22
-62.07
-58.59
-57.52
-55.61
-50.21
-40.3
-26.32
-9.31
9.78
30.14
50.58
69.28
83.94
92.59
94.6
91.04
84.14
76.29
69.07
63.25
59.13
56.86
56.55
57.83
59.28
58.69
53.87
44.1
30.79
17.28
7.08
2.02
1.3
1.81
0.17
-4.98
-11.96
-17.06
-17.07
-11.24
-1.76
7.6
13.85
16.69
18.35
21.46
26.74
32.09
34.02
29.96
20.06
7.42
-3.63
-10.17
-11.99
-11.41
-11.8
-15.61
-23.41
-33.81
-44.29
-52.29
-55.85
-53.77
-45.31
-30.54
-10.38
13.14
37.07
58.14
73.58
81.99
83.87
81.47
77.7
74.86
73.8
73.74
72.89
69.57
63.16
54.17
44.09
34.92
28.65
26.58
28.85
34.26
40.46
44.74
44.99
40.68
33.07
24.65
18.23
15.8
18.15
24.47
32.7
40.03
43.57
41.06
32.02
18.62
5.24
-3.06
-2.85
5.67
18.51
29.76
34.37
30.52
20.03
6.66
-6.1
-16.41
-23.95
-28.94
-31.04
-29.29
-22.82
-11.77
2.16
16.46
28.81
37.82
43.41
46.11
46.5
44.89
41.3
35.65
28.21
19.79
11.53
4.69
0.19
-2
-2.88
-4.03
-6.89
-12.1
-19.12
-26.39
-32.02
-34.46
-33.52
-30.35
-26.67
-24.01
-22.97
-23.07
-23.42
-23.71
-24.69
-27.71
-33.71
-42.41
-52.31
-61.3
-67.78
-71.33
-72.35
-71.24
-67.99
-62.25
-54.23
-45.48
-38.8
-37.15
-42.22
-53.04
-66.12
-76.82
-81.31
-77.98
-67.8
-53.04
-36.15
-18.8
-1.82
14.12
27.82
37.62
42.19
41.25
36.14
29.15
22.76
18.71
17.16
16.96
16.22
13.21
6.99
-1.92
-11.8
-20.17
-24.72
-24.3
-19.35
-11.66
-3.48
3.34
8.01
10.73
12.26
13.22
13.68
13.15
10.73
5.58
-2.73
-13.67
-25.94
-38.04
-48.71
-57.32
-63.85
-68.63
-72.03
-74.2
-75.35
-76.17
-77.72
-80.92
-85.9
-91.29
-94.91
-94.86
-90.58
-83.21
-75.07
-68.58
-64.74
-62.86
-60.94
-56.72
-48.5
-35.66
-18.45
2.38
25.84
50.59
74.39
94.6
108.82
115.58
115
108.64
98.76
87.45
75.98
64.96
55.12
47.69
44.28
45.98
52.19
60.26
66.64
68.6
65.62
59.47
52.91
47.55
42.99
37.32
28.9
18.11
7.5
0.22
-1.99
-0.05
3.09
4.45
2.65
-1.47
-5.51
-7.26
-5.69
-1.09
5.39
12.33
18.27
21.68
21.46
17.57
11.53
5.91
3.18
4.12
7.04
8.62
5.43
-4.13
-19.13
-36.47
-52.19
-62.57
-65.09
-58.92
-44.9
-25.39
-3.65
16.99
34.24
47.2
56.1
61.43
63.39
61.71
56.17
47.33
36.66
26.01
16.69
8.98
2.28
-4.09
-9.79
-13.43
-13.25
-8.45
0.08
10.16
19.33
26.1
30.36
33.05
34.99
36.23
36.07
33.85
29.76
24.73
19.79
15.13
9.86
2.67
-6.88
-17.95
-28.63
-37.1
-42.58
-45.58
-46.97
-47.27
-46.34
-43.6
-38.69
-32.04
-24.93
-19.05
-16.03
-16.78
-20.97
-26.87
-31.55
-32.05
-26.87
-16.77
-4.37
7.26
16.12
22.08
26.51
30.99
36.11
41.25
45.09
46.64
45.47
41.47
34.69
25.36
14.29
3.2
-5.49
-9.83
-9.52
-6.06
-2.04
0.33
0.17
-1.84
-4.29
-5.82
-5.6
-3.32
1.35
8.92
19.63
32.65
46
56.96
63.28
64.2
60.86
55.54
50.25
45.62
40.38
32.33
19.61
2.09
-18.31
-38.28
-54.63
-65.58
-71.27
-73.34
-73.88
-74.41
-75.5
-77.13
-79.41
-82.9
-88.34
-95.69
-103.45
-109.07
-109.9
-104.41
-93.18
-78.84
-64.77
-53.59
-45.94
-40.63
-35.57
-29.35
-22.3
-16.19
-13.11
-13.96
-17.77
-22
-23.92
-22.01
-16.58
-9.58
-3.4
0.29
1.37
1.01
1
2.88
7.38
14.28
22.25
29.56
34.76
37.09
36.76
34.62
31.63
28.42
25.27
22.24
19.82
19.03
20.7
24.69
29.64
33.26
33.34
28.99
21.08
11.76
3.3
-3.16
-8.05
-12.99
-19.91
-30.24
-44.09
-60.32
-76.58
-90.03
-97.84
-97.72
-88.54
-70.7
-46.28
-18.51
8.82
32.14
49.05
59.04
63.96
66.84
70.46
75.96
82.11
85.88
84.51
77.28
66.08
54.64
46.48
43.45
45.41
50.92
58.47
67.35
77.37
88.11
98.32
105.97
109.12
106.81
99.48
88.79
77.03
66.2
57.2
49.85
43.15
35.9
27.51
18.49
10.69
6.38
7.34
14.26
26.49
42.03
57.87
70.12
74.59
67.8
48.19
17.42
-19.33
-54.66
-81.41
-95.21
-95.85
-86.86
-73.43
-59.71
-47.12
-34.52
-20.05
-2.96
15.23
31.3
41.67
44.32
39.37
28.56
14.25
-1.72
-17.89
-33.05
-45.91
-55.26
-60.49
-62.08
-61.61
-61.15
-62.32
-65.45
-69.48
-72.49
-72.85
-70.05
-64.94
-59.08
-53.71
-49.01
-44.26
-38.65
-32.2
-26.31
-23
-23.53
-27.22
-31.49
-33.26
-30.7
-24.47
-17.29
-12.2
-10.88
-13.04
-16.9
-20.45
-22.58
-23.3
-23.4
-23.82
-25.21
-27.87
-32.06
-37.73
-43.94
-48.6
-48.86
-42.14
-27.74
-7.55
14.31
33.27
46.17
52.33
53.31
51.62
49.2
46.68
43.63
39.63
34.89
30.18
26.31
23.31
20.35
16.24
10.31
2.91
-4.66
-10.79
-14.64
-16.39
-17.17
-18.19
-20.19
-23.2
-26.6
-29.81
-32.81
-36.08
-40.34
-45.9
-52.35
-58.43
-62.56
-63.59
-61.52
-57.49
-53.28
-50.27
-48.75
-48.08
-47.48
-46.99
-47.71
-51.21
-57.94
-66.2
-72.56
-73.7
-68.3
-57.78
-45.58
-35.06
-28.06
-24.46
-23.23
-24.11
-27.72
-34.27
-42.19
-47.68
-45.93
-33.72
-11.43
16.62
43.94
64.78
76.43
79.77
77.97
74.57
71.95
70.69
69.98
68.61
66.1
62.66
58.87
55.22
51.76
48.14
44.36
40.97
39.17
40.17
44.27
50.22
55.69
58.28
56.7
51.38
43.96
36.05
28.34
20.48
11.93
2.9
-5.17
-10.32
-11.17
-7.85
-1.83
4.75
10.02
13.12
14.24
14.14
13.86
14.3
16.14
19.69
24.62
29.64
33.28
34.7
34.32
33.69
34.28
36.03
36.8
33.48
24.25
10.3
-4.32
-14.86
-18.5
-15.69
-9.34
-2.61
3.18
8.87
16.04
24.96
33.9
40.22
42.2
40.43
37.24
34.8
33.47
31.38
25.87
15.67
1.99
-12.02
-22.79
-27.93
-26.82
-20.27
-9.86
2.63
15.48
26.78
34.72
37.99
36.56
31.73
25.63
20.25
16.6
14.68
13.93
14.07
15.49
18.63
23.05
27.16
28.58
25.45
17.72
7.44
-1.69
-6.35
-5.44
-0.85
3.29
2.74
-4.71
-18.26
-34.53
-49.21
-59.19
-63.81
-64.61
-64.12
-64.28
-65.76
-67.95
-69.76
-70.58
-70.64
-70.61
-70.59
-69.48
-65.04
-54.51
-35.94
-9.3
23.14
57.15
87.91
111.79
127.3
135.49
139.16
141.5
144.89
150.32
157.73
166.84
177.53
189.61
202.46
215.01
225.94
234.47
240.65
245.19
248.45
249.71
246.85
237.39
219.61
193.73
161.72
126.46
90.44
54.73
19.04
-17.47
-55.03
-92.65
-128.04
-158.19
-180.43
-193.31
-197.07
-193.4
-184.78
-173.83
-162.77
-153.56
-148.2
-148.64
-156.04
-169.83
-187.35
-204.36
-216.43
-220.53
-216.11
-204.99
-190.4
-175.59
-162.87
-153.14
-146.34
-141.71
-137.81
-132.97
-125.6
-114.68
-100.19
-83.31
-66.03
-50.43
-38.15
-30.32
-27.34
-28.78
-33.45
-39.75
-46.18
-51.81
-56.55
-60.93
-65.08
-68.11
-68.42
-64.73
-57.46
-49.21
-43.73
-43.83
-49.33
-56.74
-60.89
-57.79
-46.9
-31.61
-17.31
-8.48
-6.52
-9.44
-13.46
-15.12
-12.85
-7.04
1.01
10.07
19.44
28.47
35.94
39.97
38.91
32.62
23.34
15.2
12.56
17.9
30.62
47.24
63.14
74.35
78.89
76.82
69.7
59.81
49.67
41.52
36.78
35.47
35.95
35.43
31.3
22.95
12.67
5.23
6.09
18.94
44.06
78.19
115.89
151.42
180.36
200.32
211.02
213.82
210.97
204.88
197.28
188.75
178.67
165.64
148.51
127.33
103.77
80.74
61.48
48.39
42.25
41.94
44.66
46.6
44.04
34.57
17.96
-3.59
-26.14
-45.77
-60.15
-69.48
-75.92
-82.02
-88.84
-94.99
-97.17
-92.19
-79.25
-61.11
-43.38
-31.98
-30.53
-38.84
-53.35
-69.51
-84.23
-96.95
-108.92
-121.29
-133.42
-142.96
-147.23
-144.89
-136.71
-124.75
-110.75
-95
-76.53
-54.54
-29.59
-3.68
20.72
42.01
60.02
75.56
89.31
100.95
109.34
113.43
113.35
110.42
106.31
101.91
96.94
90.35
81.61
71.53
61.95
54.56
49.56
45.47
40.39
33.35
25.08
17.56
12.74
11.2
12.05
13.76
15.3
16.72
18.7
21.53
24.73
27.04
26.94
23.59
17.35
9.53
1.87
-4.29
-8.59
-11.84
-15.65
-21.76
-31.01
-42.8
-55.3
-66.09
-73.05
-75.17
-72.61
-66.28
-57.17
-46.03
-33.4
-19.81
-6
7.03
18.06
26.2
31.4
34.83
38.64
45.18
56.15
71.75
90.38
108.81
122.57
126.8
117.44
92.67
54.22
7.48
-39.62
-79.01
-105.12
-116.61
-116.18
-108.76
-98.99
-89.42
-80.5
-71.49
-61.86
-52.05
-43.16
-36
-30.54
-25.8
-20.54
-14.06
-6.46
1.23
7.55
11.26
12.11
10.91
9.24
8.84
10.72
14.57
18.75
21.14
20.33
16.35
10.59
4.77
-0.27
-4.98
-10.48
-17.46
-25.31
-32.2
-36.17
-36.39
-33.6
-29.66
-26.88
-26.91
-30.39
-37.12
-46.28
-56.53
-65.88
-71.74
-71.65
-64.11
-49.18
-28.64
-5.52
16.96
36.33
51.39
62.1
69.24
73.77
76.32
77.18
76.42
74.24
71.14
67.77
64.58
61.47
57.99
53.9
49.54
45.83
43.87
44.1
45.79
47.48
47.84
46.38
43.62
40.63
38.1
35.86
33.12
29.26
24.47
19.71
16.08
14.24
14.29
15.98
19.25
24.16
30.36
36.92
42.33
45.13
44.67
41.59
37.5
34.2
32.74
32.98
33.79
33.53
30.83
25.15
16.91
7.24
-2.25
-10.2
-15.9
-19.23
-20.54
-20.29
-18.66
-15.72
-11.74
-7.39
-3.89
-2.47
-3.73
-7.49
-12.89
-18.81
-24.52
-29.99
-35.51
-41.19
-46.36
-49.47
-48.79
-43.26
-33.59
-22.41
-13.47
-10.01
-13.22
-21.73
-32.09
-40.36
-43.65
-41.27
-34.9
-27.58
-22.28
-20.77
-22.8
-26.24
-27.95
-25.4
-17.87
-7.08
3.56
10.35
10.8
4.59
-6.75
-20.91
-35.74
-49.63
-61.29
-69.64
-73.95
-74.29
-71.85
-68.76
-67.27
-68.74
-73.21
-79.65
-86.73
-93.1
-97.48
-98.52
-95.04
-86.49
-73.58
-58.23
-43.07
-30.36
-20.93
-14.35
-9.54
-5.69
-2.88
-1.75
-3.04
-6.61
-11.28
-15.25
-16.99
-15.86
-12.38
-7.92
-4.06
-1.71
-0.79
-0.67
-0.75
-1.14
-2.65
-5.92
-10.72
-15.5
-18
-16.38
-10.14
-0.38
10.97
22.21
32.4
41.32
49.06
55.38
59.76
61.65
60.76
57.11
50.81
41.95
30.95
18.82
7.23
-1.91
-7.51
-9.87
-10.69
-12.04
-14.96
-18.67
-20.85
-19.25
-13.35
-5.18
1.27
2.1
-4.49
-17.12
-31.68
-43.44
-49.19
-48.24
-42.11
-33
-22.26
-9.94
4.63
21.54
39.28
54.96
65.49
69
65.91
58.85
51.57
47.32
47.63
51.85
57.73
62.61
64.44
62.58
57.92
52.32
47.84
45.73
45.92
47.09
47.35
45.13
40.15
33.64
27.67
24.19
23.97
26.28
29.45
31.83
32.66
32.06
30.46
27.75
23.11
15.52
4.57
-8.82
-22.41
-33.33
-39.13
-38.58
-32.06
-21.4
-9.34
1.14
7.59
8.64
4.36
-3.88
-13.88
-23.23
-29.98
-33.02
-32.18
-28.14
-22.39
-16.64
-12.29
-9.67
-7.72
-4.38
2.6
14.55
30.9
49.19
65.89
77.71
82.74
81.06
74.51
65.7
57
49.72
43.96
39.29
35.24
31.88
29.78
29.43
30.83
33.31
35.77
37.39
38.03
38.05
37.93
37.77
37.06
34.84
30.26
23.06
13.73
3.2
-7.7
-18.4
-28.7
-38.55
-47.7
-55.55
-61.49
-65.09
-66.22
-65.16
-62.35
-58.43
-54.43
-51.62
-51.26
-54.13
-59.94
-67.29
-74.34
-79.59
-82.46
-83.19
-82.12
-79.06
-73.26
-64.07
-51.68
-37.45
-23.52
-11.95
-3.95
0.41
1.85
1.48
0.21
-1.36
-2.73
-3.27
-2.24
0.91
6.22
12.77
19.03
23.38
24.99
24.27
22.66
21.74
22.1
23.01
22.68
19.43
12.64
3.15
-7.31
-16.98
-24.69
-29.86
-32.26
-31.82
-28.78
-24.08
-19.43
-16.76
-17.45
-21.71
-28.75
-37.54
-47.48
-58.57
-71.01
-84.13
-95.93
-103.61
-104.8
-98.95
-87.84
-74.91
-63.56
-55.76
-51.57
-49.8
-49.18
-48.93
-48.63
-47.44
-43.66
-34.98
-19.86
1.05
24.44
45.4
59.67
65.63
65.01
61.73
59.63
60.38
62.83
64.2
62.16
56.52
49.21
43.04
39.74
38.95
38.58
36.43
31.9
26.41
22.45
21.84
24.52
28.55
31.25
30.74
26.86
20.99
14.94
10.07
6.94
5.58
5.74
7.21
9.6
12.2
14.11
14.65
14.05
13.36
13.93
16.39
20.04
23
23.08
19.01
11.12
1.49
-6.97
-11.66
-11.28
-5.89
3.38
15.15
28.31
42.19
56.36
70.31
83.34
94.55
103.07
108.25
109.88
108.31
104.16
98.33
91.71
84.95
78.41
72.32
66.87
62.37
59.09
56.8
54.67
51.29
45.39
36.67
26.1
15.57
7.03
1.45
-1.55
-3.24
-5.16
-8.17
-12.36
-17.31
-22.66
-28.33
-34.37
-40.62
-46.25
-50.1
-50.95
-48.19
-42.32
-35.14
-29.25
-27.19
-30.41
-38.39
-48.92
-58.79
-64.96
-65.84
-61.61
-53.79
-44.4
-35.11
-26.89
-20.33
-15.92
-14.21
-15.5
-19.37
-24.72
-29.96
-33.68
-35.06
-33.88
-30.4
-25.15
-18.99
-12.96
-8.19
-5.63
-5.63
-7.57
-10.05
-11.5
-11.03
-8.77
-5.74
-3.1
-1.55
-0.98
-0.71
-0.12
0.93
2.02
2.33
1.08
-2.14
-7.37
-14.49
-23.28
-33.54
-44.84
-56.44
-67.3
-76.47
-83.38
-87.85
-89.89
-89.52
-86.58
-80.93
-72.6
-62.17
-50.68
-39.32
-28.88
-19.71
-11.86
-5.32
-0.29
3.11
5.01
5.94
6.67
7.84
9.64
11.59
12.92
12.88
11.22
8.44
5.57
3.78
3.85
5.86
9.17
12.69
15.34
16.53
16.53
16.2
16.45
17.49
18.78
19.37
18.51
16.13
12.89
9.71
7.04
4.8
2.45
-0.28
-3.18
-5.63
-7.26
-8.46
-10.24
-13.89
-20.05
-28.37
-37.53
-45.82
-51.69
-54.17
-53.02
-48.55
-41.62
-33.4
-25.37
-18.92
-15.08
-14.07
-15.29
-17.58
-19.67
-20.47
-19.34
-16.15
-11.29
-5.39
0.74
6.3
10.56
12.99
13.27
11.54
8.46
5.15
2.83
2.4
4.21
7.89
12.57
17.22
21.06
23.62
24.84
24.83
23.84
22.17
20.25
18.59
17.69
17.92
19.33
21.66
24.43
27.23
29.92
32.58
35.37
38.19
40.54
41.55
40.38
36.66
30.76
23.95
17.83
13.84
12.76
14.58
18.8
24.92
32.73
42.15
52.74
63.15
71.08
73.95
70.07
59.71
45.35
30.9
20.14
15.25
16.27
21.44
28.44
35.44
41.5
46.42
50.25
52.83
53.93
53.49
51.88
49.76
47.6
45.5
43.21
40.52
37.51
34.77
33.03
32.69
33.49
34.54
34.77
33.65
31.4
28.81
26.6
24.86
22.91
19.75
14.7
7.95
0.62
-5.8
-10.34
-12.86
-14.04
-14.96
-16.44
-18.72
-21.62
-24.9
-28.67
-33.1
-38.06
-42.74
-46.06
-47.36
-46.95
-46.18
-46.66
-49.39
-53.95
-58.77
-61.86
-61.84
-58.53
-52.91
-46.33
-39.86
-33.74
-27.49
-20.38
-12.04
-2.75
6.58
14.67
20.5
23.58
24.12
22.62
19.63
15.41
10.22
4.65
-0.21
-3.02
-2.79
0.57
6.15
12.46
18.17
22.52
25.41
27.06
27.42
26.17
23.05
18.3
12.88
8.02
4.64
2.8
1.61
-0.22
-3.57
-8.42
-13.97
-19.22
-23.59
-27.18
-30.52
-33.89
-37.16
-39.7
-41.02
-41.14
-40.72
-40.79
-42.07
-44.65
-47.99
-51.54
-54.97
-58.51
-62.5
-66.87
-71.06
-74.07
-75.06
-73.87
-71.14
-67.91
-64.94
-62.34
-59.56
-55.95
-51.14
-45.18
-38.45
-31.27
-23.79
-16.11
-8.61
-1.76
3.83
7.77
10.03
10.89
10.86
10.56
10.64
11.69
14.19
18.28
23.82
30.26
37.02
43.66
49.95
55.73
60.68
64.29
65.93
65.17
62.09
57.26
51.57
45.9
40.81
36.47
32.79
29.54
26.59
23.9
21.51
19.5
17.81
16.27
14.7
13.04
11.32
9.57
7.77
5.67
2.97
-0.69
-5.38
-10.71
-15.85
-19.8
-21.6
-20.76
-17.45
-12.29
-6.29
-0.7
3.24
4.37
1.92
-4.14
-12.81
-22.17
-29.73
-33.29
-31.63
-24.92
-14.7
-3.09
7.94
17.25
24.66
30.64
35.85
40.74
45.45
49.8
53.42
55.92
56.86
55.94
53.09
48.58
43.15
37.85
33.62
30.97
29.73
29.2
28.73
28.12
27.7
28.04
29.43
31.42
33.12
33.65
32.79
31.05
29.42
28.69
28.99
29.75
30.21
29.88
28.81
27.25
25.21
22.29
18
12.23
5.7
-0.14
-3.88
-5.02
-4.57
-4.63
-7.34
-13.88
-23.89
-35.67
-46.97
-55.92
-61.53
-63.74
-62.96
-59.69
-54.39
-47.56
-39.79
-31.7
-23.96
-17.06
-11.32
-7.02
-4.22
-2.9
-2.88
-4
-6.23
-9.73
-14.63
-20.56
-26.54
-31.2
-33.41
-32.8
-30
-26.27
-22.82
-20.28
-18.63
-17.6
-17.13
-17.54
-19.11
-21.75
-24.88
-27.68
-29.55
-30.3
-30.22
-29.66
-28.77
-27.28
-24.78
-21.27
-17.26
-13.75
-11.8
-12.15
-14.82
-18.99
-23.41
-26.92
-28.85
-29.14
-28.19
-26.49
-24.49
-22.35
-20.3
-18.76
-18.21
-19.03
-21.15
-24.07
-27.11
-29.61
-31.2
-31.74
-31.31
-30.04
-28.07
-25.7
-23.61
-22.64
-23.28
-25.52
-28.85
-32.52
-35.65
-37.47
-37.37
-34.84
-29.55
-21.34
-10.53
2.06
15.22
27.55
37.69
44.47
47.24
45.98
41.37
34.67
27.37
20.75
15.44
11.33
7.92
4.96
2.69
1.78
2.8
5.86
10.37
15.15
19.2
22.2
24.45
26.45
28.23
28.95
27.3
22.25
13.88
3.69
-5.9
-12.53
-14.99
-13.48
-9.44
-4.84
-1.51
-0.63
-2.58
-7.01
-12.9
-18.71
-22.65
-23.13
-19.39
-11.8
-1.87
8.32
16.83
22.55
25.54
26.61
26.81
26.96
27.33
27.85
28.41
29.01
29.71
30.49
31.06
30.96
30
28.58
27.73
28.8
32.78
39.67
48.33
56.97
63.95
68.45
70.6
71.13
70.63
69.21
66.64
62.74
57.98
53.37
49.96
48.12
47.24
46.09
43.66
39.88
35.75
32.66
31.42
31.71
32.22
31.55
29.21
25.92
22.93
21.03
19.67
17.2
11.99
3.55
-6.84
-16.64
-23.22
-25.21
-23.05
-18.44
-13.28
-8.64
-4.5
-0.3
4.38
9.31
13.59
16.21
16.54
14.65
11.24
7.1
2.72
-1.93
-7.05
-12.67
-18.3
-23.09
-26.27
-27.51
-27.07
-25.54
-23.56
-21.58
-19.77
-18.32
-17.53
-17.76
-19.14
-21.45
-24.11
-26.6
-28.8
-31.23
-34.63
-39.5
-45.57
-51.68
-56.3
-58.13
-56.85
-53.31
-49.18
-46.16
-45.33
-46.7
-49.48
-52.62
-55.35
-57.42
-58.89
-59.76
-59.7
-58.25
-55.24
-51.04
-46.48
-42.39
-39.18
-36.45
-33.29
-28.75
-22.39
-14.43
-5.47
3.83
13.04
21.88
30.03
36.96
42.17
45.52
47.23
47.71
47.4
46.45
44.84
42.62
40.19
38.17
37.16
37.37
38.37
39.33
39.52
38.59
36.68
34.19
31.46
28.46
24.78
19.9
13.38
5.19
-4.37
-14.63
-24.79
-34.18
-42.38
-49.31
-55.01
-59.44
-62.47
-63.87
-63.7
-62.53
-61.37
-61.31
-62.95
-66.09
-69.73
-72.63
-73.7
-72.44
-69.03
-64.18
-58.73
-53.57
-49.57
-47.64
-48.32
-51.49
-56.03
-60.11
-61.9
-60.35
-55.62
-48.64
-40.42
-31.25
-20.66
-8.04
6.53
21.9
36.19
47.54
55.05
58.84
59.78
58.73
56.12
52.15
47.16
41.9
37.52
35.26
35.89
39.46
45.29
52.13
58.67
63.82
66.89
67.67
66.48
63.82
60.25
56.11
51.44
46.22
40.46
34.47
28.75
23.73
19.68
16.58
14.4
13.41
14.19
17.3
22.89
30.22
37.72
43.59
46.66
46.82
45.03
42.56
40.05
37.02
32.23
24.42
13.39
0.45
-11.78
-20.27
-22.68
-18.22
-7.75
6.71
22.79
38.41
52.03
62.73
69.88
73.07
72.36
68.29
61.86
54.36
46.78
39.6
32.93
26.72
21.04
16.31
13.13
11.99
13
15.88
19.92
24.25
27.97
30.35
31.07
30.07
27.61
24.1
19.96
15.59
11.21
6.86
2.41
-2.42
-7.89
-14.07
-20.84
-28
-35.4
-43.05
-51.07
-59.36
-67.27
-73.67
-77.45
-78.3
-77.02
-75.37
-75.25
-77.8
-82.84
-88.95
-94.24
-97.06
-96.55
-92.68
-86.01
-77.41
-67.76
-57.83
-48.09
-38.64
-29.33
-20
-10.63
-1.64
6.16
11.92
15.15
15.76
14.1
10.66
6.04
0.79
-4.43
-8.74
-11.28
-11.5
-9.29
-5.14
0.08
5.54
10.59
14.96
18.68
21.67
23.61
23.89
21.87
17.27
10.62
3.14
-3.55
-8.02
-9.78
-9.46
-8.41
-8.04
-9.23
-11.9
-15.12
-17.79
-19.19
-19.47
-19.46
-20.28
-22.82
-27.28
-33.17
-39.64
-45.83
-51.14
-55.3
-58.21
-59.83
-60.19
-59.45
-57.87
-55.89
-53.87
-51.7
-48.96
-45.08
-39.74
-33.2
-26.01
-18.74
-11.53
-3.89
4.97
15.09
25.44
34.09
39.07
39.43
35.81
30.2
25.13
22.61
23.47
27.29
32.96
39.31
45.51
51.15
56.12
60.38
63.75
65.92
66.39
64.58
60.02
53
44.37
35.27
26.38
17.62
8.56
-0.93
-10.15
-17.66
-21.95
-22.37
-19.51
-14.85
-9.99
-5.9
-2.61
0.28
3.31
6.83
11.14
16.33
21.98
26.66
27.91
23.07
10.88
-7.47
-28.34
-46.82
-58.63
-61.53
-55.74
-42.97
-25.29
-4.3
18.91
43.21
67
88.26
105.1
116.43
122.25
123.38
120.92
115.94
109.15
100.98
91.74
81.78
71.74
62.38
54.41
48.2
43.64
40.09
36.72
32.83
28.13
22.72
16.82
10.39
3.24
-4.72
-13.12
-21.12
-27.58
-31.57
-32.85
-31.88
-29.73
-27.64
-26.72
-27.84
-31.44
-37.41
-44.94
-52.59
-58.7
-61.94
-61.87
-59.27
-55.78
-53.26
-52.96
-54.96
-58.09
-60.54
-60.57
-57.32
-51.15
-43.35
-35.49
-28.74
-23.31
-18.61
-13.81
-8.38
-2.27
4.15
10.53
16.83
23.25
29.7
35.45
39.11
39.27
35.31
28.22
20.41
14.53
12.15
13.08
15.66
17.89
18.69
18.3
17.8
18.08
19.09
19.83
18.87
15.21
8.8
0.5
-8.68
-17.85
-26.21
-33.09
-37.91
-40.32
-40.42
-38.96
-37.04
-35.69
-35.61
-37.05
-40.02
-44.49
-50.36
-57.24
-64.3
-70.52
-75.02
-77.47
-78.32
-78.45
-78.56
-78.66
-78.01
-75.73
-71.49
-65.61
-58.82
-51.72
-44.39
-36.45
-27.59
-18.14
-8.89
-0.69
6.05
11.6
16.5
20.97
24.54
26.19
25.07
21.4
16.7
13.12
12.38
14.98
20.01
25.77
30.7
34.16
36.33
37.79
38.84
39.19
38.26
35.81
32.25
28.57
25.9
24.91
25.44
26.73
27.91
28.37
28.09
27.46
26.95
26.97
27.61
28.59
29.45
29.51
27.88
23.84
17.04
7.76
-3.05
-13.84
-22.99
-29.18
-32.06
-32.52
-32.42
-34
-38.87
-47.13
-57.41
-67.38
-74.64
-77.74
-76.41
-71.33
-63.74
-54.65
-44.49
-33.26
-20.78
-6.97
7.86
22.98
37.32
49.56
58.63
64.02
65.82
64.73
61.72
57.72
53.51
49.93
47.72
47.59
49.87
54.36
60.54
67.61
74.82
81.46
86.95
90.67
92.19
91.35
88.32
83.74
78.39
72.82
67.34
62.11
57.29
53.17
50.01
47.86
46.38
44.84
42.64
39.6
36.27
33.7
32.84
33.84
35.72
36.41
33.43
25.08
11.33
-5.85
-23.23
-37.46
-46.27
-49
-46.61
-40.92
-33.66
-26.03
-18.79
-12.63
-8.32
-6.62
-7.73
-10.92
-14.75
-17.71
-18.99
-18.8
-18.14
-18.05
-18.82
-19.95
-20.6
-20.26
-19.2
-18.18
-17.62
-16.97
-15.05
-10.84
-4.44
2.53
7.71
9.13
6.24
0.26
-6.6
-12.41
-16.42
-19.23
-22.2
-26.36
-31.7
-37.36
-42.22
-45.45
-47.06
-47.82
-48.68
-50.2
-52.33
-54.65
-56.83
-58.9
-61.17
-63.93
-66.98
-69.44
-70.07
-67.64
-61.53
-51.9
-39.4
-25.03
-9.71
5.82
20.72
34.11
44.93
52.37
56.03
56.18
53.53
48.91
43.27
37.3
31.6
26.76
23.42
21.98
22.47
24.45
27.25
30.17
32.55
34.09
34.76
34.74
34.35
33.95
34
34.78
36.46
38.79
41.45
43.94
45.62
45.53
42.53
35.49
23.59
6.79
-14.08
-37.25
-60.41
-81.14
-97.21
-107.09
-110.36
-108
-102.03
-95.01
-89.16
-85.86
-85.26
-86.57
-88.55
-90.11
-90.65
-90.08
-88.5
-86.03
-82.43
-77.15
-69.55
-59.3
-46.78
-33.13
-19.73
-7.48
3.63
14.41
25.67
37.33
48
55.64
58.54
56.22
49.74
41.13
32.73
26.32
22.64
21.26
20.93
20.02
17.36
12.71
7.03
2.09
-0.42
0.21
3.55
8.5
14.07
19.85
25.87
31.86
36.94
39.79
39.33
35.51
29.48
22.83
16.79
11.56
6.33
0.05
-7.6
-15.79
-22.66
-26.29
-25.64
-21.21
-14.83
-8.98
-5.57
-5.16
-6.83
-8.76
-9.51
-8.94
-8.44
-10.17
-15.85
-25.41
-36.75
-46.58
-51.81
-50.79
-43.81
-32.59
-19.37
-5.98
6.5
17.51
26.71
33.93
39.43
44.15
49.48
56.64
66.03
76.83
87.27
95.37
99.84
100.55
98.35
94.77
91.27
88.97
88.29
89
90.37
91.6
92.1
91.71
90.53
88.47
84.83
78.41
68.17
54.01
37.18
20.01
5.01
-6.22
-13.53
-17.98
-21.11
-23.9
-26.59
-28.99
-31.03
-33.06
-35.42
-37.9
-39.54
-39.16
-36.36
-32.21
-29.05
-29.43
-34.75
-44.34
-55.74
-65.81
-72.11
-73.76
-71.56
-67.33
-62.85
-59.22
-56.51
-53.93
-50.28
-44.58
-36.65
-27.3
-18.04
-10.49
-5.68
-3.78
-4.16
-5.79
-7.57
-8.6
-8.33
-6.47
-3.11
1.36
6.24
10.87
14.95
18.45
21.38
23.51
24.46
23.9
21.95
19.31
17.01
15.84
15.76
15.87
14.96
12.1
7.11
0.67
-6.18
-12.52
-17.83
-22.14
-25.77
-29.17
-32.68
-36.5
-40.61
-44.71
-48.45
-51.58
-54.09
-56.08
-57.55
-58.2
-57.41
-54.54
-49.48
-43
-36.62
-31.91
-29.7
-29.53
-29.87
-28.76
-24.78
-17.72
-8.5
1.36
10.51
18.16
24.03
27.97
29.69
28.91
25.77
21.24
17.07
15.13
16.46
20.75
26.49
31.87
35.73
37.96
39.25
40.27
40.96
40.53
38.07
33.26
26.83
20.18
14.56
10.42
7.16
3.69
-0.75
-6.04
-11.42
-16.12
-19.87
-23.13
-26.62
-30.67
-34.89
-38.49
-40.86
-42.2
-43.5
-45.98
-50.19
-55.45
-60.02
-61.99
-60.37
-55.63
-49.34
-43.27
-38.57
-35.32
-32.74
-29.99
-26.66
-22.98
-19.3
-15.68
-11.63
-6.49
0.1
7.83
15.86
23.15
29.16
33.92
37.83
41.18
43.9
45.52
45.34
42.79
37.82
31.08
23.93
18.1
15.25
16.52
22.07
31.01
41.83
52.9
63.04
71.61
78.41
83.35
86.13
86.4
84
79.25
72.86
65.83
59.02
52.92
47.67
43.26
39.63
36.83
35.01
34.16
34.06
34.33
34.44
33.97
32.65
30.46
27.72
25
22.88
21.76
21.56
21.4
19.75
14.88
5.61
-8.14
-25.07
-42.7
-57.94
-67.93
-70.75
-66.04
-55.22
-40.88
-25.9
-12.45
-1.33
7.93
16.2
23.85
30.29
34.22
34.45
30.7
23.79
15.4
7.07
-0.32
-6.45
-11.03
-13.54
-13.21
-9.63
-3.38
3.94
10.07
13.09
12.46
9.1
4.89
1.69
0.35
0.39
0.45
-0.87
-4.19
-9.03
-14.16
-18.36
-20.88
-21.6
-20.9
-19.22
-16.85
-13.97
-10.83
-8.18
-7.04
-8.4
-12.8
-20.03
-29.15
-38.79
-47.46
-54.13
-58.38
-60.4
-60.85
-60.7
-60.87
-61.94
-63.89
-65.99
-67.04
-65.81
-61.75
-55.2
-47.27
-39.2
-31.82
-25.34
-19.36
-13.37
-7.06
-0.48
6.1
12.45
18.45
23.96
28.6
31.72
32.77
31.53
28.48
24.49
20.61
17.64
16.02
15.96
17.58
20.7
24.76
28.78
31.52
31.92
29.59
24.99
19.23
13.45
8.32
3.88
-0.21
-4.21
-7.8
-10.28
-11.01
-9.94
-7.9
-6.49
-7.39
-11.64
-19.33
-29.46
-40.24
-49.71
-56.31
-59.28
-58.85
-56.16
-52.81
-50.42
-50
-51.7
-54.74
-57.93
-59.99
-60.12
-58.09
-54.19
-49.08
-43.62
-38.74
-35.14
-33.11
-32.32
-31.81
-30.39
-27.11
-21.5
-13.67
-4.38
5.4
14.69
22.58
28.37
31.73
32.71
31.78
29.79
27.54
25.45
23.45
21.07
17.79
13.63
9.29
5.96
4.82
6.41
10.5
16.17
22.44
28.77
35.22
42.13
49.42
56.28
61.31
63.18
61.31
56.26
49.48
42.67
36.98
32.77
29.9
28.29
28.22
30.22
34.7
41.3
48.86
55.86
61.07
64.08
65.33
65.7
65.88
66.06
66.02
65.25
63.16
59.01
52.17
42.22
29.29
14.33
-0.83
-13.93
-23.05
-26.99
-25.5
-19.33
-9.96
0.82
10.96
18.6
22.57
22.84
20.53
17.3
14.58
12.8
11.34
9.31
6.34
3.07
0.94
1.44
5.23
11.84
19.9
27.91
34.83
40.33
44.48
47.29
48.5
47.72
44.88
40.33
34.6
28.08
20.74
12.04
1.31
-11.52
-25.85
-40.35
-53.31
-63.1
-68.46
-68.74
-64
-55.02
-43.4
-31.39
-21.45
-15.55
-14.48
-17.57
-23.19
-29.52
-35.28
-40.17
-44.73
-49.65
-55.23
-60.97
-65.77
-68.47
-68.42
-65.8
-61.5
-56.6
-51.62
-46.31
-40.01
-32.21
-23.35
-14.84
-8.46
-5.18
-4.63
-4.96
-3.95
-0.16
6.11
13.21
19.02
22.15
22.63
21.63
20.75
21.03
22.65
25.09
27.78
30.43
33.11
36
38.75
40.76
41.02
39.03
34.95
29.56
23.6
17.45
10.83
3.27
-5.17
-13.73
-21.06
-26.04
-28.38
-28.81
-28.5
-28.32
-28.57
-29.01
-29.58
-30.74
-33.27
-37.61
-43.39
-49.4
-54.47
-58.14
-60.93
-64.13
-68.77
-74.93
-81.71
-87.47
-90.96
-91.72
-90.24
-87.19
-82.99
-77.33
-69.54
-59.28
-46.86
-33.37
-19.98
-7.42
4.42
16.13
28.24
40.42
51.45
59.77
64.24
64.85
62.7
59.42
56.39
54.34
53.24
52.89
53.29
54.63
57.02
59.99
62.39
62.73
59.92
53.91
45.73
37.04
29.37
23.53
19.54
17.02
15.62
15.32
16.33
18.83
22.59
26.89
30.75
33.37
34.54
34.72
34.76
35.27
36.22
36.91
36.48
34.45
31.3
28.27
26.65
26.95
28.59
30.26
30.92
30.37
29.04
27.36
25.07
21.13
14.6
5.45
-5.05
-14.67
-21.13
-23.01
-20.08
-13.27
-4.12
5.71
14.71
21.73
26.03
27.49
26.65
24.41
21.48
18.26
14.75
10.5
5.11
-1.56
-9.2
-16.98
-23.67
-28.07
-29.28
-27.07
-22.11
-15.7
-9.3
-4.06
-0.51
1.4
2.01
1.61
0.21
-2.28
-5.6
-8.93
-11.1
-11.02
-8.42
-4.12
0.12
2.34
1.34
-2.69
-8.56
-14.57
-19.43
-22.79
-25.29
-28.18
-32.66
-39.1
-47
-55.21
-62.39
-67.58
-70.62
-72.12
-73.06
-74.07
-75
-75.06
-73.25
-68.89
-61.92
-52.7
-41.61
-28.82
-14.42
1.19
16.79
30.51
40.53
45.67
46.08
43.21
39.07
35.37
32.86
31.36
30.38
29.73
29.58
30.53
32.91
36.55
40.73
44.58
47.36
48.7
48.52
46.79
43.48
38.59
32.41
25.47
18.39
11.74
5.83
0.69
-3.71
-7.33
-10.04
-11.88
-13.16
-14.37
-15.97
-18.19
-20.76
-23.13
-24.88
-26.16
-27.74
-30.85
-36.51
-44.85
-55
-65.38
-74.47
-81.49
-86.64
-90.62
-93.94
-96.34
-96.88
-94.62
-89.16
-80.93
-70.92
-60.18
-49.29
-38.38
-27.49
-17
-7.66
-0.17
5.12
8.64
11.31
14.07
17.25
20.6
23.33
24.52
23.78
21.4
18.25
15.36
13.59
13.37
14.78
17.82
22.53
29.08
37.57
47.8
59.02
69.92
78.81
84.26
85.69
83.55
79.06
73.69
68.63
64.45
61.3
59.19
58.18
58.43
59.86
61.99
63.75
64.15
62.8
60.2
57.55
56.04
56.19
57.55
58.94
58.98
56.45
50.63
41.35
28.89
14.07
-1.78
-16.84
-29.01
-36.41
-38.02
-34.01
-25.76
-15.37
-4.89
4.31
11.66
17.24
21.08
22.85
21.95
17.8
10.34
0.14
-11.64
-23.64
-34.64
-43.6
-49.55
-51.57
-49.15
-42.39
-32.26
-20.49
-9.05
0.45
7.09
10.79
11.96
11.2
9.19
6.59
3.85
1.32
-0.72
-2.03
-2.61
-2.57
-2.3
-2.28
-2.8
-3.83
-5.09
-6.09
-6.42
-5.97
-4.97
-3.94
-3.46
-4.04
-6.06
-9.81
-15.29
-22.18
-29.61
-36.2
-40.39
-40.99
-37.76
-31.51
-23.87
-16.62
-11
-7.17
-4.24
-0.9
3.93
10.28
17.01
22.36
24.71
23.28
18.5
11.9
5.3
0.03
-3.48
-5.58
-6.85
-7.55
-7.47
-6.14
-3.21
1.07
6.07
11.06
15.54
19.3
22.07
23.35
22.45
18.87
12.84
5.35
-2.18
-8.58
-13.4
-16.97
-19.86
-22.43
-24.59
-25.89
-25.95
-24.72
-22.58
-20.23
-18.52
-18.32
-20.44
-25.24
-32.33
-40.55
-48.38
-54.72
-59.49
-63.64
-68.47
-74.85
-82.53
-90.32
-96.87
-101.5
-104.35
-105.94
-106.35
-104.86
-100.22
-91.72
-79.88
-66.5
-53.79
-43.28
-35.14
-28.19
-20.84
-12.18
-2.65
6.3
13.14
17.22
19.09
20.39
23.06
28.32
36.24
45.82
55.48
63.8
70.09
74.46
77.57
80.09
82.07
82.74
80.79
75.23
66
54.36
42.66
33.41
28.21
27.1
28.67
30.81
31.57
30.02
26.51
22.38
19.06
17.24
16.5
15.64
13.34
8.72
1.88
-6.21
-14.2
-20.77
-24.73
-25.21
-21.97
-15.61
-8.03
-1.96
0.03
-3.29
-10.92
-19.9
-26.51
-27.89
-23.11
-13.38
-1.08
11.36
22.36
31.43
38.93
45.59
51.94
58.08
63.55
67.56
69.27
68.18
64.36
58.35
51.05
43.28
35.71
28.95
23.63
20.24
19.06
20
22.56
25.91
29.15
31.43
32.11
31.02
28.53
25.55
23.24
22.4
23.05
24.23
24.47
22.51
18.05
11.81
5.23
-0.26
-3.89
-5.76
-6.47
-6.7
-6.95
-7.43
-8.17
-9.06
-10.08
-11.36
-13.3
-16.47
-21.32
-27.9
-35.6
-43.21
-49.39
-53.18
-54.42
-53.71
-52.09
-50.44
-49.09
-47.71
-45.56
-41.95
-36.69
-30.27
-23.45
-17.06
-11.58
-7.07
-3.44
-0.89
0.08
-1.22
-4.9
-10.07
-14.85
-17.14
-15.58
-10.29
-2.94
4.3
9.82
13.1
14.69
15.56
16.47
17.55
18.39
18.38
17.06
14.31
10.41
5.91
1.54
-2
-4.25
-5.01
-4.5
-3.09
-1.24
0.59
1.94
2.18
0.55
-3.53
-10.08
-18.32
-27
-35
-41.7
-46.95
-50.87
-53.32
-53.84
-51.97
-47.8
-42.18
-36.58
-32.39
-30.3
-30.16
-31.1
-32.16
-32.74
-32.63
-31.67
-29.6
-25.95
-20.35
-12.88
-3.99
5.72
15.61
25.15
33.8
40.74
44.91
45.17
40.87
32.4
21.46
10.64
2.66
-0.76
0.41
4.71
10.02
14.63
18.05
20.85
23.91
27.67
31.67
34.9
36.49
36.27
34.65
32.06
28.51
23.51
16.64
8.33
-0.12
-7.13
-11.82
-14.57
-16.82
-20.2
-25.37
-31.67
-37.4
-40.77
-40.75
-37.43
-31.92
-25.74
-20.44
-17.25
-16.75
-18.58
-21.7
-24.49
-25.45
-23.85
-20.01
-15.11
-10.72
-8.18
-8.2
-10.77
-15.14
-19.97
-23.7
-25.01
-23.28
-19.28
-14.96
-12.68
-14.34
-20.45
-29.76
-39.72
-47.38
-50.17
-46.65
-36.75
-21.58
-3.07
16.72
35.94
53.14
67.46
78.41
85.73
89.33
89.26
85.63
78.47
67.84
53.99
37.96
21.64
7.48
-2.11
-5.65
-3.1
4.41
15.04
27.04
39.02
49.86
58.6
64.37
66.7
65.79
62.61
58.48
54.43
50.76
47.13
43.21
39.23
35.92
34.17
34.34
35.99
38.13
39.79
40.44
40.08
38.76
36.12
31.51
24.41
15.05
4.74
-4.53
-11.11
-14.65
-16.21
-17.75
-20.98
-26.35
-32.77
-38.13
-40.32
-38.04
-31.29
-21.25
-9.74
1.34
10.5
16.91
20.54
21.96
22.09
21.81
21.61
21.46
21.1
20.18
18.46
15.77
11.98
7.1
1.51
-3.8
-7.38
-7.87
-4.83
0.93
7.6
13.35
17.05
18.7
18.92
18.08
16.01
12.31
6.83
0.12
-6.63
-12.26
-16.34
-19.28
-21.99
-25.09
-28.71
-32.37
-35.45
-37.63
-39
-39.79
-40.19
-40.3
-40.18
-40.22
-41.16
-43.88
-48.94
-56.34
-65.37
-74.72
-82.8
-88.21
-90.09
-88.17
-82.82
-74.87
-65.28
-54.82
-44.19
-33.92
-24.32
-15.33
-6.61
2.24
11.3
20.23
28.16
33.96
36.67
35.82
31.63
24.93
16.87
8.73
1.86
-2.45
-3.19
0.09
6.96
16.08
25.51
33.23
37.92
39.22
37.89
35.46
33.45
32.81
33.48
34.73
35.59
35.34
33.61
30.21
24.79
16.92
6.44
-5.91
-18.26
-28.05
-33.23
-33.22
-29.42
-24.69
-22.08
-23.5
-28.95
-36.73
-44.46
-50.06
-52.53
-52.05
-49.58
-46.32
-43.25
-41.15
-40.57
-41.8
-44.69
-48.52
-51.83
-52.91
-50.44
-44.17
-35.05
-25
-16.06
-9.6
-6.14
-5.32
-6.39
-8.69
-11.87
-15.63
-19.47
-22.56
-24.01
-23.39
-20.84
-16.99
-12.54
-7.89
-2.96
2.63
9.12
16.41
24.03
31.26
37.51
42.44
46.02
48.29
49.36
49.35
48.45
47.01
45.56
44.71
44.88
46.12
47.97
49.51
49.54
47.16
42.05
34.69
26.32
18.43
12.28
8.53
7.03
6.95
7.17
6.61
4.72
1.8
-1.17
-2.88
-2.45
0.03
3.37
5.84
5.63
1.45
-7.2
-19.91
-35.33
-50.99
-63.66
-70.03
-67.86
-57.05
-39.96
-20.53
-2.87
10.46
19.32
25.34
30.79
37.22
44.67
51.96
57.39
59.67
58.47
54.48
49
43.43
39
36.6
36.85
40.1
46.22
54.48
63.46
71.28
76.18
77.25
74.74
69.94
64.52
59.67
55.65
51.95
47.9
43.24
38.21
33.41
29.28
25.83
22.65
19.09
14.61
9.01
2.52
-4.37
-11.12
-17.27
-22.45
-26.52
-29.54
-31.89
-34.37
-38.05
-43.89
-52.17
-62.08
-71.79
-79.06
-82.11
-80.39
-74.75
-66.77
-57.86
-48.77
-39.59
-30.11
-20.53
-11.57
-4.16
1.06
4.12
5.63
6.24
6.26
5.51
3.63
0.46
-3.83
-8.68
-13.32
-17.06
-19.36
-19.89
-18.59
-15.76
-11.82
-7.25
-2.47
2.24
6.65
10.59
13.79
16.02
17.08
16.98
15.97
14.38
12.43
10.09
7.16
3.56
-0.55
-4.69
-8.26
-10.96
-12.95
-14.78
-17.17
-20.58
-24.86
-29.2
-32.52
-33.95
-33.4
-31.47
-29.15
-27.44
-27.07
-28.45
-31.71
-36.81
-43.38
-50.62
-57.35
-62.16
-63.94
-62.2
-57.2
-49.65
-40.26
-29.52
-17.67
-5.11
7.37
18.75
28.07
34.66
38.23
38.78
36.62
32.35
27.1
22.46
20.07
21.06
25.4
31.83
38.52
43.98
47.62
49.77
51.1
51.91
51.86
50.43
47.35
43.03
38.31
33.81
29.53
24.71
18.45
10.36
0.85
-9.09
-18.39
-26.48
-33.38
-39.36
-44.4
-47.93
-49.13
-47.63
-43.92
-39.44
-36.06
-35.27
-37.52
-42.08
-47.71
-53.39
-58.93
-64.78
-71.4
-78.6
-85.41
-90.41
-92.51
-91.39
-87.41
-81.18
-72.91
-62.35
-49.11
-33.34
-16.07
0.9
15.72
27.25
35.44
40.96
44.62
47.03
48.53
49.11
48.76
47.56
45.59
43.03
40.16
37.59
36.16
36.7
39.66
44.54
50.02
54.55
57.18
57.94
57.91
58.31
59.8
62.05
64.06
64.76
63.65
61.12
58.02
54.99
52.18
49.38
46.41
43.48
41.14
39.87
39.83
40.65
41.54
41.84
41.23
39.75
37.64
35.07
31.94
27.71
21.68
13.29
2.34
-10.75
-24.99
-38.94
-50.93
-59.36
-63.13
-61.89
-56.08
-47.02
-36.52
-26.39
-17.76
-10.89
-5.26
-0.03
5.25
10.39
14.61
17.03
17.18
15.27
11.97
8.07
4.33
1.36
-0.21
0.03
2.29
6.24
11.02
15.47
18.52
19.6
18.74
16.5
13.65
10.85
8.51
6.86
5.91
5.52
5.44
5.19
4.13
1.73
-2.35
-8.1
-15.13
-22.79
-30.39
-37.27
-43.08
-47.6
-50.76
-52.59
-53.37
-53.63
-54.03
-55.17
-57.18
-59.5
-61.01
-60.46
-57.03
-50.85
-42.97
-35.03
-28.61
-24.76
-23.56
-24.07
-24.65
-23.52
-19.55
-12.61
-3.7
5.68
14.1
20.78
25.71
29.27
31.85
33.7
35.02
36.15
37.48
39.42
41.92
44.54
46.54
47.31
46.58
44.45
41.31
37.6
33.73
30.1
27.01
24.63
22.88
21.56
20.43
19.5
18.95
18.88
19.07
18.86
17.45
14.36
9.77
4.3
-1.39
-7.09
-13.24
-20.55
-29.4
-39.34
-49.01
-56.81
-61.62
-63.53
-63.72
-63.72
-64.63
-66.7
-69.31
-71.51
-72.49
-71.9
-69.71
-65.86
-60.24
-52.68
-43.34
-32.86
-22.31
-12.81
-5.17
0.53
4.71
7.96
10.7
12.8
13.58
12.29
8.66
3.29
-2.31
-6.16
-6.61
-3.12
3.65
12.16
20.83
28.66
35.38
41.16
46.07
49.81
51.84
51.76
49.55
45.64
40.52
34.66
28.39
22.13
16.52
12.37
10.37
10.69
12.93
16.31
20.05
23.54
26.3
27.97
28.22
26.82
23.72
19.08
13.21
6.45
-0.83
-8.25
-15.02
-20.16
-22.68
-22.32
-19.92
-17.32
-16.72
-19.64
-26.25
-35.23
-44.2
-50.45
-51.81
-47.11
-36.54
-21.52
-4.33
12.31
26.01
35.3
40.12
41.7
41.88
42.24
43.48
45.31
46.86
47.39
46.58
44.52
41.5
37.83
33.94
30.66
29.17
30.63
35.58
43.55
52.87
61.38
67.19
69.38
68.12
64.32
58.95
52.54
45.3
37.42
29.49
22.44
17.25
14.37
13.41
13.39
13.15
11.9
9.31
5.49
0.47
-5.85
-13.5
-22.04
-30.18
-36.19
-39.02
-39.01
-37.99
-38.46
-42.18
-49.17
-57.73
-65.23
-69.43
-69.24
-65.01
-57.84
-49.05
-39.86
-31.06
-23.26
-16.85
-11.89
-7.97
-4.33
-0.35
4.09
8.36
11.38
12.04
9.73
4.58
-2.46
-9.87
-16.08
-19.83
-20.42
-17.9
-12.92
-6.55
0.1
6.01
10.51
13.31
14.5
14.25
12.73
9.9
5.8
0.69
-4.88
-10.11
-14.21
-16.65
-17.36
-16.49
-14.13
-10.33
-5.32
0.29
5.24
7.87
6.84
1.82
-6.27
-15.44
-23.48
-28.87
-31.1
-30.75
-29.15
-27.89
-28.17
-30.58
-34.85
-39.86
-43.96
-45.55
-43.68
-38.48
-30.9
-22.22
-13.55
-5.42
2.14
9.06
14.89
18.87
20.28
18.88
15.11
9.88
4.2
-1.17
-5.7
-8.93
-10.37
-9.63
-6.72
-2.28
2.63
7
10.21
12.19
13.17
13.3
12.53
10.71
7.85
4.16
-0.08
-4.79
-9.96
-15.41
-20.66
-24.8
-26.75
-25.86
-22.17
-16.18
-8.63
-0.28
8.08
15.32
19.95
20.43
15.97
7.16
-3.97
-14.56
-22.08
-25.26
-24.54
-21.74
-19.34
-19.47
-23.28
-30.63
-40.26
-50.27
-58.65
-63.76
-64.68
-61.28
-54.18
-44.59
-34.09
-24.25
-16.29
-10.59
-6.62
-3.16
1.25
7.48
15.45
24.08
31.78
37.3
40.29
41.48
42.32
44.28
48.19
53.99
60.96
68.12
74.7
80.35
84.92
88.29
89.97
89.31
85.76
79.34
70.89
61.95
54.2
48.94
46.68
47.01
48.92
51.16
52.54
52.16
49.69
45.33
39.93
34.85
31.55
31.01
33.19
36.7
38.98
37.03
28.63
13.25
-7.46
-30.14
-50.78
-65.99
-73.87
-74.07
-67.5
-55.87
-41.31
-26.07
-12.33
-1.78
4.85
7.9
8.73
8.82
9.07
9.53
9.5
8.23
5.54
2.08
-1.18
-3.28
-3.79
-2.95
-1.25
0.87
3.3
6.12
9.32
12.51
14.97
15.99
15.34
13.45
11.11
9.09
7.71
6.63
5.17
2.69
-1.03
-5.92
-11.88
-18.95
-27.22
-36.61
-46.54
-55.74
-62.74
-66.39
-66.52
-64.1
-61.06
-59.46
-60.74
-65.21
-71.92
-79.09
-84.81
-87.72
-87.48
-84.6
-80.1
-75.01
-69.8
-64.34
-58.09
-50.44
-41.17
-30.67
-19.96
-10.31
-2.78
2.1
4.27
4.06
2.12
-0.44
-2.27
-1.99
1.32
7.69
16.17
25.04
32.48
37.22
38.81
37.43
33.67
28.25
22
15.85
10.66
6.88
4.3
2.14
-0.4
-3.54
-6.74
-8.95
-9.34
-7.82
-5.18
-2.65
-1.37
-2.01
-4.76
-9.51
-15.94
-23.26
-30.09
-34.78
-36.11
-33.96
-29.5
-24.75
-21.67
-21.15
-22.75
-25.12
-26.9
-27.32
-26.32
-24.08
-20.53
-15.26
-7.83
1.74
12.68
23.7
33.5
41.28
46.76
50.02
51.13
49.95
46.23
39.99
31.74
22.55
13.84
6.98
3.15
3.1
7.07
14.54
24.28
34.56
43.55
49.9
53.07
53.3
51.17
47.19
41.73
35.19
28.36
22.44
18.71
17.84
19.66
23.19
27.15
30.72
33.55
35.55
36.53
35.97
33.24
28.18
21.51
14.86
10.06
8.2
8.94
10.35
9.73
4.65
-5.91
-20.98
-37.76
-52.54
-61.88
-63.61
-57.45
-44.98
-28.92
-12.12
3.43
16.99
28.82
39.58
49.62
58.63
65.68
69.78
70.39
67.62
62.18
54.9
46.51
37.76
29.39
22.33
17.52
15.68
16.88
20.36
24.71
28.14
29.07
26.66
21.16
13.88
6.54
0.61
-3.34
-5.68
-7.26
-8.62
-9.63
-9.55
-7.69
-4.15
-0.06
2.87
3.26
0.9
-3
-6.54
-8.15
-7.71
-6.81
-7.78
-12.74
-22.47
-36.03
-51.1
-64.92
-75.21
-80.74
-81.32
-77.42
-69.68
-58.77
-45.45
-30.69
-15.66
-1.52
10.96
21.47
30.02
36.64
40.97
42.31
39.9
33.37
23.37
11.52
0.06
-8.92
-14.08
-15.1
-12.69
-7.99
-2.02
4.53
11.28
17.91
23.77
27.88
29.31
27.54
22.88
16.35
9.26
2.66
-3.14
-8.37
-13.42
-18.54
-23.52
-28.01
-31.67
-34.32
-36.13
-37.4
-38.54
-39.95
-41.86
-44.56
-48.36
-53.56
-60.09
-67.3
-74.06
-79.09
-81.36
-80.79
-78.27
-75.35
-73.69
-74.38
-77.53
-82.15
-86.47
-88.46
-86.75
-80.98
-72.12
-61.91
-52.05
-43.52
-36.18
-29.3
-22.26
-15.22
-9.03
-4.52
-1.8
-0.02
2.2
5.78
10.68
15.96
20.7
24.62
28.26
32.47
38
44.93
52.71
60.62
67.96
74.15
78.76
81.53
82.49
81.9
80.2
77.74
74.5
70.08
64.07
56.53
48.34
40.84
35.24
31.95
30.37
29.34
27.91
25.94
24.05
23
22.84
22.62
20.77
16.03
8.24
-1.33
-10.57
-17.63
-21.82
-23.7
-24.51
-25.22
-26.12
-26.89
-27.37
-28.22
-30.85
-36.66
-46.06
-57.78
-69.06
-76.63
-77.89
-71.79
-59.08
-41.71
-21.99
-1.76
17.97
36.87
54.77
71.31
85.72
97
104.25
106.83
104.67
98.27
88.86
77.96
67.05
57.29
49.45
44.05
41.48
42.03
45.55
51.12
57.2
61.89
63.85
62.73
59.3
54.83
50.24
45.57
40.29
33.81
26.05
17.69
9.83
3.46
-0.96
-3.56
-4.84
-5.43
-5.72
-5.63
-4.56
-1.97
1.98
5.83
7.1
3.25
-6.9
-22.28
-39.86
-55.84
-67.28
-73.01
-73.36
-69.45
-62.37
-52.91
-41.86
-30.19
-19.06
-9.34
-1.18
5.95
12.54
18.43
22.61
23.68
20.62
13.42
3.11
-8.58
-19.9
-29.45
-36.26
-39.67
-39.39
-35.52
-28.69
-19.92
-10.45
-1.46
6.1
11.6
14.61
14.9
12.4
7.37
0.44
-7.46
-15.31
-22.21
-27.47
-30.73
-32.1
-32.12
-31.65
-31.61
-32.63
-34.84
-37.98
-41.54
-45.04
-48.18
-50.81
-52.93
-54.57
-55.66
-56.2
-56.31
-56.32
-56.46
-56.81
-57.15
-57.09
-56.17
-54.1
-50.63
-45.49
-38.33
-28.89
-17.43
-4.89
6.96
16.16
21.26
21.89
18.8
13.37
7
0.49
-5.79
-11.64
-16.56
-19.82
-20.86
-19.45
-16.02
-11.47
-6.69
-2.24
1.63
4.96
7.97
10.85
13.77
16.59
18.94
20.18
19.73
17.35
13.41
8.77
4.53
1.59
0.26
0.4
1.57
3.25
4.94
6.16
6.29
4.61
0.57
-5.93
-14.2
-22.82
-30.06
-34.27
-34.5
-31.05
-25.42
-19.96
-17.09
-18.34
-23.68
-31.44
-38.77
-42.83
-41.78
-35.4
-24.89
-12.27
0.5
12.21
22.5
31.67
40.14
48.13
55.52
61.82
66.33
68.55
68.32
65.92
62.05
57.58
53.33
49.89
47.68
47.13
48.72
52.88
59.77
68.93
79.29
89.32
97.43
102.4
103.66
101.41
96.47
90.01
83.32
77.31
72.3
68.05
63.92
59.21
53.47
46.84
39.95
33.81
29.45
27.7
28.9
32.42
36.61
39
37.11
29.29
15.44
-2.71
-22.13
-39.28
-51.06
-55.55
-52.42
-42.94
-29.59
-15.41
-3.18
5.42
10.14
12.06
12.87
13.99
15.68
17.07
16.76
13.75
8.01
0.38
-8.03
-16.36
-24.19
-31.16
-36.65
-39.91
-40.59
-39.2
-37.2
-36.51
-38.34
-42.49
-47.43
-51.14
-52.3
-50.89
-47.94
-44.79
-42.36
-40.98
-40.73
-41.88
-44.75
-49.3
-54.8
-59.86
-63
-63.23
-60.44
-55.47
-49.66
-44.28
-40.08
-37.29
-35.53
-34.12
-32.24
-29.36
-25.56
-21.4
-17.54
-14.41
-11.66
-8.46
-4.17
1.22
6.89
11.65
14.67
15.98
15.99
14.94
12.58
8.44
2.67
-3.45
-7.88
-8.81
-5.99
-0.93
4.02
7.17
8.41
9.13
10.86
13.81
16.55
16.85
13.3
6.32
-1.95
-9.07
-13.73
-16.33
-18.4
-21.18
-24.85
-28.48
-30.77
-31.03
-29.8
-28.49
-28.56
-30.73
-34.62
-39.04
-42.56
-44.08
-43.13
-40.02
-35.59
-30.98
-27.04
-23.95
-21.22
-17.94
-13.35
-7.3
-0.23
7.17
14.47
21.7
29.23
37.26
45.56
53.41
60.04
64.99
68.25
70.06
70.35
68.69
64.55
57.91
49.69
41.47
34.85
30.59
28.15
26.03
22.73
17.69
11.62
6.1
2.7
2.18
4.26
8.06
12.57
17.29
22.04
26.63
30.42
32.49
32.03
28.71
22.77
14.72
5.06
-5.9
-17.78
-29.7
-40.26
-47.64
-50.19
-47.25
-39.65
-29.69
-20.42
-14.51
-13.32
-16.49
-22.13
-27.55
-30.27
-28.72
-22.67
-13.16
-1.86
9.55
19.76
27.98
34.17
38.86
42.84
46.96
51.56
56.34
60.51
63.32
64.23
63.16
60.34
56.16
51.12
45.95
41.66
39.21
39.23
41.4
44.47
46.73
46.7
44
39.41
34.48
30.55
28.2
27.02
26.07
24.53
22.17
19.15
15.7
11.8
7.14
1.4
-5.29
-12.14
-17.83
-21.24
-22.06
-21.1
-20.04
-20.7
-24.3
-30.89
-39.29
-47.53
-53.59
-56.08
-54.77
-50.61
-45.25
-40.41
-36.99
-34.75
-32.73
-29.98
-26.15
-21.96
-18.81
-17.82
-19.13
-21.85
-24.75
-27.15
-29.24
-31.77
-35.31
-39.35
-42.24
-42.12
-37.96
-30.28
-21.22
-13.43
-8.73
-7.37
-8.11
-9.08
-8.91
-7.37
-5.23
-3.53
-2.82
-3.06
-3.9
-5.02
-6.48
-8.54
-11.1
-13.54
-14.88
-14.58
-13.02
-11.47
-11.5
-14.06
-18.95
-24.88
-30.29
-34.2
-36.58
-38.3
-40.44
-43.61
-47.82
-52.55
-57.17
-61.17
-64.07
-65.38
-64.56
-61.27
-55.6
-48.24
-40.13
-31.97
-23.98
-15.99
-7.79
0.34
7.52
12.71
15.25
15.25
13.48
11.02
8.91
7.94
8.58
11.08
15.44
21.06
26.95
32.06
35.74
38.09
39.66
40.93
41.72
41.07
38
32.32
24.99
17.86
12.66
10.13
9.83
10.52
11.1
11.3
11.73
13.25
16.1
19.61
22.43
23.46
22.46
20.15
17.68
15.78
14.15
11.81
8.23
4.03
1.03
1.43
6.31
14.65
23.32
28.37
26.99
18.76
5.69
-8.7
-20.77
-27.92
-29.04
-24.37
-14.99
-2.59
10.79
23.18
33.29
40.75
46.12
50.49
54.78
59.27
63.52
66.7
67.99
67.06
63.98
59.13
53.12
46.75
40.77
35.65
31.5
28.12
25.35
23.39
22.87
24.47
28.29
33.34
37.86
40.1
39.2
35.58
30.54
25.48
21.09
17.03
12.4
6.43
-0.95
-8.89
-15.94
-20.78
-22.72
-21.89
-19.2
-16.07
-13.95
-13.93
-16.66
-22.36
-30.88
-41.65
-53.57
-65.22
-74.93
-81.2
-83.01
-80.27
-73.73
-64.62
-54.45
-44.4
-34.75
-24.84
-13.79
-1.36
11.41
22.27
28.56
28.57
22.63
13.05
2.95
-5.51
-11.64
-16.12
-19.69
-22.05
-21.72
-17.03
-7.88
3.71
14.21
20.34
20.65
16.23
9.84
4.14
0.34
-2.27
-5.4
-10.2
-16.35
-22.3
-25.95
-25.93
-22.31
-16.61
-11.08
-7.65
-7.51
-11
-17.69
-26.5
-36.07
-45.11
-52.41
-57.19
-59.28
-59.14
-57.61
-55.57
-53.81
-52.78
-52.37
-52.07
-51.25
-49.2
-45.37
-39.52
-31.76
-22.49
-12.31
-1.99
7.58
15.53
21.13
23.97
24.08
21.96
18.46
14.57
11.07
8.46
6.97
6.61
7.33
9.12
11.99
15.79
20.05
24.09
27.18
28.79
28.87
27.78
26.36
25.34
25.03
25.22
25.32
24.67
22.93
20.26
17.18
14.41
12.42
11.31
10.7
9.98
8.65
6.52
3.96
1.66
0.34
0.47
2.12
5.03
8.66
12.29
14.92
15.46
12.65
5.65
-5.41
-19.01
-32.29
-41.75
-44.44
-39.14
-26.81
-10.21
7.33
23.09
35.81
45.74
53.87
61.14
67.97
74.15
79.23
82.88
84.99
85.62
84.76
82.21
77.76
71.38
63.45
54.79
46.6
40.14
36.35
35.55
37.16
40.01
42.77
44.38
44.34
42.6
39.25
34.25
27.41
18.57
7.97
-3.79
-15.99
-27.99
-39.41
-49.95
-59.11
-65.99
-69.49
-68.87
-64.44
-57.88
-51.91
-49.23
-51.48
-58.47
-68.26
-77.9
-84.55
-86.35
-82.8
-74.62
-63.3
-50.5
-37.6
-25.44
-14.31
-4.22
4.89
12.96
19.65
24.39
26.58
25.89
22.53
17.19
10.96
5.09
0.84
-0.77
0.74
5.06
11.15
17.46
22.41
24.98
24.99
23.01
20.02
17.05
14.71
13.09
11.78
10.19
7.79
4.44
0.47
-3.3
-5.89
-6.56
-5.3
-2.9
-0.73
-0.26
-2.39
-7.1
-13.47
-20.21
-26.33
-31.47
-35.86
-39.78
-43.27
-46
-47.5
-47.65
-46.76
-45.35
-43.83
-42.08
-39.55
-35.63
-30.14
-23.45
-16.33
-9.46
-3.27
2.02
6.15
8.69
9.25
7.63
4.08
-0.75
-6.04
-11.07
-15.31
-18.34
-19.72
-19.11
-16.33
-11.68
-5.88
0.17
5.61
9.83
12.53
13.64
13.24
11.75
9.86
8.39
8.14
9.43
11.95
14.79
16.9
17.59
16.87
15.43
14.13
13.49
13.31
12.76
10.96
7.39
2.37
-3.22
-8.42
-12.65
-15.76
-17.87
-19.11
-19.59
-19.59
-19.87
-21.57
-25.73
-32.62
-41.2
-49.26
-54.19
-53.95
-47.99
-37.39
-24.2
-10.58
1.92
12.67
21.77
29.51
36.15
41.71
46.1
49.21
50.96
51.3
50.11
47.24
42.8
37.31
31.77
27.48
25.69
27.13
31.73
38.62
46.36
53.44
58.83
62.25
64.02
64.77
65
64.84
64.33
63.51
62.63
62.06
61.84
61.55
60.41
57.59
52.72
45.99
38.11
30.09
23.05
17.99
15.7
16.39
19.25
22.17
22.32
17.07
5.31
-11.83
-31.19
-48.86
-61.54
-67.65
-67.39
-62.13
-53.55
-43.07
-31.69
-20.19
-9.19
0.75
9.14
15.58
19.7
20.93
18.64
12.41
2.65
-9.09
-20.28
-28.15
-30.51
-26.45
-16.62
-2.91
12.2
26.26
37.34
44.39
46.98
45.14
39.47
30.98
21.07
11.37
3.41
-1.85
-4.32
-4.85
-4.95
-6.12
-9.27
-14.46
-20.87
-27.37
-32.98
-37.23
-40.07
-41.74
-42.45
-42.36
-41.66
-40.76
-40.37
-41.44
-44.72
-50.26
-57.03
-63.16
-66.76
-66.51
-62.34
-55.37
-47.27
-39.52
-32.58
-26.09
-19.23
-11.59
-3.49
3.9
9.14
11.1
9.52
5.06
-0.97
-6.94
-11.38
-13.25
-12.12
-8.26
-2.41
4.43
11.25
17.15
21.56
24.27
25.3
24.87
23.17
20.29
16.21
10.9
4.38
-3.07
-10.91
-18.4
-24.62
-28.73
-30.35
-29.7
-27.57
-25.22
-23.87
-24.34
-26.78
-30.64
-34.93
-38.92
-42.46
-45.94
-50.03
-55.09
-60.81
-66.27
-70.43
-72.45
-71.91
-68.65
-62.44
-53.03
-40.4
-25.24
-9.12
6
18.51
27.85
34.71
40.31
45.47
50.1
53.16
53.49
50.83
46.16
41.31
38.19
37.74
39.62
42.63
45.46
47.4
48.58
49.55
50.69
51.76
51.69
49.25
43.72
35.49
26.02
17.35
11.21
8.33
8.2
9.34
10.14
9.56
7.44
4.31
1
-1.8
-3.59
-3.98
-2.53
1.17
7.05
14.07
20.1
22.48
19.2
9.97
-3.37
-17.38
-28.25
-33.25
-31.57
-24.13
-12.8
0.51
14.47
28.34
41.57
53.45
63.23
70.36
74.86
77.34
78.54
78.8
77.63
74.01
66.93
56.27
43.25
30.32
20.35
15.48
16.39
22.07
30.33
38.51
44.35
46.6
45.1
40.44
33.7
25.99
18.19
10.9
4.47
-1.04
-5.87
-10.42
-15.2
-20.44
-25.68
-29.8
-31.35
-29.27
-23.88
-16.99
-11.47
-9.94
-13.57
-21.51
-31.28
-39.84
-44.87
-45.46
-42
-35.7
-28.03
-20.29
-13.58
-8.76
-6.34
-6.26
-7.75
-9.57
-10.52
-9.94
-8.17
-6.37
-6.11
-8.5
-13.68
-20.71
-27.93
-33.66
-36.69
-36.49
-33.27
-27.8
-21.06
-14.05
-7.6
-2.36
1.28
3.19
3.44
2.12
-0.6
-4.4
-8.79
-13.16
-16.82
-19.23
-20.32
-20.4
-20.04
-19.71
-19.66
-19.86
-20.04
-19.91
-19.37
-18.76
-18.5
-18.87
-19.93
-21.51
-23.45
-25.73
-28.45
-31.75
-35.45
-38.93
-41.36
-41.96
-40.34
-36.52
-30.82
-23.7
-15.55
-6.74
2.18
10.42
17.06
21.39
23
21.91
18.27
12.48
5.08
-3.15
-11.19
-17.85
-22.05
-23.31
-21.89
-18.71
-15.08
-12.17
-10.76
-10.84
-11.78
-12.48
-11.82
-8.99
-3.96
2.61
9.59
15.9
20.85
24.09
25.56
25.29
23.34
19.93
15.63
11.32
7.94
6.01
5.17
4.35
2.29
-1.84
-7.84
-14.57
-20.22
-23.19
-22.76
-19.51
-15.09
-11.53
-10.35
-12
-15.8
-20.36
-24.23
-26.29
-25.97
-22.94
-17.05
-8.53
1.73
12.1
20.55
25.58
26.92
25.87
24.55
24.58
26.17
28.09
28.5
26.25
21.8
16.99
14.05
14.42
18.3
24.94
33.47
43.37
54.37
65.99
77.25
86.75
93.26
96.24
96.06
93.83
90.69
87.55
84.94
83.03
81.76
80.95
80.17
78.91
76.77
73.67
70.05
66.53
63.63
61.41
59.56
57.68
55.67
53.83
52.39
50.94
47.95
41
27.87
7.73
-18.13
-46.29
-72.42
-92.74
-105.11
-109.47
-107.22
-100.36
-90.92
-80.53
-70.21
-60.52
-51.68
-43.74
-36.96
-31.96
-29.47
-30.13
-33.96
-40.26
-47.86
-55.5
-61.99
-66.37
-67.72
-65.21
-58.52
-48.13
-35.53
-22.83
-11.93
-3.86
1.35
4.35
5.93
6.53
6.22
4.96
2.84
0.15
-2.66
-5.3
-7.66
-9.68
-11.29
-12.28
-12.45
-11.77
-10.5
-9.15
-8.41
-8.88
-11.01
-14.99
-20.54
-27.02
-33.52
-39.09
-43.06
-45.13
-45.56
-45.02
-44.38
-44.32
-45.2
-46.92
-48.88
-50.2
-49.89
-47.19
-41.83
-34.22
-25.36
-16.35
-8.13
-0.98
5.19
10.53
14.77
17.25
17.1
13.98
8.42
1.9
-3.7
-6.93
-7.4
-5.75
-3.16
-0.6
1.55
3.59
6.01
9.02
12.27
15.09
16.73
16.73
15.09
12.05
7.91
2.94
-2.49
-7.76
-12.05
-14.55
-14.87
-13.22
-10.37
-7.35
-5.03
-3.88
-4.01
-5.42
-8.23
-12.56
-18.33
-24.94
-31.43
-36.6
-39.43
-39.5
-37.1
-32.98
-28.12
-23.55
-20.19
-18.77
-19.74
-23.08
-27.95
-32.67
-35.22
-33.98
-28.55
-19.84
-9.66
0.17
8.77
16.24
23.25
30.2
36.65
41.42
43.48
42.58
39.33
34.9
30.24
25.78
21.52
17.52
14.3
12.73
13.53
16.81
22.07
28.41
34.91
40.92
46.02
49.63
51.11
49.99
46.42
41.37
36.38
32.8
31.17
31
31.01
29.86
26.9
22.32
17.01
12.04
8.41
6.86
7.94
12
19.16
28.7
38.81
46.76
49.65
45.47
34.03
17.17
-1.63
-18.3
-29.32
-32.66
-28.15
-17.32
-2.76
12.68
26.68
37.84
45.85
51.22
54.59
56.53
57.09
56.03
53.13
48.23
41.32
32.46
22.05
11.24
2.02
-3.19
-2.51
4.47
16.07
29.15
40.25
46.95
48.62
46.24
41.59
36.4
31.73
28.15
25.91
24.96
24.76
24.15
21.53
15.44
5.36
-7.66
-21.24
-32.27
-38.29
-38.46
-33.96
-27.57
-22.55
-21.39
-25.11
-33.05
-43.36
-53.79
-62.54
-68.53
-71.48
-71.72
-69.87
-66.54
-62.12
-56.66
-50.1
-42.64
-34.96
-28.11
-23.26
-21.08
-21.44
-23.5
-26
-27.84
-28.34
-27.13
-24.04
-19.07
-12.41
-4.57
3.52
10.74
16.05
18.83
18.88
16.33
11.37
4.32
-4.39
-14.08
-23.86
-32.64
-39.48
-43.96
-46.33
-47.29
-47.67
-48.25
-49.32
-50.46
-50.72
-49.08
-45
-39.02
-32.66
-27.8
-25.9
-27.3
-31.06
-35.57
-39.24
-41.03
-40.8
-38.83
-35.39
-30.63
-24.62
-17.59
-9.94
-2.24
4.95
11.14
15.92
18.84
19.52
17.8
13.75
7.77
0.69
-6.34
-11.89
-14.56
-13.37
-8.14
0.29
10.29
20.11
28.43
34.72
39.05
41.8
43.05
42.61
40.37
36.42
31.21
25.39
19.41
13.55
7.8
2.16
-3.14
-7.64
-10.92
-12.7
-13.11
-12.67
-12.01
-11.8
-12.43
-13.9
-15.74
-17.03
-16.64
-13.74
-8.35
-1.67
4.17
6.69
4.22
-3.32
-14.24
-25.33
-32.89
-33.96
-27.27
-13.67
4.18
22.76
38.68
49.89
56.22
59.15
61.04
63.94
68.63
74.46
80.02
84
86.03
86.69
87.06
87.93
89.44
91.2
92.57
93.13
92.89
92.25
91.58
90.99
90.13
88.51
85.66
81.42
76.2
70.9
66.6
64.05
63.2
63.18
62.37
59.17
52.63
42.89
31.21
19.53
9.89
4.04
3.04
6.61
12.91
18.74
20.55
15.69
3.52
-14.22
-34.01
-51.86
-64.63
-70.69
-70.09
-63.98
-54.07
-41.95
-28.9
-15.76
-3.17
8.26
17.96
25.4
30.15
32.01
30.93
26.97
19.94
9.49
-4.37
-20.99
-38.87
-55.95
-70.24
-80.28
-85.34
-85.43
-80.99
-72.91
-62.6
-51.94
-42.88
-36.88
-34.41
-34.97
-37.52
-41
-44.76
-48.65
-52.86
-57.57
-62.73
-68.07
-73.23
-77.93
-81.79
-84.5
-85.81
-85.65
-84.34
-82.62
-81.39
-81.17
-81.73
-82.08
-81.05
-77.97
-73.07
-67.35
-61.8
-56.64
-51.26
-44.84
-37.13
-28.75
-20.81
-13.94
-7.73
-1.06
6.97
16.05
24.53
30.29
31.93
29.69
25.36
21.16
18.67
18.25
19.22
20.54
21.42
21.6
21.39
21.5
22.62
25.14
28.79
32.5
34.77
34.18
30.05
22.92
14.25
5.77
-1.26
-6.33
-9.58
-11.41
-12.14
-11.89
-10.97
-10.08
-10.15
-11.94
-15.59
-20.69
-26.5
-32.36
-37.95
-43.29
-48.49
-53.46
-57.86
-61.07
-62.41
-61.33
-57.65
-51.57
-43.66
-34.56
-24.65
-13.82
-1.6
12.45
28.28
44.8
60.09
71.98
78.91
80.33
76.79
69.52
60
49.73
40.15
32.6
28.12
27.11
29.11
32.88
36.83
39.49
39.96
37.99
33.82
27.99
21.3
14.72
9.34
6.14
5.5
7.15
10.2
13.54
16.39
18.37
19.51
19.93
19.6
18.45
16.84
15.74
16.68
20.96
28.56
37.55
44.4
45.41
38.61
24.93
8.08
-7.02
-16.31
-18.08
-13.04
-3.43
8.5
21.23
34.02
46.25
56.96
64.87
68.97
69.23
66.7
62.96
59.14
55.26
50.36
43.26
33.49
21.85
10.23
0.81
-4.81
-6.21
-4.03
0.55
6.41
12.62
18.38
22.85
25.22
25.05
22.57
18.68
14.52
10.89
7.89
4.97
1.4
-3.24
-8.89
-14.88
-20.33
-24.19
-25.5
-23.62
-18.66
-11.86
-5.53
-2.36
-4.36
-11.89
-23.47
-36.35
-47.69
-55.55
-59.4
-59.88
-58.19
-55.35
-51.88
-47.72
-42.41
-35.55
-27.11
-17.65
-8.44
-0.96
3.66
5.05
3.6
0.23
-4.11
-8.61
-12.62
-15.47
-16.6
-15.72
-13.14
-9.59
-5.94
-2.77
-0.22
1.82
3.39
4.32
4.28
3.19
1.3
-0.97
-3.23
-5.42
-7.68
-10.04
-12.05
-13.07
-12.67
-11
-9.01
-8.06
-9.28
-13.02
-18.65
-24.97
-30.85
-35.69
-39.49
-42.58
-45.26
-47.56
-49.33
-50.4
-50.75
-50.49
-49.61
-47.85
-44.6
-39.15
-31.04
-20.34
-7.58
6.27
20.01
32.34
41.93
47.74
49.35
47.19
42.34
36.08
29.46
23.13
17.47
12.84
9.83
9.13
11.13
15.45
20.93
26.1
29.76
31.51
31.63
30.67
29
26.65
23.5
19.56
15.07
10.53
6.35
2.7
-0.46
-3.2
-5.4
-6.78
-7.18
-6.61
-5.69
-5.22
-5.93
-8.24
-12.07
-17.03
-22.74
-29.24
-36.78
-45.53
-55.15
-64.61
-72.64
-78.28
-81.4
-82.69
-83.36
-84.24
-85.44
-86.19
-85.31
-81.84
-75.52
-66.68
-55.99
-44.05
-31.2
-17.72
-3.9
9.96
23.4
35.97
47.15
56.38
63.14
66.96
67.62
65.25
60.49
54.26
47.59
41.44
36.54
33.5
32.6
33.62
35.78
37.97
39.11
38.74
37.19
35.26
33.69
32.62
31.43
29.17
25.25
19.88
14.18
9.52
6.71
5.67
5.51
5.21
4.28
2.92
1.82
1.67
2.7
4.75
7.54
11
15.11
19.49
22.98
23.72
19.82
10.41
-3.5
-18.95
-31.96
-38.8
-37.41
-27.99
-12.63
5.51
23.28
38.43
49.92
57.72
62.4
64.67
65.05
63.87
61.33
57.77
53.73
49.85
46.51
43.66
41.14
38.86
37.17
36.76
38.23
41.52
45.77
49.57
51.74
51.91
50.6
48.72
46.68
44.29
40.87
36.09
30.37
24.7
19.91
16.1
12.7
9.26
6.25
5.2
7.66
13.69
21.01
25.45
22.99
11.81
-6.58
-27.96
-47.31
-60.95
-67.63
-68.21
-64.55
-58.36
-50.82
-42.64
-34.33
-26.41
-19.24
-12.81
-6.84
-1.22
3.63
6.81
7.27
4.41
-1.59
-9.64
-18.01
-24.89
-28.82
-29.11
-25.78
-19.54
-11.43
-2.84
4.85
10.26
12.34
10.67
5.69
-1.33
-8.81
-15.22
-19.55
-21.39
-20.99
-19.15
-17.01
-15.75
-16.32
-19
-22.94
-26.53
-28.03
-26.45
-22.31
-17.41
-13.99
-13.6
-16.31
-20.95
-25.83
-29.43
-31.06
-30.85
-29.4
-27.56
-26.11
-25.66
-26.52
-28.81
-32.39
-36.9
-41.92
-46.91
-51.15
-53.68
-53.38
-49.52
-42.06
-31.94
-20.72
-10.15
-1.29
5.44
10.22
13.53
15.73
17.06
17.57
17.32
16.44
15.17
13.71
12.32
11.25
10.33
9.32
7.97
6.34
4.8
4.08
4.39
5.13
5.05
2.87
-1.7
-8.13
-15.31
-22.3
-28.76
-34.59
-39.41
-42.12
-41.58
-37.55
-31.39
-25.78
-23.31
-24.96
-29.32
-33.41
-34.05
-29.59
-20.5
-9.13
1.43
8.4
10.12
6.62
-0.67
-9.16
-16.09
-19.1
-17.26
-11.3
-3.13
5.23
13.08
21.07
30.54
42.09
54.76
65.97
72.64
72.67
66.06
55.07
43.45
34.84
31.26
32.7
37.54
43.71
49.75
54.84
58.14
58.12
52.97
41.46
24.4
5.07
-12.08
-23.12
-26.73
-24.59
-20.3
-17.29
-17.36
-20.33
-24.92
-29.89
-34.39
-37.67
-38.69
-36.12
-28.98
-17.36
-2.56
13.32
27.79
38.49
43.32
40.82
30.89
15.3
-2.37
-17.45
-25.61
-24.46
-14.34
1.78
19.69
35.7
47.95
56.58
63.09
69.16
75.49
81.63
86.15
87.55
85.06
78.9
70.2
60.36
50.63
41.83
34.51
29.15
26.18
25.79
27.66
30.86
33.85
35.05
33.27
28.43
21.5
14.19
8.17
4.17
1.73
-0.62
-4.77
-11.85
-21.61
-32.3
-41.21
-45.78
-44.72
-38.47
-29.18
-20.02
-13.99
-13.15
-17.94
-27.13
-38.25
-48.46
-55.53
-58.32
-57.04
-52.92
-47.54
-42.18
-37.45
-33.25
-29.35
-25.78
-22.97
-21.64
-22.42
-25.6
-30.82
-37.3
-44.11
-50.33
-55.45
-59.2
-61.47
-62.15
-61.21
-58.68
-54.64
-49.46
-43.62
-37.84
-32.84
-29.25
-27.33
-26.84
-26.99
-26.83
-25.72
-23.58
-21.15
-19.69
-20.39
-23.85
-29.83
-37.08
-43.7
-47.7
-47.83
-44.11
-37.75
-30.7
-24.88
-21.7
-21.81
-25.01
-30.37
-36.22
-40.58
-41.66
-38.6
-31.88
-23.1
-13.99
-5.39
3.09
12.6
23.68
35.25
44.82
49.79
49.28
44.75
38.97
34.34
31.71
30.12
28.13
25.07
21.68
19.6
20.03
22.89
26.75
29.87
30.97
29.83
27.11
23.55
19.53
14.89
9.24
2.69
-3.94
-9.34
-12.35
-12.55
-10.65
-8.07
-6.29
-6.03
-6.82
-7.33
-6.32
-3.5
0.16
2.79
2.63
-1.12
-8.02
-16.69
-25.31
-32.2
-36.22
-36.77
-33.88
-28.07
-20.17
-11.05
-1.22
9.17
19.98
30.86
40.92
48.96
53.89
55.36
53.91
50.68
46.72
42.64
38.53
34.35
30.38
27.27
25.97
27.1
30.62
35.63
40.62
43.79
43.55
39.1
30.84
20.44
10.31
2.69
-1.16
-1.45
0.7
3.85
6.99
9.66
11.75
13.21
14.03
14.73
16.43
20.72
28.72
40.05
52.29
61.39
63.23
55.6
39.27
17.96
-2.94
-18.32
-25.07
-22.89
-13.71
-0.5
14
28.1
41.25
53.27
63.82
72.07
76.92
77.41
73.09
64.16
51.37
36
19.63
4.09
-9.01
-18.47
-23.82
-25.09
-22.73
-17.44
-10.09
-1.8
6.14
12.53
16.52
17.75
16.37
12.78
7.37
0.45
-7.83
-17.26
-27.43
-37.82
-47.78
-56.41
-62.59
-65.06
-62.85
-55.95
-45.62
-34.32
-24.93
-19.82
-20.36
-26.51
-37.07
-50.06
-63.32
-74.82
-83.04
-87.19
-87.13
-83.06
-75.37
-64.7
-51.92
-38.26
-25.05
-13.5
-4.32
2.42
6.97
9.54
10.13
8.78
5.96
2.81
0.73
0.76
2.82
5.83
8.49
10.2
11.58
13.8
17.63
22.71
27.75
31.14
31.91
30.22
27.18
24.26
22.57
22.43
23.34
24
23.02
19.41
13.14
5.25
-2.45
-8.4
-12.18
-14.76
-17.86
-22.36
-27.34
-30.2
-28.27
-20.7
-9.47
1.29
7.63
7.84
3.64
-0.74
-0.83
6.18
20.57
40.48
63.23
86.21
106.79
122.21
129.67
127.26
115.26
96.36
74.77
54.21
35.64
16.51
-7.75
-40.86
-82.63
-127.12
-163.95
-181.83
-173.76
-140.76
-93.33
-48.36
-23.06
-28.22
-63.12
-115.54
-166.18
-196.57
-196.69
-169.1
-127.57
-91.19
-76.22
-89.5
-126.67
-175.1
-220.36
-252.62
-269.57
-274.81
-273.99
-270.39
-263.39
-250.13
-228.97
-201.93
-174.52
-152.63
-138.37
-128.06
-113.24
-84.06
-33.8
38.47
128.02
226.86
324.47
411.31
480.54
528.79
556.15
565.12
558.81
539.36
507.79
465.1
413.92
358.95
306.1
260.92
227
205.28
193.7
187.39
179.33
162.28
131.01
84.56
27.31
-32.25
-84.54
-122.65
-144.57
-153.16
-153.68
-150.85
-146.97
-141.97
-134.92
-125.73
-115.73
-107.06
-101.32
-98.56
-97.36
-95.6
-91.52
-84.63
-75.83
-66.82
-59.34
-54.32
-51.55
-49.92
-47.96
-44.58
-39.51
-33.33
-27.07
-21.77
-17.96
-15.5
-13.79
-12.02
-9.64
-6.51
-2.93
0.59
3.54
5.68
7.11
8.14
9.16
10.5
12.27
14.39
16.73
19.07
21.27
23.28
25.06
26.56
27.69
28.26
28.06
26.86
24.52
20.96
16.27
10.7
4.63
-1.47
-7.17
-12.12
-16.16
-19.23
-21.44
-22.86
-23.58
-23.56
-22.73
-21.12
-18.86
-16.29
-13.81
-11.8
-10.48
-9.81
-9.49
-9.02
-8.04
-6.43
-4.37
-2.27
-0.57
0.27
0.2
-0.3
-0.58
-0.06
1.46
3.75
6.23
8.18
8.33
5.66
-0.18
-8.39
-16.62
-21.32
-18.63
-5.9
17.11
47.13
79.24
108.5
131.25
145.7
151.53
149.38
140.28
125.81
106.77
85.32
64.89
49.11
40.17
37.81
39.59
41.16
41.84
37.79
27.06
10.62
-8.15
-25.55
-39.32
-49.01
-56.42
-63.83
-76.72
-97.63
-124.68
-152.49
-175.4
