39.6
32.27
26.34
21.65
17.55
13.39
8.72
3.64
-1.45
-6.02
-9.74
-12.78
-15.72
-19.55
-25.3
-33.76
-44.93
-57.78
-70.21
-79.37
-82.51
-77.88
-65.38
-46.59
-24.26
-1.29
19.98
38.16
52.66
63.19
69.48
71.26
68.6
62.21
53.51
44.3
36.07
29.55
24.54
20.15
15.43
9.88
3.68
-2.48
-7.86
-12.13
-15.58
-19.06
-23.65
-30.31
-39.56
-51.22
-64.35
-77.12
-87.11
-91.76
-89.08
-78.36
-60.49
-37.73
-13.02
10.87
31.99
49.33
62.54
71.49
76.04
76.13
72.02
64.64
55.45
46.18
38.21
32.21
28
24.73
21.42
17.32
12.28
6.6
0.9
-4.28
-8.77
-12.85
-17.19
-22.65
-30.03
-39.86
-52.09
-65.81
-79.16
-89.55
-94.21
-91.1
-79.59
-60.82
-37.3
-12.2
11.76
32.74
49.89
62.99
72.01
76.86
77.53
74.33
68.06
59.94
51.37
43.52
37.1
32.28
28.69
25.76
22.86
19.54
15.62
11.09
6.07
0.69
-4.95
-10.78
-16.77
-23.01
-29.76
-37.52
-46.89
-58.31
-71.5
-85.14
-96.82
-103.54
-102.65
-92.8
-74.56
-50.24
-23.24
3.1
26.27
44.98
58.92
68.29
73.4
74.55
72.14
66.86
59.74
51.99
44.7
38.64
34.1
30.98
28.85
27.13
25.27
22.8
19.48
15.23
10.16
4.44
-1.78
-8.39
-15.39
-22.85
-30.98
-40.09
-50.59
-62.63
-75.73
-88.46
-98.44
-102.9
-99.55
-87.54
-67.8
-42.9
-16.12
9.44
31.61
49.36
62.44
71.02
75.29
75.55
72.25
66.2
58.49
50.34
42.8
36.56
31.82
28.34
25.67
23.27
20.71
17.75
14.26
10.22
5.58
0.36
-5.4
-11.57
-18.02
-24.65
-31.59
-39.26
-48.21
-58.89
-71.04
-83.41
-93.73
-99.21
-97.48
-87.41
-69.67
-46.46
-20.91
3.95
25.84
43.55
56.71
65.39
69.79
70.15
66.83
60.58
52.52
44.03
36.43
30.63
26.88
24.77
23.44
21.96
19.63
16.23
11.96
7.21
2.37
-2.44
-7.32
-12.57
-18.54
-25.59
-34.1
-44.34
-56.37
-69.67
-82.85
-93.67
-99.45
-97.92
-88.04
-70.51
-47.59
-22.38
2.13
23.76
41.37
54.61
63.49
68.08
68.41
64.81
58.05
49.4
40.4
32.44
26.34
22.09
19.04
16.12
12.51
7.85
2.41
-3.16
-8.26
-12.68
-16.75
-21.13
-26.56
-33.58
-42.48
-53.28
-65.79
-79.34
-92.54
-103.25
-108.87
-107.08
-96.73
-78.37
-54.16
-27.23
-0.7
23.1
42.87
58.17
68.92
75.15
76.92
74.58
69.01
61.48
53.45
46.14
40.18
35.57
31.81
28.18
24.06
19.19
13.6
7.67
1.77
-3.79
-9
-14.14
-19.77
-26.54
-35.06
-45.73
-58.46
-72.45
-86.01
-96.73
-101.99
-99.65
-88.86
-70.42
-46.64
-20.58
4.84
27.48
46.28
60.93
71.47
77.94
80.35
78.87
74.11
67.09
59.14
51.51
45.03
40.02
36.21
33.08
30.01
26.49
22.26
17.23
11.5
5.21
-1.44
-8.3
-15.31
-22.54
-30.32
-39.11
-49.49
-61.79
-75.69
-89.89
-102.04
-109.23
-108.81
-99.35
-81.2
-56.49
-28.42
-0.38
24.97
46.05
62.26
73.64
80.45
83.08
82.03
78.1
72.3
65.74
59.38
53.78
49.14
45.27
41.88
38.66
35.41
31.94
28.04
23.55
18.29
12.24
5.52
-1.63
-8.99
-16.52
-24.4
-33.11
-43.2
-55.08
-68.53
-82.44
-94.65
-102.38
-102.99
-94.89
-78.24
-54.95
-28.18
-1.3
23
43.2
58.84
70.05
77.14
80.3
79.78
76.09
70.14
63.1
56.15
50.11
45.29
41.53
38.38
35.37
32.11
28.36
23.92
18.63
12.41
5.26
-2.59
-10.78
-18.88
-26.71
-34.38
-42.46
-51.71
-62.72
-75.36
-88.39
-99.43
-105.5
-103.95
-93.5
-74.73
-50.04
-22.79
3.75
27.23
46.5
61.31
71.73
77.81
79.53
77.13
71.33
63.46
55.14
47.77
42.18
38.4
35.79
33.43
30.47
26.49
21.54
15.99
10.32
4.77
-0.67
-6.33
-12.55
-19.62
-27.75
-37.08
-47.84
-60.04
-73.21
-85.9
-95.73
-99.83
-95.88
-82.98
-62.23
-36.45
-9.23
16.16
37.63
54.33
66.46
74.45
78.62
79.12
76.14
70.24
62.43
54.05
46.37
40.19
35.69
32.39
29.51
26.26
22.18
17.22
11.73
6.12
0.68
-4.54
-9.81
-15.55
-22.21
-30.21
-39.94
-51.68
-65.39
-80.37
-94.89
-106.31
-111.62
-108.42
-95.84
-75.01
-48.82
-20.84
5.6
28.38
46.64
60.45
70.24
76.33
78.86
77.97
74.08
67.98
60.78
53.58
47.24
42.18
38.32
35.28
32.5
29.49
25.9
21.58
16.55
10.91
4.81
-1.62
-8.3
-15.28
-22.64
-30.64
-39.65
-50.13
-62.29
-75.71
-89.04
-99.91
-105.49
-103.23
-91.96
-72.4
-47.01
-19.28
7.39
30.53
48.97
62.51
71.51
76.43
77.7
75.84
71.57
65.82
59.47
53.25
47.52
42.36
37.71
33.44
29.5
25.76
22.07
18.16
13.79
8.86
3.41
-2.32
-8.09
-13.69
-19.06
-24.29
-29.66
-35.56
-42.57
-51.28
-61.96
-74.13
-86.27
-95.86
-99.93
-96.08
-83.34
-62.68
-36.8
-9.22
16.77
38.98
56.46
69.28
77.95
82.96
84.68
83.51
80.02
75.07
69.55
64.23
59.44
55.13
50.99
46.77
42.36
37.84
33.35
28.9
24.31
19.22
13.31
6.37
-1.48
-9.92
-18.46
-26.74
-34.66
-42.52
-51.01
-60.9
-72.69
-85.98
-99.19
-109.66
-114.31
-110.68
-97.86
-76.98
-50.86
-23.09
3.14
25.77
43.98
57.83
67.6
73.42
75.31
73.43
68.39
61.34
53.61
46.37
40.36
35.7
32.13
29.18
26.42
23.52
20.25
16.52
12.25
7.48
2.22
-3.44
-9.47
-15.78
-22.31
-29.08
-36.27
-44.35
-53.83
-64.88
-76.79
-87.68
-94.78
-95.25
-87.32
-71.02
-48.38
-22.59
2.99
25.93
44.96
59.85
70.71
77.59
80.4
79.16
74.31
66.86
58.19
49.6
42.01
35.74
30.63
26.23
22.1
17.89
13.41
8.61
3.48
-1.96
-7.66
-13.61
-19.8
-26.28
-33.13
-40.6
-49.08
-59.1
-71.01
-84.54
-98.38
-110.12
-116.67
-115.34
-104.77
-85.69
-60.67
-33.34
-7.16
15.46
33.51
47.02
56.45
62.19
64.36
63.08
58.66
51.92
44.05
36.42
30.1
25.61
22.84
21.18
19.88
18.27
16.01
13.13
9.81
6.3
2.67
-1.15
-5.37
-10.17
-15.71
-22.16
-29.8
-39.07
-50.38
-63.71
-78.08
-91.39
-100.67
-102.9
-96.12
-80.25
-57.22
-30.38
-3.4
20.81
40.65
55.77
66.53
73.44
76.91
77.16
74.55
69.72
63.6
57.2
51.29
46.27
42.07
38.38
34.86
31.29
27.66
24
20.23
16.12
11.3
5.47
-1.4
-9.05
-17.01
-24.87
-32.61
-40.72
-50.06
-61.39
-74.72
-88.86
-101.3
-108.86
-108.62
-99.09
-80.76
-56.09
-28.6
-1.78
21.87
41.18
56.03
66.77
73.72
77.02
76.83
73.56
68.08
61.5
54.92
49.12
44.42
40.7
37.61
34.71
31.61
28.09
24
19.34
14.15
8.51
2.5
-3.82
-10.42
-17.28
-24.52
-32.49
-41.68
-52.62
-65.38
-79.11
-91.83
-100.66
-102.67
-95.92
-80.32
-57.78
-31.63
-5.52
17.62
36.28
50.19
59.83
65.74
68.22
67.41
63.6
57.51
50.33
43.4
37.77
33.87
31.43
29.67
27.74
25.06
21.48
17.22
12.63
7.94
3.19
-1.77
-7.15
-13.14
-19.93
-27.81
-37.19
-48.41
-61.33
-74.9
-86.93
-94.58
-95.06
-86.8
-70.11
-47.21
-21.48
3.62
25.53
43.09
56.23
65.36
70.86
72.72
70.96
65.85
58.36
49.95
42.2
36.28
32.48
30.23
28.38
25.8
21.83
16.5
10.42
4.41
-1
-5.71
-10.14
-15
-20.95
-28.51
-37.87
-49.07
-61.79
-75.29
-88.09
-98.02
-102.54
-99.44
-87.71
-68.07
-42.84
-15.38
11.01
33.87
52.05
65.46
74.62
80.06
82.07
80.83
76.64
70.21
62.59
55.02
48.52
43.55
39.96
37.09
34.15
30.52
26.01
20.79
15.28
9.83
4.56
-0.73
-6.44
-12.92
-20.48
-29.3
-39.55
-51.38
-64.66
-78.6
-91.47
-100.73
-103.55
-97.89
-83.24
-61.03
-34.25
-6.5
19.05
40.36
56.65
68.07
75.13
78.41
78.43
75.7
70.91
64.88
58.5
52.47
47.28
43.06
39.65
36.71
33.78
30.49
26.52
21.77
16.29
10.3
4.01
-2.43
-8.95
-15.66
-22.69
-30.3
-38.85
-48.8
-60.43
-73.44
-86.54
-97.33
-102.87
-100.51
-89.09
-69.4
-44.13
-16.9
8.89
30.91
48.22
60.83
69.2
73.72
74.7
72.47
67.62
61.08
53.96
47.25
41.63
37.37
34.33
32.09
30.11
27.85
24.95
21.2
16.64
11.47
5.95
0.25
-5.6
-11.72
-18.38
-25.93
-34.75
-45.13
-57.05
-69.95
-82.41
-92.22
-96.81
-94.01
-82.88
-64.21
-40.43
-14.82
9.38
29.89
45.59
56.43
62.83
65.32
64.37
60.48
54.41
47.14
39.86
33.55
28.79
25.54
23.25
21.15
18.53
15.04
10.71
5.89
1.01
-3.59
-7.9
-12.19
-16.94
-22.7
-29.92
-38.95
-49.77
-61.99
-74.55
-85.71
-93.23
-94.83
-89
-75.5
-55.69
-32.11
-7.76
14.75
33.74
48.49
58.95
65.3
67.74
66.55
62.26
55.84
48.54
41.63
36.01
31.98
29.27
27.2
25
22.06
18.07
13.04
7.26
1.16
-4.83
-10.51
-15.88
-21.27
-27.22
-34.42
-43.49
-54.72
-67.75
-81.23
-92.85
-99.76
-99.42
-90.53
-73.55
-50.78
-25.46
-0.86
20.72
38.22
51.59
61.18
67.27
69.92
69.15
65.32
59.21
52.02
44.96
38.94
34.36
31.1
28.69
26.5
24.03
20.9
17.02
12.48
7.43
2.09
-3.48
-9.28
-15.44
-22.16
-29.71
-38.43
-48.65
-60.47
-73.29
-85.62
-95.07
-98.88
-94.89
-82.38
-62.57
-38.22
-12.71
11
31.1
46.97
58.74
66.73
71.15
72.1
69.84
65.04
58.74
52.1
46.1
41.29
37.76
35.21
33.14
31.02
28.39
25
20.81
15.95
10.63
5.05
-0.65
-6.47
-12.47
-18.83
-25.86
-34.02
-43.82
-55.45
-68.39
-81.01
-90.75
-94.72
-90.72
-78.14
-58.39
-34.43
-9.7
12.85
31.57
46.06
56.61
63.67
67.36
67.71
64.86
59.46
52.6
45.56
39.43
34.7
31.32
28.77
26.42
23.78
20.64
17.01
13.04
8.84
4.44
-0.25
-5.38
-11.03
-17.3
-24.28
-32.17
-41.31
-51.91
-63.79
-75.9
-86.31
-92.47
-92.06
-83.8
-68.08
-46.98
-23.55
-0.89
18.73
34.25
45.62
53.2
57.29
58.01
55.47
50.18
43.13
35.79
29.52
25.17
22.77
21.59
20.54
18.64
15.46
11.13
6.16
1.14
-3.56
-7.94
-12.28
-17
-22.54
-29.26
-37.46
-47.29
-58.52
-70.39
-81.28
-88.96
-91.07
-85.9
-73.12
-54.03
-31.19
-7.57
14.28
32.79
47.33
57.9
64.62
67.61
67.01
63.22
57.12
49.88
42.79
36.81
32.36
29.25
26.8
24.18
20.69
16.08
10.49
4.42
-1.57
-7.13
-12.27
-17.35
-22.94
-29.68
-38.11
-48.56
-60.91
-74.36
-87.18
-96.94
-100.96
-97.24
-85.24
-66.14
-42.59
-17.8
5.44
25.36
41.33
53.38
61.75
66.54
67.79
65.76
61.13
55.06
48.78
43.33
39.18
36.19
33.74
31.13
27.84
23.68
18.84
13.66
8.41
3.18
-2.13
-7.74
-13.9
-20.83
-28.79
-38.1
-49.09
-61.69
-75.11
-87.57
-96.5
-99.21
-93.87
-80.28
-60.04
-36.05
-11.5
11.02
30.12
45.43
57.11
65.39
70.26
71.64
69.7
65.14
59.1
52.85
47.43
43.23
40.13
37.59
35.06
32.11
28.52
24.25
19.34
13.92
8.12
2.1
-4.02
-10.28
-16.87
-24.17
-32.69
-42.91
-55
-68.51
-82.1
-93.56
-100.16
-99.53
-90.4
-73.29
-50.4
-24.94
-0.18
21.51
38.95
51.99
61.01
66.37
68.35
67.12
63.16
57.27
50.61
44.37
39.45
36.17
34.19
32.74
30.92
28.15
24.27
19.62
14.65
9.77
5.01
0.11
-5.33
-11.68
-19.14
-27.91
-38.16
-50.01
-63.21
-76.67
-88.37
-95.68
-96.12
-88.37
-72.82
-51.6
-27.79
-4.51
15.96
32.47
44.78
53.03
57.48
58.37
56.07
51.33
45.31
39.39
34.8
32.19
31.44
31.67
31.63
30.12
26.51
20.93
14.13
7.1
0.59
-5.14
-10.44
-15.95
-22.4
-30.36
-40.17
-51.89
-65
-78.3
-89.74
-96.74
-96.87
-88.71
-72.51
-50.17
-24.73
0.61
23.34
42.04
56.27
66.12
71.84
73.61
71.77
66.97
60.3
53.11
46.68
41.83
38.65
36.58
34.62
31.85
27.75
22.39
16.32
10.24
4.6
-0.54
-5.61
-11.28
-18.26
-27.06
-37.94
-50.81
-65.03
-79.28
-91.48
-99.04
-99.6
-91.77
-75.76
-53.47
-27.92
-2.32
20.77
39.92
54.75
65.43
72.31
75.63
75.7
73.03
68.42
62.88
57.38
52.58
48.69
45.53
42.65
39.55
35.83
31.26
25.89
19.97
13.85
7.81
1.95
-3.89
-10.05
-16.95
-25.01
-34.61
-45.97
-58.86
-72.39
-84.78
-93.48
-95.92
-90.24
-76.24
-55.49
-30.93
-5.85
17.02
36.15
51.17
62.29
69.89
74.16
75.22
73.38
69.32
63.99
58.42
53.36
49.14
45.68
42.64
39.69
36.55
33.12
29.33
25.08
20.31
14.92
8.87
2.26
-4.72
-11.86
-19.1
-26.55
-34.67
-44.07
-55.23
-68
-81.16
-92.48
-99.1
-98.47
-89.3
-72.12
-49.14
-23.56
1.51
23.75
42
55.98
65.8
71.71
73.85
72.57
68.52
62.7
56.29
50.28
45.23
41.17
37.79
34.59
31.19
27.38
23.1
18.44
13.45
8.21
2.83
-2.58
-7.99
-13.48
-19.32
-25.98
-34
-43.78
-55.3
-67.8
-79.66
-88.53
-91.94
-88.03
-76.35
-58.05
-35.67
-12.31
9.34
27.61
41.94
52.47
59.55
63.32
63.83
61.24
56.16
49.64
42.92
37.06
32.6
29.43
27
24.6
21.62
17.87
13.44
8.69
3.98
-0.52
-4.82
-9.25
-14.23
-20.24
-27.67
-36.78
-47.67
-60
-72.82
-84.38
-92.38
-94.4
-88.83
-75.45
-55.74
-32.44
-8.69
12.93
30.95
45.02
55.41
62.5
66.39
67.06
64.59
59.58
53.09
46.54
41.11
37.34
34.96
33.11
30.71
27.04
21.98
16.03
9.95
4.39
-0.46
-4.89
-9.56
-15.11
-22.05
-30.68
-41.08
-53.07
-66.03
-78.63
-88.8
-94.09
-92.4
-82.85
-66.17
-44.66
-21.38
0.8
19.98
35.46
47.36
56.14
62.09
65.21
65.47
63
58.43
52.7
46.93
42.03
38.39
35.86
33.8
31.45
28.18
23.81
18.55
12.88
7.28
1.93
-3.26
-8.68
-14.74
-21.81
-30.2
-40.14
-51.68
-64.43
-77.24
-88.05
-94.3
-93.55
-84.55
-67.74
-45.35
-20.68
3.01
23.35
39.28
50.88
58.72
63.38
65.19
64.34
61.09
56.07
50.12
44.14
38.79
34.43
31.02
28.28
25.83
23.25
20.18
16.38
11.82
6.66
1.22
-4.2
-9.42
-14.54
-19.91
-26.07
-33.61
-42.97
-54.24
-66.85
-79.39
-89.64
-95
-93.33
-83.7
-66.93
-45.34
-22.07
-0.03
18.84
33.77
44.82
52.35
56.64
57.79
56
51.81
46.17
40.23
34.99
31.04
28.36
26.49
24.74
22.47
19.3
15.14
10.24
4.96
-0.3
-5.3
-10.05
-14.79
-19.96
-26.05
-33.58
-42.86
-53.85
-65.79
-77.11
-85.49
-88.44
-84.09
-71.93
-53.25
-30.67
-7.36
13.99
31.82
45.7
55.88
62.63
66.08
66.15
63.03
57.44
50.56
43.73
37.96
33.62
30.38
27.56
24.46
20.67
16.21
11.32
6.29
1.29
-3.74
-8.99
-14.6
-20.67
-27.23
-34.37
-42.44
-51.87
-62.96
-75.26
-87.28
-96.48
-100.01
-95.7
-82.96
-63.21
-39.34
-14.73
7.89
27
42.26
53.97
62.41
67.61
69.47
68.12
64.15
58.66
52.9
47.89
44.17
41.64
39.74
37.7
34.86
30.83
25.68
19.75
13.51
7.36
1.44
-4.39
-10.4
-16.93
-24.23
-32.61
-42.35
-53.66
-66.27
-79.09
-90
-96.25
-95.3
-85.86
-68.52
-45.66
-20.65
3.26
23.88
40.33
52.71
61.46
66.9
69.15
68.36
64.97
59.82
53.95
48.27
43.34
39.29
35.96
33.01
30.16
27.18
23.89
20.15
15.83
10.85
5.19
-0.96
-7.38
-13.79
-20.07
-26.37
-33.14
-41.06
-50.75
-62.34
-75.01
-86.83
-95.1
-97.04
-90.91
-76.65
-56.06
-32.18
-8.29
13.11
30.73
44.38
54.42
61.17
64.69
64.91
62
56.59
49.78
42.86
36.92
32.52
29.56
27.48
25.43
22.78
19.15
14.62
9.49
4.13
-1.22
-6.51
-11.82
-17.36
-23.3
-29.87
-37.41
-46.25
-56.63
-68.21
-79.78
-89.22
-93.94
-91.71
-81.55
-64.26
-42.21
-18.58
3.67
22.62
37.56
48.63
56.24
60.62
61.76
59.68
54.79
48.1
40.96
34.7
30.05
26.96
24.63
22
18.23
13.1
7.02
0.74
-5.03
-9.99
-14.32
-18.52
-23.26
-29.08
-36.39
-45.48
-56.37
-68.6
-81.02
-91.64
-97.99
-97.75
-89.6
-73.79
-52.25
-28
-4.16
16.91
33.98
46.94
56.18
62.11
64.85
64.39
60.93
55.13
48.13
41.25
35.57
31.56
28.96
26.99
24.72
21.46
16.99
11.54
5.55
-0.52
-6.44
-12.27
-18.28
-24.87
-32.46
-41.52
-52.38
-65.13
-79.15
-92.94
-104.15
-110.05
-108.43
-98.39
-80.83
-58.14
-33.41
-9.48
11.8
29.58
43.72
54.24
61.09
64.13
63.53
59.92
54.39
48.25
42.59
38.02
34.52
31.63
28.66
25.05
20.56
15.29
9.67
4.13
-1
-5.77
-10.54
-15.86
-22.32
-30.43
-40.56
-52.73
-66.48
-80.51
-92.7
-100.4
-101.19
-93.74
-78.36
-57.01
-32.6
-8.13
14.21
33.23
48.57
60.16
67.92
71.7
71.53
67.95
62.03
55.22
48.92
44.02
40.73
38.49
36.4
33.57
29.52
24.35
18.6
12.91
7.6
2.62
-2.48
-8.27
-15.14
-23.32
-32.95
-44.14
-56.83
-70.4
-83.32
-93.2
-97.32
-93.6
-81.52
-62.43
-39.15
-14.89
7.73
27.23
43.19
55.61
64.48
69.44
70.24
67.05
60.85
53.22
45.87
40.1
36.33
34.09
32.33
29.92
26.17
21
14.92
8.64
2.76
-2.59
-7.65
-13.05
-19.5
-27.66
-38
-50.61
-65
-79.82
-92.91
-101.4
-102.52
-94.37
-76.79
-51.67
-22.43
6.89
32.96
53.86
69.2
79.55
85.73
88.23
87.22
82.97
76.24
68.38
60.94
55.02
50.82
47.57
44.02
39.08
32.42
24.5
16.3
8.8
2.52
-2.71
-7.68
-13.48
-21.19
-31.55
-44.78
-60.28
-76.54
-91.2
-101.39
-104.43
-98.66
-84.09
-62.41
-36.57
-9.71
15.59
37.79
56.22
70.59
80.66
86.08
86.74
83.14
76.59
68.86
61.71
56.23
52.55
49.97
47.32
43.57
38.25
31.52
24.07
16.68
9.91
3.81
-1.98
-8.14
-15.38
-24.29
-35.32
-48.58
-63.63
-79.2
-93.09
-102.39
-104.36
-97.3
-81.33
-58.46
-31.9
-5.06
19.5
40.44
57.47
70.63
79.84
84.83
85.41
81.95
75.56
67.92
60.69
54.99
51.05
48.24
45.55
42.04
37.28
31.36
24.82
18.27
12.11
6.39
0.77
-5.24
-12.22
-20.63
-30.88
-43.12
-57.11
-71.81
-85.28
-94.85
-97.74
-92.1
-77.66
-56.1
-30.46
-4.15
20.02
40.44
56.59
68.55
76.47
80.41
80.45
76.97
70.96
63.74
56.73
50.95
46.75
43.78
41.17
38.03
33.74
28.24
21.97
15.58
9.58
4.11
-1.14
-6.74
-13.26
-21.17
-30.68
-41.9
-54.59
-68.01
-80.7
-90.41
-94.68
-91.5
-80.2
-61.81
-38.83
-14.41
8.62
28.42
44.2
55.93
63.76
67.76
67.95
64.62
58.54
50.98
43.43
37.06
32.37
29.13
26.52
23.63
19.85
15.06
9.65
4.17
-0.91
-5.48
-9.89
-14.75
-20.83
-28.73
-38.85
-51.11
-64.79
-78.37
-89.64
-96.09
-95.62
-87.26
-71.55
-50.45
-26.71
-3.08
18.41
36.6
51.01
61.46
67.78
69.93
68.14
63.26
56.61
49.76
43.98
39.83
37.02
34.58
31.43
26.84
20.83
14.02
7.34
1.47
-3.5
-8.11
-13.28
-19.92
-28.64
-39.61
-52.55
-66.69
-80.57
-92.15
-98.95
-98.77
-90.41
-74.32
-52.57
-28.23
-4.37
16.85
34.51
48.61
59.47
67.18
71.5
72.19
69.47
64.21
57.83
51.76
46.95
43.5
40.78
37.75
33.52
27.8
20.89
13.6
6.74
0.8
-4.27
-9.05
-14.35
-21.03
-29.7
-40.64
-53.59
-67.62
-81
-91.33
-96.08
-93.31
-82.43
-64.51
-41.98
-17.87
5.14
25.25
41.74
54.49
63.68
69.35
71.5
70.33
66.41
60.76
54.57
48.89
44.32
40.92
38.22
35.57
32.34
28.21
23.22
17.69
12.05
6.62
1.47
-3.6
-9.02
-15.27
-22.87
-32.19
-43.4
-56.22
-69.77
-82.37
-91.75
-95.59
-92.12
-80.83
-62.73
-40.12
-15.87
7.32
27.52
43.78
55.93
64.23
69.04
70.77
69.85
66.85
62.51
57.57
52.73
48.37
44.6
41.2
37.84
34.2
30.05
25.42
20.5
15.55
10.77
6.12
1.28
-4.32
-11.34
-20.38
-31.77
-45.54
-61.27
-77.98
-93.99
-107.03
-114.53
-114.36
-105.55
-88.75
-66.16
-40.87
-15.94
6.36
24.9
39.38
49.95
56.76
59.97
59.83
56.89
52.11
46.59
41.34
36.98
33.67
31.16
28.96
26.5
23.31
19.17
14.1
8.42
2.55
-3.1
-8.42
-13.59
-19.08
-25.5
-33.38
-43.07
-54.46
-66.84
-78.77
-88.09
-92.39
-89.64
-79.02
-61.32
-38.85
-14.68
8.25
28
43.83
55.88
64.55
70.06
72.43
71.66
68.14
62.74
56.65
50.96
46.26
42.56
39.34
35.99
32.04
27.38
22.18
16.7
11.13
5.49
-0.35
-6.57
-13.29
-20.6
-28.58
-37.45
-47.56
-59.15
-72
-84.99
-96.08
-102.59
-102.09
-93.25
-76.47
-53.85
-28.51
-3.59
18.57
36.78
50.83
61.08
67.9
71.62
72.49
70.89
67.39
62.7
57.47
52.22
47.24
42.65
38.44
34.53
30.77
26.97
22.9
18.4
13.37
7.8
1.75
-4.7
-11.51
-18.63
-26.11
-34.08
-42.87
-52.95
-64.64
-77.74
-91.01
-102.21
-108.48
-107.34
-97.61
-80.01
-57
-31.91
-7.82
13.21
30.41
43.87
53.95
60.83
64.5
65
62.71
58.46
53.3
48.13
43.46
39.36
35.6
31.9
28.1
24.17
20.14
16
11.66
6.95
1.78
-3.85
-9.85
-16.09
-22.53
-29.3
-36.77
-45.46
-55.8
-67.73
-80.37
-91.86
-99.67
-101.34
-95.24
-81.32
-61.16
-37.51
-13.46
8.46
26.77
41.02
51.42
58.38
62.19
63.05
61.19
57.12
51.62
45.63
39.98
35.15
31.21
27.84
24.58
21
16.89
12.29
7.4
2.49
-2.34
-7.1
-12.02
-17.38
-23.49
-30.6
-38.93
-48.67
-59.82
-71.93
-83.84
-93.6
-98.81
-97.34
-88.15
-71.81
-50.39
-26.82
-3.98
16.12
32.56
45.24
54.38
60.07
62.28
61.05
56.86
50.7
43.94
37.87
33.22
30
27.48
24.71
20.86
15.67
9.44
2.86
-3.34
-8.77
-13.5
-17.99
-22.9
-28.83
-36.23
-45.39
-56.32
-68.58
-81.06
-91.84
-98.53
-98.78
-91.3
-76.32
-55.67
-32.23
-8.91
12.11
29.78
43.88
54.52
61.73
65.36
65.35
62.07
56.44
49.75
43.29
37.85
33.59
30.1
26.65
22.62
17.69
12.05
6.14
0.52
-4.48
-8.94
-13.27
-18.18
-24.3
-32.2
-42.17
-54.14
-67.54
-81.04
-92.58
-99.6
-99.84
-92.06
-76.62
-55.51
-31.6
-7.79
13.88
32.39
47.5
59.23
67.48
72.04
72.86
70.36
65.45
59.39
53.3
47.94
43.5
39.71
36.06
32
27.22
21.65
15.58
9.45
3.67
-1.57
-6.48
-11.56
-17.51
-24.95
-34.31
-45.67
-58.56
-71.84
-83.6
-91.47
-93.08
-86.88
-72.74
-52.23
-28.06
-3.38
19.27
38.41
53.6
65.06
73.04
77.66
78.89
76.89
72.26
66.02
59.39
53.33
48.32
44.22
40.56
36.7
32.25
27.13
21.53
15.76
10.02
4.36
-1.35
-7.31
-13.74
-20.8
-28.68
-37.7
-48.14
-60.1
-72.96
-85.2
-94.46
-98.11
-94.24
-82.32
-63.62
-40.69
-16.6
6.05
25.69
41.71
54.14
63.05
68.4
70.08
68.25
63.54
57.09
50.2
44.01
39.1
35.36
32.24
28.94
24.9
19.89
14.14
8.09
2.14
-3.53
-9.06
-14.86
-21.46
-29.35
-38.86
-50.16
-63.04
-76.88
-90.36
-101.54
-108.12
-108.05
-100.3
-85.32
-65.06
-42.32
-19.9
0.3
17.49
31.8
43.65
53.21
60.23
64.27
65.21
63.48
60.09
56.24
52.76
49.82
46.89
43.14
37.94
31.31
23.86
16.54
10.11
4.77
0.06
-4.92
-11.05
-18.96
-28.88
-40.67
-53.79
-67.26
-79.5
-88.4
-91.75
-87.88
-76.41
-58.41
-36.22
-12.63
9.89
29.75
46.28
59.31
68.8
74.6
76.54
74.79
70.05
63.58
56.8
50.89
46.35
42.92
39.79
36.06
31.16
25.04
18.18
11.22
4.74
-1.11
-6.51
-11.99
-18.19
-25.71
-35.1
-46.55
-59.82
-73.83
-86.63
-95.67
-98.44
-93.33
-80.18
-60.54
-37.07
-12.74
9.99
29.68
45.82
58.46
67.76
73.76
76.4
75.81
72.48
67.26
61.28
55.53
50.65
46.7
43.27
39.67
35.3
29.88
23.53
16.66
9.72
3.02
-3.43
-9.8
-16.4
-23.55
-31.54
-40.74
-51.49
-63.91
-77.51
-90.89
-101.75
-107.36
-105.47
-95.05
-76.83
-53.06
-26.78
-0.91
22.46
42.22
58.05
69.97
78.03
82.27
82.96
80.64
76.21
70.7
64.96
59.55
54.59
49.98
45.49
40.97
36.38
31.65
26.74
21.47
15.7
9.33
2.41
-4.84
-12.1
-19.07
-25.69
-32.19
-39.22
-47.61
-58.11
-70.79
-84.59
-97.29
-105.86
-107.49
-100.49
-84.99
-62.86
-37.1
-10.84
13.45
34.26
51.01
63.54
71.96
76.45
77.37
75.36
71.23
65.88
60.05
54.32
48.97
44.14
39.81
35.83
32
28.01
23.58
18.52
12.79
6.47
-0.22
-7.02
-13.76
-20.36
-27
-34.08
-42.24
-52.06
-63.75
-76.67
-89.14
-98.72
-102.67
-99.01
-87.11
-68.01
-44.1
-18.31
6.71
29.11
47.92
62.73
73.4
79.86
82.13
80.5
75.73
68.86
61.12
53.58
46.99
41.57
37.17
33.4
29.78
25.99
21.83
17.34
12.64
7.84
2.92
-2.34
-8.26
-15.25
-23.67
-33.86
-45.97
-59.73
-74.18
-87.52
-97.27
-100.83
-96.35
-83.42
-63.36
-38.8
-12.92
11.58
32.94
50.51
64.25
74.27
80.59
83.13
82.02
77.81
71.46
64.1
56.76
50.09
44.25
39.11
34.3
29.49
24.42
18.88
12.84
6.32
-0.49
-7.38
-14.13
-20.73
-27.31
-34.3
-42.3
-51.89
-63.34
-76.23
-89.17
-99.92
-105.8
-104.53
-95
-77.69
-54.52
-28.26
-1.66
23.09
44.7
62.49
76.14
85.5
90.56
91.56
89.07
83.94
77.1
69.4
61.48
53.76
46.52
39.94
34.12
29.04
24.53
20.28
15.88
10.92
5.12
-1.57
-9.01
-16.91
-24.96
-33.02
-41.21
-49.99
-59.99
-71.69
-84.92
-98.51
-110.24
-117.33
-117.27
-108.66
-91.81
-68.57
-41.78
-14.36
11.31
33.72
52.06
65.97
75.32
80.25
81.24
79.11
74.91
69.62
63.95
58.24
52.55
46.92
41.49
36.49
32.19
28.6
25.47
22.26
18.44
13.64
7.82
1.26
-5.7
-12.73
-19.78
-26.96
-34.56
-42.99
-52.7
-64
-76.69
-89.74
-101.12
-108.17
-108.31
-100.07
-83.61
-60.81
-34.64
-8.2
16.07
36.76
53.27
65.53
73.56
77.44
77.43
74.06
68.2
60.88
53.13
45.73
39.19
33.64
28.93
24.73
20.6
16.21
11.35
6.04
0.4
-5.42
-11.31
-17.23
-23.25
-29.44
-36
-43.27
-51.68
-61.61
-72.92
-84.69
-95.09
-101.61
-101.88
-94.42
-79.2
-57.78
-32.76
-7.05
16.89
37.45
53.78
65.57
72.79
75.57
74.3
69.72
62.94
55.2
47.61
40.92
35.34
30.68
26.48
22.29
17.75
12.73
7.31
1.65
-4.06
-9.72
-15.32
-21
-27.04
-33.82
-41.86
-51.6
-63.2
-76.1
-88.82
-98.99
-103.97
-101.61
-91.09
-73.22
-50.2
-24.85
0.15
22.89
42.25
57.69
68.91
75.73
78.12
76.47
71.61
64.76
57.19
49.92
43.53
38.11
33.41
29
24.49
19.65
14.38
8.77
2.97
-2.87
-8.7
-14.65
-20.93
-27.89
-35.85
-45.14
-55.91
-67.96
-80.49
-91.88
-99.88
-102.07
-96.73
-83.49
-63.64
-39.72
-14.73
8.79
29.26
46.06
59.1
68.38
73.74
75.04
72.48
66.8
59.27
51.34
44.19
38.38
33.73
29.58
25.15
20.01
14.19
8.19
2.59
-2.28
-6.55
-10.75
-15.58
-21.64
-29.24
-38.53
-49.47
-61.76
-74.67
-86.69
-95.68
-99.18
-95.28
-83.34
-64.36
-40.73
-15.46
8.7
29.9
47.3
60.76
70.42
76.27
78.26
76.49
71.45
64.18
56.04
48.35
41.94
37.02
33.11
29.47
25.36
20.46
14.83
8.93
3.23
-2.06
-7.04
-12.17
-17.98
-24.96
-33.36
-43.31
-54.72
-67.17
-79.76
-90.87
-98.36
-99.99
-94.15
-80.55
-60.39
-36.16
-10.76
13.17
33.88
50.5
62.82
70.89
74.83
74.91
71.58
65.7
58.4
50.92
44.24
38.83
34.59
30.92
27.11
22.6
17.26
11.33
5.32
-0.29
-5.31
-9.9
-14.59
-19.98
-26.73
-35.27
-45.76
-57.88
-70.78
-82.89
-92.12
-96.21
-93.36
-82.9
-65.49
-43.12
-18.47
5.78
27.53
45.52
59.17
68.33
73.06
73.54
70.28
64.15
56.37
48.27
40.97
35.09
30.61
27
23.51
19.51
14.71
9.29
3.67
-1.68
-6.56
-11.13
-15.9
-21.58
-28.85
-38.23
-49.83
-63.19
-76.97
-89.07
-96.95
-98.24
-91.54
-76.92
-56.05
-31.61
-6.48
17.05
37.63
54.62
67.76
76.7
81.07
80.73
76.17
68.64
59.9
51.61
44.8
39.6
35.32
30.99
25.88
19.89
13.47
7.34
2.04
-2.41
-6.46
-10.9
-16.49
-23.83
-33.26
-44.84
-58.31
-72.78
-86.57
-97.24
-102.07
-98.9
-86.9
-67.12
-42.13
-15.28
10.4
32.88
51.29
65.56
75.81
82.05
84.18
82.25
76.82
69
60.23
51.89
44.84
39.23
34.68
30.41
25.77
20.39
14.38
8.12
2.09
-3.42
-8.54
-13.69
-19.53
-26.71
-35.67
-46.62
-59.31
-72.94
-85.98
-96.26
-101.23
-98.75
-87.77
-68.92
-44.36
-17.17
9.53
33.43
53.24
68.59
79.48
86.03
88.33
86.61
81.54
74.15
65.76
57.54
50.33
44.41
39.57
35.39
31.31
26.98
22.24
17.21
12.07
7
1.99
-3.18
-8.9
-15.56
-23.48
-32.9
-43.89
-56.37
-69.76
-82.77
-93.32
-98.86
-97.15
-87.02
-69.02
-45.24
-18.75
7.4
30.89
50.41
65.47
76.01
82.1
83.94
81.99
77.02
70.11
62.44
54.97
48.32
42.68
37.88
33.6
29.41
25.04
20.31
15.25
9.95
4.55
-0.91
-6.51
-12.42
-18.88
-26.22
-34.8
-44.93
-56.71
-69.61
-82.22
-92.35
-97.4
-95.26
-85
-67.37
-44.55
-19.49
4.97
26.8
44.9
58.92
68.8
74.57
76.21
73.96
68.48
60.85
52.43
44.43
37.69
32.39
28.22
24.51
20.6
16.06
10.78
5.02
-0.87
-6.52
-11.83
-16.91
-22.11
-27.92
-34.82
-43.25
-53.49
-65.39
-78.1
-89.91
-98.4
-101.01
-95.86
-82.49
-62.14
-37.36
-11.23
13.54
35.12
52.66
65.9
74.76
79.24
79.43
75.8
69.31
61.35
53.3
46.25
40.62
36.18
32.25
28.03
23.02
17.15
10.77
4.44
-1.39
-6.55
-11.3
-16.17
-21.78
-28.69
-37.28
-47.7
-59.82
-72.98
-85.8
-96.17
-101.49
-99.51
-89.09
-70.75
-46.68
-20.04
5.99
29.03
47.89
62.29
72.44
78.51
80.63
78.95
73.97
66.66
58.3
50.15
43.09
37.42
32.85
28.77
24.56
19.85
14.62
9.19
3.94
-0.9
-5.36
-9.83
-14.82
-20.91
-28.49
-37.83
-48.96
-61.54
-74.72
-86.87
-95.75
-98.91
-94.46
-81.77
-61.86
-37.2
-10.94
13.94
35.41
52.51
65.19
73.74
78.48
79.66
77.5
72.51
65.51
57.6
49.84
43.06
37.6
33.29
29.66
26.1
22.15
17.57
12.38
6.78
1
-4.84
-10.82
-17.14
-24.04
-31.77
-40.55
-50.55
-61.82
-74.08
-86.37
-96.92
-103.33
-103.16
-94.79
-78.18
-55
-28.27
-1.39
22.77
42.55
57.46
67.8
74.14
76.94
76.51
73.24
67.68
60.74
53.4
46.57
40.78
36.13
32.35
28.96
25.49
21.62
17.16
12.12
6.63
0.83
-5.12
-11.14
-17.27
-23.67
-30.69
-38.75
-48.32
-59.58
-72.18
-84.86
-95.51
-101.52
-100.56
-91.44
-74.55
-51.9
-26.47
-1.34
21.08
39.45
53.3
62.75
68.12
69.72
67.92
63.29
56.64
48.95
41.23
34.29
28.59
24.14
20.59
17.41
14.01
10.03
5.36
0.26
-4.94
-9.89
-14.51
-18.99
-23.82
-29.6
-36.95
-46.3
-57.67
-70.44
-83.22
-93.83
-99.79
-98.95
-90.21
-73.98
-52.09
-27.3
-2.44
20.23
39.35
54.33
64.98
71.25
73.23
71.2
65.91
58.54
50.47
42.97
36.8
32.1
28.44
25.11
21.48
17.18
12.21
6.8
1.26
-4.22
-9.53
-14.78
-20.16
-26.06
-32.94
-41.36
-51.76
-64.03
-77.25
-89.42
-97.84
-99.79
-93.46
-78.72
-57.24
-32.01
-6.25
17.39
37.4
53.28
65.12
73.06
77.09
77.26
73.91
67.88
60.47
52.99
46.47
41.31
37.3
33.81
30.2
26.02
21.21
15.96
10.56
5.19
-0.18
-5.75
-11.75
-18.33
-25.55
-33.53
-42.55
-53.06
-65.23
-78.56
-91.4
-101.11
-104.74
-100.04
-86.43
-65.29
-39.53
-12.58
12.58
34.07
51.17
63.84
72.33
76.8
77.41
74.52
68.85
61.47
53.62
46.33
40.21
35.39
31.57
28.28
25.04
21.57
17.76
13.59
9.11
4.27
-0.96
-6.65
-12.79
-19.38
-26.47
-34.27
-43.24
-53.84
-66.22
-79.69
-92.44
-101.76
-104.72
-99.22
-84.83
-63.11
-37.06
-10.18
14.62
35.62
52.29
64.78
73.37
78.18
79.2
76.68
71.27
64.13
56.63
49.93
44.72
40.94
38.08
35.32
31.99
27.72
22.55
16.76
10.68
4.52
-1.68
-7.97
-14.51
-21.38
-28.75
-36.94
-46.42
-57.59
-70.4
-83.83
-95.75
-103.33
-103.78
-95.5
-78.69
-55.4
-28.92
-2.64
20.84
40.13
54.93
65.45
71.99
74.68
73.68
69.4
62.75
54.92
47.19
40.55
35.39
31.51
28.27
24.94
20.96
16.22
11
5.77
0.96
-3.37
-7.49
-11.91
-17.21
-23.79
-31.89
-41.6
-52.83
-65.09
-77.27
-87.48
-93.32
-92.54
-83.89
-67.68
-45.86
-21.4
2.65
23.95
41.28
54.29
63.1
67.82
68.49
65.29
58.83
50.36
41.47
33.69
27.96
24.33
22.08
20.05
17.23
13.13
7.91
2.15
-3.43
-8.38
-12.69
-16.78
-21.4
-27.38
-35.46
-46
-58.77
-72.68
-85.75
-95.41
-99.07
-94.97
-82.72
-63.56
-39.92
-14.69
9.52
30.93
48.57
62.07
71.23
75.97
76.37
72.94
66.7
59.07
51.54
45.15
40.23
36.38
32.72
28.46
23.21
17.2
11.02
5.34
0.49
-3.66
-7.72
-12.49
-18.8
-27.34
-38.48
-52.03
-66.97
-81.35
-92.45
-97.47
-94.42
-82.87
-64.2
-41.07
-16.6
6.66
27.17
44.29
57.83
67.49
72.84
73.55
69.85
62.8
54.12
45.64
38.66
33.59
29.93
26.67
22.82
17.93
12.12
6
0.27
-4.7
-8.99
-13.17
-18.01
-24.38
-32.92
-43.92
-57.03
-71.07
-84.01
-93.2
-96.08
-91
-77.8
-58
-34.25
-9.53
13.73
34.01
50.58
63.16
71.48
75.31
74.66
70.05
62.7
54.22
46.17
39.62
34.81
31.33
28.33
24.99
20.83
15.83
10.39
4.99
0.04
-4.42
-8.77
-13.75
-20.27
-29.1
-40.59
-54.29
-68.8
-81.86
-90.76
-93.08
-87.44
-73.99
-54.35
-31.13
-7.1
15.54
35.42
51.88
64.56
73.12
77.24
76.91
72.67
65.8
57.89
50.49
44.55
40.19
36.86
33.67
29.82
24.93
19.13
12.92
6.87
1.39
-3.52
-8.21
-13.34
-19.62
-27.68
-37.91
-50.28
-64.19
-78.24
-90.25
-97.58
-97.83
-89.67
-73.4
-50.99
-25.48
-0.03
22.98
42.22
57.34
68.36
75.21
77.73
75.84
70.05
61.57
52.2
43.7
37.23
32.98
30.21
27.76
24.61
20.31
15.07
9.48
4.06
-1
-5.99
-11.4
-17.76
-25.46
-34.68
-45.46
-57.57
-70.21
-81.86
-90.31
-93.14
-88.5
-75.85
-56.28
-32.24
-6.79
17.33
38.18
54.82
66.96
74.6
77.83
76.85
72.2
64.92
56.47
48.33
41.64
36.77
33.31
30.29
26.73
22.01
16.2
9.92
3.94
-1.18
-5.57
-9.91
-15.21
-22.42
-32.06
-44.13
-57.89
-71.96
-84.29
-92.46
-94.21
-88.04
-73.87
-53.16
-28.54
-3.04
20.74
41.19
57.63
69.94
78.07
81.9
81.4
76.95
69.61
60.94
52.58
45.69
40.57
36.68
33
28.59
23.01
16.51
9.8
3.63
-1.6
-6.09
-10.47
-15.55
-22.04
-30.38
-40.74
-53.02
-66.69
-80.51
-92.45
-99.89
-100.27
-92.01
-75.17
-51.65
-24.55
2.69
27.38
47.91
63.85
75.29
82.47
85.52
84.61
80.23
73.34
65.28
57.37
50.59
45.27
41.1
37.41
33.46
28.8
23.33
17.34
11.25
5.42
-0.04
-5.33
-10.85
-17.07
-24.36
-33.03
-43.26
-55.06
-68.01
-80.97
-92
-98.51
-98.07
-89.2
-72.03
-48.37
-21.27
6.04
30.91
51.69
67.74
78.99
85.65
88.03
86.63
82.26
75.94
68.74
61.53
54.82
48.76
43.34
38.48
34.14
30.29
26.74
23.2
19.24
14.52
8.84
2.26
-4.9
-12.29
-19.54
-26.58
-33.65
-41.31
-50.31
-61.2
-73.91
-87.35
-99.44
-107.39
-108.59
-101.36
-85.65
-63.12
-36.65
-9.53
15.42
36.35
52.5
63.88
70.88
73.94
73.54
70.19
64.63
57.74
50.45
43.55
37.53
32.54
28.43
24.88
21.51
17.98
14.06
9.67
4.89
-0.09
-5.07
-9.94
-14.77
-19.82
-25.53
-32.35
-40.75
-50.94
-62.77
-75.41
-87.21
-95.87
-98.92
-94.46
-81.88
-62.18
-37.75
-11.71
13.01
34.28
51.07
63.22
71.03
74.9
75.21
72.41
67.14
60.28
52.84
45.73
39.57
34.55
30.5
27.02
23.59
19.82
15.45
10.46
4.96
-0.83
-6.71
-12.6
-18.58
-24.96
-32.16
-40.63
-50.76
-62.57
-75.45
-88.03
-98.21
-103.51
-101.84
-92.14
-74.85
-51.9
-26.11
-0.47
22.59
41.56
55.9
65.67
71.31
73.37
72.41
69.06
63.96
57.82
51.27
44.89
39.08
34.01
29.64
25.75
21.99
17.99
13.52
8.54
3.17
-2.42
-8.09
-13.88
-19.97
-26.58
-33.94
-42.22
-51.65
-62.37
-74.24
-86.48
-97.43
-104.7
-105.74
-98.74
-83.38
-61.1
-34.67
-7.35
17.98
39.42
56.09
67.85
74.97
77.87
77.14
73.53
67.99
61.45
54.75
48.41
42.7
37.64
33.14
29.13
25.46
21.94
18.25
14.12
9.28
3.71
-2.37
-8.66
-14.9
-21.06
-27.38
-34.37
-42.63
-52.66
-64.59
-77.84
-91.01
-101.82
-107.66
-106.22
-96.35
-78.52
-54.77
-28.14
-1.76
21.88
41.31
56.01
66.05
71.73
73.49
71.84
67.45
61.21
54.05
46.9
40.46
35.14
31.02
27.79
24.96
21.91
18.19
13.6
8.27
2.55
-3.16
-8.63
-13.92
-19.35
-25.43
-32.66
-41.51
-52.26
-64.74
-78.11
-90.67
-100.01
-103.55
-99.44
-87.15
-67.92
-44.28
-19.33
4.2
24.52
40.79
52.83
60.69
64.43
64.17
60.34
53.8
45.75
37.56
30.31
24.65
20.55
17.52
14.83
11.79
8.03
3.52
-1.49
-6.69
-11.81
-16.8
-21.81
-27.18
-33.43
-41.15
-50.88
-62.67
-75.82
-88.58
-98.4
-102.59
-99.13
-87.47
-68.69
-45.19
-19.84
4.77
26.84
45.33
59.72
69.67
74.94
75.59
72.11
65.61
57.6
49.6
42.73
37.38
33.23
29.48
25.35
20.35
14.55
8.42
2.57
-2.59
-7.04
-11.22
-15.82
-21.58
-29.1
-38.77
-50.56
-63.95
-77.69
-89.79
-97.77
-99.26
-92.78
-78.3
-57.35
-32.59
-6.93
17.12
37.94
54.74
67.27
75.43
79.2
78.74
74.6
67.8
59.75
51.84
45.09
39.78
35.49
31.39
26.62
20.77
14.03
7.07
0.67
-4.73
-9.31
-13.78
-19.11
-26.21
-35.59
-47.34
-60.96
-75.39
-88.9
-99.19
-103.8
-100.79
-89.41
-70.49
-46.2
-19.48
6.9
30.88
51.28
67.53
79.32
86.38
88.65
86.46
80.7
72.76
64.14
56.1
49.32
43.84
39.26
34.93
30.33
25.19
19.56
13.72
8.01
2.6
-2.53
-7.7
-13.43
-20.32
-29.04
-39.95
-53
-67.27
-80.91
-91.3
-95.68
-92.06
-79.86
-60.3
-35.98
-10.1
14.57
36.19
53.93
67.6
77.1
82.3
83.04
79.59
72.83
64.25
55.51
47.93
42.12
37.82
34.26
30.56
26.18
21.07
15.54
10.03
4.79
-0.19
-5.2
-10.61
-16.77
-23.96
-32.39
-42.34
-53.87
-66.59
-79.25
-89.68
-95.21
-93.47
-83.39
-65.65
-42.6
-17.43
6.82
28.11
45.49
58.78
67.99
73.01
73.69
70.2
63.42
54.83
46.2
38.97
33.75
30.25
27.47
24.36
20.24
15.13
9.56
4.26
-0.29
-4.14
-7.81
-12.12
-17.87
-25.67
-35.8
-48.11
-61.88
-75.62
-87.19
-94.03
-93.91
-85.65
-69.63
-47.77
-22.89
2.09
24.95
44.37
59.81
71.04
77.84
80.08
77.89
72.02
63.82
54.95
46.87
40.47
35.81
32.23
28.82
24.74
19.67
13.81
7.75
2.13
-2.61
-6.53
-10.17
-14.38
-20.17
-28.37
-39.34
-52.72
-67.18
-80.51
-89.93
-92.83
-87.54
-73.97
-53.68
-29.37
-4.01
19.89
40.73
57.78
70.77
79.55
83.96
84.05
80.25
73.53
65.27
56.85
49.32
43.07
37.88
33.17
28.33
23
17.2
11.25
5.48
0.12
-4.91
-9.93
-15.42
-21.84
-29.55
-38.87
-49.91
-62.4
-75.43
-87.26
-95.48
-97.55
-91.72
-77.62
-56.66
-31.52
-5.43
18.87
39.64
56.19
68.45
76.59
80.75
81
77.67
71.5
63.62
55.35
47.82
41.74
37.2
33.8
30.81
27.52
23.47
18.62
13.24
7.76
2.48
-2.63
-7.84
-13.57
-20.22
-28.07
-37.32
-48.06
-60.23
-73.2
-85.57
-95.11
-99.25
-95.84
-84.07
-64.82
-40.52
-14.38
10.58
32.21
49.45
62.08
70.27
74.26
74.22
70.5
63.78
55.21
46.18
38.01
31.54
26.89
23.56
20.64
17.33
13.17
8.29
3.12
-1.85
-6.35
-10.62
-15.16
-20.6
-27.34
-35.55
-45.15
-55.98
-67.68
-79.45
-89.87
-96.82
-98.04
-91.8
-77.77
-57.24
-32.83
-7.65
15.62
35.29
50.66
61.7
68.57
71.4
70.41
66.08
59.27
51.24
43.28
36.47
31.28
27.56
24.65
21.7
18.03
13.39
8.03
2.44
-2.83
-7.49
-11.69
-15.9
-20.85
-27.24
-35.67
-46.35
-58.87
-72.07
-84.01
-92.26
-94.51
-89.28
-76.39
-57.1
-33.75
-9.06
14.49
35.15
51.9
64.37
72.49
76.41
76.41
73.06
67.21
59.92
52.31
45.29
39.4
34.68
30.76
27.05
23.01
18.35
13.12
7.64
2.28
-2.75
-7.52
-12.37
-17.85
-24.5
-32.77
-42.98
-55.02
-68.26
-81.23
-91.75
-97.23
-95.47
-85.47
-67.82
-44.74
-19.27
5.52
27.4
45.22
58.71
68.04
73.43
75.01
73.03
68.09
61.2
53.63
46.55
40.68
36.11
32.38
28.88
25.06
20.74
16.05
11.22
6.45
1.7
-3.2
-8.47
-14.23
-20.49
-27.3
-34.9
-43.8
-54.51
-67.11
-80.64
-93.01
-101.27
-102.59
-95.28
-79.48
-57.22
-31.65
-6.05
17.13
36.6
51.97
63.27
70.5
73.59
72.62
68.1
61.09
52.96
44.99
38.07
32.5
28.06
24.27
20.63
16.82
12.74
8.42
3.99
-0.48
-5
-9.68
-14.69
-20.31
-26.77
-34.36
-43.36
-53.92
-65.81
-78.05
-88.87
-95.9
-96.78
-90.01
-75.55
-54.96
-30.92
-6.46
15.98
34.85
49.55
59.95
66.07
67.93
65.65
59.81
51.52
42.34
33.84
27.14
22.59
19.69
17.47
14.92
11.43
6.92
1.83
-3.25
-7.91
-12.06
-16.04
-20.38
-25.71
-32.53
-41.22
-51.85
-64.04
-76.71
-87.98
-95.41
-96.61
-90
-75.44
-54.42
-29.62
-4.11
19.4
39.19
54.47
65.15
71.45
73.66
72.1
67.32
60.19
51.9
43.71
36.64
31.19
27.19
23.91
20.47
16.18
10.9
5.04
-0.71
-5.77
-10.02
-13.89
-18.22
-23.88
-31.59
-41.62
-53.74
-67.15
-80.37
-91.34
-97.66
-97.23
-88.86
-72.82
-50.81
-25.52
0.16
23.8
43.81
59.42
70.37
76.71
78.63
76.64
71.58
64.55
56.8
49.41
43.06
37.95
33.81
30.13
26.32
21.97
16.88
11.14
5.02
-1.14
-7.09
-12.82
-18.57
-24.85
-32.32
-41.63
-53.11
-66.45
-80.37
-92.62
-100.43
-101.25
-93.64
-77.8
-55.59
-29.87
-3.68
20.54
41.29
57.81
69.84
77.24
80.07
78.66
73.86
66.89
59.14
51.81
45.66
40.89
37.22
34.09
30.86
27.07
22.51
17.32
11.82
6.36
1.15
-3.88
-9.01
-14.71
-21.45
-29.69
-39.77
-51.71
-65.02
-78.27
-89.25
-95.24
-93.85
-83.95
-66.15
-42.76
-16.99
8.06
30.22
48.42
62.43
72.29
77.9
79.13
76.08
69.51
60.82
51.77
43.88
38
34.11
31.5
29.16
26.23
22.28
17.36
11.86
6.27
0.86
-4.3
-9.45
-15.01
-21.42
-29.06
-38.24
-49.07
-61.34
-74.23
-86.09
-94.57
-97.13
-91.85
-78.26
-57.61
-32.61
-6.57
17.55
37.82
53.43
64.31
70.65
72.64
70.5
64.75
56.45
47.15
38.52
31.76
27.28
24.56
22.45
19.81
15.95
10.92
5.29
-0.15
-4.89
-8.92
-12.67
-16.84
-22.18
-29.27
-38.5
-49.83
-62.65
-75.52
-86.23
-92.19
-91.15
-82
-65.23
-42.86
-17.77
7.05
29.34
47.74
61.71
71.16
76.15
76.81
73.51
67.06
58.67
49.88
42.02
35.95
31.72
28.7
25.93
22.48
17.91
12.34
6.37
0.65
-4.43
-8.95
-13.41
-18.52
-25.04
-33.54
-44.31
-57.15
-71.12
-84.4
-94.45
-98.56
-94.72
-82.42
-62.9
-38.83
-13.35
10.84
32.04
49.58
63.27
73.04
78.61
79.83
76.95
70.84
62.9
54.66
47.3
41.33
36.58
32.46
28.34
23.81
18.83
13.59
8.34
3.21
-1.85
-7.02
-12.57
-18.69
-25.63
-33.74
-43.4
-54.8
-67.49
-80.05
-90.05
-94.65
-91.51
-79.75
-60.41
-36.12
-10.29
14.05
34.92
51.56
64.03
72.58
77.34
78.23
75.4
69.4
61.39
52.82
45.08
39.02
34.71
31.65
28.91
25.73
21.68
16.78
11.4
5.97
0.81
-4.14
-9.13
-14.56
-20.84
-28.32
-37.3
-47.92
-60.09
-73.04
-85.17
-94.1
-97.22
-92.52
-79.42
-59.15
-34.44
-8.62
15.36
35.61
51.38
62.65
69.63
72.45
71.27
66.56
59.28
50.84
42.77
36.23
31.69
28.82
26.74
24.41
21.1
16.58
11.21
5.65
0.53
-3.87
-7.81
-11.92
-16.98
-23.66
-32.34
-43.03
-55.35
-68.33
-80.33
-89.15
-92.45
-88.44
-76.59
-57.93
-34.85
-10.32
12.92
32.99
48.93
60.47
67.57
70.25
68.71
63.47
55.63
46.7
38.28
31.54
26.93
24.07
22.01
19.71
16.44
12.08
6.98
1.78
-3.02
-7.24
-11.17
-15.36
-20.56
-27.48
-36.59
-47.98
-61.05
-74.31
-85.45
-91.79
-91.05
-82.13
-65.62
-43.6
-19.01
5.29
27.18
45.47
59.64
69.49
74.84
75.69
72.42
65.98
57.86
49.66
42.67
37.5
33.96
31.27
28.41
24.64
19.67
13.8
7.68
1.89
-3.24
-7.91
-12.64
-18.1
-24.84
-33.29
-43.67
-55.9
-69.37
-82.62
-93.38
-98.93
-96.95
-86.4
-68.06
-44.36
-18.58
6.15
27.71
45.16
58.42
67.72
73.18
74.78
72.66
67.39
60.04
52.1
44.92
39.34
35.47
32.63
29.88
26.35
21.68
16.07
10.13
4.53
-0.39
-4.74
-8.99
-13.74
-19.49
-26.57
-35.18
-45.48
-57.41
-70.46
-83.26
-93.59
-98.7
-96.24
-85.12
-66.09
-41.64
-15.13
10.16
31.98
49.31
62.09
70.68
75.32
76.17
73.44
67.78
60.28
52.37
45.28
39.81
36.02
33.4
31.14
28.47
24.93
20.4
15.16
9.62
4.12
-1.16
-6.32
-11.63
-17.46
-24.12
-32
-41.44
-52.58
-65.11
-77.85
-88.73
-95.1
-94.57
-85.8
-69.18
-46.74
-21.54
3.27
25.25
43.02
56.13
64.65
68.88
69.19
66.04
60.18
52.64
44.67
37.37
31.56
27.49
24.82
22.77
20.48
17.3
12.94
7.7
2.12
-3.23
-7.98
-12.19
-16.31
-21
-26.92
-34.67
-44.56
-56.48
-69.68
-82.58
-92.86
-97.9
-95.53
-84.79
-66.49
-42.92
-17.25
7.47
29.03
46.26
58.9
67.09
71.13
71.31
68.1
62.27
54.87
47.14
40.14
34.59
30.6
27.76
25.27
22.31
18.38
13.44
7.96
2.59
-2.21
-6.43
-10.57
-15.38
-21.62
-29.77
-40
-52.07
-65.23
-78.13
-88.76
-94.71
-93.79
-84.85
-68.26
-46.05
-21.24
3.11
24.69
42.31
55.71
65.01
70.35
71.79
69.57
64.35
57.32
49.86
43.19
37.95
34.11
31.07
28.11
24.59
20.27
15.21
9.72
4.16
-1.24
-6.36
-11.4
-16.67
-22.67
-30.03
-39.27
-50.7
-63.95
-77.72
-89.77
-97.32
-97.86
-90.06
-74.31
-52.62
-27.97
-3.38
18.92
37.7
52.51
63.23
69.73
71.94
70.05
64.84
57.62
49.97
43.23
38.13
34.58
31.92
29.21
25.75
21.27
16.01
10.49
5.24
0.56
-3.64
-7.76
-12.41
-18.23
-25.75
-35.33
-47
-60.25
-73.79
-85.58
-93.06
-93.9
-86.73
-71.76
-50.84
-26.85
-2.87
18.75
36.71
50.66
60.68
66.87
69.2
67.7
62.85
55.7
47.73
40.39
34.65
30.67
27.87
25.33
22.16
17.96
12.86
7.39
2.16
-2.51
-6.71
-10.97
-15.94
-22.24
-30.24
-40.05
-51.42
-63.61
-75.28
-84.46
-88.96
-86.84
-77.29
-60.91
-39.71
-16.44
6.19
26.16
42.42
54.55
62.5
66.28
65.99
62.06
55.39
47.34
39.4
32.8
28.13
25.21
23.29
21.4
18.74
15
10.38
5.42
0.7
-3.51
-7.37
-11.44
-16.55
-23.46
-32.71
-44.29
-57.53
-70.88
-82.12
-88.76
-88.6
-80.6
-65.19
-44.35
-20.92
2.21
22.85
39.82
52.73
61.59
66.42
67.28
64.44
58.74
51.52
44.34
38.46
34.37
31.75
29.63
27.01
23.23
18.31
12.74
7.18
2.12
-2.41
-6.78
-11.63
-17.59
-25.16
-34.66
-46.07
-58.86
-71.74
-82.67
-89.12
-88.77
-80.41
-64.44
-42.93
-18.95
4.38
24.88
41.54
54.43
63.97
70.4
73.62
73.41
69.86
63.73
56.36
49.27
43.58
39.68
37.11
34.91
32.08
28.06
22.87
16.98
10.99
5.26
-0.2
-5.75
-11.82
-18.83
-27.01
-36.49
-47.38
-59.62
-72.73
-85.38
-95.41
-100.09
-97.13
-85.49
-66.02
-41.3
-14.77
10.31
31.8
48.81
61.47
70.24
75.57
77.74
77.05
74.05
69.48
64.21
58.89
53.91
49.4
45.32
41.62
38.18
34.85
31.39
27.5
22.91
17.53
11.41
4.71
-2.3
-9.47
-16.67
-23.91
-31.38
-39.46
-48.75
-59.78
-72.61
-86.23
-98.5
-106.31
-106.61
-97.51
-79.12
-53.68
-24.8
3.72
29.03
49.65
65.36
76.51
83.45
86.38
85.57
81.74
76.06
70.02
64.73
60.66
57.51
54.52
50.97
46.6
41.69
36.72
32.1
27.77
23.28
17.99
11.43
3.63
-4.93
-13.48
-21.33
-28.15
-34.17
-40.11
-46.95
-55.59
-66.5
-79.27
-92.41
-103.48
-109.62
-108.35
-98.56
-80.85
-57.57
-31.95
-7.22
14.33
31.59
44.4
53.1
58.04
59.56
58.04
54.16
48.89
43.26
38.12
33.91
30.68
28.18
26.15
24.38
22.7
20.89
18.65
15.61
11.55
6.45
0.54
-5.77
-12.13
-18.42
-24.76
-31.55
-39.3
-48.51
-59.36
-71.44
-83.5
-93.4
-98.58
-96.71
-86.59
-68.73
-45.31
-19.51
5.41
27.06
44.31
57.02
65.68
70.76
72.63
71.58
68.01
62.63
56.32
50.02
44.38
39.76
36.1
33.05
30.18
27.04
23.36
19.01
14.1
8.81
3.32
-2.31
-8.12
-14.24
-20.87
-28.23
-36.64
-46.44
-57.92
-70.86
-84.19
-95.89
-103.19
-103.54
-95.38
-78.99
-56.39
-30.74
-5.31
17.41
36.1
50.48
60.8
67.49
70.84
71.22
69.13
65.29
60.49
55.42
50.5
45.9
41.7
37.95
34.71
31.95
29.41
26.66
23.22
18.75
13.2
6.84
0.06
-6.83
-13.73
-20.81
-28.37
-36.79
-46.49
-57.77
-70.56
-84.09
-96.62
-105.59
-108.29
-102.73
-88.56
-67.22
-41.61
-15.06
9.61
30.6
47.2
59.37
67.37
71.56
72.4
70.62
67.14
62.95
58.79
55.02
51.54
48.06
44.33
40.35
36.38
32.74
29.62
26.91
24.12
20.62
15.86
9.65
2.14
-6.09
-14.38
-22.19
-29.37
-36.2
-43.43
-52.05
-62.83
-75.87
-90.09
-103.17
-112
-113.58
-106.05
-89.44
-65.81
-38.5
-11.19
13.19
33
47.89
58.29
64.86
68.14
68.47
66.27
62.1
56.82
51.34
46.38
42.27
38.91
35.93
32.91
29.67
26.17
22.57
18.93
15.12
10.87
5.86
-0.02
-6.65
-13.65
-20.64
-27.42
-34.2
-41.6
-50.43
-61.23
-73.78
-86.65
-97.39
-103.04
-101.12
-90.55
-72.17
-48.46
-22.77
1.82
23.15
40.31
53.26
62.32
67.79
69.81
68.6
64.66
58.86
52.29
45.97
40.6
36.39
33.16
30.4
27.55
24.15
19.96
14.99
9.42
3.5
-2.5
-8.44
-14.28
-20.2
-26.44
-33.41
-41.63
-51.65
-63.7
-77.33
-90.99
-102.11
-107.68
-105.16
-93.59
-74.02
-49.26
-22.9
1.86
22.98
39.79
52.5
61.55
67.18
69.44
68.44
64.64
59.01
52.71
46.84
42.09
38.63
36.22
34.36
32.48
30.12
26.95
22.81
17.77
12.05
5.92
-0.41
-6.87
-13.6
-20.91
-29.21
-38.93
-50.4
-63.55
-77.56
-90.68
-100.35
-103.77
-98.92
-85.31
-64.39
-39.07
-12.84
11.39
31.86
48.04
60.13
68.52
73.53
75.39
74.52
71.65
67.71
63.59
59.84
56.59
53.67
50.85
47.99
45.12
42.29
39.4
36.17
32.17
27.14
21.18
14.83
8.87
4.05
0.71
-1.38
-2.94
-4.9
-7.94
-12.27
-17.61
-23.35
-28.94
-34.12
-39.01
-44.13
-50.22
-58.03
-68.09
-80.28
-93.51
-105.61
-113.73
-115.05
-107.8
-91.95
-69.36
-43.17
-16.76
7.22
27.28
43.04
54.74
62.74
67.31
68.66
67.15
63.46
58.45
53.05
48.01
43.72
40.24
37.34
34.64
31.73
28.26
24.1
19.26
13.95
8.4
2.8
-2.81
-8.56
-14.73
-21.69
-29.82
-39.54
-51.03
-64.01
-77.32
-88.9
-96.03
-96.19
-88.01
-71.85
-49.88
-25.24
-1.17
20.03
37.24
50.31
59.55
65.21
67.44
66.4
62.58
56.87
50.41
44.27
39.15
35.19
32
29
25.58
21.43
16.6
11.39
6.16
1.09
-3.84
-8.88
-14.31
-20.36
-27.23
-35.18
-44.58
-55.67
-68.18
-80.84
-91.38
-96.94
-95.06
-84.72
-66.82
-44.01
-19.66
3.22
22.84
38.64
50.91
60.01
66
68.66
67.91
64.13
58.3
51.75
45.67
40.79
37.14
34.15
31.06
27.19
22.29
16.58
10.58
4.84
-0.38
-5.16
-9.98
-15.43
-22.07
-30.3
-40.3
-52.04
-65.04
-78.21
-89.66
-96.94
-97.67
-90.35
-75.06
-53.6
-28.98
-4.42
17.57
35.69
49.76
60.17
67.27
71.13
71.63
68.82
63.32
56.29
49.22
43.38
39.34
36.85
34.95
32.57
28.93
23.91
18
11.97
6.4
1.42
-3.31
-8.43
-14.52
-21.94
-30.8
-41.12
-52.83
-65.52
-78.19
-88.96
-95.41
-95.18
-86.93
-70.94
-49.18
-24.69
-0.55
20.98
38.86
53.02
63.88
71.72
76.55
78.24
76.87
72.95
67.37
61.2
55.35
50.32
46.13
42.41
38.64
34.35
29.22
23.26
16.67
9.85
3.13
-3.24
-9.34
-15.43
-21.96
-29.4
-38.24
-48.75
-60.92
-74.15
-86.99
-97.19
-102.12
-99.63
-88.82
-70.65
-47.61
-22.94
0.42
20.6
36.94
49.58
58.87
64.93
67.71
67.21
63.88
58.65
52.71
47.19
42.79
39.65
37.41
35.44
33.12
30
25.99
21.25
16.09
10.81
5.51
0.09
-5.69
-12.12
-19.43
-27.88
-37.74
-49.19
-61.99
-75.1
-86.65
-94.15
-95.25
-88.6
-74.4
-54.46
-31.59
-8.77
11.69
28.44
41.05
49.61
54.37
55.63
53.81
49.54
43.77
37.57
31.93
27.48
24.37
22.26
20.54
18.55
15.87
12.35
8.24
3.9
-0.33
-4.34
-8.32
-12.71
-18.07
-24.94
-33.77
-44.73
-57.56
-71.28
-84.07
-93.48
-97
-92.84
-80.7
-61.95
-39.15
-15.27
7.31
27.22
44.02
57.68
67.99
74.53
76.76
74.66
68.92
61.01
52.7
45.41
39.84
35.78
32.39
28.65
23.82
17.66
10.46
2.83
-4.6
-11.37
-17.41
-23.01
-28.77
-35.45
-43.83
-54.49
-67.43
-81.86
-95.92
-106.89
-111.76
-108.11
-95.13
-73.98
-47.64
-19.82
6.16
28.26
45.91
59.4
69.22
75.47
77.96
76.58
71.8
64.8
57.21
50.52
45.56
42.3
39.99
37.63
34.38
29.92
24.42
18.35
12.25
6.39
0.72
-5.13
-11.66
-19.43
-28.89
-40.32
-53.7
-68.4
-83.05
-95.36
-102.61
-102.33
-93.23
-75.77
-52.15
-25.62
0.57
24.01
43.49
58.76
70.04
77.52
81.23
81.27
78.03
72.38
65.48
58.53
52.42
47.53
43.72
40.46
37.08
33.03
28.08
22.38
16.31
10.27
4.46
-1.23
-7.19
-13.82
-21.48
-30.43
-40.84
-52.79
-65.97
-79.41
-91.16
-98.67
-99.33
-91.59
-75.54
-53.06
-27.24
-1.34
22.07
41.6
56.81
67.81
74.76
77.77
77.07
73.16
67.06
60.01
53.22
47.48
43.01
39.44
36.07
32.19
27.34
21.49
14.96
8.32
2.06
-3.55
-8.62
-13.64
-19.26
-26.19
-34.96
-45.83
-58.51
-72.05
-84.73
-94.17
-97.95
-94.18
-82.32
-63.36
-39.67
-14.24
10.17
31.63
49.23
62.76
72.22
77.63
78.94
76.39
70.73
63.27
55.54
48.86
43.88
40.42
37.7
34.72
30.73
25.54
19.46
13.09
7
1.4
-3.86
-9.29
-15.51
-23.1
-32.47
-43.75
-56.69
-70.44
-83.38
-93.24
-97.54
-94.28
-82.73
-63.83
-39.98
-14.27
10.4
32.06
49.79
63.42
73.02
78.55
79.95
77.38
71.57
63.77
55.5
48.02
42
37.3
33.23
29.01
24.11
18.52
12.63
6.97
1.88
-2.68
-7.11
-12
-17.89
-25.19
-34.17
-44.96
-57.41
-70.77
-83.49
-93.22
-97.35
-93.79
-81.84
-62.56
-38.51
-12.87
11.5
32.77
50.18
63.67
73.37
79.22
81.16
79.32
74.35
67.32
59.54
52.19
45.92
40.85
36.55
32.4
27.83
22.59
16.77
10.79
5.07
-0.11
-4.81
-9.4
-14.37
-20.2
-27.26
-35.81
-46.08
-58.12
-71.45
-84.67
-95.51
-101.12
-99.13
-88.47
-69.98
-46.14
-20.26
4.52
26.12
43.6
56.87
66.17
71.65
73.39
71.62
66.99
60.54
53.58
47.2
42.02
38.01
34.67
31.23
27.11
22.1
16.38
10.44
4.75
-0.43
-5.18
-9.88
-15.04
-21.16
-28.59
-37.59
-48.21
-60.17
-72.63
-84
-92.08
-94.54
-89.71
-77.19
-58.2
-35.17
-11.06
11.5
30.76
45.9
56.78
63.49
66.17
65.07
60.64
53.83
45.89
38.21
31.87
27.34
24.34
22
19.28
15.36
10.05
3.74
-2.83
-8.94
-14.28
-19.03
-23.78
-29.27
-36.15
-44.85
-55.45
-67.54
-80.03
-91.08
-98.35
-99.54
-93.18
-79.25
-59.2
-35.59
-11.2
11.63
31.43
47.47
59.37
66.96
70.08
68.96
64.31
57.37
49.63
42.41
36.52
32.01
28.41
24.96
21
16.28
10.92
5.38
0.14
-4.56
-8.83
-13.13
-18.15
-24.6
-33.05
-43.69
-56.11
-69.14
-80.83
-88.79
-90.72
-85.17
-72.1
-52.94
-30.22
-6.73
15.17
34.09
49.44
61.15
69.14
73.2
73.15
69.19
62.16
53.53
44.92
37.62
32.16
28.14
24.63
20.66
15.71
9.9
3.82
-1.82
-6.61
-10.67
-14.57
-19.15
-25.14
-33.03
-42.96
-54.69
-67.5
-80.06
-90.41
-96.2
-95.32
-86.56
-70.24
-48.16
-23.13
1.9
24.59
43.59
58.44
69.14
75.85
78.7
77.95
74.13
68.1
60.99
53.82
47.39
42.04
37.7
33.95
30.24
26.12
21.31
15.86
10
4.07
-1.72
-7.36
-13.02
-19.06
-25.8
-33.58
-42.69
-53.37
-65.55
-78.63
-91.12
-100.69
-104.67
-100.91
-88.6
-68.69
-43.66
-16.73
9.1
31.76
50.26
64.33
74.13
79.81
81.58
79.87
75.41
69.27
62.53
56.1
50.44
45.62
41.43
37.59
33.86
30.11
26.22
22.05
17.4
12.12
6.19
-0.22
-6.94
-13.76
-20.73
-28.08
-36.28
-45.79
-56.92
-69.41
-82.25
-93.59
-100.98
-102.09
-95.36
-80.73
-59.66
-34.73
-8.89
15.4
36.46
53.49
66.15
74.37
78.27
78.28
75.21
70.15
64.21
58.2
52.52
47.17
42.06
37.16
32.59
28.46
24.73
21.1
17.13
12.45
6.91
0.65
-5.98
-12.68
-19.26
-25.75
-32.38
-39.48
-47.48
-56.86
-67.9
-80.31
-92.94
-103.65
-109.68
-108.5
-98.71
-80.65
-56.41
-29.12
-2.04
22.34
42.63
58.4
69.81
77.17
80.81
81.15
78.8
74.53
69.18
63.46
57.83
52.51
47.59
43.16
39.32
36.07
33.24
30.4
27.01
22.58
16.87
10.06
2.54
-5.23
-12.96
-20.62
-28.43
-36.72
-45.91
-56.4
-68.38
-81.54
-94.7
-105.76
-112.05
-111.06
-101.44
-83.58
-59.59
-32.59
-5.7
18.8
39.71
56.7
69.74
78.75
83.63
84.5
81.99
77.2
71.46
65.83
60.83
56.39
52.07
47.52
42.67
37.87
33.6
30.23
27.66
25.31
22.31
17.81
11.41
3.25
-5.95
-15.29
-24.03
-31.85
-39.05
-46.35
-54.7
-64.9
-77.24
-91.18
-105.21
-116.99
-123.78
-123.3
-114.31
-97.13
-73.55
-46.26
-18.15
8.38
31.75
51.14
66.2
76.83
83.06
85.16
83.77
79.93
74.89
69.77
65.31
61.64
58.43
55.14
51.37
47.12
42.76
38.81
35.59
33.03
30.53
27.29
22.57
16.03
7.91
-1.13
-10.29
-18.93
-26.83
-34.19
-41.46
-49.25
-58.15
-68.64
-80.87
-94.28
-107.42
-117.91
-122.98
-120.33
-108.98
-89.76
-65.02
-37.89
-11.21
13.03
33.88
51.07
64.46
73.88
79.1
80.15
77.63
72.66
66.67
60.93
56.22
52.6
49.62
46.63
43.16
39.18
35.04
31.29
28.23
25.75
23.24
19.92
15.07
8.46
0.38
-8.44
-17.14
-25.12
-32.21
-38.7
-45.2
-52.42
-60.92
-71.03
-82.66
-95.17
-107.28
-116.99
-122.01
-120.24
-110.52
-93.07
-69.62
-42.87
-15.78
9.17
30.44
47.34
59.79
67.95
72.13
72.74
70.44
66.19
60.99
55.69
50.76
46.24
41.94
37.7
33.57
29.83
26.78
24.5
22.69
20.72
17.83
13.46
7.42
-0.02
-8.2
-16.43
-24.15
-31.19
-37.78
-44.57
-52.38
-62.06
-73.95
-87.56
-101.32
-112.66
-118.64
-116.79
-106.02
-87.06
-62.26
-34.83
-7.89
16.37
36.79
53.09
65.31
73.51
77.75
78.23
75.57
70.78
65.01
59.2
53.85
48.93
44.14
39.26
34.32
29.64
25.59
22.21
19.12
15.59
10.91
4.71
-2.78
-10.94
-19.03
-26.6
-33.74
-40.98
-49.18
-59.09
-71.14
-85.03
-99.56
-112.64
-121.6
-123.85
-117.62
-102.63
-80.24
-53.08
-24.28
3.31
27.68
47.74
63.11
73.89
80.39
83.14
82.84
80.33
76.44
71.76
66.64
61.19
55.5
49.72
44.19
39.27
35.14
31.71
28.51
24.91
20.31
14.38
7.16
-1.01
-9.64
-18.31
-26.78
-35.08
-43.51
-52.64
-63.09
-75.29
-89.08
-103.29
-115.72
-123.48
-123.84
-115.13
-97.42
-72.55
-43.59
-13.89
13.81
37.75
57.18
71.98
82.3
88.34
90.4
89.06
85.16
79.7
73.63
67.59
61.82
56.28
50.83
45.48
40.48
36.08
32.42
29.23
25.89
21.66
15.95
8.65
0.13
-8.92
-17.82
-26.14
-33.94
-41.69
-50.18
-60.31
-72.64
-87.03
-102.27
-115.99
-125.11
-126.67
-118.79
-101.4
-76.35
-46.85
-16.45
11.91
36.4
56.32
71.63
82.46
89.02
91.51
90.44
86.69
81.36
75.49
69.72
64.23
58.82
53.31
47.71
42.26
37.33
33.02
29.09
24.93
19.86
13.42
5.6
-3.21
-12.3
-21.06
-29.21
-37.07
-45.46
-55.4
-67.62
-81.87
-96.64
-109.21
-116.35
-115.33
-104.84
-85.53
-59.78
-30.91
-2.24
23.73
45.48
62.4
74.38
81.57
84.32
83.18
78.99
72.76
65.53
58.16
51.26
45.1
39.75
35.08
30.88
26.87
22.73
18.25
13.29
7.86
2.02
-4.12
-10.56
-17.35
-24.65
-32.72
-41.93
-52.71
-65.3
-79.43
-93.87
-106.38
-114.02
-113.99
-104.62
-86.06
-60.33
-30.74
-0.83
26.58
49.74
67.95
81.16
89.51
93.28
92.9
89.1
82.9
75.4
67.58
60.11
53.33
47.32
42.08
37.51
33.49
29.77
25.99
21.74
16.66
10.57
3.5
-4.25
-12.35
-20.5
-28.63
-37.01
-46.21
-57.01
-69.89
-84.67
-100.05
-113.63
-122.33
-123.27
-114.77
-96.9
-71.58
-41.87
-11.15
17.79
43.09
63.75
79.36
89.78
95.17
96.01
93.26
88.2
82.1
75.93
70.12
64.59
59.03
53.25
47.33
41.7
36.82
32.92
29.83
26.85
23.13
17.94
11.02
2.65
-6.47
-15.53
-23.98
-31.67
-38.95
-46.5
-55.2
-65.83
-78.82
-93.78
-109.27
-122.72
-130.92
-130.96
-121.15
-101.79
-75.05
-44.33
-13.14
15.73
40.64
60.98
76.58
87.44
93.57
95.17
92.92
87.97
81.76
75.54
70.08
65.44
61.19
56.79
51.89
46.62
41.46
36.98
33.44
30.6
27.69
23.74
18.06
10.5
1.55
-7.86
-16.84
-24.89
-32.13
-39.23
-47.17
-56.82
-68.73
-82.71
-97.7
-111.66
-121.85
-125.48
-120.45
-106.2
-83.86
-56.08
-26.1
2.99
28.93
50.4
66.84
78.14
84.51
86.49
84.9
80.87
75.57
69.95
64.55
59.48
54.59
49.72
44.9
40.33
36.29
32.93
30.08
27.25
23.77
19.13
13.12
5.99
-1.72
-9.4
-16.61
-23.41
-30.18
-37.71
-46.79
-57.99
-71.21
-85.41
-98.55
-107.92
-110.76
-105.19
-90.85
-69.07
-42.53
-14.53
11.94
34.71
52.61
65.32
73.08
76.39
75.92
72.54
67.15
60.72
54.01
47.58
41.71
36.49
31.87
27.81
24.23
20.98
17.87
14.55
10.69
6.06
0.65
-5.37
-11.74
-18.23
-24.84
-31.74
-39.33
-48.05
-58.33
-70.27
-83.43
-96.49
-107.27
-113.1
-111.48
-101.09
-82.26
-57.09
-28.85
-0.94
23.9
44.15
59.42
70.03
76.52
79.4
79.04
75.87
70.48
63.64
56.29
49.26
43.16
38.2
34.21
30.7
27.13
23.06
18.32
13.05
7.49
1.86
-3.83
-9.78
-16.29
-23.63
-31.94
-41.38
-52.08
-64.2
-77.57
-91.27
-103.42
-111.31
-112.23
-104.39
-87.77
-64.24
-36.98
-9.44
15.6
36.54
52.91
64.85
72.73
76.83
77.43
74.9
69.89
63.3
56.1
49.21
43.21
38.33
34.4
30.99
27.63
23.85
19.42
14.33
8.73
2.8
-3.3
-9.55
-16.08
-23.08
-30.88
-39.84
-50.39
-62.73
-76.56
-90.71
-103.06
-110.9
-111.61
-103.63
-87.03
-63.68
-36.66
-9.31
15.64
36.61
53.09
65.25
73.41
77.85
78.77
76.47
71.61
65.06
57.89
50.98
44.9
39.78
35.44
31.53
27.72
23.8
19.6
15.09
10.19
4.94
-0.63
-6.49
-12.72
-19.47
-27.03
-35.87
-46.38
-58.72
-72.42
-86.05
-97.32
-103.48
-102.12
-92.06
-73.88
-49.8
-23.04
3.15
26.38
45.37
59.88
70.1
76.34
78.78
77.71
73.65
67.47
60.26
53.09
46.7
41.41
37.11
33.44
30
26.44
22.53
18.18
13.34
8.02
2.29
-3.76
-10.07
-16.6
-23.45
-30.88
-39.3
-49.23
-60.98
-74.27
-87.83
-99.37
-106
-105.04
-95.14
-76.75
-52.2
-24.85
1.88
25.49
44.7
59.21
69.22
74.91
76.44
74.07
68.49
60.84
52.52
44.82
38.53
33.81
30.29
27.35
24.38
20.96
16.97
12.41
7.43
2.14
-3.34
-9
-14.88
-21.1
-27.97
-35.87
-45.26
-56.41
-69.13
-82.35
-94.1
-101.75
-102.7
-95.31
-79.55
-57.13
-31
-4.4
20.06
40.85
57.42
69.76
77.9
81.8
81.51
77.47
70.69
62.58
54.57
47.73
42.44
38.47
35.21
31.98
28.32
24.02
19.16
13.88
8.29
2.41
-3.86
-10.57
-17.73
-25.31
-33.36
-42.19
-52.34
-64.26
-77.76
-91.54
-103.11
-109.32
-107.41
-96.05
-75.99
-49.83
-21.16
6.57
30.93
50.74
65.84
76.45
82.88
85.35
84.27
80.36
74.68
68.36
62.29
56.89
52.08
47.58
43.1
38.57
34.16
30.04
26.23
22.5
18.38
13.45
7.43
0.36
-7.44
-15.54
-23.6
-31.54
-39.67
-48.65
-59.25
-71.81
-85.79
-99.37
-109.71
-113.65
-108.79
-94.47
-72.02
-44.4
-15.17
12.48
36.48
55.87
70.46
80.31
85.58
86.6
84.06
79.15
73.23
67.53
62.69
58.68
55.01
51.16
46.92
42.53
38.48
35.1
32.3
29.48
25.83
20.67
13.82
5.65
-3.12
-11.7
-19.61
-26.88
-33.95
-41.58
-50.59
-61.61
-74.69
-89.09
-102.99
-113.74
-118.47
-114.87
-102.12
-81.14
-54.47
-25.4
2.85
27.9
48.38
63.8
74.24
80.05
81.79
80.24
76.38
71.22
65.61
60.08
54.81
49.82
45.06
40.62
36.69
33.39
30.65
28.12
25.26
21.53
16.63
10.59
3.74
-3.53
-10.91
-18.29
-25.73
-33.47
-41.93
-51.59
-62.81
-75.4
-88.2
-98.99
-104.91
-103.36
-92.94
-74.24
-49.61
-22.48
3.78
26.72
45.09
58.66
67.67
72.49
73.51
71.2
66.3
59.79
52.73
45.99
40.14
35.32
31.39
28.07
25.03
22
18.73
15.07
10.96
6.4
1.49
-3.65
-8.92
-14.34
-20.03
-26.25
-33.42
-41.98
-52.35
-64.56
-78.02
-91.17
-101.61
-106.59
-103.79
-92.22
-72.69
-47.67
-20.51
5.49
28.03
45.98
59.29
68.31
73.48
75.09
73.4
68.96
62.65
55.62
48.92
43.19
38.49
34.38
30.25
25.52
19.93
13.52
6.64
-0.29
-6.88
-12.89
-18.38
-23.62
-29.12
-35.44
-43.1
-52.46
-63.62
-76.14
-88.93
-100.12
-107.28
-108.01
-100.6
-84.92
-62.5
-36.22
-9.42
15.06
35.5
51.35
62.76
70.16
73.86
74.1
71.28
66.09
59.5
52.6
46.23
40.83
36.37
32.49
28.75
24.76
20.33
15.47
10.35
5.13
-0.1
-5.4
-10.98
-17.09
-23.99
-31.93
-41.18
-52.04
-64.63
-78.51
-92.3
-103.7
-109.93
-108.58
-98.58
-80.65
-57.07
-30.96
-5.19
18.18
38.13
54.28
66.5
74.67
78.67
78.68
75.28
69.42
62.24
54.78
47.79
41.71
36.65
32.44
28.72
25.02
20.97
16.32
11.11
5.57
0.02
-5.33
-10.48
-15.65
-21.32
-28.01
-36.28
-46.48
-58.6
-71.92
-84.79
-94.78
-99.14
-95.72
-83.69
-64.1
-39.48
-13.13
11.88
33.43
50.53
63.06
71.26
75.48
76.06
73.51
68.62
62.4
55.9
49.93
44.87
40.71
37.18
33.92
30.64
27.13
23.31
19.15
14.69
9.98
5.04
-0.15
-5.72
-11.83
-18.73
-26.69
-35.98
-46.83
-59.14
-72.22
-84.55
-93.8
-97.34
-93.08
-80.32
-60.16
-35.34
-9.28
14.9
35.17
50.78
61.83
68.79
72.02
71.78
68.42
62.61
55.4
47.99
41.38
36.11
32.19
29.17
26.49
23.62
20.25
16.33
11.91
7.08
1.9
-3.54
-9.23
-15.12
-21.22
-27.71
-34.93
-43.48
-53.82
-65.94
-78.87
-90.66
-98.54
-99.84
-92.89
-77.66
-55.94
-30.72
-5.29
17.7
36.7
51.28
61.6
67.98
70.61
69.7
65.69
59.38
51.98
44.8
38.81
34.41
31.3
28.76
25.9
22.16
17.44
12.04
6.51
1.27
-3.51
-8
-12.56
-17.66
-23.72
-31.17
-40.38
-51.51
-64.28
-77.57
-89.37
-96.93
-97.65
-89.89
-73.71
-50.99
-24.86
1.21
24.49
43.41
57.6
67.43
73.42
75.99
75.4
72.01
66.46
59.7
52.78
46.58
41.52
37.52
34.1
30.68
26.84
22.44
17.58
12.53
7.49
2.52
-2.47
-7.74
-13.55
-20.12
-27.66
-36.43
-46.75
-58.8
-72.19
-85.67
-96.93
-103.1
-101.57
-91
-72
-46.96
-19.44
7.1
30.1
48.38
61.83
70.91
76.17
78.01
76.79
73.03
67.51
61.13
54.81
49.17
44.49
40.64
37.29
34.02
30.45
26.38
21.76
16.65
11.17
5.4
-0.61
-6.89
-13.5
-20.49
-27.99
-36.24
-45.6
-56.45
-68.83
-82.02
-94.28
-102.96
-105.27
-99.14
-84.2
-62
-35.58
-8.53
16.12
36.52
52.14
63.28
70.59
74.63
75.74
74.27
70.64
65.51
59.59
53.63
48.09
43.2
38.92
35.08
31.51
28.06
24.58
20.89
16.79
12.05
6.57
0.43
-6.16
-12.92
-19.76
-26.76
-34.32
-42.99
-53.29
-65.31
-78.35
-90.7
-99.8
-102.88
-97.86
-84.19
-63.24
-37.9
-11.71
12.25
32.04
47.07
57.61
64.27
67.52
67.63
64.89
59.84
53.34
46.41
40
34.73
30.73
27.73
25.22
22.66
19.64
15.99
11.72
7
1.98
-3.25
-8.66
-14.37
-20.52
-27.3
-35.01
-44
-54.54
-66.43
-78.72
-89.56
-96.47
-97.06
-89.79
-74.74
-53.61
-29.24
-4.76
17.34
35.61
49.6
59.49
65.52
67.8
66.44
61.73
54.52
46.07
37.83
31
26.15
23.1
21.12
19.28
16.84
13.44
9.24
4.66
0.15
-4.07
-8.17
-12.61
-17.96
-24.77
-33.4
-44.02
-56.4
-69.82
-82.8
-93.18
-98.49
-96.66
-86.8
-69.61
-47.33
-22.97
0.56
21.19
37.95
50.65
59.48
64.61
66.13
64.24
59.51
52.91
45.68
39
33.62
29.71
26.84
24.27
21.24
17.26
12.29
6.59
0.59
-5.35
-11.09
-16.75
-22.59
-28.97
-36.33
-45.13
-55.75
-68.18
-81.65
-94.39
-103.76
-106.99
-102.08
-88.67
-68.21
-43.56
-17.99
5.86
26.41
43.15
56.11
65.27
70.49
71.6
68.87
63.2
56.02
48.84
42.78
38.24
34.89
31.99
28.78
24.83
20.13
14.96
9.7
4.61
-0.27
-5.1
-10.16
-15.8
-22.4
-30.42
-40.3
-52.35
-66.32
-81.04
-94.27
-103.08
-104.6
-97.06
-80.58
-57.21
-30.3
-3.37
20.85
41.01
56.79
68.43
76.1
79.7
79.15
74.76
67.56
59.11
51.1
44.75
40.45
37.77
35.69
33.12
29.34
24.22
18.13
11.7
5.49
-0.31
-5.86
-11.63
-18.12
-25.82
-35.06
-46.03
-58.65
-72.28
-85.52
-96.16
-101.58
-99.54
-89.06
-70.84
-47.17
-21.17
4.19
26.73
45.35
59.63
69.55
75.06
76.22
73.35
67.29
59.4
51.21
44.05
38.65
34.93
32.12
29.2
25.28
20.03
13.79
7.34
1.48
-3.44
-7.69
-12.05
-17.48
-24.76
-34.3
-46.05
-59.58
-73.81
-87.01
-96.78
-100.52
-96.21
-83.2
-62.64
-37.2
-10.23
15.28
37.31
54.98
68.1
76.66
80.68
80.24
75.92
68.89
60.81
53.33
47.52
43.6
40.94
38.46
35.16
30.51
24.64
18.14
11.73
5.86
0.55
-4.64
-10.37
-17.3
-26.01
-36.87
-49.9
-64.46
-79.02
-91.18
-98.07
-97.25
-87.61
-69.88
-46.42
-20.48
4.92
27.66
46.75
61.9
73.07
80.05
82.63
80.89
75.47
67.72
59.25
51.56
45.57
41.29
38.08
34.88
30.83
25.51
19.13
12.32
5.79
-0.08
-5.39
-10.68
-16.79
-24.48
-34.33
-46.43
-60.31
-74.75
-87.78
-96.97
-99.91
-94.94
-81.63
-61.1
-35.64
-8.17
18.49
42.19
61.55
75.94
85.14
89.25
88.63
84.01
76.55
67.71
59.06
51.82
46.52
42.87
39.92
36.54
31.89
25.8
18.73
11.57
5.04
-0.52
-5.39
-10.25
-16
-23.5
-33.36
-45.83
-60.46
-75.94
-89.92
-99.39
-101.48
-94.36
-78.11
-54.76
-27.64
-0.33
24.44
45.21
61.64
73.87
82
85.86
85.37
80.85
73.34
64.49
56.03
49.24
44.51
41.35
38.7
35.48
31.05
25.46
19.28
13.24
7.82
2.98
-1.78
-7.21
-13.96
-22.46
-32.84
-45
-58.52
-72.47
-85.22
-94.46
-97.72
-93.07
-80
-59.72
-34.89
-8.81
15.61
36.42
52.82
64.73
72.31
75.65
74.87
70.39
63.19
54.74
46.58
39.87
34.97
31.41
28.24
24.48
19.57
13.59
7.13
0.93
-4.51
-9.14
-13.39
-18.03
-23.85
-31.54
-41.5
-53.57
-66.97
-80.07
-90.54
-95.84
-93.91
-83.94
-66.72
-44.48
-20.11
3.67
24.88
42.52
56.09
65.29
69.84
69.66
65.24
57.81
49.16
41.08
34.78
30.48
27.55
24.91
21.59
17.12
11.65
5.84
0.36
-4.29
-8.15
-11.69
-15.73
-21.22
-28.91
-39.21
-51.86
-65.77
-78.96
-88.86
-92.86
-89.1
-77.17
-58.28
-35.01
-10.41
12.81
32.95
49.27
61.66
70.14
74.59
74.91
71.34
64.79
56.74
48.93
42.65
38.34
35.5
32.9
29.37
24.22
17.67
10.55
3.88
-1.67
-6.2
-10.45
-15.53
-22.39
-31.67
-43.39
-56.99
-71.25
-84.3
-93.82
-97.46
-93.55
-81.67
-62.97
-39.81
-15.11
8.54
29.39
46.53
59.65
68.56
73.14
73.38
69.7
63.14
55.14
47.27
40.61
35.58
31.79
28.39
24.51
19.65
13.88
7.67
1.71
-3.56
-8.08
-12.3
-16.98
-23.01
-31.11
-41.61
-54.27
-67.96
-80.78
-90.16
-93.54
-89.2
-76.81
-57.8
-34.81
-10.93
11.31
30.36
45.63
57.05
64.56
68
67.29
62.9
55.93
48.02
40.77
35.17
31.35
28.57
25.77
22.01
16.97
10.94
4.67
-1.12
-6.04
-10.23
-14.29
-19.01
-25.11
-33.08
-43.13
-55.07
-68.19
-81.04
-91.47
-96.99
-95.46
-85.85
-68.8
-46.45
-21.91
1.81
22.47
38.97
51.03
58.85
62.62
62.56
59.08
52.98
45.53
38.11
31.87
27.32
24.22
21.76
19.01
15.29
10.49
5.02
-0.45
-5.37
-9.57
-13.42
-17.71
-23.36
-31.13
-41.39
-53.87
-67.56
-80.67
-90.84
-95.66
-93.28
-83.14
-66.25
-44.88
-21.88
0.17
19.52
35.33
47.28
55.21
58.9
58.32
53.92
46.9
38.94
31.7
26.26
22.7
20.3
17.92
14.67
10.21
4.89
-0.57
-5.5
-9.66
-13.4
-17.47
-22.81
-30.19
-40
-52.04
-65.44
-78.58
-89.2
-94.86
-93.52
-84.3
-67.81
-46.11
-22.06
1.52
22.51
39.78
52.9
61.84
66.59
67.23
64.18
58.37
51.17
44.05
38.07
33.57
30.13
26.94
23.22
18.63
13.36
7.98
3.09
-1.09
-4.86
-8.99
-14.53
-22.46
-33.3
-46.84
-61.9
-76.3
-87.25
-92.02
-88.81
-77.37
-59.18
-36.89
-13.52
8.58
28.07
44.49
57.77
67.61
73.52
75.03
72.27
66.23
58.6
51.16
45.12
40.73
37.31
33.76
29.19
23.36
16.74
10.15
4.31
-0.61
-5.06
-9.93
-16.16
-24.48
-35.18
-48.01
-62.03
-75.58
-86.36
-91.82
-89.92
-79.81
-62.32
-39.71
-15.03
8.86
30
47.45
61.02
70.67
76.28
77.75
75.27
69.69
62.41
55.06
48.9
44.45
41.32
38.57
35.13
30.39
24.39
17.74
11.29
5.67
0.94
-3.4
-8.25
-14.56
-23.03
-33.92
-46.95
-61.18
-75
-86.19
-92.33
-91.43
-82.53
-66.23
-44.51
-20.24
3.74
25.26
43.16
57.04
66.86
72.63
74.34
72.22
67
59.93
52.5
45.99
41.08
37.61
34.83
31.76
27.7
22.52
16.61
10.61
5.05
0.13
-4.45
-9.24
-14.92
-22.04
-30.95
-41.76
-54.13
-67.16
-79.16
-87.88
-90.92
-86.52
-74.27
-55.41
-32.47
-8.48
13.9
33.07
48.35
59.7
67.16
70.65
70.17
66.05
59.29
51.4
44
38.27
34.55
32.26
30.25
27.41
23.06
17.3
10.78
4.38
-1.23
-5.95
-10.17
-14.68
-20.31
-27.76
-37.37
-49.15
-62.47
-75.97
-87.54
-94.61
-94.87
-86.96
-71.19
-49.38
-24.4
0.79
23.9
43.64
59.53
71.4
79.12
82.48
81.53
76.86
69.68
61.58
53.96
47.67
42.74
38.54
34.18
28.98
22.75
15.83
8.85
2.42
-3.12
-7.97
-12.66
-17.98
-24.63
-33.17
-43.82
-56.35
-69.95
-83.09
-93.53
-98.79
-96.75
-86.5
-68.68
-45.52
-20.01
4.87
27.05
45.5
60.05
70.84
77.95
81.28
80.84
77.07
70.9
63.61
56.44
50.16
44.96
40.46
36.08
31.29
25.86
19.88
13.6
7.36
1.27
-4.64
-10.54
-16.67
-23.3
-30.72
-39.29
-49.43
-61.36
-74.8
-88.55
-100.45
-107.64
-107.5
-98.52
-81.01
-57.14
-30.15
-3.41
20.61
40.68
56.62
68.72
77.19
82.04
83.19
80.87
75.69
68.72
61.09
53.8
47.45
42.2
37.87
34.07
30.38
26.44
22.06
17.13
11.66
5.74
-0.61
-7.31
-14.37
-21.74
-29.49
-37.87
-47.29
-58.23
-70.73
-84
-96.11
-104.36
-106.02
-99.31
-84.22
-62.51
-37.21
-11.59
11.74
31.33
46.7
57.95
65.31
68.93
69.02
65.98
60.59
53.89
47
40.8
35.75
31.83
28.58
25.41
21.73
17.27
12.04
6.3
0.42
-5.35
-10.94
-16.51
-22.33
-28.72
-35.95
-44.34
-54.16
-65.49
-77.87
-90.01
-99.76
-104.49
-101.97
-91.14
-72.73
-49.07
-23.31
1.53
23.38
41.3
55.23
65.37
71.78
74.44
73.37
69.07
62.52
55.08
48.02
42.16
37.69
34.16
30.86
27.1
22.53
17.25
11.64
6.15
0.98
-3.96
-9.09
-14.96
-22.03
-30.61
-40.8
-52.58
-65.62
-79.11
-91.48
-100.52
-103.77
-99.36
-86.72
-67
-42.72
-17.02
7.3
28.42
45.59
58.84
68.4
74.42
76.86
75.81
71.73
65.48
58.26
51.21
45.14
40.29
36.36
32.72
28.66
23.72
17.76
11.04
4.03
-2.79
-9.15
-15.09
-20.94
-27.25
-34.61
-43.56
-54.37
-66.92
-80.4
-93.19
-102.94
-107.05
-103.44
-91.32
-71.62
-46.77
-19.97
5.8
28.5
47.16
61.59
71.94
78.36
80.92
79.9
75.9
69.85
62.78
55.62
49.01
43.24
38.35
34.13
30.24
26.22
21.64
16.25
10.08
3.44
-3.22
-9.54
-15.39
-21.02
-26.88
-33.63
-41.92
-52.24
-64.67
-78.5
-92.05
-102.71
-107.54
-104.18
-91.75
-71.31
-45.57
-18.07
8
30.46
48.44
61.92
71.3
76.9
78.96
77.77
73.83
67.95
61.1
54.23
48.01
42.8
38.57
35.03
31.75
28.28
24.31
19.69
14.42
8.65
2.52
-3.89
-10.58
-17.61
-25.16
-33.5
-43.03
-54.09
-66.67
-80.05
-92.53
-101.64
-104.77
-100.06
-87.16
-67.45
-43.64
-18.87
4.21
23.98
39.79
51.58
59.38
63.16
62.95
59.13
52.65
44.86
37.16
30.58
25.47
21.55
18.18
14.7
10.74
6.34
1.77
-2.61
-6.65
-10.42
-14.27
-18.6
-23.8
-30.24
-38.21
-48.03
-59.78
-73
-86.4
-97.73
-104.26
-103.5
-94.22
-76.93
-53.85
-28.08
-2.66
20.2
39.34
54.41
65.35
72.1
74.62
73.13
68.39
61.64
54.37
47.84
42.7
38.86
35.59
32
27.4
21.58
14.89
7.94
1.34
-4.66
-10.17
-15.7
-21.81
-29.01
-37.73
-48.21
-60.48
-73.96
-87.25
-98.05
-103.64
-101.65
-91.06
-72.68
-48.96
-23.21
1.54
23.3
41.28
55.48
66.05
72.83
75.45
73.77
68.33
60.48
52
44.53
38.9
34.93
31.68
27.96
22.99
16.63
9.46
2.36
-3.91
-9.09
-13.49
-17.91
-23.29
-30.51
-40.1
-52.09
-65.86
-80.07
-92.61
-101
-102.91
-96.91
-82.99
-62.65
-38.46
-13.27
10.55
31.55
49.06
62.85
72.69
78.28
79.43
76.41
70.13
62.02
53.69
46.36
40.59
36.18
32.39
28.35
23.46
17.58
11.01
4.28
-2.19
-8.19
-13.91
-19.77
-26.34
-34.21
-43.83
-55.42
-68.61
-82.28
-94.4
-102.35
-103.63
-96.65
-81.44
-59.66
-34.14
-7.93
16.52
37.68
54.83
67.68
75.98
79.6
78.66
73.88
66.61
58.54
51.21
45.57
41.66
38.86
36.2
32.87
28.53
23.33
17.77
12.36
7.4
2.79
-1.82
-6.99
-13.22
-20.96
-30.49
-41.88
-54.79
-68.21
-80.34
-88.74
-90.94
-85.21
-71.3
-50.68
-26.12
-0.85
22.41
41.95
57.12
67.9
74.39
76.62
74.68
69.08
60.99
52.1
44.13
38.26
34.67
32.51
30.49
27.37
22.6
16.45
9.72
3.25
-2.5
-7.64
-12.74
-18.49
-25.55
-34.32
-45.01
-57.5
-71.07
-84.19
-94.53
-99.49
-96.88
-85.88
-67.35
-43.64
-17.83
7.24
29.56
48.15
62.62
72.86
78.68
80.02
77.21
71.21
63.47
55.56
48.66
43.24
38.98
35.1
30.76
25.5
19.35
12.8
6.46
0.78
-4.17
-8.78
-13.71
-19.79
-27.8
-38.24
-51.12
-65.69
-80.22
-92.2
-98.85
-97.84
-88.24
-70.8
-47.85
-22.44
2.55
25.08
44.12
59.31
70.43
77.2
79.37
77.07
71.17
63.23
55.09
48.23
43.3
39.97
37.17
33.75
28.91
22.61
15.45
8.23
1.63
-4.25
-9.77
-15.67
-22.66
-31.28
-41.76
-54.11
-68.02
-82.73
-96.79
-108.07
-114.07
-112.68
-102.94
-85.5
-62.52
-37.02
-11.95
10.45
28.92
42.91
52.18
56.55
56.05
51.3
43.84
36.15
30.93
30.3
34.93
43.8
54.61
64.65
71.85
75.23
75.01
72.06
67.36
61.61
55.25
48.62
42.15
36.33
31.52
27.77
24.67
21.55
17.69
12.74
6.77
0.24
-6.25
-12.38
-18.24
-24.39
-31.67
-40.94
-52.65
-66.48
-81.1
-94.15
-102.7
-104
-96.42
-80.09
-56.99
-30.39
-3.79
20.03
39.61
54.61
65.36
72.27
75.58
75.44
72.24
66.72
60.01
53.28
47.46
42.96
39.73
37.33
35.22
32.98
30.3
27.02
23.01
18.2
12.53
6.11
-0.89
-8.21
-15.65
-23.11
-30.81
-39.19
-48.87
-60.31
-73.37
-86.94
-98.81
-106.12
-106.15
-97.29
-79.76
-55.7
-28.52
-1.82
21.56
40.18
53.85
63.09
68.58
70.78
69.96
66.48
61.01
54.55
48.21
42.87
38.89
36.09
33.85
31.47
28.43
24.53
19.92
14.88
9.67
4.4
-1.03
-6.83
-13.19
-20.24
-28.05
-36.76
-46.63
-57.9
-70.4
-83.1
-93.95
-100.18
-99.15
-89.45
-71.49
-47.6
-21.18
4.36
26.6
44.44
57.84
67.24
72.99
75.28
74.26
70.36
64.42
57.55
50.83
45.03
40.34
36.51
32.97
29.17
24.76
19.7
14.16
8.43
2.73
-2.88
-8.54
-14.46
-20.9
-28.09
-36.24
-45.63
-56.55
-69
-82.36
-95.09
-104.77
-108.71
-104.74
-92.14
-71.95
-46.71
-19.65
6.26
28.96
47.44
61.5
71.31
77.14
79.21
77.93
73.88
67.91
60.97
53.96
47.57
42.16
37.78
34.27
31.29
28.42
25.24
21.37
16.58
10.87
4.43
-2.4
-9.32
-16.1
-22.81
-29.71
-37.29
-46.17
-56.89
-69.66
-83.86
-97.8
-108.82
-113.82
-110.33
-97.4
-76.17
-49.52
-21.23
5.29
27.79
45.41
58.31
67.05
72.15
73.96
72.87
69.46
64.64
59.35
54.38
50.07
46.35
42.9
39.35
35.6
31.68
27.75
23.82
19.69
14.99
9.34
2.54
-5.29
-13.73
-22.28
-30.54
-38.52
-46.66
-55.77
-66.59
-79.29
-92.89
-105.19
-113.16
-113.8
-105.32
-87.87
-63.63
-36.06
-8.8
15.37
35.1
50.2
61.08
68.19
71.71
71.77
68.7
63.3
56.67
49.99
44.15
39.5
35.88
32.8
29.72
26.32
22.53
18.45
14.21
9.84
5.19
0.11
-5.57
-11.81
-18.56
-25.75
-33.56
-42.45
-52.91
-65.08
-78.24
-90.62
-99.53
-102.24
-96.88
-83.24
-62.9
-38.74
-13.99
8.72
27.84
42.84
53.79
60.85
64.1
63.68
60.03
54.08
47.14
40.52
35.21
31.53
29.16
27.35
25.28
22.37
18.42
13.66
8.53
3.38
-1.6
-6.6
-11.94
-18.09
-25.39
-34.14
-44.54
-56.61
-70
-83.61
-95.46
-102.89
-103.35
-95.28
-78.85
-56.05
-30.05
-4.21
18.93
38.02
52.85
63.74
71.03
74.85
75.22
72.44
67.23
60.75
54.25
48.64
44.28
40.8
37.5
33.55
28.52
22.37
15.54
8.63
2.13
-3.73
-9.14
-14.51
-20.45
-27.5
-36.13
-46.62
-58.93
-72.45
-85.72
-96.51
-102.14
-100.3
-89.87
-71.52
-47.58
-21.34
4.01
26.21
44.22
57.97
67.72
73.71
76.03
74.82
70.64
64.44
57.5
50.95
45.48
41.15
37.48
33.77
29.39
24.1
18.07
11.76
5.68
0.19
-4.76
-9.52
-14.69
-20.9
-28.67
-38.36
-50
-63.19
-76.81
-88.99
-97.31
-99.36
-93.56
-79.72
-59.31
-34.95
-9.62
14.13
34.72
51.42
64.06
72.58
76.91
77.12
73.7
67.61
60.26
53.04
46.96
42.39
39.05
36.26
33.25
29.42
24.58
18.89
12.82
6.83
1.29
-3.84
-8.91
-14.49
-21.23
-29.62
-39.96
-52.06
-65.17
-77.76
-87.65
-92.37
-89.94
-79.57
-62.14
-39.95
-15.99
6.99
27.19
43.78
56.63
65.69
70.78
71.73
68.71
62.6
54.82
47.03
40.46
35.61
32.13
29.12
25.7
21.34
16.11
10.53
5.21
0.54
-3.5
-7.36
-11.73
-17.21
-24.28
-33.15
-43.79
-55.84
-68.42
-79.98
-88.32
-91.07
-86.4
-73.81
-54.38
-30.59
-5.45
18.37
39.13
56.07
68.92
77.49
81.4
80.34
74.5
64.93
53.47
42.21
32.84
26.12
21.67
18.38
14.95
10.54
5.01
-1.08
-6.86
-11.69
-15.45
-18.68
-22.35
-27.55
-35.12
-45.41
-58.13
-72.24
-85.96
-96.91
-102.61
-100.99
-91.2
-73.86
-51
-25.47
-0.09
22.95
42.41
57.73
68.74
75.35
77.59
75.78
70.74
63.75
56.23
49.38
43.81
39.46
35.76
31.98
27.58
22.41
16.74
11
5.63
0.75
-3.85
-8.71
-14.45
-21.66
-30.81
-42.09
-55.34
-69.7
-83.51
-94.32
-99.45
-96.78
-85.57
-66.86
-43.2
-17.85
6.29
27.34
44.56
57.95
67.65
73.63
75.7
73.98
69.13
62.42
55.35
49.16
44.43
40.92
37.96
34.72
30.7
25.81
20.36
14.82
9.53
4.65
-0.01
-4.79
-10.18
-16.71
-24.87
-35.06
-47.38
-61.33
-75.55
-87.82
-95.42
-95.95
-88.12
-72.34
-50.69
-26.18
-1.91
19.84
37.86
51.93
62.26
69.07
72.48
72.58
69.73
64.62
58.32
51.94
46.36
42.01
38.71
35.88
32.79
28.9
24.06
18.53
12.86
7.52
2.68
-1.95
-6.92
-12.85
-20.15
-29.01
-39.38
-51.1
-63.69
-76.16
-86.79
-93.29
-93.39
-85.68
-70.3
-49.02
-24.77
-0.7
20.71
38.06
50.99
59.64
64.29
65.2
62.71
57.49
50.62
43.41
37.07
32.32
29.23
27.22
25.36
22.77
18.96
13.97
8.34
2.78
-2.14
-6.31
-10.1
-14.22
-19.41
-26.24
-35.04
-45.8
-58.16
-71.27
-83.5
-92.62
-96.15
-92.14
-79.95
-60.65
-36.75
-11.43
12.37
32.76
48.91
60.84
68.83
73.13
73.9
71.42
66.3
59.53
52.29
45.67
40.36
36.44
33.53
30.93
27.91
23.98
19.04
13.34
7.32
1.42
-4.18
-9.61
-15.31
-21.83
-29.72
-39.41
-51.03
-64.32
-78.32
-91.31
-100.86
-104.36
-99.89
-86.89
-66.56
-41.5
-15
9.98
31.41
48.43
61
69.47
74.22
75.54
73.78
69.49
63.53
56.92
50.61
45.28
41.11
37.83
34.92
31.74
27.88
23.17
17.74
11.84
5.77
-0.34
-6.49
-12.79
-19.48
-26.85
-35.27
-45.14
-56.72
-69.77
-83.22
-95.08
-102.67
-103.49
-95.97
-80.26
-58.2
-32.82
-7.4
15.48
34.33
48.76
59
65.54
68.74
68.9
66.37
61.66
55.55
48.93
42.62
37.22
32.95
29.62
26.8
24.01
20.9
17.39
13.58
9.69
5.82
1.92
-2.26
-7.01
-12.62
-19.37
-27.58
-37.6
-49.51
-62.79
-75.93
-86.48
-91.6
-89.01
-77.91
-59.37
-36.1
-11.45
11.57
31.07
46.36
57.5
64.81
68.45
68.55
65.39
59.71
52.68
45.59
39.51
34.85
31.41
28.48
25.24
21.13
16.02
10.2
4.17
-1.56
-6.79
-11.62
-16.4
-21.58
-27.59
-34.77
-43.36
-53.5
-64.96
-76.92
-87.72
-95.07
-96.6
-90.67
-77.13
-57.45
-34.31
-10.68
10.97
29.21
43.55
53.98
60.65
63.57
62.86
58.95
52.78
45.61
38.79
33.27
29.29
26.47
23.99
21
17.02
12.14
6.88
1.95
-2.17
-5.54
-8.68
-12.5
-17.86
-25.37
-35.23
-47.17
-60.38
-73.43
-84.3
-90.65
-90.42
-82.5
-67.26
-46.6
-23.31
-0.29
20.32
37.42
50.78
60.54
66.84
69.67
69.11
65.61
60.07
53.72
47.68
42.65
38.7
35.32
31.79
27.48
22.2
16.22
10.11
4.44
-0.53
-4.94
-9.41
-14.68
-21.53
-30.49
-41.72
-54.79
-68.53
-81.02
-89.81
-92.52
-87.56
-74.8
-55.66
-32.76
-9.03
13.06
31.99
47.15
58.42
65.81
69.22
68.69
64.66
58.13
50.52
43.24
37.22
32.63
28.99
25.42
21.18
15.95
9.91
3.62
-2.27
-7.34
-11.59
-15.41
-19.52
-24.78
-31.97
-41.59
-53.65
-67.43
-81.35
-93.1
-100.1
-100.23
-92.55
-77.65
-57.57
-35.03
-12.7
7.54
24.77
38.71
49.32
56.41
59.66
58.89
54.44
47.31
38.99
31.09
24.81
20.67
18.48
17.58
17.1
16.4
15.15
13.32
11.03
8.34
5.23
1.43
-3.31
-9.28
-16.72
-25.78
-36.52
-48.62
-61.23
-72.74
-80.98
-83.64
-79.07
-66.89
-48.27
-25.62
-1.82
20.5
39.65
54.78
65.74
72.59
75.47
74.62
70.54
64.18
56.74
49.54
43.49
38.92
35.5
32.48
29.02
24.58
19.14
13.11
7.15
1.8
-2.81
-7
-11.45
-16.92
-24.02
-33.06
-44.04
-56.53
-69.58
-81.56
-90.28
-93.4
-89.18
-77.13
-58.36
-35.27
-10.83
12.39
32.68
49.37
62.32
71.56
76.97
78.44
76.19
70.93
63.88
56.4
49.61
44.05
39.63
35.79
31.86
27.35
22.11
16.36
10.5
4.9
-0.29
-5.18
-10.15
-15.72
-22.46
-30.93
-41.43
-53.88
-67.38
-80.18
-89.79
-93.62
-89.79
-77.78
-58.75
-35.1
-9.81
14.48
35.94
53.59
67.14
76.57
82.01
83.69
82.08
77.87
71.92
65.09
58.06
51.34
45.21
39.85
35.23
31.22
27.49
23.66
19.42
14.6
9.23
3.42
-2.7
-9.08
-15.81
-23.01
-30.92
-39.87
-50.25
-62.26
-75.53
-88.81
-99.88
-106.04
-104.85
-95.07
-77.13
-53.05
-25.76
1.72
27
48.52
65.45
77.47
84.56
87.14
85.96
82.15
76.87
71.07
65.32
59.75
54.31
48.89
43.56
38.49
33.83
29.58
25.49
21.2
16.29
10.53
3.92
-3.3
-10.71
-17.96
-24.89
-31.63
-38.59
-46.37
-55.58
-66.55
-79.02
-91.92
-103.3
-110.66
-111.61
-104.6
-89.57
-67.93
-42.25
-15.47
9.81
31.77
49.42
62.4
70.77
74.86
75.24
72.74
68.3
62.87
57.21
51.79
46.85
42.38
38.29
34.49
30.9
27.43
23.95
20.2
15.94
10.94
5.14
-1.28
-8.04
-14.8
-21.41
-27.95
-34.73
-42.22
-50.95
-61.24
-72.92
-85.06
-95.83
-102.79
-103.48
-96.35
-81.31
-59.95
-35.02
-9.65
13.57
33.03
48.08
58.78
65.42
68.35
67.94
64.73
59.48
53.09
46.5
40.45
35.32
31.15
27.62
24.33
20.91
17.16
13
8.45
3.54
-1.73
-7.37
-13.37
-19.63
-26.07
-32.64
-39.5
-47.03
-55.73
-65.93
-77.37
-88.86
-98.29
-103.07
-100.91
-90.65
-72.81
-49.46
-23.57
1.87
24.63
43.5
58.12
68.56
75.01
77.6
76.62
72.55
66.26
58.75
51.08
44.04
38.01
33.01
28.79
24.93
21.03
16.81
12.19
7.24
2.14
-3.01
-8.23
-13.72
-19.66
-26.18
-33.33
-41.23
-50.19
-60.61
-72.67
-85.67
-97.84
-106.42
-108.53
-102.23
-87.34
-65.58
-39.92
-13.57
10.95
32.19
49.58
63.02
72.47
77.9
79.4
77.45
72.89
66.81
60.21
53.8
47.91
42.56
37.66
33.15
29.04
25.31
21.83
18.32
14.33
9.49
3.62
-3.16
-10.55
-18.15
-25.74
-33.33
-41.21
-49.96
-60.21
-72.3
-85.82
-99.3
-110.27
-115.83
-113.55
-102.39
-83.14
-58.2
-30.79
-3.88
20.36
40.83
57.11
69.08
76.73
80.12
79.73
76.44
71.45
65.94
60.65
55.81
51.18
46.41
41.31
36.05
30.96
26.33
22.18
18.2
13.9
8.88
3
-3.57
-10.45
-17.35
-24.15
-31.02
-38.46
-47.08
-57.43
-69.64
-83.05
-96.01
-105.99
-110.28
-106.71
-94.55
-74.8
-49.87
-22.87
3.31
26.53
45.58
59.94
69.56
74.62
75.58
73.2
68.49
62.54
56.27
50.28
44.82
39.91
35.44
31.34
27.55
23.96
20.45
16.78
12.73
8.11
2.9
-2.81
-8.85
-15.07
-21.47
-28.34
-36.23
-45.78
-57.45
-70.99
-85.2
-97.84
-106.12
-107.45
-100.34
-84.95
-63.07
-37.53
-11.33
13.08
34.15
51.14
63.77
71.96
75.76
75.47
71.75
65.65
58.4
51.14
44.68
39.33
35
31.28
27.68
23.8
19.42
14.54
9.33
3.99
-1.34
-6.63
-11.98
-17.62
-23.89
-31.22
-40.12
-50.97
-63.71
-77.51
-90.51
-100.11
-103.6
-99.01
-85.85
-65.32
-39.97
-12.92
13.06
35.96
54.72
68.91
78.43
83.32
83.79
80.44
74.21
66.36
58.1
50.37
43.58
37.78
32.7
28.02
23.44
18.75
13.77
8.36
2.45
-3.99
-10.79
-17.76
-24.72
-31.67
-38.98
-47.25
-57.2
-69.13
-82.51
-95.63
-105.78
-109.98
-105.87
-92.74
-71.78
-45.74
-18.03
8.35
31.4
50.25
64.72
74.88
80.75
82.45
80.31
75.18
68.29
60.93
54.1
48.2
43.12
38.34
33.4
28.03
22.3
16.54
11.15
6.38
2.17
-1.74
-5.81
-10.46
-16.04
-22.85
-31.22
-41.53
-53.94
-67.98
-82.12
-93.78
-99.92
-97.97
-86.87
-67.52
-42.59
-15.51
10.56
33.49
52.34
66.9
77.23
83.31
85.11
82.83
77.23
69.56
61.31
53.79
47.68
43.04
39.26
35.58
31.36
26.37
20.77
14.97
9.34
4.05
-0.97
-6.05
-11.53
-17.79
-25.18
-34.08
-44.79
-57.29
-70.93
-84.14
-94.57
-99.52
-96.82
-85.6
-66.72
-42.59
-16.41
8.78
30.82
48.68
62.2
71.54
76.77
77.87
74.96
68.64
60.09
50.9
42.58
36.08
31.54
28.34
25.48
22.03
17.57
12.22
6.57
1.23
-3.46
-7.64
-11.91
-17.03
-23.67
-32.24
-42.79
-54.99
-67.96
-80.23
-89.68
-93.99
-91.17
-80.33
-62.18
-38.92
-13.62
10.7
31.83
48.67
61.01
69.07
73.1
73.27
69.9
63.65
55.69
47.4
40.07
34.38
30.23
26.85
23.25
18.72
13.11
6.91
0.89
-4.27
-8.39
-11.94
-15.79
-20.95
-28.23
-37.99
-50.03
-63.47
-76.78
-87.82
-94.21
-93.86
-85.65
-69.86
-48.27
-23.57
1.34
24.08
43.24
58.19
68.81
75.11
77.2
75.35
70.26
63.08
55.18
47.85
41.76
36.98
32.97
28.97
24.43
19.16
13.41
7.6
2.09
-3.02
-7.96
-13.16
-19.15
-26.43
-35.46
-46.48
-59.31
-73.02
-85.8
-95.12
-98.34
-93.64
-80.67
-60.84
-36.82
-11.77
11.63
31.72
47.84
59.93
68.07
72.29
72.56
69.23
63.16
55.69
48.32
42.17
37.63
34.26
31.16
27.37
22.41
16.4
9.95
3.77
-1.74
-6.6
-11.32
-16.5
-22.72
-30.33
-39.53
-50.34
-62.45
-74.95
-86.1
-93.54
-94.86
-88.43
-74.11
-53.45
-29.24
-4.58
17.99
37.01
52.05
63.21
70.61
74.22
73.95
70.03
63.33
55.19
47.21
40.66
36.05
33.07
30.78
28.17
24.52
19.75
14.27
8.76
3.7
-0.86
-5.28
-10.17
-16.15
-23.64
-32.88
-43.86
-56.25
-69.23
-81.28
-90.24
-93.77
-90.03
-78.43
-59.93
-36.85
-12.13
11.49
32.08
48.62
60.79
68.65
72.37
72.24
68.82
62.99
55.95
48.93
42.93
38.4
35.18
32.61
29.87
26.28
21.58
15.97
9.98
4.21
-0.96
-5.56
-10
-14.97
-21.21
-29.33
-39.69
-52.2
-66.17
-80.06
-91.6
-98.13
-97.37
-88.21
-71.23
-48.56
-23.24
1.67
23.9
42.18
56.08
65.53
70.62
71.49
68.59
62.81
55.38
47.66
40.7
35.05
30.66
27.05
23.56
19.6
14.87
9.45
3.72
-1.81
-6.75
-11.05
-15.04
-19.36
-24.78
-32.05
-41.66
-53.64
-67.29
-81.02
-92.36
-98.5
-97.1
-87.13
-69.38
-46.26
-21.03
3.29
24.69
42.32
56.15
66.36
72.93
75.67
74.57
70.09
63.31
55.66
48.47
42.55
38.01
34.3
30.7
26.53
21.52
15.8
9.77
3.89
-1.64
-6.87
-12.18
-18.01
-24.83
-33.03
-42.9
-54.63
-67.99
-82.09
-95.13
-104.55
-107.61
-102.31
-88.21
-66.74
-40.84
-13.98
10.84
31.83
48.46
60.99
69.88
75.32
77.33
75.93
71.62
65.37
58.5
52.15
47.01
43.12
40.01
37.01
33.51
29.23
24.11
18.36
12.21
5.86
-0.59
-7.19
-14.06
-21.45
-29.62
-38.93
-49.77
-62.44
-76.77
-91.74
-105.28
-114.43
-116.19
-108.54
-91.35
-66.6
-37.81
-8.88
17.03
38.17
54.19
65.59
73.02
76.98
77.78
75.78
71.57
66.03
60.09
54.46
49.53
45.23
41.27
37.32
33.22
28.93
24.51
19.98
15.19
9.93
3.96
-2.8
-10.29
-18.31
-26.73
-35.59
-45.24
-56.19
-68.7
-82.44
-95.99
-106.99
-112.59
-110.32
-99.07
-79.55
-54.18
-26.28
0.9
25.06
45.01
60.44
71.45
78.11
80.52
78.91
73.98
66.87
58.98
51.55
45.37
40.63
36.99
33.91
30.81
27.37
23.44
18.98
14.03
8.55
2.6
-3.78
-10.46
-17.36
-24.54
-32.28
-41.1
-51.55
-63.84
-77.39
-90.59
-100.87
-105.31
-101.58
-88.7
-67.58
-40.76
-11.68
16.37
40.97
60.85
75.69
85.61
90.8
91.48
88.04
81.25
72.4
63.02
54.55
47.87
43.11
39.66
36.53
32.76
27.87
21.94
15.53
9.31
3.76
-1.11
-5.77
-10.97
-17.44
-25.71
-36.07
-48.54
-62.8
-77.94
-92.24
-103.16
-107.86
-104.02
-90.76
-69.17
-42.03
-13.03
14.46
38.09
56.83
70.65
79.93
85.06
86.29
83.95
78.64
71.35
63.27
55.51
48.82
43.37
38.8
34.45
29.69
24.13
17.85
11.25
4.8
-1.16
-6.68
-12.09
-17.95
-24.74
-32.81
-42.4
-53.65
-66.53
-80.5
-94.17
-105.18
-110.64
-107.94
-95.82
-74.95
-47.88
-18.26
10.29
35.14
55.03
69.83
80.04
86.19
88.66
87.74
83.86
77.75
70.4
62.9
56.1
50.44
45.88
41.95
38.08
33.73
28.67
22.92
16.75
10.45
4.17
-2.16
-8.84
-16.19
-24.5
-33.87
-44.39
-56.16
-69.16
-82.94
-96.15
-106.5
-111.1
-107.46
-94.42
-72.89
-45.58
-16.23
11.6
35.47
54.24
67.95
77.1
82.29
83.98
82.65
78.9
73.48
67.29
61.11
55.5
50.7
46.6
42.84
38.95
34.55
29.41
23.56
17.15
10.39
3.44
-3.61
-10.73
-17.89
-25.11
-32.6
-40.76
-50.25
-61.66
-74.97
-89.18
-102
-110.41
-111.42
-103.2
-85.8
-61.23
-32.84
-4.23
21.63
43.03
59.4
70.9
77.92
80.8
79.87
75.63
68.91
60.87
52.76
45.62
40.04
36
32.98
30.23
27.07
23.08
18.21
12.67
6.78
0.8
-5.16
-11.17
-17.44
-24.29
-32.03
-41.05
-51.65
-63.92
-77.38
-90.72
-101.81
-107.98
-106.87
-97.21
-79.5
-55.88
-29.52
-3.62
19.42
38.36
52.94
63.35
69.8
72.36
71.14
66.66
59.88
52.17
44.9
39.04
34.88
31.98
29.49
26.49
22.43
17.2
11.22
5.1
-0.64
-5.82
-10.68
-15.73
-21.6
-28.82
-37.77
-48.62
-61.18
-74.74
-87.79
-98.07
-102.94
-100.15
-88.66
-69.19
-44.14
-16.86
9.27
31.82
49.59
62.46
70.89
75.43
76.5
74.46
69.81
63.35
56.07
48.97
42.74
37.59
33.21
28.98
24.28
18.74
12.41
5.7
-0.88
-6.93
-12.43
-17.68
-23.19
-29.57
-37.25
-46.58
-57.69
-70.34
-83.69
-96.05
-105.03
-107.96
-102.89
-89.25
-68.28
-42.67
-15.68
9.7
31.54
48.96
61.91
70.64
75.47
76.65
74.54
69.75
63.12
55.67
48.35
41.85
36.47
32.07
28.21
24.3
19.88
14.7
8.88
2.72
-3.38
-9.16
-14.62
-20
-25.79
-32.53
-40.81
-51.04
-63.29
-77
-90.76
-102.3
-108.9
-108.15
-98.71
-81.04
-57.23
-30.47
-4.03
19.62
39.13
54.19
64.94
71.62
74.37
73.41
69.27
62.88
55.44
48.06
41.55
36.17
31.76
27.88
24.06
19.99
15.45
10.44
5
-0.72
-6.56
-12.39
-18.21
-24.22
-30.82
-38.59
-48.11
-59.67
-72.98
-86.81
-99.04
-106.98
-108.08
-100.75
-84.97
-62.42
-36
-8.95
15.97
37.01
53.44
65.16
72.3
75.02
73.59
68.66
61.33
52.99
45.02
38.38
33.35
29.56
26.22
22.53
17.97
12.48
6.4
0.22
-5.57
-10.86
-15.8
-20.88
-26.73
-33.97
-43.11
-54.34
-67.39
-81.13
-93.64
-102.29
-104.47
-98.41
-83.92
-62.59
-37.24
-11.07
13.34
34.45
51.66
64.78
73.57
77.73
77.13
72.29
64.54
55.75
47.71
41.51
37.27
34.2
31.16
27.21
22.03
15.94
9.61
3.68
-1.62
-6.49
-11.53
-17.44
-24.83
-34.15
-45.59
-59.02
-73.56
-87.48
-98.2
-102.88
-99.3
-86.73
-66.4
-41.06
-14.13
11.42
33.72
52.04
66.3
76.5
82.47
84.01
81.34
75.32
67.52
59.62
52.98
48.04
44.33
40.84
36.52
30.88
24.05
16.77
9.84
3.79
-1.46
-6.49
-12.18
-19.38
-28.65
-40.22
-53.76
-68.31
-82.12
-92.77
-97.68
-94.77
-83.29
-64.09
-39.53
-12.7
13.45
36.8
56.25
71.43
82.31
88.82
90.88
88.67
82.83
74.59
65.45
56.79
49.46
43.6
38.79
34.34
29.67
24.56
19.08
13.51
8.1
2.92
-2.17
-7.48
-13.41
-20.45
-29.07
-39.66
-52.3
-66.39
-80.47
-92.19
-98.82
-97.94
-88.35
-70.49
-46.44
-19.21
8.1
33.11
54.39
71.29
83.57
91.09
93.78
91.87
86.1
77.78
68.49
59.69
52.34
46.66
42.25
38.32
34.1
29.11
23.3
16.97
10.63
4.7
-0.67
-5.65
-10.67
-16.28
-23.02
-31.36
-41.59
-53.66
-66.96
-80.04
-90.58
-95.83
-93.48
-82.49
-63.66
-39.41
-13.05
12.29
34.45
52.43
66.08
75.5
80.73
81.72
78.63
72.14
63.5
54.23
45.72
38.8
33.53
29.41
25.6
21.43
16.58
11.15
5.58
0.26
-4.69
-9.46
-14.48
-20.28
-27.16
-35.3
-44.77
-55.58
-67.53
-79.91
-91.17
-99.01
-100.89
-94.89
-80.51
-59.07
-33.31
-6.58
18.26
39.36
56.02
68.23
76.13
79.81
79.31
74.99
67.73
58.9
50.04
42.34
36.36
31.84
28.04
24.03
19.25
13.63
7.59
1.75
-3.39
-7.77
-11.83
-16.3
-22.01
-29.59
-39.31
-51.02
-64.05
-77.14
-88.45
-95.78
-96.97
-90.58
-76.42
-55.75
-31.04
-5.2
19.07
39.96
56.56
68.7
76.52
80.24
80.16
76.75
70.78
63.34
55.58
48.44
42.42
37.47
33.15
28.85
24.03
18.49
12.31
5.86
-0.45
-6.31
-11.73
-17.05
-22.83
-29.74
-38.35
-49.04
-61.69
-75.56
-89.12
-100.14
-106.16
-105.08
-95.86
-78.87
-55.94
-29.71
-3.02
21.7
42.84
59.56
71.66
79.23
82.68
82.5
79.41
74.19
67.65
60.58
53.61
47.23
41.67
36.95
32.85
28.99
24.98
20.47
15.28
9.45
3.23
-3.04
-9.08
-14.81
-20.47
-26.52
-33.58
-42.22
-52.81
-65.26
-78.74
-91.61
-101.46
-105.7
-102.21
-90.21
-70.51
-45.48
-18.25
8.04
31.01
49.37
62.71
71.32
75.75
76.7
74.96
71.3
66.47
61.06
55.53
50.13
45.03
40.3
36
32.08
28.34
24.51
20.22
15.17
9.13
2.13
-5.59
-13.66
-21.67
-29.41
-36.91
-44.52
-52.75
-62.26
-73.44
-86.2
-99.57
-111.63
-119.81
-121.48
-114.92
-99.88
-77.88
-51.71
-24.63
0.53
22
39.05
51.76
60.46
65.46
66.92
65.11
60.55
54.07
46.78
39.74
33.78
29.21
25.89
23.36
21.03
18.43
15.23
11.37
6.92
2.04
-3.07
-8.27
-13.51
-18.91
-24.67
-31.14
-38.73
-47.85
-58.68
-70.86
-83.17
-93.45
-99
-97.35
-87.25
-69.17
-45.36
-19.1
6.34
28.52
46.21
59.18
67.71
72.13
72.65
69.53
63.29
54.88
45.52
36.5
28.8
22.83
18.44
15
11.79
8.23
4.15
-0.3
-4.74
-8.85
-12.58
-16.21
-20.25
-25.33
-31.96
-40.46
-50.91
-62.99
-75.84
-87.96
-97.17
-101.14
-97.91
-86.72
-68.26
-44.67
-18.88
6.28
28.6
46.88
60.69
70.04
75.06
75.93
73.01
66.98
58.9
50.01
41.52
34.26
28.56
24.16
20.44
16.7
12.37
7.27
1.52
-4.49
-10.41
-16.06
-21.56
-27.38
-34.13
-42.51
-52.98
-65.58
-79.67
-93.75
-105.59
-112.61
-112.53
-104.1
-87.57
-64.69
-38.2
-11.08
14.2
35.99
53.47
66.38
74.68
78.5
78.24
74.59
68.61
61.47
54.25
47.61
41.78
36.6
31.7
26.74
21.49
15.93
10.2
4.48
-1.03
-6.34
-11.6
-17.15
-23.49
-31.18
-40.73
-52.42
-66.05
-80.6
-94.22
-104.35
-108.33
-104.23
-91.53
-71.39
-46.32
-19.47
6.35
29.21
48.13
62.86
73.39
79.73
81.93
80.27
75.45
68.59
60.97
53.66
47.33
42.01
37.35
32.79
27.85
22.36
16.39
10.24
4.22
-1.49
-6.96
-12.49
-18.52
-25.54
-33.96
-44.12
-56.13
-69.65
-83.57
-95.97
-104.2
-105.62
-98.44
-82.47
-59.37
-32.15
-4.24
21.5
43.32
60.62
73.46
82
86.27
86.27
82.28
75.15
66.27
57.2
49.24
42.96
38.15
34.05
29.73
24.59
18.52
11.92
5.4
-0.58
-5.91
-10.93
-16.29
-22.66
-30.6
-40.5
-52.38
-65.81
-79.75
-92.4
-101.35
-104.07
-98.73
-84.83
-63.57
-37.58
-10.13
15.76
38.01
55.64
68.48
76.66
80.39
79.87
75.57
68.44
59.82
51.25
43.93
38.42
34.48
31.28
27.82
23.36
17.79
11.52
5.36
-0.08
-4.6
-8.63
-13.06
-18.95
-27.18
-38.17
-51.68
-66.71
-81.4
-93.3
-99.72
-98.47
-88.51
-70.36
-46.07
-18.62
8.86
33.86
54.81
70.97
82.11
88.25
89.54
86.42
79.79
71
61.64
53.07
46.13
40.86
36.69
32.72
28.2
22.84
16.81
10.62
4.74
-0.61
-5.61
-10.76
-16.7
-24.09
-33.44
-45.04
-58.68
-73.36
-87.13
-97.21
-100.74
-95.62
-81.44
-59.7
-33.44
-6.18
19.09
40.59
57.77
70.73
79.7
84.71
85.67
82.74
76.69
68.77
60.47
53.02
47.04
42.46
38.67
34.91
30.53
25.25
19.18
12.7
6.26
0.19
-5.43
-10.85
-16.52
-23.05
-30.98
-40.74
-52.47
-65.72
-79.3
-91.19
-98.79
-99.57
-91.89
-75.68
-52.62
-25.7
1.68
26.63
47.37
63.24
74.38
81.22
84.14
83.43
79.46
72.91
64.8
56.35
48.7
42.56
38.01
34.61
31.57
28.13
23.88
18.8
13.21
7.5
1.9
-3.63
-9.42
-15.82
-23.18
-31.74
-41.67
-53.06
-65.75
-78.97
-91.09
-99.75
-102.34
-96.85
-82.74
-61.31
-35.3
-8.12
17.18
38.61
55.32
67.33
74.96
78.52
78.23
74.48
68.01
59.93
51.6
44.13
38.19
33.74
30.17
26.65
22.43
17.25
11.27
5.04
-0.91
-6.22
-10.96
-15.57
-20.65
-26.82
-34.59
-44.22
-55.68
-68.48
-81.4
-92.51
-99.42
-99.82
-92.36
-77.12
-55.75
-30.97
-5.74
17.49
37.18
52.68
63.8
70.51
72.86
71.06
65.8
58.24
49.86
42.1
35.85
31.33
28.02
25.01
21.43
16.8
11.22
5.17
-0.7
-6
-10.71
-15.24
-20.17
-26.18
-33.84
-43.51
-55.22
-68.34
-81.43
-92.18
-97.94
-96.44
-86.68
-69.33
-46.54
-21.19
4.02
27.16
47.09
63.21
75.03
82.04
83.95
81.09
74.48
65.75
56.65
48.52
41.95
36.74
32.18
27.43
21.99
15.78
9.23
2.93
-2.63
-7.35
-11.59
-16.09
-21.69
-29.13
-38.8
-50.67
-64.03
-77.46
-88.81
-95.61
-95.64
-87.71
-72.13
-50.72
-26.26
-1.69
20.68
39.52
54.32
65.01
71.6
74.03
72.38
67.15
59.37
50.51
42.12
35.29
30.36
26.91
23.98
20.57
16.11
10.64
4.71
-0.95
-5.88
-10.18
-14.44
-19.58
-26.49
-35.73
-47.31
-60.53
-73.9
-85.29
-92.29
-92.75
-85.5
-70.74
-50.14
-26.27
-1.89
20.73
40.17
55.75
67.15
74.15
76.64
74.76
69.23
61.35
52.68
44.69
38.18
33.21
29.17
25.2
20.58
15.11
9.14
3.29
-1.87
-6.14
-9.81
-13.58
-18.21
-24.38
-32.55
-42.8
-54.85
-67.72
-79.72
-88.53
-91.67
-87.35
-75.1
-56.09
-32.75
-8.07
15.34
35.72
52.2
64.5
72.47
76.01
75.16
70.39
62.75
53.77
45.02
37.71
32.3
28.47
25.43
22.26
18.36
13.56
8.19
2.75
-2.31
-6.8
-10.92
-15.15
-20.2
-26.76
-35.43
-46.48
-59.6
-73.74
-86.92
-96.61
-100.2
-95.89
-83.3
-63.7
-39.67
-14.25
9.84
30.84
47.84
60.59
68.98
72.95
72.58
68.38
61.38
53.01
44.77
37.72
32.28
28.16
24.61
20.86
16.33
10.97
5.13
-0.61
-5.74
-10.08
-13.85
-17.66
-22.28
-28.52
-36.94
-47.76
-60.45
-73.67
-85.19
-92.29
-92.51
-84.49
-68.53
-46.52
-21.41
3.81
26.81
46.23
61.5
72.38
78.73
80.47
77.91
71.85
63.61
54.68
46.32
39.24
33.5
28.71
24.26
19.65
14.62
9.26
3.84
-1.29
-5.91
-10.05
-14.06
-18.53
-24.22
-31.84
-41.91
-54.43
-68.64
-82.75
-94.24
-100.22
-98.38
-87.73
-69.03
-44.65
-17.73
8.64
32.23
51.86
67.14
78.06
84.62
86.85
84.95
79.58
71.82
62.99
54.32
46.66
40.33
35.12
30.51
25.91
20.92
15.42
9.6
3.86
-1.5
-6.35
-10.94
-15.7
-21.25
-28.1
-36.66
-47.11
-59.32
-72.66
-85.74
-96.39
-102.05
-100.42
-90.28
-72.08
-47.91
-20.91
5.67
29.26
48.44
62.79
72.48
77.88
79.33
77.21
72.11
64.95
56.9
49.11
42.5
37.49
33.99
31.52
29.41
27.06
24.09
20.36
16.01
11.24
6.18
0.78
-5.18
-12.04
-20.13
-29.72
-40.99
-53.92
-68.05
-82.26
-94.64
-102.69
-104.03
-97.08
-81.88
-60.06
-34.49
-8.32
15.8
36.23
52.26
63.77
70.84
73.63
72.39
67.7
60.48
51.95
43.36
35.73
29.63
25.13
21.83
19.02
16.02
12.31
7.78
2.66
-2.59
-7.57
-12.14
-16.52
-21.25
-26.97
-34.34
-43.73
-55.18
-68.08
-81.06
-92.03
-98.42
-97.95
-89.29
-72.74
-50.15
-24.48
1.08
24.01
42.78
56.88
66.37
71.5
72.5
69.73
63.85
55.96
47.45
39.58
33.18
28.36
24.63
21.18
17.31
12.69
7.41
1.91
-3.36
-8.14
-12.48
-16.74
-21.44
-27.17
-34.49
-43.84
-55.27
-68.3
-81.59
-92.97
-99.84
-99.87
-91.79
-75.88
-53.98
-28.91
-3.58
19.71
39.58
55.41
66.95
74
76.4
74.27
68.33
59.91
50.7
42.24
35.44
30.42
26.54
22.85
18.57
13.37
7.51
1.54
-3.93
-8.67
-12.89
-17.2
-22.38
-29.11
-37.81
-48.55
-61.01
-74.33
-86.99
-96.83
-101.46
-98.75
-87.73
-69.05
-44.86
-18.32
7.47
30.14
48.46
62.11
71.22
76
76.6
73.38
67.11
59.01
50.57
43.08
37.26
33.03
29.67
26.22
21.95
16.64
10.68
4.76
-0.5
-4.89
-8.77
-12.87
-18.13
-25.29
-34.77
-46.5
-59.82
-73.41
-85.24
-92.92
-94.17
-87.64
-73.31
-52.68
-28.29
-2.93
21
41.91
58.89
71.42
79.2
82.11
80.43
75.02
67.23
58.62
50.51
43.69
38.3
33.91
29.9
25.68
20.91
15.61
10.08
4.71
-0.21
-4.63
-8.82
-13.33
-18.8
-25.95
-35.28
-46.93
-60.32
-73.96
-85.52
-92.23
-91.7
-82.76
-65.94
-43.37
-18.07
6.94
29.45
48.29
63.1
73.8
80.26
82.22
79.73
73.34
64.36
54.56
45.63
38.68
33.86
30.49
27.46
23.81
19.09
13.53
7.71
2.21
-2.75
-7.41
-12.35
-18.2
-25.45
-34.37
-45.02
-57.18
-70.12
-82.42
-92
-96.42
-93.7
-82.98
-65.03
-42.05
-16.97
7.38
28.98
46.72
60.21
69.28
73.78
73.65
69.15
61.16
51.15
40.9
31.95
25.2
20.62
17.46
14.64
11.29
7.06
2.18
-2.83
-7.5
-11.79
-16.08
-21.04
-27.39
-35.64
-45.96
-58.08
-71.09
-83.37
-92.74
-96.79
-93.65
-82.58
-64.4
-41.21
-15.83
9.06
31.47
50.2
64.66
74.49
79.49
79.73
75.76
68.7
60.12
51.54
44.08
38.13
33.36
29.07
24.48
19.19
13.23
7.03
1.15
-4.03
-8.5
-12.69
-17.35
-23.34
-31.45
-42.08
-55.11
-69.58
-83.65
-94.7
-99.93
-97.18
-85.67
-66.43
-42.04
-15.8
9.32
31.34
49.45
63.57
73.82
80.06
82.04
79.73
73.72
65.37
56.42
48.46
42.39
38.1
34.77
31.27
26.84
21.32
15.2
9.24
4.05
-0.27
-4.2
-8.53
-14.1
-21.53
-31.13
-42.89
-56.35
-70.49
-83.54
-93.11
-96.65
-92.24
-79.32
-59.02
-33.94
-7.36
17.69
39.07
55.77
67.69
75.16
78.65
78.6
75.48
69.94
62.81
55.1
47.74
41.41
36.36
32.41
29.08
25.78
22.07
17.78
13.01
7.99
2.92
-2.15
-7.38
-13.05
-19.45
-26.84
-35.49
-45.64
-57.39
-70.37
-83.37
-94.29
-100.4
-99.19
-89.23
-70.89
-46.31
-18.82
8.08
31.69
50.5
64.19
73.09
77.78
78.79
76.62
71.84
65.25
57.75
50.29
43.64
38.19
34.01
30.79
28.1
25.41
22.3
18.49
13.9
8.66
2.96
-2.92
-8.86
-14.9
-21.23
-28.27
-36.43
-46.11
-57.36
-69.71
-81.86
-91.69
-96.66
-94.48
-83.99
-65.66
-41.65
-15.18
10.42
32.62
50.07
62.52
70.32
73.96
73.87
70.5
64.49
56.84
48.72
41.28
35.31
31.06
28.22
26.13
24.03
21.34
17.75
13.28
8.18
2.75
-2.76
-8.27
-13.91
-19.94
-26.68
-34.46
-43.63
-54.4
-66.62
-79.48
-91.3
-99.7
-102.11
-96.64
-82.81
-61.93
-36.69
-10.37
14.14
34.98
51.37
63.3
70.97
74.6
74.34
70.68
64.51
57.06
49.66
43.24
38.15
34.14
30.64
27.04
22.97
18.33
13.28
8.07
2.92
-2.07
-6.96
-11.95
-17.37
-23.61
-31.14
-40.39
-51.58
-64.46
-77.89
-89.82
-97.53
-98.37
-90.76
-74.75
-52.28
-26.45
-0.63
22.61
41.85
56.75
67.52
74.37
77.41
76.76
72.9
66.73
59.55
52.57
46.67
42.12
38.66
35.75
32.75
29.2
24.9
19.88
14.32
8.5
2.64
-3.16
-8.96
-15
-21.6
-29.13
-37.99
-48.48
-60.64
-73.91
-86.9
-97.32
-102.42
-99.82
-88.43
-69.04
-44.2
-17.41
7.93
29.49
46.35
58.66
67
71.88
73.51
72
67.68
61.33
54.07
47.07
41.2
36.8
33.71
31.39
29.25
26.76
23.61
19.71
15.15
10.13
4.81
-0.72
-6.57
-12.91
-19.98
-27.99
-37.17
-47.73
-59.69
-72.64
-85.39
-95.91
-101.6
-100.11
-90.19
-72.38
-48.89
-23.01
1.99
23.75
41.14
54.06
62.88
67.95
69.55
67.91
63.63
57.61
50.98
44.76
39.56
35.47
32.2
29.27
26.18
22.59
18.35
13.51
8.27
2.89
-2.38
-7.49
-12.58
-18.01
-24.23
-31.67
-40.62
-51.19
-63.13
-75.65
-87.23
-95.67
-98.56
-94.01
-81.41
-61.87
-37.98
-13.01
10.14
29.57
44.65
55.55
62.67
66.25
66.32
63.07
57.12
49.61
41.95
35.35
30.4
26.96
24.34
21.65
18.27
13.98
9.04
3.92
-0.9
-5.25
-9.3
-13.54
-18.63
-25.14
-33.45
-43.66
-55.48
-68.12
-80.16
-89.62
-94.24
-92.12
-82.38
-65.62
-43.84
-19.87
3.47
24.06
40.83
53.5
62.17
66.93
67.8
64.96
59.04
51.18
42.87
35.43
29.64
25.47
22.25
19.05
15.07
10.09
4.39
-1.4
-6.64
-11.02
-14.68
-18.17
-22.24
-27.67
-35.04
-44.61
-56.11
-68.5
-79.94
-88
-90.22
-84.91
-71.86
-52.46
-29.37
-5.58
16.41
35.17
50.26
61.71
69.63
73.87
74.3
71.12
65.19
57.88
50.73
44.86
40.6
37.49
34.6
31.05
26.43
20.88
14.94
9.17
3.87
-1.05
-5.97
-11.44
-17.94
-25.87
-35.49
-46.82
-59.44
-72.21
-83.3
-90.34
-91.14
-84.44
-70.45
-50.9
-28.48
-6
14.45
31.77
45.75
56.52
64.04
68.09
68.43
65.28
59.54
52.66
46.15
41.03
37.49
34.89
32.24
28.69
23.96
18.37
12.58
7.22
2.49
-1.85
-6.4
-11.72
-18.22
-26.11
-35.52
-46.54
-59
-72.13
-84.28
-93.04
-95.83
-90.81
-77.6
-57.57
-33.47
-8.47
14.64
34.14
49.33
60.29
67.32
70.76
70.89
68.06
62.92
56.44
49.7
43.69
38.97
35.57
33.04
30.69
27.85
24.15
19.54
14.28
8.73
3.19
-2.21
-7.58
-13.17
-19.34
-26.39
-34.65
-44.3
-55.35
-67.32
-79.02
-88.53
-93.44
-91.63
-82.03
-65.16
-43.11
-18.88
4.57
25.11
41.71
54.25
62.97
68.11
69.81
68.28
64.07
58.11
51.53
45.34
40.2
36.18
32.97
30.05
26.91
23.22
18.85
13.9
8.53
2.95
-2.66
-8.25
-13.85
-19.69
-26.08
-33.51
-42.38
-52.96
-64.94
-77.3
-88.14
-95.07
-95.8
-88.95
-74.61
-54.38
-30.93
-7.15
14.65
33.07
47.69
58.53
65.74
69.38
69.55
66.59
61.29
54.76
48.16
42.41
37.87
34.4
31.52
28.63
25.32
21.46
17.16
12.67
8.21
3.78
-0.75
-5.75
-11.59
-18.65
-27.21
-37.4
-49.15
-61.88
-74.44
-84.93
-91.07
-90.82
-83.04
-68.06
-47.64
-24.47
-1.29
19.77
37.54
51.58
61.87
68.46
71.38
70.87
67.48
62.17
56.03
50.06
44.91
40.77
37.48
34.7
32.07
29.26
26.04
22.25
17.8
12.69
6.96
0.76
-5.75
-12.43
-19.21
-26.21
-33.77
-42.38
-52.53
-64.41
-77.46
-90.24
-100.45
-105.47
-103.13
-92.53
-74.35
-50.75
-24.7
0.95
24.08
43.56
59.04
70.48
77.91
81.35
81.05
77.68
72.38
66.49
61.07
56.61
52.89
49.35
45.41
40.98
36.4
32.29
29.08
26.62
24.26
21.03
16.19
9.57
1.63
-6.77
-14.8
-22.04
-28.6
-35.01
-42.01
-50.28
-60.28
-72.03
-84.95
-97.68
-108.02
-113.45
-111.64
-101.43
-83.31
-59.33
-32.57
-6.11
17.71
37.66
53.38
65
72.7
76.59
76.97
74.46
70.11
65.08
60.38
56.45
53.24
50.3
47.17
43.68
39.99
36.5
33.51
31.05
28.74
25.94
21.98
16.49
9.59
1.75
-6.26
-13.87
-20.82
-27.36
-34.18
-42.16
-52.04
-64.05
-77.59
-91.12
-102.29
-108.54
-107.77
-99.05
-82.95
-61.37
-36.9
-12.15
10.9
31.01
47.57
60.27
68.96
73.64
74.62
72.64
68.72
63.93
59.08
54.51
50.2
45.88
41.44
36.91
32.53
28.61
25.21
22.12
18.87
14.87
9.72
3.34
-3.92
-11.47
-18.71
-25.33
-31.44
-37.56
-44.48
-52.95
-63.38
-75.48
-88.15
-99.39
-106.7
-107.74
-101.03
-86.55
-65.8
-41.42
-16.32
7.03
27.09
43.17
55.18
63.26
67.61
68.54
66.57
62.43
57
51.1
45.31
40.03
35.39
31.41
27.96
24.8
21.64
18.14
14.08
9.33
3.98
-1.79
-7.77
-13.83
-19.94
-26.16
-32.68
-39.76
-47.82
-57.2
-67.98
-79.61
-90.66
-98.89
-101.78
-97.36
-84.98
-65.7
-41.98
-16.87
6.89
27.51
44.24
57.06
66.18
71.77
73.99
73.09
69.64
64.47
58.52
52.53
46.99
42.03
37.6
33.54
29.62
25.62
21.28
16.43
10.99
5.08
-1.13
-7.43
-13.71
-19.99
-26.46
-33.39
-41.15
-50.16
-60.7
-72.64
-85.17
-96.54
-104.36
-106.13
-100.2
-86.28
-65.79
-41.32
-15.89
7.87
28.33
44.77
57.23
66.01
71.42
73.7
73.11
70.05
65.08
58.98
52.52
46.41
41.09
36.67
32.95
29.5
25.88
21.78
17.09
11.83
6.14
0.11
-6.18
-12.73
-19.54
-26.66
-34.28
-42.71
-52.4
-63.68
-76.36
-89.44
-100.92
-108.21
-108.79
-101.14
-85.35
-63.17
-37.56
-11.72
11.74
31.34
46.71
58.18
66.22
71.15
73.09
72.16
68.68
63.26
56.84
50.35
44.53
39.7
35.79
32.43
29.17
25.66
21.69
17.24
12.32
7.02
1.39
-4.5
-10.64
-17.1
-24.02
-31.7
-40.57
-51.05
-63.24
-76.59
-89.65
-100.11
-105.28
-102.95
-92.19
-73.74
-49.92
-23.86
1.45
23.78
42.05
56.01
65.84
71.82
74.14
73.11
69.26
63.44
56.68
49.99
44.05
39.14
35.16
31.7
28.32
24.61
20.39
15.64
10.51
5.22
-0.06
-5.31
-10.67
-16.43
-22.96
-30.66
-39.95
-51.01
-63.61
-76.82
-88.85
-97.32
-99.78
-94.51
-81.19
-61.15
-36.97
-11.7
11.96
32.29
48.54
60.62
68.71
72.96
73.54
70.77
65.39
58.41
51.03
44.2
38.44
33.68
29.48
25.22
20.49
15.22
9.69
4.32
-0.54
-4.84
-8.86
-13.18
-18.41
-25.09
-33.55
-43.91
-55.96
-68.99
-81.66
-91.86
-97.17
-95.43
-85.68
-68.57
-46.27
-21.74
2.16
23.5
41.43
55.84
66.85
74.41
78.28
78.3
74.8
68.68
61.26
53.86
47.38
42.12
37.82
33.92
29.84
25.25
20.1
14.57
8.91
3.27
-2.35
-8.15
-14.35
-21.25
-29.19
-38.46
-49.29
-61.44
-74.04
-85.32
-92.92
-94.49
-88.46
-74.71
-54.73
-31.11
-6.74
15.98
35.61
51.56
63.65
71.84
75.98
76.11
72.67
66.69
59.51
52.49
46.55
41.89
38.11
34.52
30.47
25.61
20.02
14.06
8.15
2.58
-2.6
-7.59
-12.79
-18.6
-25.43
-33.65
-43.51
-55.1
-68.05
-81.3
-92.92
-100.48
-101.57
-94.66
-79.74
-58.39
-33.28
-7.36
16.95
38.15
55.49
68.75
77.79
82.54
83.16
80.17
74.54
67.49
60.22
53.62
48.07
43.49
39.43
35.35
30.74
25.37
19.31
12.97
6.85
1.32
-3.53
-8.06
-12.86
-18.67
-26.06
-35.38
-46.65
-59.49
-72.96
-85.37
-94.49
-97.88
-93.7
-81.33
-61.81
-37.56
-11.66
13.02
34.52
51.89
65
74.06
79.27
80.84
79.08
74.56
68.12
60.82
53.54
46.95
41.25
36.36
31.94
27.61
23.13
18.36
13.37
8.29
3.22
-1.8
-6.92
-12.31
-18.27
-25.03
-32.91
-42.11
-52.71
-64.29
-75.75
-85.24
-90.45
-89.28
-80.6
-64.73
-43.46
-19.42
4.62
26.56
45.1
59.72
70.22
76.57
78.77
77.07
72.11
64.9
56.69
48.65
41.61
35.88
31.37
27.64
24.15
20.44
16.17
11.25
5.79
0.05
-5.65
-11.15
-16.48
-22.04
-28.42
-36.29
-46.09
-57.73
-70.44
-82.69
-92.4
-97.36
-95.79
-86.83
-70.89
-49.58
-25.31
-0.66
22.19
41.75
57.25
68.37
75.02
77.29
75.5
70.37
62.98
54.64
46.53
39.43
33.55
28.64
24.21
19.79
15.18
10.41
5.71
1.26
-2.87
-6.82
-10.9
-15.49
-20.95
-27.69
-36.04
-46.19
-57.91
-70.31
-81.67
-89.69
-92.01
-87.03
-74.51
-55.76
-33.22
-9.71
12.35
31.47
47.06
58.99
67.28
71.81
72.49
69.51
63.55
55.8
47.62
40.19
34.15
29.53
25.87
22.51
18.96
14.99
10.65
6.1
1.51
-3.08
-7.76
-12.67
-17.95
-23.78
-30.43
-38.28
-47.73
-58.91
-71.3
-83.39
-92.84
-96.97
-93.65
-82.11
-63.29
-39.54
-13.91
10.77
32.49
50.18
63.54
72.61
77.53
78.5
75.95
70.61
63.5
55.78
48.39
41.93
36.53
31.97
27.85
23.86
19.86
15.87
12.02
8.29
4.53
0.47
-4.14
-9.43
-15.36
-21.83
-28.86
-36.7
-45.77
-56.38
-68.31
-80.46
-90.79
-96.77
-96.12
-87.6
-71.55
-49.84
-25.29
-0.84
21.22
39.54
53.64
63.6
69.64
71.98
70.91
66.91
60.76
53.39
45.79
38.76
32.76
27.92
24.09
20.95
18.15
15.31
12.09
8.25
3.67
-1.63
-7.47
-13.63
-19.95
-26.41
-33.2
-40.68
-49.3
-59.43
-71.07
-83.64
-95.73
-105.25
-109.78
-107.31
-96.94
-79.32
-56.55
-31.58
-7.29
14.21
31.86
45.48
55.2
61.18
63.44
62.08
57.59
50.89
43.2
35.7
29.16
23.85
19.52
15.75
12.1
8.27
4.1
-0.54
-5.77
-11.73
-18.48
-25.98
-34.02
-42.32
-50.7
-59.17
-68.1
-77.95
-89.01
-100.88
-112.18
-120.66
-123.7
-119.22
-106.48
-86.44
-61.58
-35.08
-9.98
11.66
28.9
41.84
51.08
57.39
61.43
63.79
65.06
65.97
67.37
70.14
75.04
82.57
92.97
106.21
122.07
140.15
159.75
