179.88
199.06
215.5
227.35
233.13
232.12
224.59
211.64
194.77
175.28
153.87
130.61
105.28
77.98
49.63
22.01
-2.79
-23.2
-38.96
-51.26
-62.17
-73.8
-87.34
-102.95
-120.09
-138.22
-157.06
-176.21
-194.49
-209.48
-218.02
-217.5
-207.21
-189.08
-167.08
-145.66
-128.07
-115.34
-106.47
-99.56
-93
-86.29
-79.93
-74.89
-71.97
-71.52
-73.52
-77.79
-84
-91.39
-98.49
-103.06
-102.47
-94.51
-78.28
-54.64
-26.04
4.28
33.29
58.99
80.59
98.17
111.98
121.95
127.55
128.16
123.59
114.49
102.3
88.96
76.25
65.26
56.22
48.67
41.84
35.08
28.04
20.79
13.55
6.53
-0.27
-7.09
-14.36
-22.66
-32.56
-44.49
-58.4
-73.59
-88.44
-100.56
-107.24
-106.2
-96.35
-78.15
-53.55
-25.43
3.21
29.81
52.63
70.67
83.46
90.91
93.3
91.25
85.8
78.19
69.74
61.52
54.21
48.04
42.81
38.08
33.37
28.35
22.95
17.34
11.74
6.33
1.02
-4.42
-10.37
-17.17
-25.13
-34.54
-45.58
-58.15
-71.51
-84.01
-93.24
-96.52
-91.8
-78.48
-57.68
-32.01
-4.67
21.36
44.04
62.23
75.46
83.59
86.58
84.66
78.49
69.33
58.86
48.77
40.31
33.88
29.11
25.04
20.72
15.59
9.73
3.67
-1.94
-6.76
-10.93
-15.01
-19.8
-25.94
-33.87
-43.7
-55.19
-67.67
-79.83
-89.75
-95.16
-94.08
-85.39
-69.44
-47.91
-23.37
1.49
24.51
44.24
59.87
70.95
77.23
78.7
75.74
69.29
60.76
51.75
43.62
37.15
32.39
28.77
25.52
22
18.01
13.76
9.69
6.04
2.7
-0.84
-5.38
-11.67
-20.26
-31.26
-44.3
-58.31
-71.52
-81.57
-86.03
-83
-71.82
-53.39
-29.9
-4.26
20.8
43.23
61.84
76.09
85.69
90.47
90.41
85.94
78.07
68.34
58.42
49.68
42.77
37.5
33.17
28.9
24.16
18.9
13.53
8.57
4.32
0.58
-3.26
-8.07
-14.6
-23.29
-34.16
-46.72
-59.82
-71.76
-80.34
-83.3
-78.98
-66.98
-48.34
-25.34
-0.84
22.56
42.99
59.48
71.62
79.33
82.62
81.74
77.29
70.26
61.99
53.68
46.21
39.91
34.61
29.81
25.01
19.89
14.42
8.89
3.64
-1.09
-5.35
-9.54
-14.3
-20.36
-28.33
-38.54
-50.7
-63.78
-75.94
-84.81
-87.99
-83.87
-72.17
-54.13
-32.14
-8.92
13.15
32.53
48.37
60.26
67.9
71.02
69.66
64.37
56.36
47.22
38.49
31.18
25.56
21.19
17.32
13.21
8.5
3.27
-2.06
-7.04
-11.41
-15.25
-19
-23.34
-28.9
-36.21
-45.44
-56.32
-67.98
-78.89
-86.98
-90.06
-86.45
-75.54
-58.18
-36.46
-13.05
9.45
29.14
44.94
56.41
63.4
65.92
64.17
58.74
50.76
41.69
32.99
25.71
20.17
16.02
12.55
9.06
5.16
0.86
-3.56
-7.78
-11.67
-15.33
-19.12
-23.58
-29.26
-36.67
-45.97
-56.79
-67.96
-77.54
-83.24
-83.02
-75.79
-61.79
-42.6
-20.59
1.78
22.48
40.19
54.15
63.91
69.14
69.72
66
58.94
50.08
41.12
33.4
27.45
22.97
19.11
14.99
10.16
4.76
-0.64
-5.47
-9.42
-12.72
-15.96
-19.98
-25.5
-32.99
-42.53
-53.69
-65.42
-76.01
-83.35
-85.34
-80.55
-68.71
-50.93
-29.39
-6.71
14.78
33.53
48.75
60.18
67.69
71.13
70.43
65.87
58.33
49.22
40.16
32.45
26.67
22.55
19.26
15.8
11.52
6.38
0.77
-4.66
-9.44
-13.52
-17.24
-21.23
-26.26
-32.98
-41.82
-52.79
-65.19
-77.52
-87.51
-92.66
-90.93
-81.46
-64.98
-43.56
-19.94
3.29
24.23
41.78
55.39
64.71
69.51
69.76
65.94
59.1
50.75
42.41
35.2
29.61
25.48
22.23
19.16
15.74
11.77
7.32
2.68
-1.85
-6.17
-10.44
-15.04
-20.41
-26.95
-34.86
-44.18
-54.69
-65.8
-76.36
-84.67
-88.69
-86.6
-77.48
-61.71
-41.05
-18.06
4.62
24.92
41.59
54.07
62.18
65.85
65.18
60.6
53.08
44.1
35.26
27.88
22.53
18.97
16.33
13.57
9.93
5.28
0.03
-5.08
-9.49
-13.1
-16.32
-20.02
-25.1
-32.32
-41.96
-53.73
-66.69
-79.19
-89.11
-94.23
-92.77
-83.92
-68.15
-47.16
-23.41
0.47
22.3
40.49
54.15
62.88
66.72
66.05
61.66
54.67
46.44
38.28
31.18
25.59
21.34
17.86
14.41
10.46
5.89
0.94
-3.93
-8.37
-12.33
-16.17
-20.57
-26.28
-34.02
-44.15
-56.45
-69.89
-82.5
-91.67
-94.81
-90.12
-77.31
-57.76
-34.07
-9.23
14.23
34.68
51.3
63.73
71.73
75.1
73.88
68.71
60.81
51.83
43.3
36.17
30.64
26.14
21.92
17.36
12.3
7.06
2.13
-2.08
-5.6
-8.88
-12.68
-17.84
-25.09
-34.81
-46.88
-60.44
-73.84
-84.83
-90.96
-90.33
-82.13
-67.01
-46.79
-24.01
-1.17
19.71
37.3
50.8
59.83
64.29
64.39
60.77
54.43
46.65
38.72
31.62
25.85
21.36
17.69
14.2
10.37
5.98
1.15
-3.72
-8.29
-12.47
-16.52
-21.13
-27.17
-35.48
-46.51
-59.93
-74.42
-87.67
-96.8
-99.14
-93.08
-78.58
-57.28
-31.84
-5.21
20.18
42.65
61.19
75.1
83.79
86.88
84.54
77.71
68.09
57.71
48.42
41.23
36.21
32.61
29.36
25.6
20.94
15.61
10.14
5.11
0.72
-3.26
-7.48
-12.77
-19.91
-29.39
-41.19
-54.69
-68.43
-80.29
-87.75
-88.53
-81.29
-66.07
-44.43
-18.95
7.36
31.88
52.64
68.49
78.87
83.65
83.1
77.95
69.5
59.4
49.37
40.72
34.01
29.01
24.9
20.81
16.15
10.86
5.3
0.01
-4.71
-8.94
-13.21
-18.33
-25.19
-34.51
-46.49
-60.52
-74.96
-87.24
-94.33
-93.69
-84.11
-66.17
-42.11
-15.09
11.76
36.04
56.29
71.78
82.14
87.14
86.86
81.83
73.32
63.1
53.04
44.53
38.05
33.18
28.92
24.29
18.84
12.79
6.92
1.98
-1.71
-4.57
-7.58
-12.01
-18.95
-28.95
-41.78
-56.34
-70.64
-82.09
-88.01
-86.29
-76.15
-58.36
-35.1
-9.29
16.15
38.95
57.64
71.43
79.95
83.12
81.31
75.43
66.95
57.66
49.16
42.41
37.52
33.85
30.44
26.49
21.69
16.24
10.69
5.55
0.99
-3.29
-7.96
-13.88
-21.86
-32.37
-45.22
-59.28
-72.53
-82.23
-85.7
-81.09
-68.07
-48.05
-23.7
1.78
25.66
46.07
62.06
73.25
79.51
80.83
77.53
70.5
61.19
51.36
42.53
35.55
30.36
26.19
22.1
17.44
12.18
6.8
1.97
-1.91
-5
-7.97
-11.85
-17.64
-26.07
-37.24
-50.52
-64.35
-76.45
-84.22
-85.36
-78.68
-64.39
-44.22
-20.68
3.52
26.22
45.97
61.79
73
79.02
79.63
75.26
67.15
57.16
47.19
38.61
31.86
26.54
21.79
16.86
11.48
5.89
0.62
-3.9
-7.61
-10.93
-14.57
-19.41
-26.11
-35.03
-45.97
-58.05
-69.67
-78.68
-82.84
-80.39
-70.59
-54.05
-32.51
-8.36
15.89
38.1
56.61
70.23
78.19
80.18
76.55
68.35
57.24
45.15
33.75
24.14
16.57
10.66
5.69
1.03
-3.58
-8.04
-12.03
-15.42
-18.37
-21.57
-25.91
-32.34
-41.41
-53.01
-66.2
-79.13
-89.21
-93.63
-90.08
-77.57
-56.92
-30.69
-2.45
24.2
46.66
63.61
74.88
80.94
82.33
79.6
73.38
64.74
55.07
45.89
38.29
32.55
28.18
24.21
19.83
14.71
9.15
3.73
-1.06
-5.22
-9.34
-14.39
-21.44
-31.2
-43.64
-57.75
-71.53
-82.32
-87.43
-84.92
-74.2
-56.24
-33.29
-8.13
16.61
38.97
57.74
72.22
81.93
86.55
86.07
81.05
72.7
62.71
52.81
44.22
37.44
32.14
27.53
22.79
17.48
11.71
5.97
0.77
-3.69
-7.64
-11.81
-17.14
-24.5
-34.44
-46.96
-61.27
-75.72
-87.88
-94.97
-94.64
-85.7
-68.63
-45.58
-19.66
5.94
28.81
47.6
61.92
71.81
77.38
78.77
76.24
70.46
62.53
53.84
45.69
38.96
33.95
30.33
27.4
24.33
20.52
15.75
10.27
4.55
-0.94
-6.11
-11.27
-17.03
-24.07
-32.85
-43.5
-55.81
-69.17
-82.49
-94.13
-101.98
-103.85
-98.14
-84.5
-64.08
-39.33
-13.31
11.13
31.92
47.91
58.71
64.34
65.05
61.37
54.11
44.61
34.48
25.35
18.5
14.45
12.85
12.66
12.55
11.36
8.54
4.19
-1.02
-6.32
-11.11
-15.3
-19.21
-23.4
-28.43
-34.69
-42.47
-51.89
-62.83
-74.63
-85.89
-94.43
-97.7
-93.58
-81.16
-61.23
-36.15
-9.14
16.63
38.81
56.21
68.58
76.2
79.54
79.09
75.46
69.45
62.04
54.27
46.94
40.52
35.06
30.28
25.83
21.44
16.97
12.34
7.55
2.49
-2.97
-8.93
-15.44
-22.38
-29.58
-36.9
-44.36
-52.25
-61.03
-71.12
-82.4
-93.92
-103.77
-109.45
-108.59
-99.82
-83.21
-60.44
-34.14
-7.21
17.97
39.8
57.44
70.54
78.98
82.87
82.62
79.12
73.63
67.57
62.12
57.91
54.94
52.72
50.61
48.21
45.48
42.7
40.14
37.8
35.27
31.81
26.71
19.6
10.68
0.66
-9.51
-19.04
-27.53
-35.15
-42.48
-50.36
-59.6
-70.66
-83.33
-96.54
-108.26
-115.9
-116.92
-109.68
-94.02
-71.43
-44.53
-16.23
11.14
36.27
58.81
78.89
96.61
111.79
124.16
133.66
140.82
146.77
152.92
160.51
170.09
181.31
192.99
203.49
211.12
214.47
212.44
204.17
188.97
166.37
136.47
100.28
59.77
17.75
-22.62
-58.39
-87.28
-108.02
-120.58
-126.19
-127.13
-126.34
-126.65
-130.11
-137.32
-147.33
-157.84
-165.93
-168.81
-164.53
-152.41
-133.09
-108.36
-80.7
-52.68
-26.58
-3.95
14.33
27.95
37.03
41.96
43.41
42.24
39.43
35.9
32.31
28.93
25.76
22.61
19.36
16.07
12.99
10.43
8.49
6.99
5.37
2.94
-0.91
-6.37
-13.18
-20.71
-28.23
-35.24
-41.65
-47.86
-54.6
-62.61
-72.4
-83.82
-95.94
-107
-114.69
-116.66
-111.22
-97.92
-77.78
-53.1
-26.79
-1.64
20.34
38.09
51.39
60.53
65.95
68.09
67.36
64.25
59.35
53.41
47.18
41.29
36.12
31.74
28.04
24.72
21.52
18.24
14.74
10.86
6.42
1.22
-4.86
-11.69
-18.96
-26.24
-33.24
-40.01
-47.01
-55.05
-64.83
-76.54
-89.33
-101.31
-109.79
-112.03
-106.16
-91.79
-70.27
-44.2
-16.78
9.16
31.6
49.55
62.81
71.58
76.33
77.6
76.1
72.56
67.77
62.36
56.7
51.01
45.34
39.85
34.8
30.51
27.19
24.79
22.83
20.51
16.99
11.7
4.56
-3.99
-13.09
-21.9
-29.86
-36.97
-43.82
-51.29
-60.34
-71.43
-84.24
-97.36
-108.45
-114.76
-113.86
-104.51
-87.04
-63.33
-36.2
-8.62
16.98
39.03
56.75
69.9
78.49
82.8
83.37
81.02
76.72
71.35
65.52
59.57
53.6
47.77
42.33
37.61
33.83
30.9
28.38
25.62
21.92
16.9
10.49
3.06
-4.88
-12.82
-20.48
-27.89
-35.39
-43.6
-53.19
-64.64
-77.87
-91.92
-104.8
-113.83
-116.27
-110.23
-95.34
-72.97
-45.87
-17.38
9.52
32.73
51.25
64.87
73.89
78.72
79.83
77.71
72.96
66.36
58.75
50.97
43.76
37.63
32.81
29.24
26.6
24.43
22.24
19.58
16.22
12.03
7.04
1.34
-4.95
-11.78
-19.13
-27.07
-35.84
-45.74
-57.07
-69.76
-83.05
-95.31
-104.1
-106.8
-101.42
-87.41
-66
-39.88
-12.39
13.45
35.59
53.15
66.08
74.71
79.38
80.34
77.92
72.7
65.61
57.76
50.26
43.85
38.8
34.87
31.55
28.27
24.66
20.59
16.16
11.46
6.57
1.42
-4.13
-10.24
-17.06
-24.75
-33.54
-43.76
-55.59
-68.83
-82.45
-94.45
-102.2
-103.09
-95.42
-79.16
-56.01
-29.01
-1.52
23.67
44.88
61.55
73.76
81.82
85.89
86.16
82.95
76.96
69.16
60.68
52.47
45.22
39.18
34.24
30.05
26.1
21.94
17.24
11.93
6.11
-0.02
-6.32
-12.84
-19.7
-27.21
-35.68
-45.43
-56.7
-69.38
-82.75
-95.24
-104.47
-107.8
-103.24
-90.16
-69.71
-44.47
-17.64
7.85
29.97
47.6
60.34
68.08
70.92
69.27
63.94
56.22
47.5
38.95
31.15
24.02
17.07
9.79
2.02
-5.92
-13.33
-19.35
-23.29
-24.82
-24.07
-21.56
-18.09
-14.52
-11.61
-9.79
-9.15
-9.25
-9.34
-8.35
-5.18
1.21
11.59
26.36
45.47
68.22
93.35
119.02
143.06
163.28
177.85
185.48
185.5
177.69
162.1
138.98
109.04
73.84
36.01
-0.9
-33.04
-57.17
-71.54
-76.34
-73.58
-66.46
-58.34
-51.9
-48.63
-48.71
-51.4
-55.5
-60.01
-64.42
-68.79
-73.64
-79.6
-87.14
-96.18
-105.95
-114.85
-120.68
-121.05
-114.22
-99.61
-78.22
-52.31
-24.79
1.54
24.66
43.43
57.4
66.55
71
71.06
67.29
60.67
52.44
43.99
36.45
30.43
25.95
22.47
19.21
15.47
10.92
5.69
0.23
-4.97
-9.71
-14.17
-18.87
-24.44
-31.43
-40.13
-50.59
-62.5
-75.06
-86.85
-95.82
-99.67
-96.44
-85.24
-66.73
-43.03
-17.09
8.13
30.41
48.61
62.35
71.71
76.81
77.71
74.68
68.38
59.95
50.8
42.26
35.18
29.73
25.51
21.81
17.98
13.63
8.8
3.75
-1.17
-5.76
-10.17
-14.8
-20.3
-27.35
-36.46
-47.78
-60.88
-74.61
-87.08
-95.87
-98.58
-93.52
-80.38
-60.37
-35.95
-10.09
14.59
36.29
54.1
67.71
77
81.95
82.6
79.38
73.17
65.2
56.81
49.05
42.5
37.13
32.56
28.2
23.66
18.78
13.68
8.62
3.8
-0.79
-5.43
-10.52
-16.53
-23.83
-32.68
-43.22
-55.35
-68.5
-81.37
-91.84
-97.4
-95.77
-85.77
-67.9
-44.25
-17.92
7.98
31.08
50.09
64.65
74.82
80.74
82.51
80.35
74.87
67.1
58.35
49.85
42.48
36.54
31.79
27.69
23.69
19.41
14.79
10.01
5.35
0.98
-3.16
-7.37
-12.07
-17.7
-24.61
-33.09
-43.3
-55.19
-68.21
-81.03
-91.52
-97.11
-95.58
-85.84
-68.4
-45.38
-19.79
5.28
27.58
45.82
59.65
69.12
74.36
75.47
72.68
66.59
58.25
49.03
40.31
33.07
27.61
23.53
20.04
16.3
11.83
6.66
1.2
-4.02
-8.69
-12.87
-16.96
-21.46
-26.87
-33.56
-41.79
-51.64
-62.83
-74.43
-84.69
-91.25
-91.7
-84.46
-69.4
-48.02
-23.02
2.58
26.21
46.26
62.06
73.47
80.49
83.11
81.42
75.91
67.6
57.91
48.4
40.22
33.79
28.82
24.5
19.99
14.79
8.97
2.99
-2.51
-7.13
-10.97
-14.63
-19.01
-24.98
-33.17
-43.68
-56.02
-69.03
-80.92
-89.5
-92.62
-88.71
-77.35
-59.45
-37.07
-12.82
10.84
32.08
49.77
63.35
72.47
76.94
76.8
72.55
65.23
56.31
47.26
39.16
32.51
27.1
22.38
17.75
12.8
7.44
1.88
-3.6
-8.73
-13.43
-17.93
-22.66
-28.19
-35.16
-44.03
-54.82
-66.86
-78.65
-87.97
-92.37
-89.91
-79.73
-62.54
-40.35
-15.92
8.03
29.43
47.13
60.7
70.04
75.17
76.14
73.26
67.24
59.31
50.81
42.99
36.51
31.35
26.99
22.67
17.8
12.2
6.12
0.04
-5.55
-10.4
-14.64
-18.72
-23.27
-28.96
-36.34
-45.75
-57.05
-69.48
-81.45
-90.67
-94.64
-91.42
-80.31
-62.23
-39.47
-14.94
8.6
29.23
45.9
58.24
66.15
69.64
68.9
64.46
57.31
48.75
40.12
32.48
26.3
21.48
17.43
13.4
8.77
3.36
-2.55
-8.36
-13.51
-17.81
-21.54
-25.44
-30.37
-37.06
-45.82
-56.44
-68.09
-79.31
-88.08
-92.19
-89.77
-79.92
-63.11
-41.19
-16.85
7.14
28.57
46.11
59.16
67.5
71.07
69.96
64.73
56.48
46.84
37.56
29.94
24.45
20.66
17.59
14.18
9.84
4.6
-1
-6.31
-10.92
-14.86
-18.61
-22.91
-28.61
-36.38
-46.56
-58.83
-72.02
-84.06
-92.37
-94.43
-88.69
-75.02
-54.9
-30.93
-6.01
17.37
37.52
53.54
65.05
71.88
74.06
71.88
66.12
58.03
49.11
40.73
33.76
28.31
23.86
19.58
14.75
9.13
3
-3.04
-8.45
-13.05
-17.14
-21.47
-26.96
-34.5
-44.61
-57.18
-71.23
-84.8
-95.22
-99.73
-96.39
-84.69
-65.89
-42.47
-17.38
6.82
28.4
46.4
60.23
69.4
73.53
72.61
67.33
59.13
49.92
41.41
34.65
29.76
26.01
22.37
17.99
12.65
6.68
0.82
-4.32
-8.52
-12.09
-15.82
-20.63
-27.38
-36.57
-48.15
-61.31
-74.37
-84.94
-90.37
-88.53
-78.48
-60.96
-38.12
-12.93
11.79
33.88
52.1
65.9
74.98
79.2
78.61
73.76
65.82
56.4
47.13
39.12
32.71
27.46
22.61
17.48
11.87
6.06
0.6
-4.03
-7.76
-11.03
-14.69
-19.79
-27.25
-37.48
-50.14
-63.93
-76.71
-85.84
-88.84
-84.11
-71.46
-52.22
-28.85
-4.18
19.22
39.52
55.63
67.02
73.49
75.11
72.3
66
57.6
48.59
40.21
33.04
26.94
21.33
15.49
9.1
2.36
-4.13
-9.7
-14.04
-17.38
-20.52
-24.57
-30.62
-39.36
-50.77
-63.95
-77
-87.37
-92.28
-89.6
-78.45
-59.67
-35.53
-9.12
16.51
39.05
57.09
70.02
77.73
80.44
78.67
73.36
65.8
57.42
49.35
42.18
35.86
29.92
23.86
17.44
10.83
4.48
-1.07
-5.53
-9.06
-12.27
-16.15
-21.82
-30.16
-41.46
-55.06
-69.16
-81.03
-87.69
-86.73
-77.19
-59.85
-37
-11.7
13.15
35.4
53.77
67.65
76.75
80.93
80.38
75.77
68.33
59.61
51.02
43.41
36.91
31.12
25.44
19.52
13.42
7.52
2.27
-2.14
-5.97
-9.89
-14.76
-21.44
-30.52
-42.04
-55.28
-68.65
-79.81
-86.07
-85.17
-76.01
-59.08
-36.38
-10.77
14.89
38.32
58.15
73.62
84.3
89.87
90.31
86.05
78.27
68.6
58.71
49.8
42.2
35.55
29.14
22.48
15.49
8.57
2.24
-3.19
-7.85
-12.3
-17.35
-23.85
-32.43
-43.29
-55.95
-69.06
-80.45
-87.49
-87.83
-80.1
-64.38
-42.26
-16.25
10.89
36.77
59.55
77.92
90.86
97.64
97.99
92.41
82.26
69.62
56.66
45.12
35.8
28.52
22.47
16.7
10.68
4.4
-1.71
-7.16
-11.76
-15.82
-20.11
-25.64
-33.34
-43.65
-56.22
-69.73
-82
-90.37
-92.34
-86.17
-71.4
-49.1
-21.63
7.66
35.23
58.02
74.04
82.66
84.49
81.02
74.05
65.25
55.91
46.87
38.68
31.54
25.44
20.09
15.09
10.04
4.79
-0.58
-5.79
-10.68
-15.38
-20.35
-26.36
-34.18
-44.19
-56.03
-68.4
-79.05
-85.28
-84.71
-75.97
-59.33
-36.66
-10.87
14.86
37.86
56.39
69.67
77.58
80.41
78.72
73.36
65.43
56.26
47.1
38.81
31.72
25.55
19.76
13.84
7.64
1.43
-4.3
-9.11
-13.02
-16.56
-20.75
-26.71
-35.32
-46.65
-59.74
-72.58
-82.44
-86.61
-83.22
-71.8
-53.51
-30.71
-6.24
17.26
37.91
54.53
66.5
73.5
75.5
72.91
66.68
58.31
49.41
41.28
34.47
28.78
23.54
18.02
11.93
5.5
-0.72
-6.16
-10.62
-14.43
-18.37
-23.45
-30.54
-40.13
-51.95
-64.79
-76.54
-84.54
-86.33
-80.39
-66.68
-46.69
-22.96
1.68
24.8
44.66
60.24
70.96
76.57
77.22
73.55
66.68
58.06
49.11
40.75
33.35
26.72
20.41
14.03
7.44
0.78
-5.6
-11.33
-16.22
-20.35
-24.2
-28.52
-34.25
-42.15
-52.37
-64.1
-75.4
-83.63
-86.05
-80.8
-67.55
-47.66
-23.79
0.97
23.87
43.09
57.74
67.6
72.78
73.57
70.45
64.22
56.01
47.08
38.57
31.12
24.86
19.43
14.28
9.01
3.49
-1.99
-7.06
-11.38
-15.08
-18.76
-23.41
-30.08
-39.39
-51.07
-63.8
-75.3
-82.9
-84.28
-78.17
-64.75
-45.62
-23.25
-0.36
20.75
38.41
51.7
60.16
63.67
62.45
57.15
48.92
39.25
29.65
21.16
14.14
8.22
2.67
-3.09
-9.22
-15.33
-20.83
-25.22
-28.46
-31.08
-33.95
-38.17
-44.57
-53.52
-64.46
-75.87
-85.35
-90.19
-88.2
-78.42
-61.59
-39.86
-16.15
6.75
26.79
42.78
54.21
60.88
62.72
59.94
53.24
43.86
33.42
23.47
14.96
8.05
2.13
-3.65
-9.96
-16.82
-23.65
-29.51
-33.58
-35.6
-35.99
-35.87
-36.61
-39.42
-44.69
-51.6
-58.07
-61.15
-57.87
-46.29
-26.22
0.59
30.98
61.39
88.97
112.16
130.84
145.87
158.36
169.13
178.45
186.19
192.13
196.32
199.07
200.83
201.78
201.52
199
192.77
181.34
163.53
138.54
105.59
63.72
12.36
-47.54
-112.6
-176.98
-233.88
-277.76
-305.94
-318.89
-318.74
-307.46
-285.84
-254.01
-213.06
-166.21
-118.76
-76.33
-42.84
-19.15
-3.49
6.99
14.57
20.14
23.59
24.61
23.36
20.59
17.47
14.95
13.36
12.48
11.72
10.47
8.32
5.22
1.28
-3.45
-9.22
-16.56
-25.92
-37.23
-49.47
-60.58
-67.87
-68.8
-61.82
-46.95
-25.79
-0.97
24.5
48.04
67.7
82.24
90.96
93.6
90.43
82.35
70.94
58.09
45.66
34.81
25.88
18.43
11.6
4.75
-2.32
-9.24
-15.4
-20.34
-24.12
-27.44
-31.47
-37.53
-46.44
-58.25
-71.81
-84.91
-94.67
-98.18
-93.32
-79.28
-56.83
-28.3
2.85
32.75
57.89
75.84
85.69
88.01
84.47
77.21
68.17
58.74
49.71
41.41
33.9
27.15
20.96
15.12
9.39
3.67
-1.95
-7.26
-12.09
-16.63
-21.41
-27.38
-35.43
-45.98
-58.47
-71.18
-81.46
-86.41
-83.75
-72.56
-53.66
-29.3
-2.59
23.41
46.21
64.23
76.75
83.73
85.59
83.1
77.27
69.32
60.41
51.48
43.09
35.35
28.05
20.95
13.99
7.37
1.43
-3.58
-7.75
-11.59
-15.98
-21.96
-30.34
-41.4
-54.49
-67.94
-79.18
-85.29
-83.86
-73.78
-55.71
-31.93
-5.64
20.01
42.65
60.92
74.34
82.84
86.55
85.72
80.95
73.28
64.02
54.51
45.64
37.71
30.51
23.61
16.81
10.15
4
-1.36
-5.88
-9.96
-14.36
-20.02
-27.78
-38.05
-50.52
-63.88
-75.95
-84
-85.5
-78.93
-64.35
-43.49
-19.19
5.45
27.93
46.66
60.93
70.5
75.35
75.57
71.55
64.21
54.94
45.27
36.45
29.05
22.92
17.41
11.84
5.86
-0.43
-6.55
-12.04
-16.73
-21
-25.68
-31.91
-40.65
-52.26
-66.1
-80.33
-92.25
-98.88
-97.99
-88.82
-72.33
-50.94
-27.62
-5.08
14.75
30.71
42.16
48.66
50.11
46.98
40.51
32.69
25.69
21.26
20.32
22.98
28.74
36.86
46.52
56.89
67.17
76.65
85.03
92.6
100.21
108.91
119.56
132.36
146.84
162.06
176.99
190.82
202.92
212.68
219.18
221.18
217.24
205.94
186.27
157.86
121.08
77.21
28.25
-23.46
-75.72
-126.69
-174.6
-217.18
-251.38
-273.71
-281.57
-274.65
-255.76
-230.17
-203.77
-180.99
-163.54
-150.64
-140.5
-131.94
-125.16
-121.37
-121.58
-125.38
-130.62
-133.89
-131.77
-121.92
-103.91
-79.27
-50.76
-21.48
6.13
30.49
50.93
67.11
78.66
85.22
86.64
83.4
76.72
68.26
59.62
51.89
45.34
39.66
34.26
28.64
22.71
16.72
11.15
6.31
2.17
-1.82
-6.71
-13.69
-23.61
-36.45
-50.98
-64.73
-74.69
-78.09
-73.31
-60.46
-41.2
-18.23
5.64
28.03
47.41
62.88
73.91
80.16
81.51
78.3
71.44
62.42
52.89
44.19
36.9
30.82
25.23
19.42
13.1
6.57
0.51
-4.45
-8.17
-11.13
-14.37
-19.09
-26.32
-36.46
-49.06
-62.71
-75.14
-83.72
-86.06
-80.75
-67.79
-48.65
-25.74
-1.74
20.99
40.77
56.53
67.62
73.65
74.63
71.1
64.21
55.58
46.77
38.94
32.41
26.9
21.76
16.49
10.97
5.45
0.35
-4.05
-7.81
-11.35
-15.32
-20.47
-27.45
-36.63
-47.88
-60.31
-72.12
-80.84
-83.93
-79.52
-67.14
-47.94
-24.4
0.39
23.54
42.88
57.24
66.19
69.91
68.9
63.98
56.29
47.12
37.79
29.29
22.14
16.26
11.19
6.35
1.4
-3.66
-8.52
-12.8
-16.42
-19.68
-23.32
-28.29
-35.41
-45.06
-56.79
-69.2
-80.02
-86.57
-86.48
-78.42
-62.65
-40.99
-16.26
8.53
30.89
49.23
62.78
71.31
74.93
73.96
69.15
61.62
52.8
44.03
36.18
29.48
23.59
17.94
12.12
6.13
0.29
-4.93
-9.29
-12.97
-16.57
-21.05
-27.35
-36.13
-47.34
-60.04
-72.26
-81.41
-84.84
-80.69
-68.52
-49.45
-25.88
-0.71
23.38
44.39
61.02
72.53
78.59
79.27
75.21
67.68
58.31
48.74
40.11
32.82
26.56
20.73
14.82
8.75
2.83
-2.44
-6.73
-10.2
-13.42
-17.38
-23.08
-31.26
-41.97
-54.4
-66.84
-76.9
-82.11
-80.52
-71.35
-55.22
-33.96
-10.14
13.66
35.26
53.13
66.32
74.32
77.08
75.03
69.14
60.82
51.62
42.78
35.03
28.39
22.43
16.59
10.6
4.56
-1.14
-6.04
-9.98
-13.23
-16.51
-20.8
-27.14
-36.15
-47.78
-60.98
-73.7
-83.23
-86.83
-82.6
-70.14
-50.75
-26.96
-1.84
21.86
42.15
57.88
68.52
73.92
74.34
70.41
63.25
54.28
44.92
36.2
28.57
21.95
15.97
10.27
4.7
-0.63
-5.5
-9.81
-13.61
-17.32
-21.57
-27.19
-34.97
-45.26
-57.64
-70.57
-81.61
-87.85
-86.91
-77.72
-60.97
-38.86
-14.37
9.61
30.91
48.22
60.87
68.54
71.11
68.92
62.8
54.15
44.57
35.45
27.57
20.99
15.31
9.98
4.69
-0.54
-5.39
-9.53
-12.89
-15.78
-18.96
-23.45
-30.25
-39.9
-52.09
-65.38
-77.33
-84.99
-85.78
-78.34
-62.97
-41.57
-16.98
7.8
30.33
49.03
63.03
72.02
75.98
75.26
70.63
63.27
54.6
45.85
37.83
30.69
24.16
17.79
11.33
4.88
-1.2
-6.49
-10.86
-14.59
-18.4
-23.23
-30
-39.18
-50.49
-62.73
-73.78
-81.06
-82.17
-75.68
-61.61
-41.48
-17.77
6.74
29.61
49.14
64.21
74.23
78.95
78.57
73.84
66.05
56.78
47.45
38.96
31.55
24.98
18.83
12.82
6.95
1.41
-3.59
-8.02
-12.14
-16.44
-21.63
-28.43
-37.36
-48.42
-60.82
-72.76
-81.71
-84.99
-80.61
-68.04
-48.49
-24.54
0.64
24.17
44.09
59.37
69.7
75.13
75.87
72.42
65.64
56.81
47.38
38.59
31.12
24.99
19.73
14.71
9.51
4.11
-1.2
-6.03
-10.22
-14.05
-18.2
-23.67
-31.37
-41.74
-54.33
-67.65
-79.31
-86.51
-86.84
-79.05
-63.47
-41.93
-17.21
7.71
30.34
48.93
62.53
70.81
73.82
72.04
66.35
58.04
48.56
39.23
30.9
23.85
17.86
12.45
7.24
2.08
-2.9
-7.44
-11.38
-14.88
-18.49
-23.05
-29.51
-38.53
-50.13
-63.3
-76
-85.48
-88.95
-84.48
-71.6
-51.57
-26.97
-1.01
23.33
43.84
59.25
69.11
73.57
73.15
68.75
61.54
52.82
43.82
35.39
27.86
21.11
14.8
8.69
2.75
-2.72
-7.37
-11.02
-13.89
-16.64
-20.24
-25.74
-33.88
-44.73
-57.4
-69.95
-79.71
-83.88
-80.42
-68.73
-49.92
-26.42
-1.26
22.75
43.57
60.04
71.58
78
79.38
76.21
69.44
60.47
50.77
41.49
33.18
25.8
19.01
12.51
6.31
0.7
-4.04
-7.87
-11.13
-14.52
-18.9
-25
-33.28
-43.72
-55.67
-67.66
-77.54
-82.81
-81.32
-72
-55.3
-33.16
-8.39
16.11
38.01
55.76
68.53
75.98
78.11
75.42
68.92
60.11
50.65
41.85
34.35
28.07
22.44
16.91
11.27
5.72
0.69
-3.5
-6.91
-10.05
-13.78
-19.04
-26.61
-36.81
-49.2
-62.49
-74.5
-82.53
-84.09
-77.65
-63.21
-42.35
-17.79
7.41
30.66
50.15
64.9
74.49
78.86
78.23
73.29
65.22
55.56
45.8
37.02
29.59
23.26
17.42
11.64
5.8
0.18
-4.86
-9.12
-12.78
-16.46
-20.97
-27.13
-35.46
-45.93
-57.72
-69.14
-77.86
-81.42
-77.92
-66.73
-48.8
-26.38
-2.4
20.36
39.79
54.67
64.46
69.04
68.65
63.89
55.85
45.99
35.85
26.57
18.67
12.03
6.11
0.42
-5.23
-10.68
-15.62
-19.84
-23.45
-26.98
-31.2
-36.98
-44.93
-55.14
-66.86
-78.47
-87.61
-91.74
-88.81
-77.96
-59.83
-36.39
-10.39
15.28
38.27
56.88
70.16
77.72
79.65
76.54
69.5
60.06
49.87
40.27
32
25.09
19.05
13.27
7.35
1.34
-4.42
-9.5
-13.81
-17.69
-22
-27.83
-36.06
-47.01
-60
-73.29
-84.25
-89.99
-88.13
-77.46
-58.33
-32.65
-3.44
25.78
51.71
71.74
84.45
89.66
88.3
82.14
73.2
63.27
53.6
44.74
36.74
29.44
22.63
16.24
10.26
4.69
-0.52
-5.51
-10.43
-15.59
-21.36
-28.23
-36.77
-47.22
-59.19
-71.26
-81.03
-85.58
-82.51
-70.74
-51.15
-26.29
0.46
25.79
47.31
63.73
74.65
80.21
80.78
77.04
69.95
60.78
50.9
41.43
33
25.69
19.2
13.1
7.17
1.39
-3.96
-8.61
-12.46
-15.76
-19.24
-23.94
-30.92
-40.81
-53.33
-66.99
-79.24
-87.03
-87.63
-79.59
-63.18
-40.37
-14.17
12.22
36.16
55.86
70.36
79.25
82.54
80.65
74.51
65.56
55.49
45.83
37.54
30.82
25.24
20.1
14.86
9.38
3.97
-0.95
-5.09
-8.57
-12
-16.25
-22.3
-30.86
-42.04
-55.05
-68.08
-78.53
-83.61
-81.18
-70.49
-52.47
-29.45
-4.4
19.83
41.11
58.06
69.89
76.12
76.68
72
63.23
52.12
40.56
30.05
21.32
14.27
8.24
2.59
-3.09
-8.72
-13.94
-18.47
-22.26
-25.72
-29.58
-34.75
-42.05
-51.94
-64.19
-77.62
-90.11
-98.84
-100.99
-94.63
-79.37
-56.68
-29.4
-1
25.38
47.4
63.78
74.07
78.38
77.3
71.8
63.24
53.18
43.06
33.85
25.88
18.91
12.35
5.78
-0.95
-7.55
-13.57
-18.73
-23.12
-27.33
-32.32
-39.2
-48.77
-61.17
-75.43
-89.52
-100.55
-105.59
-102.51
-90.75
-71.5
-47.39
-21.55
3.21
24.95
42.63
55.76
64.09
67.51
66.24
61.06
53.34
44.74
36.67
29.95
24.61
20.14
15.93
11.57
7.07
2.7
-1.23
-4.64
-7.8
-11.27
-15.81
-22.16
-30.82
-41.72
-53.93
-65.54
-73.92
-76.37
-71.05
-57.66
-37.59
-13.55
11.38
34.55
54.21
69.43
79.76
85.01
85.21
80.85
73.03
63.42
53.8
45.53
39.19
34.46
30.53
26.55
22.04
17.05
11.93
7.13
2.71
-1.63
-6.64
-13.2
-22.07
-33.49
-46.94
-60.96
-73.26
-81.15
-82.26
-75.32
-60.56
-39.79
-15.67
9
32.08
52.29
69.04
82.08
91.18
96.21
97.46
95.84
92.98
90.79
90.85
93.92
99.69
106.96
114.18
120.03
123.92
126.15
127.67
129.72
133.16
138.06
143.5
147.88
149.49
147.16
140.85
131.56
120.77
109.66
98.38
85.85
70.06
48.79
20.28
-16.21
-60
-108.65
-157.76
-201.33
-233.05
-248.25
-245.77
-228.58
-202.9
-175.85
-152.92
-136.47
-125.84
-118.76
-113.11
-107.85
-102.99
-98.82
-95.38
-92.38
-89.7
-87.95
-88.37
-92.13
-99.4
-108.65
-116.71
-119.61
-114.03
-98.48
-73.97
-43.6
-11.5
18.45
43.59
62.69
75.66
82.93
85.12
82.89
77.13
68.99
59.83
50.84
42.8
35.91
29.87
24.28
18.81
13.43
8.24
3.28
-1.62
-6.94
-13.43
-21.85
-32.75
-46.06
-60.88
-75.32
-86.75
-92.37
-90.01
-78.89
-59.89
-35.35
-8.34
18.19
42.02
61.72
76.54
86.06
90.1
88.84
83.1
74.31
64.26
54.64
46.39
39.68
33.91
28.31
22.37
16.15
10.15
4.96
0.87
-2.45
-5.89
-10.65
-17.92
-28.41
-42.04
-57.75
-73.41
-86.14
-92.93
-91.46
-80.83
-61.9
-37.03
-9.38
17.93
42.52
62.93
78.41
88.71
93.76
93.78
89.36
81.62
72.06
62.26
53.44
46.11
40.09
34.74
29.33
23.5
17.3
11.18
5.63
0.87
-3.35
-7.64
-12.86
-19.92
-29.47
-41.73
-56.22
-71.44
-84.92
-93.69
-95
-87.3
-70.85
-47.61
-20.65
6.87
32.37
54.25
71.59
83.85
90.61
91.73
87.59
79.32
68.66
57.54
47.56
39.51
33.33
28.31
23.56
18.46
12.89
7.17
1.85
-2.61
-6.19
-9.33
-12.86
-17.75
-24.84
-34.6
-46.89
-60.77
-74.39
-85.23
-90.65
-88.56
-78.15
-60.16
-36.69
-10.56
15.44
39.03
58.65
73.25
82.16
85.11
82.42
75.14
65
54
43.89
35.67
29.45
24.64
20.38
16.02
11.31
6.49
1.93
-2.09
-5.6
-9.04
-13.1
-18.58
-26.19
-36.35
-48.87
-62.78
-76.15
-86.33
-90.56
-86.8
-74.42
-54.54
-29.66
-2.92
22.76
45.22
63.17
75.94
83.27
85.16
82.05
74.92
65.28
54.87
45.14
36.94
30.37
24.93
19.92
14.81
9.43
3.97
-1.2
-5.83
-9.96
-14.01
-18.73
-24.97
-33.48
-44.53
-57.63
-71.32
-83.2
-90.48
-90.68
-82.52
-66.31
-43.97
-18.37
7.51
31.23
51.21
66.57
76.82
81.73
81.37
76.33
67.88
57.76
47.75
39.13
32.37
27.11
22.53
17.78
12.44
6.58
0.66
-4.81
-9.55
-13.74
-17.94
-22.99
-29.72
-38.73
-50.15
-63.38
-76.93
-88.48
-95.34
-95.08
-86.44
-69.74
-46.92
-20.92
5.19
28.91
48.68
63.73
73.8
78.83
78.97
74.76
67.24
57.89
48.33
39.82
32.97
27.62
23.14
18.77
14.02
8.78
3.33
-1.98
-6.91
-11.52
-16.21
-21.6
-28.42
-37.32
-48.62
-62.08
-76.58
-90.1
-99.97
-103.56
-99.08
-86.23
-66.38
-42.14
-16.54
7.7
28.73
45.49
57.47
64.4
66.15
62.94
55.58
45.46
34.35
23.8
14.78
7.38
0.98
-5.28
-12.09
-19.59
-27.47
-35.1
-42.01
-48.1
-53.73
-59.52
-66.1
-73.88
-82.98
-93.14
-103.68
-113.37
-120.4
-122.66
-118.21
-105.94
-86.04
-60.03
-30.45
-0.16
28.23
52.8
72.43
86.75
96.1
101.32
103.61
104.22
104.15
103.98
103.92
103.96
104.21
104.9
106.3
108.5
111.18
113.58
114.68
113.64
110.09
104.38
97.37
90.11
83.36
77.2
71.01
63.43
52.58
36.19
12.11
-20.75
-61.2
-104.81
-144.13
-170.54
-177.27
-162.39
-129.96
-88.9
-49.51
-19.79
-2.95
2.54
0.93
-3.48
-8.16
-12.58
-17.15
-22
-26.42
-29.17
-29.41
-27.38
-24.57
-23.04
-24.54
-29.82
-38.48
-49.34
-60.98
-72.25
-82.25
-90.11
-94.74
-94.71
-88.68
-75.91
-56.75
-32.72
-6.28
19.82
43.08
61.64
74.43
81.09
81.99
78.06
70.7
61.57
52.2
43.73
36.58
30.57
25.06
19.43
13.34
6.87
0.46
-5.41
-10.44
-14.8
-19.04
-23.98
-30.45
-39.13
-50.27
-63.54
-77.82
-91.13
-100.89
-104.45
-99.87
-86.6
-65.83
-40.11
-12.6
13.77
37.01
56.04
70.46
80.03
84.52
83.85
78.43
69.43
58.65
48.09
39.32
33
28.78
25.58
22.23
17.92
12.58
6.73
1.16
-3.59
-7.53
-11.27
-15.86
-22.33
-31.4
-43.26
-57.34
-72.29
-86.03
-96
-99.64
-95.16
-82.04
-61.43
-35.78
-8.21
18.32
41.67
60.58
74.5
83.17
86.55
84.85
78.72
69.5
58.86
48.52
39.71
32.89
27.73
23.42
19.14
14.34
8.98
3.32
-2.19
-7.32
-12.08
-16.92
-22.48
-29.53
-38.75
-50.43
-64.36
-79.44
-93.73
-104.57
-109.18
-105.46
-92.71
-71.96
-45.69
-17.11
10.73
35.54
55.97
71.36
81.41
86.04
85.41
80.19
71.7
61.72
51.99
43.79
37.5
32.66
28.42
23.93
18.86
13.36
7.93
3.02
-1.24
-5.16
-9.38
-14.66
-21.76
-31.21
-43.16
-57.09
-71.66
-84.63
-93.28
-95.06
-88.4
-73.31
-51.4
-25.34
1.85
27.63
50.23
68.65
82.28
90.75
93.79
91.56
84.78
74.87
63.69
52.98
44.02
37.22
32.25
28.26
24.31
19.76
14.38
8.41
2.32
-3.39
-8.61
-13.62
-19.13
-26.12
-35.44
-47.46
-61.68
-76.57
-89.7
-98.19
-99.5
-92.14
-76.18
-53.3
-26.25
1.9
28.48
51.6
70.21
83.76
92.01
94.91
92.72
86.22
76.77
66.05
55.71
46.94
40.16
35.05
30.79
26.56
21.79
16.4
10.7
5.09
-0.16
-5.15
-10.18
-15.75
-22.28
-30.11
-39.47
-50.52
-63.13
-76.64
-89.53
-99.42
-103.59
-99.75
-86.98
-66.18
-39.93
-11.66
15.34
38.68
57.23
70.74
79.37
83.38
82.97
78.56
70.94
61.42
51.46
42.47
35.26
29.93
25.91
22.26
18.18
13.27
7.71
1.98
-3.35
-8.06
-12.38
-16.84
-22.16
-28.94
-37.6
-48.24
-60.55
-73.63
-85.81
-94.79
-98.1
-93.84
-81.33
-61.56
-36.87
-10.31
15.22
37.61
55.63
68.83
77.08
80.48
79.28
74.1
66.01
56.37
46.66
38.04
31.13
25.83
21.59
17.63
13.36
8.57
3.5
-1.42
-5.82
-9.68
-13.44
-17.81
-23.6
-31.47
-41.69
-54.08
-67.74
-81.08
-91.83
-97.47
-95.91
-86.15
-68.81
-45.96
-20.47
4.81
27.74
47.04
62.11
72.55
78.06
78.49
74.26
66.47
56.86
47.3
39.24
33.24
28.9
25.24
21.2
16.2
10.31
4.15
-1.48
-6.09
-9.67
-12.84
-16.46
-21.46
-28.49
-37.84
-49.42
-62.64
-76.31
-88.57
-97.01
-99.22
-93.52
-79.65
-58.92
-33.96
-7.82
16.78
38.05
55.06
67.53
75.34
78.48
77.13
71.83
63.71
54.21
44.87
36.86
30.71
26.24
22.73
19.31
15.25
10.29
4.64
-1.16
-6.57
-11.36
-15.73
-20.36
-26.03
-33.52
-43.29
-55.28
-68.8
-82.39
-93.93
-100.97
-101.35
-93.81
-78.5
-56.99
-31.84
-5.93
18.25
38.95
55.18
66.5
72.85
74.43
71.76
65.72
57.55
48.64
40.24
33.19
27.72
23.46
19.72
15.82
11.36
6.38
1.28
-3.54
-7.87
-11.89
-16.06
-21.05
-27.48
-35.85
-46.48
-59.12
-72.9
-85.98
-95.86
-99.86
-95.98
-83.65
-63.96
-39.46
-13.26
11.7
33.33
50.42
62.46
69.3
71.04
68.1
61.38
52.34
42.7
34.06
27.32
22.49
18.83
15.26
10.97
5.72
-0.04
-5.55
-10.18
-13.8
-16.95
-20.59
-25.82
-33.49
-43.98
-56.94
-71.16
-84.68
-94.94
-99.47
-96.48
-85.5
-67.45
-44.47
-19.18
5.97
29.02
48.65
63.88
74.01
78.59
77.72
72.22
63.59
53.72
44.25
36.23
29.84
24.65
19.87
14.93
9.58
3.99
-1.42
-6.32
-10.65
-14.79
-19.46
-25.56
-33.9
-44.85
-58.13
-72.48
-85.88
-95.75
-99.65
-95.89
-84.14
-65.5
-42.23
-17.04
7.59
29.8
48.57
63.33
73.8
79.8
81.31
78.79
73.13
65.73
58
50.95
44.96
39.71
34.52
28.75
22.23
15.23
8.43
2.43
-2.59
-7.07
-12.01
-18.64
-28.08
-40.75
-56.13
-72.51
-87.19
-97.04
-99.34
-92.63
-77.16
-54.91
-28.79
-1.85
23.48
45.65
63.74
77.17
85.37
88.01
85.3
78.3
68.77
58.73
49.73
42.43
36.51
31.09
25.26
18.66
11.6
4.87
-0.7
-4.7
-7.42
-9.71
-12.79
-17.81
-25.51
-35.94
-48.36
-61.23
-72.35
-79.36
-80.07
-73.21
-58.76
-38.11
-13.76
11.38
34.64
54.11
68.73
78.13
82.3
81.45
76.11
67.22
56.23
44.83
34.57
26.33
20.17
15.46
11.31
7.07
2.58
-1.87
-5.84
-9.04
-11.65
-14.26
-17.83
-23.45
-31.88
-43.32
-56.92
-70.82
-82.28
-88.39
-86.85
-76.72
-58.79
-35.2
-8.88
17.36
41.32
61.59
77.3
87.88
92.96
92.56
87.34
78.63
68.29
58.13
49.44
42.62
37.22
32.35
27.13
21.2
14.75
8.39
2.75
-1.97
-6.09
-10.5
-16.28
-24.4
-35.28
-48.65
-63.31
-77.27
-87.98
-92.92
-90.21
-79.23
-60.89
-37.35
-11.48
13.96
36.86
55.92
70.46
80.14
84.81
84.53
79.83
71.84
62.16
52.49
44.14
37.66
32.74
28.52
24.08
18.88
13.03
7.09
1.82
-2.41
-5.75
-9
-13.27
-19.74
-29.17
-41.69
-56.49
-71.78
-84.97
-93.11
-93.68
-85.37
-68.57
-45.33
-18.73
8
32.35
52.81
68.8
80.15
86.77
88.57
85.68
78.8
69.24
58.81
49.26
41.7
36.38
32.66
29.43
25.65
20.81
15
8.82
2.89
-2.45
-7.36
-12.38
-18.16
-25.29
-34.13
-44.86
-57.36
-71.01
-84.43
-95.42
-101.33
-99.76
-89.5
-71.07
-46.73
-19.76
6.58
29.77
48.49
62.31
71.32
75.69
75.63
71.55
64.31
55.28
46.05
37.98
31.8
27.4
24.02
20.67
16.59
11.53
5.8
-0.03
-5.4
-10.09
-14.24
-18.37
-23.21
-29.53
-37.97
-48.77
-61.54
-75
-87.01
-94.95
-96.36
-89.83
-75.41
-54.76
-30.55
-5.72
17.3
36.84
52.02
62.41
67.87
68.53
64.88
57.94
49.18
40.21
32.33
26.25
21.92
18.75
15.9
12.69
8.88
4.64
0.41
-3.37
-6.55
-9.33
-12.3
-16.23
-21.92
-29.96
-40.42
-52.62
-64.98
-75.19
-80.71
-79.48
-70.71
-55.11
-34.73
-12.25
9.79
29.6
46.17
59.03
67.89
72.43
72.42
68.08
60.31
50.62
40.74
32.11
25.44
20.61
16.84
13.19
8.88
3.68
-2.14
-8
-13.3
-17.79
-21.75
-25.91
-31.28
-38.8
-49.03
-61.85
-76.37
-90.85
-102.97
-110.21
-110.44
-102.56
-86.93
-65.33
-40.49
-15.27
8.01
27.95
43.92
55.66
63.02
65.81
64.14
58.59
50.39
41.21
32.63
25.76
20.86
17.47
14.76
11.99
8.82
5.34
1.91
-1.19
-4.04
-7.06
-10.89
-16.05
-22.82
-31.23
-41.15
-52.26
-63.87
-74.65
-82.56
-85.3
-80.99
-69.03
-50.41
-27.51
-3.28
19.66
39.56
55.6
67.45
74.96
77.96
76.53
71.28
63.45
54.73
46.74
40.51
36.21
33.25
30.57
27.27
22.9
17.65
12.13
7.02
2.72
-0.86
-4.26
-8.23
-13.53
-20.75
-30.14
-41.55
-54.21
-66.53
-76.31
-81.06
-78.78
-68.71
-51.68
-29.95
-6.51
15.83
35.07
50.24
61.15
67.98
71.01
70.62
67.34
61.99
55.63
49.33
43.98
40.12
37.94
37.3
37.93
39.46
41.57
44.07
46.9
50.09
53.65
57.43
61.16
64.52
67.25
69.29
70.72
71.79
72.79
74.19
76.54
80.32
85.82
92.91
101.02
109.26
116.74
122.62
126.26
127.03
124.26
117.24
105.29
87.9
64.68
35.35
-0.12
-41.22
-86.48
-133.21
-177.59
-215.3
-242.54
-257.04
-258.73
-249.77
-233.92
-215.55
-198.55
-185.62
-177.97
-175.45
-176.79
-179.88
-182.04
-180.34
-172.18
-156.03
-131.88
-101.51
-67.87
-34.31
-3.64
22.35
42.86
57.86
67.59
72.47
73.09
70.33
65.39
59.52
53.74
48.56
43.96
39.53
34.82
29.61
24
18.37
13.07
8.25
3.66
-1.28
-7.42
-15.61
-26.45
-39.94
-55.17
-70.3
-82.69
-89.58
-88.82
-79.63
-62.86
-40.62
-15.68
9.44
32.81
53.22
69.88
82.09
89.24
90.98
87.58
80.12
70.28
59.93
50.55
42.88
36.78
31.57
26.42
20.84
14.76
8.61
2.9
-2.07
-6.51
-11.13
-16.98
-25.1
-36.14
-50.01
-65.67
-81.15
-93.84
-100.87
-99.88
-89.57
-70.29
-44.07
-14.18
15.68
42.3
63.52
78.44
87.08
89.98
87.86
81.61
72.4
61.73
51.19
42.06
34.93
29.45
24.74
19.85
14.25
8.08
1.89
-3.74
-8.61
-13.05
-17.92
-24.31
-33.16
-44.95
-59.27
-74.71
-88.77
-98.44
-100.86
-94.25
-78.52
-55.38
-27.8
0.83
27.52
50.21
67.72
79.55
85.6
86.13
81.85
74.05
64.43
54.72
46.24
39.5
34.22
29.61
24.85
19.56
13.85
8.26
3.3
-0.85
-4.59
-8.79
-14.52
-22.8
-34.05
-47.83
-62.54
-75.63
-84.06
-85.14
-77.47
-61.33
-38.68
-12.52
14.02
38.37
58.86
74.54
84.96
89.96
89.73
84.96
76.94
67.31
57.67
49.05
41.69
35.23
28.97
22.46
15.72
9.23
3.58
-0.96
-4.7
-8.51
-13.52
-20.8
-30.86
-43.43
-57.3
-70.4
-80.16
-84.04
-80.27
-68.35
-49.3
-25.35
0.63
25.89
48.25
66.24
79.07
86.46
88.55
85.95
79.72
71.25
61.98
53.07
45.15
38.33
32.27
26.54
20.85
15.14
9.61
4.45
-0.29
-4.87
-9.84
-16.02
-24.2
-34.89
-47.9
-62.06
-75.18
-84.45
-87.19
-81.72
-68
-47.63
-23.35
1.9
25.72
46.54
63.58
76.36
84.5
87.68
85.94
79.99
71.18
61.25
51.82
43.88
37.64
32.54
27.8
22.73
17.09
11.1
5.3
0.12
-4.37
-8.63
-13.58
-20.27
-29.53
-41.57
-55.76
-70.5
-83.4
-91.78
-93.29
-86.63
-71.92
-50.79
-25.86
-0.06
24.12
45.04
61.81
74.1
81.68
84.44
82.51
76.54
67.82
58.02
48.77
41.08
35.11
30.33
25.91
21.22
16.11
10.87
5.96
1.64
-2.18
-5.99
-10.49
-16.35
-24.11
-34.05
-46.01
-59.23
-72.15
-82.57
-88.03
-86.53
-77.23
-60.82
-39.35
-15.5
8.09
29.5
47.56
61.63
71.23
75.91
75.46
70.26
61.49
51.01
40.82
32.43
26.41
22.33
19.16
15.8
11.63
6.71
1.54
-3.17
-7.08
-10.37
-13.71
-18.09
-24.39
-33.16
-44.33
-57.05
-69.7
-80.04
-85.68
-84.65
-76.05
-60.34
-39.26
-15.29
9.02
31.59
50.95
66.13
76.49
81.56
81.28
76.19
67.55
57.11
46.66
37.58
30.45
25.11
20.84
16.88
12.71
8.23
3.72
-0.48
-4.21
-7.72
-11.68
-16.95
-24.35
-34.31
-46.7
-60.53
-74.02
-84.8
-90.43
-88.99
-79.76
-63.49
-42.21
-18.65
4.56
25.44
42.86
56.32
65.6
70.58
71.22
67.92
61.53
53.42
44.95
37.18
30.5
24.59
18.8
12.54
5.64
-1.57
-8.44
-14.34
-19.04
-22.84
-26.57
-31.29
-37.95
-47.06
-58.46
-71.12
-83.28
-92.7
-97.15
-94.97
-85.62
-69.81
-49.25
-26.17
-2.71
19.47
39.23
55.76
68.37
76.42
79.51
77.82
72.21
64.17
55.44
47.45
40.95
35.89
31.64
27.43
22.78
17.67
12.49
7.74
3.59
-0.16
-4.19
-9.26
-16.03
-24.81
-35.44
-47.29
-59.15
-69.36
-75.92
-76.94
-71.21
-58.69
-40.61
-19.18
3.01
23.75
41.51
55.58
65.64
71.55
73.16
70.48
63.9
54.4
43.34
32.21
22.14
13.67
6.72
0.87
-4.32
-9.07
-13.36
-17.13
-20.53
-24.04
-28.42
-34.47
-42.76
-53.39
-65.77
-78.6
-89.91
-97.43
-99.14
-93.77
-81.33
-63.06
-41.17
-18.11
3.92
23.3
38.99
50.19
56.38
57.42
53.73
46.5
37.5
28.58
21.1
15.63
11.84
8.96
6.15
2.97
-0.62
-4.41
-8.21
-12.06
-16.27
-21.34
-27.73
-35.74
-45.31
-55.89
-66.34
-74.95
-79.69
-78.62
-70.64
-55.81
-35.5
-12.02
12.01
34.16
52.57
65.98
73.72
75.63
72.12
64.22
53.48
41.59
30
19.61
10.61
2.76
-4.34
-10.95
-17.05
-22.44
-26.84
-30.14
-32.46
-34.25
-36.32
-39.63
-45.08
-52.98
-62.69
-72.43
-79.62
-81.54
-76.28
-63.37
-43.94
-20.33
4.79
28.96
50.37
67.78
80.33
87.47
89.04
85.45
77.81
67.74
56.93
46.77
37.95
30.49
23.92
17.6
11.09
4.3
-2.54
-9.02
-14.81
-19.93
-24.81
-30.31
-37.44
-46.95
-58.83
-71.98
-84.15
-92.48
-94.22
-87.74
-73.01
-51.78
-26.93
-1.67
21.3
40.18
54.13
62.9
66.57
65.49
60.28
52.02
42.09
31.94
22.66
14.68
7.86
1.65
-4.38
-10.33
-15.9
-20.64
-24.36
-27.35
-30.5
-35
-42.04
-52.27
-65.51
-80.47
-94.8
-105.56
-109.87
-105.78
-92.87
-72.42
-46.99
-19.74
6.38
29.16
47.15
59.66
66.38
67.53
63.81
56.52
47.34
37.91
29.41
22.27
16.22
10.68
5.16
-0.45
-5.86
-10.71
-14.85
-18.57
-22.61
-27.9
-35.33
-45.43
-58.12
-72.5
-86.81
-98.54
-104.96
-103.79
-93.92
-75.84
-51.56
-24.01
3.67
28.87
49.85
65.7
76.07
81.05
81.09
77.01
70.12
61.92
53.86
46.84
41.1
36.24
31.57
26.5
20.82
14.77
8.77
3.25
-1.72
-6.45
-11.74
-18.66
-28.26
-41.14
-56.9
-73.84
-89.01
-98.96
-100.65
-92.6
-75.3
-51.09
-23.23
5.04
31.26
53.93
72.24
85.67
93.81
96.51
94.19
88
79.75
71.34
64.24
59.04
55.34
52.19
48.54
43.81
38.07
31.97
26.27
21.49
17.58
13.89
9.47
3.22
-5.65
-17.5
-31.9
-47.58
-62.27
-73.1
-77.21
-72.49
-58.44
-36.32
-8.91
20.31
48.05
71.84
90.23
102.57
108.76
108.96
103.69
93.95
81.26
67.51
54.51
43.55
35.03
28.5
22.99
17.52
11.56
5.14
-1.23
-6.98
-11.79
-15.84
-19.76
-24.46
-30.95
-40.02
-52.01
-66.45
-81.87
-95.81
-105.29
-107.55
-100.95
-85.49
-62.89
-35.98
-7.9
18.71
41.92
60.54
73.79
81.18
82.6
78.58
70.39
59.93
49.2
39.8
32.44
26.92
22.4
17.91
12.81
7
0.88
-4.98
-10.23
-14.93
-19.67
-25.29
-32.74
-42.61
-55.03
-69.38
-84.16
-97.12
-105.52
-106.83
-99.52
-83.57
-60.65
-33.64
-5.79
20
41.68
58.1
68.69
73.32
72.21
66.19
56.63
45.38
34.23
24.48
16.65
10.46
5.24
0.32
-4.61
-9.53
-14.17
-18.31
-21.97
-25.5
-29.54
-34.87
-42.26
-52.19
-64.49
-78.06
-90.79
-99.91
-102.64
-97.12
-83.01
-61.68
-35.77
-8.39
17.63
40.19
57.95
70.16
76.54
77.26
73.09
65.33
55.66
45.71
36.66
29.03
22.77
17.45
12.6
7.97
3.53
-0.62
-4.35
-7.74
-11.04
-14.87
-20.04
-27.44
-37.61
-50.27
-64.01
-76.28
-83.99
-84.41
-76.15
-59.58
-36.77
-10.77
15.24
38.72
57.99
72.1
80.66
83.63
81.44
75.01
65.77
55.31
45.08
35.97
28.22
21.6
15.71
10.3
5.4
1.26
-1.88
-4.11
-5.9
-8.15
-11.88
-17.99
-26.82
-37.91
-49.77
-60.1
-66.24
-65.89
-57.88
-42.46
-21.39
2.66
26.84
48.67
66.47
79.24
86.65
88.75
86.05
79.48
70.36
60.18
50.21
41.34
33.87
27.66
22.36
17.65
13.4
9.59
6.26
3.24
0.13
-3.72
-9.13
-16.82
-27.11
-39.65
-53.16
-65.49
-73.99
-76.14
-70.38
-56.58
-36.25
-12.14
12.56
34.88
52.78
65.15
71.74
72.9
69.38
62.2
52.66
42.15
31.88
22.69
14.82
8.05
1.87
-4.19
-10.27
-16.28
-21.87
-26.86
-31.3
-35.69
-40.84
-47.67
-56.77
-67.87
-79.59
-89.45
-94.45
-91.95
-80.63
-60.97
-35.23
-6.77
20.84
44.68
62.8
74.35
79.31
78.26
72.21
62.49
50.53
37.75
25.21
13.56
3.05
-6.43
-15.01
-22.82
-29.79
-35.85
-40.92
-45.19
-49.12
-53.52
-59.34
-67.38
-77.88
-89.99
-101.71
-110.13
-112.17
-105.6
-89.77
-66
-37.11
-6.68
21.96
46.37
65.2
78
84.95
86.61
83.88
77.9
70
61.47
53.26
45.87
39.32
33.29
27.43
21.51
15.53
9.61
3.84
-1.92
-8.16
-15.66
-25.31
-37.68
-52.56
-68.52
-83.01
-92.88
-95.27
-88.56
-72.91
-50.24
-23.6
3.73
28.94
50.1
66.13
76.64
81.61
81.47
77.06
69.63
60.64
51.41
42.81
35.09
28.06
21.32
14.62
7.99
1.71
-3.95
-8.94
-13.64
-18.83
-25.53
-34.8
-47.26
-62.67
-79.57
-95.27
-106.37
-109.65
-103.15
-86.88
-62.84
-34.3
-4.79
22.86
46.9
66.37
80.81
89.79
93.13
91.07
84.64
75.55
65.71
56.68
49.2
43.14
37.78
32.39
26.6
20.51
14.58
9.19
4.51
0.21
-4.42
-10.32
-18.36
-29.05
-42.1
-56.24
-69.23
-78.23
-80.59
-74.62
-60.23
-38.96
-13.55
12.92
37.79
59.25
76.36
88.64
95.85
97.95
95.19
88.45
79.16
69.07
59.69
51.96
45.89
40.83
35.86
30.24
23.76
16.72
9.74
3.38
-2.08
-6.85
-11.56
-17.18
-24.78
-35.21
-48.63
-64.1
-79.51
-91.8
-97.81
-95.29
-83.64
-64.19
-39.68
-13.32
12.09
34.66
53.31
67.4
76.45
80.11
78.46
72.36
63.42
53.72
45.11
38.72
34.59
31.93
29.52
26.39
22.14
17.06
11.8
6.99
2.85
-0.97
-5.18
-10.6
-17.93
-27.54
-39.4
-52.98
-67.03
-79.6
-88.22
-90.48
-84.78
-71
-50.66
-26.54
-1.86
20.58
38.92
52.24
60.29
63.17
61.19
55.04
45.89
35.39
25.36
17.24
11.72
8.52
6.71
5.21
3.26
0.75
-1.95
-4.28
-5.99
-7.33
-9.07
-12.3
-18.02
-26.85
-38.58
-52.15
-65.52
-76.09
-81.24
-79.03
-68.85
-51.58
-29.37
-5.01
18.73
39.65
56.26
67.77
73.9
74.82
71.12
63.87
54.5
44.52
35.22
27.3
20.82
15.38
10.36
5.32
0.12
-5.02
-9.77
-14.01
-17.9
-22.11
-27.58
-35.25
-45.75
-58.9
-73.54
-87.48
-97.93
-102.11
-98.19
-85.81
-66.26
-42.06
-16.22
8.47
30.02
47.19
59.39
66.36
68.17
65.25
58.51
49.4
39.51
30.31
22.64
16.6
11.64
7.03
2.22
-2.88
-7.95
-12.57
-16.54
-20.14
-24.09
-29.41
-37.05
-47.62
-61.07
-76.5
-92.05
-105.09
-112.81
-112.89
-104.29
-87.61
-64.97
-39.32
-13.66
9.69
29.27
44.34
54.51
59.59
59.65
55.23
47.5
38.17
29.07
21.63
16.5
13.4
11.45
9.65
7.32
4.3
0.77
-3.07
-7.38
-12.8
-20.39
-31.19
-45.95
-64.62
-86.22
-108.67
-129.05
-144
-150.44
-146.43
-131.69
-107.83
-77.87
-45.47
-13.95
14.27
37.72
55.68
67.69
73.5
73.14
67.28
57.43
45.75
34.57
25.71
20
17.19
16.32
16.18
15.92
15.13
13.81
12.07
9.86
6.86
2.64
-3.2
-11.01
-20.96
-33.04
-46.94
-61.72
-75.65
-86.34
-91.18
-88.14
-76.43
-56.87
-31.45
-2.84
26.38
53.87
77.56
95.53
106.15
108.59
103.32
92.23
78.24
64.39
52.91
44.73
39.52
36.08
33.08
29.4
24.52
18.42
11.58
4.65
-1.77
-7.4
-12.47
-17.61
-23.65
-31.37
-41.18
-52.82
-65.21
-76.3
-83.42
-83.88
-75.74
-58.66
-34.11
-5.01
25.13
53.21
77.14
95.93
109.34
117.46
120.44
118.58
112.6
103.7
93.49
83.55
74.99
68.06
62.28
56.76
50.7
43.86
36.53
29.35
22.88
17.25
12.06
6.54
-0.24
-9.16
-20.81
-35.37
-52.26
-69.93
-85.79
-96.72
-99.84
-93.54
-78.07
-55.46
-28.88
-1.6
23.78
45.65
63.18
75.91
83.49
85.73
82.92
76
66.59
56.6
47.62
40.5
35.18
30.92
26.8
22.18
17.03
11.77
7.01
3.08
-0.17
-3.42
-7.57
-13.51
-21.76
-32.37
-44.82
-57.9
-69.83
-78.47
-81.69
-77.95
-66.82
-49.14
-26.82
-2.32
21.88
43.7
61.6
74.53
81.91
83.68
80.34
73.02
63.24
52.65
42.56
33.71
26.23
19.82
14
8.4
2.84
-2.64
-7.93
-13
-18.02
-23.4
-29.73
-37.69
-47.71
-59.7
-72.81
-85.26
-94.65
-98.52
-95.05
-83.69
-65.36
-42.25
-17.11
7.36
29.01
46.37
58.57
65.18
66.28
62.55
55.3
46.29
37.27
29.48
23.29
18.29
13.62
8.52
2.79
-3.22
-8.76
-13.25
-16.6
-19.45
-22.99
-28.62
-37.37
-49.3
-63.27
-76.82
-86.58
-89.07
-81.72
-63.84
-37.14
-5.37
26.72
54.77
76.05
89.81
96.83
98.62
96.48
91.25
83.48
73.88
63.49
53.52
44.86
37.68
31.44
25.22
18.34
10.67
2.63
-5.18
-12.35
-19.1
-26.26
-34.95
-46.1
-59.76
-74.72
-88.52
-97.99
-100.26
-93.65
-78.29
-56.09
-30.02
-3.21
21.85
43.59
61.25
74.48
83.07
86.93
86.33
81.97
75.05
66.88
58.6
50.79
43.49
36.4
29.2
21.87
14.73
8.25
2.76
-1.84
-6.14
-11.12
-17.83
-27.04
-38.84
-52.39
-65.91
-76.85
-82.51
-80.77
-70.69
-52.97
-29.71
-3.85
21.63
44.35
62.83
76.36
84.77
88.15
86.84
81.51
73.27
63.56
53.87
45.33
38.38
32.69
27.41
21.62
14.81
7.05
-1.01
-8.55
-14.98
-20.32
-25.14
-30.46
-37.39
-46.81
-59.04
-73.5
-88.51
-101.47
-109.29
-109.3
-100.12
-82.22
-57.83
-30.25
-2.79
21.96
42.53
58.35
69.33
75.54
77.11
74.43
68.28
59.93
50.86
42.44
35.56
30.38
26.37
22.64
18.34
13.11
7.18
1.22
-4.11
-8.55
-12.46
-16.69
-22.17
-29.66
-39.43
-51.34
-64.78
-78.67
-91.26
-100.35
-103.48
-98.81
-85.68
-65.09
-39.53
-12.22
13.71
35.96
53.2
64.97
71.24
72.22
68.42
60.75
50.65
39.9
30.2
22.65
17.39
13.67
10.24
6.01
0.48
-6.04
-12.67
-18.49
-23
-26.44
-29.7
-34.02
-40.55
-50
-62.19
-75.98
-89.22
-99.17
-103.09
-99.05
-86.53
-66.61
-41.72
-14.79
11.36
34.56
53.45
67.2
75.38
77.93
75.29
68.55
59.33
49.41
40.19
32.32
25.62
19.45
13.14
6.44
-0.41
-6.86
-12.43
-17.07
-21.13
-25.34
-30.54
-37.56
-47.01
-59.13
-73.48
-88.62
-102.1
-110.88
-112.14
-104.3
-87.59
-64.06
-36.91
-9.44
15.77
37.15
54.03
66.13
73.31
75.57
73.28
67.45
59.63
51.55
44.56
39.22
35.22
31.64
27.53
22.36
16.28
9.93
4.13
-0.71
-4.77
-8.85
-14.15
-21.81
-32.57
-46.42
-62.34
-78.22
-91.13
-97.93
-96.1
-84.65
-64.42
-37.93
-8.54
20.51
46.85
69.08
86.51
98.74
105.38
106.35
102.14
94.1
84.22
74.59
66.61
60.57
55.67
50.49
43.82
35.25
25.32
15.22
6.1
-1.45
-7.69
-13.58
-20.41
-29.31
-40.94
-55.22
-71.16
-86.89
-99.78
-106.98
-106.15
-96.18
-77.65
-52.68
-24.36
4.18
30.35
52.47
69.54
81.12
87.1
87.79
83.99
77.03
68.54
59.95
52.25
45.65
39.75
33.89
27.51
20.49
13.14
6.06
-0.21
-5.43
-9.82
-14.05
-19.05
-25.8
-34.91
-46.29
-58.9
-70.73
-79.12
-81.54
-76.3
-63.19
-43.56
-19.93
4.8
28.06
48.07
63.77
74.68
80.64
81.71
78.3
71.32
62.12
52.25
43.09
35.33
29
23.46
17.94
11.91
5.47
-0.86
-6.38
-10.71
-14.08
-17.31
-21.62
-28.17
-37.63
-49.74
-63.2
-75.75
-84.6
-87.22
-82.05
-69.14
-50.03
-27.41
-4.25
16.9
34.22
46.81
54.33
57.01
55.42
50.52
43.52
35.65
27.87
20.71
14.22
8.23
2.57
-2.78
-7.63
-11.74
-15.05
-17.77
-20.45
-23.89
-28.98
-36.4
-46.38
-58.43
-71.13
-82.26
-89.18
-89.55
-82.02
-66.73
-45.39
-20.77
3.99
26.18
43.99
56.6
64.01
66.74
65.56
61.32
54.92
47.21
38.93
30.65
22.73
15.39
8.76
2.95
-1.99
-6.05
-9.38
-12.27
-15.25
-18.99
-24.29
-31.83
-41.84
-53.68
-65.58
-74.91
-78.73
-74.79
-62.41
-42.76
-18.56
6.8
30.25
49.72
64.24
73.74
78.6
79.31
76.47
70.78
63.17
54.61
46.01
37.96
30.71
24.18
18.07
12.12
6.1
-0.04
-6.31
-12.73
-19.54
-27.2
-36.26
-47.07
-59.24
-71.46
-81.46
-86.61
-84.75
-74.97
-58.05
-36.17
-12.22
11.03
31.49
48
60.07
67.66
70.92
70.19
66.11
59.59
51.66
43.3
35.18
27.6
20.54
13.89
7.56
1.67
-3.65
-8.34
-12.63
-17.13
-22.67
-30.11
-39.9
-51.68
-64.05
-74.7
-80.92
-80.39
-71.96
-56.08
-34.72
-10.65
13.27
34.82
52.65
66.14
75.09
79.47
79.47
75.63
68.94
60.74
52.41
44.9
38.5
32.86
27.29
21.32
14.88
8.47
2.78
-1.74
-5.17
-8.29
-12.22
-18.1
-26.65
-37.85
-50.86
-63.97
-74.88
-81.13
-80.72
-72.72
-57.64
-37.34
-14.48
8.24
28.75
45.75
58.7
67.37
71.69
71.75
67.98
61.31
53.09
44.77
37.46
31.65
27.13
23.22
19.21
14.63
9.54
4.35
-0.42
-4.47
-7.94
-11.42
-15.74
-21.74
-30.03
-40.72
-53.29
-66.43
-78.15
-86.01
-87.75
-82
-68.76
-49.56
-26.95
-3.79
17.58
35.67
49.82
59.8
65.53
66.98
64.35
58.39
50.36
41.84
34.15
28.02
23.4
19.61
15.82
11.44
6.41
1.14
-3.8
-7.98
-11.41
-14.58
-18.36
-23.64
-31.18
-41.2
-53.22
-65.96
-77.38
-85.08
-86.83
-81.3
-68.44
-49.68
-27.47
-4.63
16.4
34.02
47.44
56.47
61.14
61.62
58.27
51.84
43.54
34.78
26.79
20.23
14.99
10.44
5.87
0.85
-4.49
-9.66
-14.1
-17.56
-20.31
-23.05
-26.75
-32.34
-40.42
-51.07
-63.52
-76.13
-86.49
-91.95
-90.36
-80.76
-63.84
-41.71
-17.26
6.71
28.1
45.76
59.2
68.19
72.56
72.27
67.71
59.97
50.72
41.77
34.44
29.17
25.41
22.07
18.09
12.93
6.83
0.49
-5.26
-9.98
-13.77
-17.34
-21.62
-27.55
-35.73
-46.21
-58.34
-70.67
-81.12
-87.25
-87.01
-79.26
-64.29
-43.76
-20.22
3.53
25.27
43.48
57.45
66.89
71.76
72.17
68.52
61.67
52.93
43.81
35.58
28.98
23.94
19.82
15.73
10.96
5.35
-0.75
-6.7
-11.96
-16.35
-20.23
-24.34
-29.61
-36.88
-46.68
-58.92
-72.7
-86.21
-96.93
-102.18
-99.94
-89.49
-71.8
-49.12
-24.34
-0.09
21.73
40.04
54.29
64.1
69.16
69.39
65.29
58.04
49.4
41.08
34.31
29.41
25.81
22.57
18.81
14.24
9.14
4.14
-0.2
-3.76
-6.93
-10.45
-15.14
-21.71
-30.57
-41.73
-54.65
-68
-79.68
-87.1
-87.83
-80.45
-65.15
-43.75
-19.15
5.52
27.85
46.4
60.75
70.88
76.94
78.99
77.16
71.97
64.35
55.59
46.97
39.43
33.31
28.3
23.77
19.05
13.81
8.2
2.73
-2.07
-6.02
-9.46
-13.23
-18.35
-25.74
-35.86
-48.58
-63.02
-77.59
-90.03
-97.77
-98.6
-91.26
-75.98
-54.49
-29.53
-4.05
19.54
39.61
55.34
66.26
72.15
72.98
69.23
61.96
52.82
43.62
35.79
30
26.03
23.01
19.92
16.01
11.1
5.56
0.07
-4.8
-8.82
-12.29
-15.94
-20.69
-27.4
-36.59
-48.3
-61.77
-75.49
-87.15
-94.11
-94
-85.53
-69.03
-46.4
-20.6
5.27
28.72
48.26
63.19
73.25
78.35
78.53
74.21
66.41
56.75
46.99
38.62
32.29
27.74
24.06
20.18
15.35
9.44
2.94
-3.44
-9.09
-13.92
-18.42
-23.49
-30.15
-39.13
-50.64
-64.08
-77.96
-90.13
-98
-99.29
-92.59
-77.88
-56.58
-31.21
-4.65
20.44
42.17
59.42
71.67
78.79
80.89
78.41
72.23
63.69
54.33
45.51
38.01
31.87
26.52
21.19
15.36
9.01
2.6
-3.27
-8.19
-12.17
-15.75
-19.75
-25.11
-32.66
-42.89
-55.69
-70.09
-84.08
-94.85
-99.45
-95.7
-82.96
-62.45
-36.89
-9.57
16.53
39.42
58.13
72.37
82.05
87.05
87.32
83.19
75.62
66.07
56.27
47.6
40.75
35.53
31.14
26.54
21.07
14.62
7.7
1.08
-4.68
-9.5
-13.96
-18.98
-25.57
-34.43
-45.85
-59.49
-74.28
-88.35
-99.11
-103.83
-100.24
-87.49
-66.5
-39.92
-11.28
16.09
39.83
58.9
73.18
82.9
88.22
89.19
86.04
79.48
70.82
61.68
53.49
47.05
42.35
38.67
34.99
30.48
24.73
17.94
10.71
3.75
-2.44
-7.81
-12.78
-18.12
-24.71
-33.34
-44.41
-57.85
-72.77
-87.44
-99.29
-105.4
-103.3
-91.76
-71.41
-44.64
-14.9
14.27
40.16
61.23
76.98
87.55
93.29
94.56
91.89
86.01
77.95
68.89
59.95
51.93
45.21
39.66
34.83
30.07
24.88
19.03
12.72
6.41
0.64
-4.37
-8.78
-13.16
-18.28
-24.84
-33.37
-44.13
-57.03
-71.49
-86.17
-98.86
-106.82
-107.45
-99.21
-82.23
-58.44
-30.95
-3.11
22.37
43.77
60.36
71.91
78.4
79.94
76.94
70.31
61.47
52.07
43.52
36.62
31.38
27.22
23.27
18.85
13.74
8.15
2.56
-2.61
-7.18
-11.39
-15.76
-20.97
-27.69
-36.47
-47.55
-60.63
-74.63
-87.54
-96.69
-99.38
-93.78
-79.61
-58.37
-32.86
-6.31
18.55
40.04
57.36
70.25
78.45
81.65
79.82
73.58
64.37
54.16
44.77
37.23
31.54
26.86
22.09
16.51
10.06
3.27
-3.11
-8.61
-13.21
-17.42
-22.03
-27.92
-35.87
-46.38
-59.41
-74.18
-88.89
-100.96
-107.49
-106.13
-95.85
-77.28
-52.64
-24.93
2.8
28.08
49.31
65.54
76.39
81.76
82
77.91
70.71
61.94
52.97
44.82
37.86
31.89
26.4
20.83
14.91
8.69
2.52
-3.14
-8.05
-12.28
-16.36
-21.15
-27.67
-36.75
-48.7
-62.84
-77.38
-89.55
-96.28
-95.08
-84.88
-66.49
-42.27
-15.35
11.31
35.56
56.19
72.6
84.35
91.08
92.55
89.13
81.96
72.83
63.7
56.04
50.39
46.3
42.65
38.24
32.36
25.01
16.84
8.78
1.56
-4.6
-10.16
-16.05
-23.41
-33.18
-45.84
-61.09
-77.59
-93.11
-104.7
-109.46
-105.37
-91.97
-70.64
-44.17
-15.96
11
34.62
53.87
68.32
77.79
82.13
81.37
76.07
67.44
57.21
47.16
38.55
31.8
26.5
21.74
16.69
10.99
4.82
-1.22
-6.56
-10.99
-14.84
-18.88
-24.09
-31.36
-41.18
-53.49
-67.45
-81.39
-92.94
-99.41
-98.54
-89.2
-71.89
-48.63
-22.4
3.81
27.61
47.55
62.9
73.27
78.44
78.39
73.62
65.32
55.25
45.28
36.76
30.22
25.24
20.95
16.5
11.47
6
0.6
-4.18
-8.18
-11.65
-15.31
-20.06
-26.82
-36.19
-48.19
-62.02
-75.91
-87.28
-93.3
-91.69
-81.42
-63.19
-39.18
-12.41
14.07
37.79
57.16
71.31
79.87
82.84
80.64
74.19
64.91
54.47
44.42
35.76
28.82
23.23
18.29
13.35
8
2.3
-3.42
-8.75
-13.53
-18.01
-22.88
-29.18
-37.87
-49.49
-63.61
-78.64
-91.88
-100.16
-100.73
-92.16
-74.92
-51.08
-23.77
3.91
29.45
51.25
68.4
80.32
86.72
87.57
83.52
75.88
66.41
56.85
48.38
41.32
35.21
29.24
22.72
15.55
8.17
1.32
-4.38
-8.82
-12.49
-16.37
-21.65
-29.34
-39.98
-53.29
-68.06
-82.08
-92.56
-96.72
-92.64
-79.88
-59.7
-34.63
-7.74
18.11
40.9
59.35
72.82
80.98
83.8
81.65
75.45
66.72
57.15
48.16
40.49
34.08
28.29
22.39
15.95
9.17
2.62
-3.04
-7.5
-11.04
-14.47
-18.88
-25.35
-34.57
-46.57
-60.49
-74.54
-86.13
-92.45
-91.2
-81.32
-63.48
-39.85
-13.45
12.73
36.37
56.1
71.21
81.35
86.29
86.04
81.12
72.74
62.58
52.41
43.47
36.14
30.02
24.3
18.27
11.69
4.87
-1.59
-7.22
-11.94
-16.2
-20.88
-27.02
-35.52
-46.69
-60.06
-74.1
-86.38
-94.05
-94.51
-86.33
-69.68
-46.42
-19.48
7.92
33.03
54
69.75
79.87
84.31
83.47
78.18
69.83
60.06
50.4
41.82
34.53
28.14
21.99
15.63
9.08
2.78
-2.71
-7.08
-10.49
-13.68
-17.67
-23.61
-32.3
-43.88
-57.58
-71.56
-83.23
-89.65
-88.46
-78.56
-60.55
-36.6
-9.87
16.39
39.51
57.82
70.62
77.92
80.11
77.85
72.02
63.73
54.24
44.72
35.97
28.35
21.72
15.72
10.06
4.63
-0.43
-4.94
-8.85
-12.46
-16.38
-21.51
-28.71
-38.45
-50.45
-63.35
-74.82
-81.98
-82.23
-74.17
-58.11
-36.03
-10.92
14.03
36.3
54.24
67.09
74.63
76.94
74.41
67.83
58.43
47.74
37.3
28.18
20.8
14.91
9.84
4.94
-0.11
-5.23
-10.03
-14.22
-17.84
-21.51
-26.24
-33.16
-42.97
-55.41
-69.02
-81.23
-88.94
-89.44
-81.3
-64.86
-42.2
-16.37
9.44
32.67
51.75
65.91
74.87
78.54
77.13
71.25
62.18
51.64
41.4
32.77
26.24
21.44
17.51
13.62
9.33
4.75
0.38
-3.35
-6.34
-9.07
-12.47
-17.65
-25.56
-36.56
-50.23
-65.15
-79
-88.99
-92.44
-87.61
-74.26
-53.82
-28.96
-2.83
21.73
42.76
59.19
70.62
77
78.43
75.27
68.33
58.89
48.55
38.8
30.66
24.41
19.63
15.49
11.19
6.29
0.83
-4.71
-9.81
-14.18
-17.98
-21.87
-26.8
-33.69
-43.14
-54.99
-68.1
-80.4
-89.11
-91.62
-86.16
-72.56
-52.28
-28
-2.76
20.81
40.93
56.6
67.28
72.64
72.64
67.7
58.97
48.28
37.61
28.56
21.77
16.89
12.89
8.73
3.77
-1.9
-7.68
-12.85
-17.05
-20.46
-23.83
-28.21
-34.65
-43.84
-55.73
-69.34
-82.69
-93.09
-97.76
-94.62
-82.99
-63.82
-39.42
-12.71
13.55
37.15
56.68
71.2
80.16
83.33
81.05
74.33
64.8
54.34
44.48
36.06
29.08
22.96
16.99
10.72
4.16
-2.33
-8.29
-13.47
-17.95
-22.26
-27.24
-33.83
-42.87
-54.6
-68.39
-82.45
-94
-99.94
-97.81
-86.66
-67.42
-42.65
-15.64
10.57
33.85
53.02
67.62
77.41
82.17
81.9
77.04
68.74
58.69
48.69
40.08
33.35
28.09
23.36
18.21
12.14
5.35
-1.51
-7.68
-12.8
-17.19
-21.75
-27.74
-36.29
-47.93
-62.18
-77.46
-91.16
-100.15
-101.72
-94.27
-78.01
-54.83
-27.8
-0.12
25.59
47.7
65.35
78.04
85.39
87.13
83.55
75.69
65.38
54.68
45.27
37.88
32.2
27.29
22.18
16.37
10.07
3.9
-1.52
-5.95
-9.7
-13.51
-18.26
-24.78
-33.66
-45.14
-58.94
-73.95
-88.1
-98.53
-102.27
-97.15
-82.71
-60.42
-33.27
-4.86
21.72
44.49
62.63
76.04
84.81
88.93
88.4
83.56
75.3
65.15
54.86
45.94
39.16
34.38
30.75
27.08
22.5
16.73
10.19
3.64
-2.25
-7.27
-11.85
-16.79
-23.1
-31.56
-42.6
-56.05
-70.98
-85.59
-97.29
-103.21
-100.95
-89.51
-69.66
-43.87
-15.51
12.15
36.67
56.68
71.57
81.14
85.37
84.5
79.23
70.85
61.04
51.39
43.01
36.29
30.93
26.24
21.57
16.49
10.98
5.35
-0.03
-4.84
-9.14
-13.33
-18.12
-24.32
-32.57
-43.17
-55.78
-69.35
-82.06
-91.54
-95.39
-91.83
-80.31
-61.77
-38.41
-12.99
11.81
33.95
52.12
65.56
73.78
76.54
74.05
67.16
57.43
46.84
37.23
29.76
24.63
21.1
17.97
14.16
9.18
3.28
-2.78
-8.24
-12.75
-16.66
-20.86
-26.49
-34.47
-45.25
-58.44
-72.8
-86.22
-96.01
-99.53
-94.89
-81.62
-60.87
-35.14
-7.5
19.14
42.58
61.48
75.06
82.98
85.22
82.23
75.1
65.42
55.04
45.46
37.54
31.28
26.1
21.17
15.89
10.11
4.11
-1.6
-6.67
-11.1
-15.38
-20.32
-26.9
-35.91
-47.63
-61.56
-76.13
-88.84
-96.67
-96.9
-88.03
-70.34
-46
-18.28
9.32
34.12
54.6
70.28
81.16
87.3
88.69
85.47
78.36
68.71
58.3
48.79
41.17
35.49
31
26.62
21.53
15.51
8.95
2.6
-2.94
-7.54
-11.69
-16.34
-22.55
-31.16
-42.56
-56.47
-71.81
-86.68
-98.51
-104.51
-102.43
-91.22
-71.58
-45.77
-17.01
11.42
36.97
58.11
74.25
85.26
91.19
92.13
88.5
81.21
71.64
61.5
52.26
44.8
39.25
35.04
31.27
27.11
22.08
16.22
9.92
3.74
-1.93
-7.06
-12.01
-17.43
-24.03
-32.46
-43.13
-56.07
-70.78
-85.92
-99.22
-107.82
-108.9
-100.68
-83.13
-58.26
-29.41
-0.32
25.96
47.71
64.39
76.23
83.62
86.84
86.14
81.98
75.17
66.86
58.29
50.44
43.9
38.78
34.79
31.42
28.1
24.37
19.91
14.62
8.61
2.11
-4.61
-11.34
-18.01
-24.75
-31.89
-40.01
-49.71
-61.41
-74.85
-88.73
-100.58
-107.22
-105.74
-94.56
-74.17
-47.13
-17.28
11.54
36.48
56.12
70.29
79.42
84
84.39
80.96
74.41
65.9
56.9
48.71
42.16
37.33
33.7
30.46
26.89
22.58
17.55
12.05
6.41
0.87
-4.53
-9.91
-15.54
-21.77
-29
-37.7
-48.27
-60.8
-74.72
-88.53
-99.76
-105.57
-103.53
-92.55
-73.37
-48.44
-21.09
5.44
28.75
47.63
61.67
70.86
75.21
74.79
70
61.83
51.85
41.84
33.32
27.04
22.85
19.87
16.98
13.33
8.62
3.19
-2.32
-7.33
-11.68
-15.73
-20.15
-25.72
-33.04
-42.44
-53.86
-66.8
-80.06
-91.74
-99.37
-100.46
-93.38
-78
-55.91
-29.97
-3.37
21.2
42.1
58.58
70.44
77.57
79.92
77.69
71.61
63.04
53.63
44.94
37.88
32.54
28.28
24.15
19.3
13.46
6.9
0.3
-5.64
-10.61
-14.81
-18.96
-24.01
-30.91
-40.35
-52.47
-66.67
-81.39
-94.2
-102.21
-102.82
-94.6
-77.85
-54.59
-27.94
-1.14
23.3
44.01
60.55
72.95
81.24
85.29
85.01
80.66
73.14
63.88
54.51
46.3
39.79
34.67
30.12
25.23
19.59
13.36
7.13
1.56
-3.1
-7.07
-11
-15.63
-21.66
-29.58
-39.69
-51.94
-65.7
-79.47
-90.82
-96.92
-95.28
-84.76
-66.07
-41.64
-14.83
11.11
33.84
52.22
66.01
75.4
80.62
81.77
79.1
73.15
64.97
55.88
47.25
40.06
34.67
30.78
27.54
24.09
19.78
14.53
8.75
3.1
-1.94
-6.34
-10.59
-15.51
-21.86
-30.19
-40.63
-53.03
-66.82
-80.93
-93.6
-102.43
-104.83
-98.85
-84.02
-61.61
-34.52
-6.26
19.99
42.14
59.37
71.72
79.56
83.18
82.79
78.74
71.76
63.12
54.25
46.51
40.62
36.59
33.76
31.15
27.88
23.52
18.21
12.48
7.02
2.3
-1.64
-5.21
-9.2
-14.56
-22.12
-32.42
-45.46
-60.42
-75.56
-88.33
-95.86
-95.78
-86.94
-69.98
-47.12
-21.55
3.5
25.6
43.36
56.32
64.48
67.96
66.98
62
54.02
44.48
35.07
27.19
21.5
17.83
15.25
12.62
9.05
4.28
-1.36
-7.13
-12.4
-16.89
-20.85
-24.95
-30.07
-37.02
-46.37
-58.18
-71.77
-85.61
-97.32
-104.16
-103.75
-94.85
-77.96
-55.15
-29.47
-3.97
18.98
38.06
52.7
62.72
68.03
68.6
64.84
57.76
49
40.36
33.27
28.31
25.02
22.31
18.97
14.32
8.46
2.14
-3.71
-8.48
-12.21
-15.65
-19.88
-26.02
-34.82
-46.47
-60.38
-75.04
-88.18
-97.02
-99.01
-92.6
-77.77
-56.18
-30.65
-4.27
20.38
41.68
58.88
71.68
79.9
83.38
82.21
77.03
69.13
60.22
51.87
45.07
39.89
35.66
31.37
26.22
19.98
13.02
6.03
-0.37
-5.98
-11.12
-16.46
-22.84
-31.04
-41.56
-54.51
-69.28
-84.32
-97.19
-105
-105.2
-96.49
-79.38
-56.04
-29.68
-3.45
20.28
40.25
55.94
67.21
73.88
75.83
73.25
66.93
58.31
49.14
41
34.76
30.35
26.97
23.47
18.96
13.17
6.55
-0.04
-5.85
-10.64
-14.9
-19.63
-26.03
-34.97
-46.7
-60.69
-75.52
-89.09
-98.86
-102.46
-98.2
-85.65
-65.84
-41.01
-14.05
12.31
35.96
55.6
70.54
80.41
85.05
84.59
79.74
71.8
62.58
53.82
46.74
41.63
37.93
34.61
30.72
25.81
20.02
13.93
8.17
3.08
-1.5
-6.11
-11.55
-18.64
-28.05
-40.03
-54.08
-68.81
-81.93
-90.62
-92.4
-85.82
-71.1
-50.02
-25.43
-0.29
22.93
42.67
58.06
68.62
74.15
74.65
70.67
63.39
54.48
45.68
38.32
32.91
29.05
25.8
22.07
17.28
11.44
5.17
-0.75
-5.84
-10.17
-14.4
-19.44
-26.26
-35.45
-47.09
-60.54
-74.27
-86.05
-93.21
-93.38
-85.25
-69.09
-46.75
-21.1
4.87
28.74
48.96
64.76
75.75
81.72
82.74
79.38
72.77
64.47
56.03
48.49
42.16
36.65
31.24
25.33
18.73
11.74
4.94
-1.11
-6.24
-10.75
-15.39
-21.17
-29.08
-39.74
-53.05
-67.95
-82.33
-93.41
-98.34
-95.08
-83.09
-63.56
-39
-12.46
13.32
36.41
55.68
70.58
80.69
85.75
85.72
81.15
73.28
63.82
54.55
46.73
40.7
35.98
31.51
26.33
20.06
13.06
6.18
0.26
-4.38
-8.2
-12.27
-17.87
-26.04
-37.21
-50.99
-66.08
-80.33
-91.04
-95.53
-91.95
-79.86
-60.5
-36.4
-10.59
14.26
36.36
54.83
69.27
79.47
85.15
86.27
83.2
76.94
68.94
60.7
53.38
47.46
42.76
38.65
34.38
29.41
23.61
17.23
10.77
4.7
-0.81
-5.95
-11.27
-17.52
-25.39
-35.47
-47.96
-62.49
-77.85
-91.9
-101.8
-104.7
-98.64
-83.32
-60.4
-32.99
-4.71
21.4
43.41
60.67
73.25
81.44
85.47
85.49
81.92
75.54
67.54
59.2
51.54
45.11
39.88
35.48
31.42
27.25
22.76
17.91
12.81
7.58
2.32
-3.03
-8.6
-14.62
-21.33
-29.05
-38.17
-49.07
-61.86
-75.97
-89.8
-100.75
-105.87
-102.7
-90.32
-69.8
-43.9
-16.2
10.08
32.76
50.95
64.61
74.01
79.35
80.69
78.27
72.67
64.96
56.44
48.4
41.68
36.54
32.7
29.5
26.22
22.31
17.59
12.23
6.6
1
-4.48
-10.06
-16.15
-23.11
-31.16
-40.4
-50.88
-62.66
-75.57
-88.81
-100.57
-108.26
-109.08
-101.15
-84.33
-60.49
-32.93
-5.28
19.57
40.08
55.77
66.82
73.46
75.81
74.08
68.85
61.29
52.89
45.12
38.92
34.49
31.37
28.65
25.53
21.48
16.53
11.08
5.65
0.6
-4.12
-8.91
-14.44
-21.33
-30.01
-40.62
-53
-66.56
-80.2
-92.2
-100.26
-102.09
-96.01
-81.71
-60.45
-34.84
-8.09
16.93
38.25
54.97
66.94
74.38
77.6
76.92
72.84
66.18
58.08
49.74
42.25
36.22
31.69
28.17
24.86
21.01
16.17
10.39
4.05
-2.31
-8.28
-13.86
-19.37
-25.43
-32.71
-41.78
-52.96
-66.17
-80.58
-94.57
-105.73
-111.29
-108.99
-97.75
-78.26
-52.79
-24.63
2.93
27.35
47.19
62.05
72.12
77.81
79.55
77.88
73.49
67.23
60.06
52.81
46.07
40.14
35.08
30.73
26.86
23.13
19.18
14.72
9.6
3.9
-2.17
-8.34
-14.52
-20.87
-27.78
-35.84
-45.61
-57.44
-71.22
-86.02
-99.94
-110.31
-114.3
-109.75
-96.06
-74.45
-47.74
-19.46
7.18
29.98
47.93
60.97
69.4
73.6
74
71.16
65.99
59.65
53.23
47.51
42.7
38.56
34.6
30.45
25.95
21.2
16.4
11.63
6.85
1.87
-3.49
-9.39
-15.88
-22.94
-30.65
-39.17
-48.84
-59.94
-72.46
-85.67
-97.86
-106.49
-108.8
-102.78
-87.94
-65.69
-38.9
-11.02
14.96
37.12
54.62
67.33
75.31
78.61
77.41
72.31
64.51
55.65
47.4
40.85
36.37
33.44
31.11
28.37
24.61
19.75
14.13
8.33
2.74
-2.54
-7.75
-13.36
-19.89
-27.86
-37.67
-49.61
-63.59
-78.86
-93.7
-105.54
-111.45
-109.02
-97.3
-77.27
-51.58
-23.7
3.15
26.74
46
60.68
70.75
76.11
76.7
72.78
65.27
55.7
45.84
37.17
30.4
25.43
21.49
17.74
13.58
8.95
4.24
0
-3.4
-6.02
-8.38
-11.36
-15.9
-22.87
-32.75
-45.49
-60.27
-75.38
-88.35
-96.34
-96.97
-89
-72.8
-50.35
-24.57
1.52
25.54
46.01
62.26
73.98
80.98
83.13
80.6
74.15
65.14
55.31
46.26
38.94
33.37
28.81
24.18
18.65
12.07
4.96
-1.74
-7.34
-11.74
-15.55
-19.94
-26.13
-35.05
-46.94
-61.25
-76.61
-90.86
-101.36
-105.53
-101.51
-88.78
-68.43
-42.83
-15.02
12.19
36.78
57.53
73.79
85.04
90.84
90.91
85.61
76.09
64.22
52.09
41.34
32.71
25.95
20.19
14.46
8.24
1.62
-4.87
-10.67
-15.6
-19.96
-24.54
-30.26
-37.98
-48.17
-60.81
-75.2
-89.79
-102.32
-110.07
-110.57
-102.35
-85.54
-61.9
-34.31
-5.92
20.65
43.67
62.27
76.04
84.79
88.44
87.22
81.91
73.84
64.69
56
48.8
43.3
38.99
35.01
30.55
25.25
19.21
12.96
6.97
1.46
-3.83
-9.49
-16.26
-24.82
-35.53
-48.45
-63.01
-77.88
-90.91
-99.37
-100.65
-93.06
-76.6
-53.04
-25.48
2.6
28.3
49.78
66.34
77.92
84.7
86.82
84.54
78.48
69.81
60.11
50.96
43.43
37.78
33.47
29.53
25.08
19.68
13.53
7.2
1.28
-3.96
-8.74
-13.67
-19.56
-27.23
-37.24
-49.8
-64.43
-79.8
-93.68
-103.25
-105.81
-99.59
-84.47
-62.06
-35.31
-7.5
18.53
41
59.02
72.27
80.58
83.82
82.12
76.12
67.19
57.16
47.88
40.63
35.76
32.68
30.2
27.13
22.71
16.97
10.54
4.31
-1.09
-5.67
-10.01
-15.18
-22.2
-31.81
-44.17
-58.73
-74.11
-88.14
-98.19
-101.61
-96.59
-82.77
-61.51
-35.52
-8.07
17.96
40.63
58.96
72.62
81.4
85.22
84.19
78.99
70.97
61.86
53.37
46.53
41.53
37.75
34.22
30.06
24.85
18.79
12.4
6.31
0.86
-3.99
-8.78
-14.27
-21.27
-30.46
-42.13
-56.07
-71.28
-85.96
-97.53
-103.22
-100.8
-89.4
-69.92
-44.79
-17.31
9.45
33.28
53.05
68.39
79.22
85.46
87.1
84.47
78.46
70.49
62.15
54.71
48.74
44.05
39.96
35.69
30.75
25.11
19.15
13.36
8.09
3.29
-1.45
-6.74
-13.2
-21.3
-31.24
-43.05
-56.43
-70.67
-84.36
-95.41
-101.31
-99.83
-89.79
-71.57
-47.19
-19.59
8.11
33.5
55.06
72.12
84.43
91.9
94.59
92.87
87.57
79.96
71.46
63.29
56.18
50.32
45.52
41.47
37.89
34.6
31.36
27.9
23.79
18.63
12.24
4.71
-3.57
-12.1
-20.47
-28.52
-36.45
-44.68
-53.84
-64.5
-76.92
-90.63
-104.18
-115.14
-120.58
-118.02
-106.26
-86
-59.63
-30.47
-1.74
24.17
45.98
63.18
75.62
83.24
86.12
84.72
79.99
73.31
66.07
59.31
53.54
48.7
44.51
40.68
37.13
33.91
31.01
28.31
25.41
21.88
17.36
11.76
5.25
-1.84
-9.22
-16.78
-24.71
-33.42
-43.47
-55.22
-68.49
-82.25
-94.46
-102.47
-103.63
-96.23
-80.21
-57.33
-30.65
-3.64
20.78
40.83
55.9
66.13
72.01
73.99
72.55
68.24
61.9
54.53
47.13
40.58
35.28
31.3
28.36
26.03
23.83
21.33
18.23
14.37
9.76
4.53
-1.11
-6.99
-13.05
-19.44
-26.49
-34.68
-44.56
-56.43
-70.11
-84.53
-97.71
-107.03
-109.79
-104.14
-89.68
-67.78
-41.17
-13.21
13.02
35.43
52.99
65.62
73.65
77.55
77.74
74.7
69.05
61.62
53.4
45.35
38.23
32.41
27.93
24.48
21.6
18.8
15.71
12.14
8.03
3.45
-1.62
-7.2
-13.37
-20.25
-27.92
-36.54
-46.37
-57.74
-70.79
-85
-98.86
-109.84
-114.98
-111.78
-99.2
-78.09
-51.07
-21.64
6.81
31.76
51.91
66.88
76.88
82.28
83.55
81.3
76.34
69.68
62.3
55.06
48.47
42.82
38.06
34.05
30.53
27.2
23.72
19.74
15
9.33
2.81
-4.36
-11.85
-19.39
-26.83
-34.29
-42.17
-51.12
-61.82
-74.51
-88.61
-102.4
-113.13
-117.73
-113.72
-100.12
-77.92
-49.86
-19.54
9.55
34.86
55.06
69.85
79.54
84.67
85.8
83.57
78.74
72.18
64.77
57.28
50.27
44.06
38.75
34.32
30.6
27.28
23.98
20.3
15.94
10.71
4.66
-2.02
-9.08
-16.3
-23.62
-31.11
-39.12
-48.16
-58.76
-71.11
-84.63
-97.74
-107.9
-112.25
-108.46
-95.68
-74.87
-48.64
-20.38
6.71
30.35
49.39
63.54
72.94
77.78
78.28
74.87
68.27
59.62
50.25
41.45
34.13
28.68
24.97
22.41
20.22
17.59
14.02
9.35
3.83
-2.1
-8.07
-13.87
-19.61
-25.62
-32.35
-40.29
-49.87
-61.23
-74.01
-87
-98.11
-104.71
-104.26
-95.26
-77.85
-53.91
-26.57
0.85
25.66
46.3
62.25
73.58
80.42
82.85
80.93
75.09
66.34
56.17
46.22
37.74
31.3
26.6
22.76
18.82
14.11
8.55
2.47
-3.56
-9.13
-14.12
-18.85
-23.85
-29.78
-37.27
-46.83
-58.71
-72.66
-87.64
-101.66
-112
-115.76
-110.81
-96.57
-74.28
-46.74
-17.42
10.5
34.78
54.38
69.04
78.91
84.18
85.04
81.82
75.3
66.67
57.35
48.67
41.45
35.86
31.45
27.43
23.04
17.85
11.91
5.62
-0.51
-6.19
-11.48
-16.8
-22.76
-29.96
-38.88
-49.81
-62.8
-77.42
-92.52
-105.98
-114.99
-116.72
-109.26
-92.48
-68.13
-39.49
-10.2
16.67
39.27
56.99
69.96
78.55
82.96
83.34
80
73.67
65.5
56.87
49.01
42.64
37.87
34.22
30.93
27.2
22.59
17.07
10.94
4.66
-1.4
-7.15
-12.83
-18.89
-25.89
-34.43
-45.02
-57.93
-72.85
-88.64
-103.1
-113.29
-116.21
-109.79
-93.7
-69.56
-40.54
-10.34
17.8
41.78
60.66
74.3
82.95
86.84
86.23
81.61
73.95
64.62
55.23
47.13
41.09
37.02
34.17
31.48
28.05
23.52
18.06
12.22
6.55
1.29
-3.74
-9.02
-15.15
-22.62
-31.83
-42.97
-55.93
-70.09
-84.04
-95.52
-101.85
-100.6
-90.5
-71.99
-47.26
-19.59
7.67
31.9
51.7
66.58
76.59
81.85
82.46
78.73
71.43
61.93
51.9
42.89
35.79
30.65
26.79
23.22
19.13
14.18
8.61
2.95
-2.27
-6.89
-11.17
-15.75
-21.42
-28.9
-38.69
-50.92
-65.15
-80.16
-93.84
-103.47
-106.31
-100.51
-85.78
-63.6
-36.84
-8.79
17.71
40.81
59.56
73.58
82.55
86.24
84.68
78.54
69.27
58.79
48.97
40.98
35.02
30.38
25.98
20.9
14.82
8.12
1.55
-4.13
-8.58
-12.01
-15.14
-18.99
-24.58
-32.74
-43.86
-57.65
-72.86
-87.28
-97.94
-101.91
-97.11
-83.07
-61.16
-34.18
-5.47
21.99
46.09
65.72
80.41
89.99
94.42
93.84
88.83
80.49
70.37
60.11
51.02
43.73
38.13
33.55
29.09
24.1
18.41
12.34
6.49
1.33
-3.13
-7.49
-12.73
-19.94
-29.87
-42.67
-57.71
-73.52
-87.95
-98.42
-102.47
-98.37
-85.7
-65.56
-40.39
-13.26
12.96
36.14
55.11
69.4
78.91
83.61
83.68
79.64
72.54
63.86
55.11
47.46
41.41
36.71
32.65
28.43
23.53
17.9
11.92
6.07
0.7
-4.16
-8.88
-14.04
-20.34
-28.33
-38.49
-50.94
-65.3
-80.34
-93.9
-103.11
-105.19
-98.34
-82.48
-59.39
-32.18
-4.28
21.5
43.4
60.66
73.07
80.56
83.14
81.05
75.04
66.46
56.96
48.14
41.05
36.04
32.72
30.29
27.93
24.99
21.25
16.76
11.79
6.61
1.38
-3.92
-9.53
-15.74
-22.93
-31.5
-41.84
-54.16
-68.2
-82.89
-96.2
-105.31
-107.41
-100.64
-84.84
-61.81
-34.73
-7.23
17.69
38.21
53.66
64.11
69.8
70.99
67.95
61.33
52.28
42.35
33.13
25.79
20.78
17.78
15.94
14.27
11.93
8.59
4.38
-0.33
-5.11
-9.79
-14.54
-19.8
-26.13
-34.04
-43.95
-56.01
-69.98
-84.98
-99.26
-110.34
-115.46
-112.37
-100.06
-79.21
-52.08
-21.87
8.12
35.18
57.54
74.3
85.22
90.39
90.2
85.34
76.96
66.53
55.75
46.07
38.37
32.66
28.22
23.97
18.97
12.87
5.93
-1.14
-7.62
-13.18
-18.04
-22.9
-28.7
-36.43
-46.76
-59.94
-75.48
-91.95
-106.93
-117.29
-119.94
-112.76
-95.42
-69.63
-38.69
-6.45
23.73
49.68
70.49
86.06
96.56
102.09
102.82
99.2
92.17
83.18
73.76
65.17
58.07
52.45
47.83
43.53
38.95
33.71
27.76
21.19
14.25
7.15
-0.01
-7.34
-15.2
-24.13
-34.79
-47.69
-62.9
-79.66
-96.15
-109.56
-116.73
-114.98
-103.07
-81.7
-53.39
-21.77
9.46
37.45
60.54
78.16
90.35
97.39
99.59
97.46
91.78
83.69
74.54
65.58
57.73
51.37
46.36
42.23
38.39
34.31
29.7
24.46
18.68
12.47
5.94
-0.94
-8.21
-16.03
-24.56
-34.08
-44.95
-57.6
-72.05
-87.54
-102.19
-113.11
-117.11
-111.68
-96.03
-71.4
-40.9
-8.42
22.4
49
70.14
85.57
95.53
100.31
100.28
95.96
88.32
78.73
68.72
59.65
52.37
47.04
43.24
40.26
37.3
33.8
29.47
24.26
18.33
11.82
4.88
-2.4
-10.04
-18.15
-27.02
-37.05
-48.78
-62.47
-77.78
-93.35
-106.7
-114.73
-114.62
-104.84
-85.82
-59.85
-30.38
-0.94
25.72
48.02
65.32
77.44
84.32
85.98
82.72
75.48
65.76
55.48
46.35
39.44
34.89
31.94
29.47
26.41
22.19
16.87
10.95
5.05
-0.44
-5.51
-10.55
-16.18
-23.09
-31.97
-43.28
-57.06
-72.51
-87.82
-100.26
-106.72
-104.7
-93.15
-72.93
-46.62
-17.68
10.6
35.76
56.46
72.15
82.68
87.98
88.09
83.47
75.17
64.83
54.27
45.05
38.03
33.12
29.52
26.07
21.81
16.32
9.89
3.24
-2.84
-7.98
-12.45
-17.13
-23.14
-31.49
-42.72
-56.67
-72.42
-88.22
-101.67
-110.07
-110.99
-103.02
-86.27
-62.49
-34.6
-5.84
21.04
44.26
62.95
76.82
85.78
89.75
88.84
83.6
75.14
65.06
55.05
46.46
39.89
35.15
31.44
27.8
23.51
18.34
12.51
6.5
0.71
-4.73
-10.09
-15.85
-22.66
-31.11
-41.64
-54.36
-68.78
-83.62
-96.73
-105.46
-107.24
-100.41
-84.93
-62.4
-35.68
-7.97
18.01
40.49
58.64
72.18
80.97
84.92
84.1
79.11
71.13
61.82
52.82
45.27
39.52
35.17
31.36
27.27
22.39
16.72
10.61
4.56
-1.11
-6.35
-11.47
-16.99
-23.5
-31.55
-41.52
-53.49
-67.06
-81.03
-93.38
-101.48
-102.79
-95.64
-79.95
-57.37
-30.8
-3.49
21.84
43.44
60.54
72.88
80.39
83.04
81.01
74.93
66.02
55.92
46.25
38.22
32.23
27.89
24.3
20.5
15.93
10.6
4.99
-0.27
-4.85
-8.9
-13.1
-18.3
-25.3
-34.54
-45.99
-59.15
-72.91
-85.63
-95.13
-99.19
-96.01
-84.94
-66.77
-43.56
-18.15
6.64
28.58
46.28
59.09
66.8
69.51
67.55
61.7
53.19
43.61
34.55
27.2
21.98
18.5
15.83
12.89
9
4.05
-1.43
-6.69
-11.11
-14.64
-17.86
-21.83
-27.78
-36.62
-48.57
-62.84
-77.64
-90.35
-98.1
-98.47
-90.25
-73.89
-51.4
-25.81
-0.23
22.86
42.04
56.79
67.06
72.93
74.37
71.59
65.2
56.48
47.11
38.69
32.21
27.69
24.28
20.76
16.21
10.42
4
-2.07
-7.01
-10.75
-14.04
-18.12
-24.28
-33.29
-45.21
-59.34
-74.21
-87.82
-97.69
-101.42
-97.22
-84.56
-64.52
-39.58
-12.99
12.29
34.21
51.96
65.55
75.25
81.15
83.05
80.82
74.77
65.93
55.86
46.3
38.5
32.87
28.92
25.57
21.74
16.86
11.07
4.99
-0.66
-5.58
-10.05
-14.84
-20.87
-28.88
-39.23
-51.81
-66.01
-80.59
-93.6
-102.55
-104.87
-98.73
-83.7
-61.21
-34.12
-5.95
20.21
42.31
59.48
71.7
79.26
82.42
81.48
76.98
69.88
61.53
53.35
46.36
41
37.03
33.85
30.73
27.11
22.75
17.61
11.9
5.86
-0.26
-6.28
-12.19
-18.2
-24.75
-32.41
-41.83
-53.43
-67.07
-81.77
-95.55
-105.73
-109.49
-104.8
-91.09
-69.6
-43.04
-14.77
12.1
35.31
53.7
66.94
75.12
78.64
78.01
74.04
67.76
60.33
52.83
46.06
40.47
36.07
32.67
29.82
27.06
23.98
20.29
15.94
11.04
5.81
0.44
-5.02
-10.74
-17
-24.2
-32.71
-42.96
-55.2
-69.3
-84.36
-98.45
-108.78
-112.39
-107.1
-92.41
-69.88
-42.61
-14.31
11.84
33.91
51.21
63.83
72.02
75.9
75.55
71.35
64.19
55.47
46.77
39.36
33.9
30.29
27.84
25.6
22.76
18.9
14.08
8.68
3.22
-2.01
-7.03
-12.2
-18.09
-25.26
-34.15
-44.99
-57.67
-71.53
-85.2
-96.49
-102.81
-101.76
-92.02
-73.94
-49.54
-21.96
5.45
30.01
50.2
65.42
75.77
81.45
82.67
79.76
73.37
64.63
55.02
46.03
38.7
33.36
29.58
26.39
22.85
18.34
12.88
6.96
1.24
-3.91
-8.55
-13.22
-18.7
-25.7
-34.7
-45.87
-59
-73.4
-87.68
-99.71
-106.85
-106.66
-97.66
-80.06
-55.83
-28.13
-0.4
24.64
45.4
61.43
72.86
80.01
83.04
82.1
77.6
70.35
61.64
52.84
45.12
39.03
34.49
30.9
27.44
23.51
18.84
13.6
8.16
2.88
-2.11
-7.06
-12.41
-18.71
-26.45
-36.01
-47.58
-61.04
-75.71
-90.09
-101.84
-108.12
-106.43
-95.46
-75.76
-49.71
-20.8
7.45
32.4
52.71
68.12
78.87
85.22
87.3
85.34
79.95
72.19
63.47
55.1
47.99
42.42
38.17
34.67
31.31
27.58
23.19
18.08
12.38
6.29
0.04
-6.29
-12.75
-19.57
-27.06
-35.61
-45.63
-57.45
-70.98
-85.34
-98.67
-108.29
-111.33
-105.73
-91
-68.53
-41.21
-12.52
14.43
37.51
55.66
68.63
76.52
79.59
78.28
73.33
65.83
57.19
48.75
41.55
36.02
32.02
28.88
25.81
22.13
17.55
12.17
6.42
0.82
-4.27
-8.84
-13.23
-18.06
-24.04
-31.88
-42.02
-54.52
-68.76
-83.27
-95.72
-103.33
-103.58
-95.07
-78.14
-54.79
-28.15
-1.42
22.86
43.22
59.04
70.1
76.27
77.47
73.98
66.72
57.24
47.38
38.76
32.27
27.84
24.69
21.71
18.02
13.28
7.74
2.03
-3.27
-7.87
-12.02
-16.4
-21.89
-29.27
-39.04
-51.22
-65.24
-79.81
-92.92
-102.07
-104.82
-99.48
-85.71
-64.81
-39.33
-12.4
13.14
35.36
53.27
66.6
75.34
79.48
79.09
74.59
66.95
57.65
48.35
40.36
34.25
29.74
25.92
21.87
17.05
11.57
6.05
1.16
-2.77
-6.03
-9.44
-14.01
-20.66
-29.89
-41.7
-55.53
-70.08
-83.35
-92.77
-95.7
-90.25
-75.96
-54.19
-27.74
-0.01
25.99
48.33
66.19
79.48
88.28
92.58
92.34
87.82
79.82
69.62
58.74
48.41
39.37
31.68
24.95
18.62
12.32
6
-0.13
-5.71
-10.55
-14.78
-18.92
-23.68
-29.84
-38.02
-48.54
-61.35
-75.68
-90.03
-102.01
-108.81
-107.96
-98.11
-79.76
-55.1
-27.41
0.03
24.76
45.49
61.81
73.66
80.97
83.6
81.69
75.91
67.59
58.37
49.74
42.64
37.2
32.89
28.9
24.5
19.37
13.64
7.79
2.31
-2.55
-6.99
-11.55
-17.04
-24.14
-33.36
-44.78
-57.98
-71.95
-84.97
-94.78
-98.91
-95.49
-83.77
-64.62
-40.29
-13.76
12.1
35.13
53.97
67.98
76.82
80.33
78.68
72.61
63.46
53
43.03
34.79
28.68
24.28
20.7
16.99
12.55
7.33
1.72
-3.69
-8.52
-12.71
-16.69
-21.25
-27.28
-35.59
-46.57
-59.95
-74.57
-88.37
-98.58
-102.42
-97.88
-84.48
-63.55
-37.83
-10.63
15.16
37.6
55.78
69.36
78.19
82.13
81.21
76.03
67.83
58.34
49.32
41.92
36.38
32.11
28.09
23.44
17.82
11.56
5.32
-0.25
-4.96
-9.19
-13.75
-19.6
-27.57
-38.1
-51.13
-65.93
-81.02
-94.13
-102.57
-103.87
-96.52
-80.62
-57.94
-31.39
-4.19
21.05
42.66
59.92
72.56
80.45
83.49
81.79
76.03
67.49
57.91
48.92
41.6
36.2
32.11
28.33
23.92
18.46
12.15
5.69
-0.13
-4.88
-8.75
-12.59
-17.6
-24.91
-35.26
-48.61
-64.06
-79.82
-93.45
-102.18
-103.62
-96.3
-80.31
-57.31
-30.13
-2.04
24.17
46.62
64.42
77.34
85.43
88.83
87.82
83.04
75.57
66.86
58.37
51.18
45.68
41.51
37.81
33.65
28.42
22.04
14.97
7.91
1.43
-4.3
-9.62
-15.25
-22.03
-30.69
-41.7
-55.01
-70.02
-85.26
-98.47
-106.89
-107.9
-99.96
-83.21
-59.59
-32.27
-4.66
20.55
41.83
58.68
71.1
79.07
82.43
81.11
75.59
67.02
57.14
47.77
40.2
34.93
31.52
29.01
26.33
22.81
18.3
13.18
8.03
3.27
-1.03
-5.27
-10.14
-16.35
-24.46
-34.77
-47.24
-61.43
-76.28
-89.92
-99.86
-103.49
-98.85
-85.41
-64.46
-38.74
-11.61
13.82
35.49
52.39
64.31
71.33
73.64
71.55
65.73
57.31
47.81
38.76
31.31
25.86
22.06
18.99
15.69
11.52
6.5
1.16
-3.75
-7.69
-10.71
-13.48
-17.07
-22.6
-30.83
-41.91
-55.24
-69.38
-82.2
-91.15
-93.84
-88.7
-75.48
-55.45
-31.04
-5.18
19.49
41.02
58.26
70.63
77.87
80.01
77.38
70.88
61.92
52.15
43.05
35.48
29.53
24.61
19.88
14.69
8.91
2.85
-2.91
-7.95
-12.24
-16.24
-20.74
-26.59
-34.52
-44.97
-57.85
-72.38
-86.85
-98.71
-105.04
-103.35
-92.49
-73.13
-47.65
-19.39
8.31
32.99
53.25
68.55
78.75
83.74
83.54
78.57
69.95
59.42
48.97
40.19
33.7
29.08
25.15
20.69
15.01
8.27
1.28
-5
-10.01
-13.91
-17.55
-22.19
-29.03
-38.98
-52.15
-67.79
-84.08
-98.31
-107.42
-108.76
-101
-84.52
-61.43
-34.81
-7.73
17.36
39.01
56.39
69
76.4
78.41
75.42
68.55
59.59
50.43
42.5
36.37
31.74
27.79
23.68
18.93
13.52
7.8
2.18
-3.06
-7.98
-12.94
-18.59
-25.64
-34.77
-46.4
-60.37
-75.73
-90.57
-102.2
-107.76
-105.02
-93.24
-73.4
-48.03
-20.34
6.65
30.79
50.86
66.33
76.86
82.21
82.33
77.7
69.58
59.82
50.37
42.67
37.17
33.36
30.1
26.31
21.42
15.58
9.44
3.72
-1.25
-5.73
-10.44
-16.34
-24.32
-34.93
-48.15
-63.17
-78.32
-91.1
-98.75
-98.86
-90.25
-73.39
-50.27
-23.85
2.83
27.24
47.72
63.3
73.51
78.22
77.68
72.69
64.61
55.23
46.26
38.94
33.64
29.91
26.79
23.29
18.83
13.4
7.49
1.67
-3.7
-8.79
-14.24
-20.94
-29.77
-41.25
-55.19
-70.54
-85.25
-96.56
-101.62
-98.25
-85.72
-65.05
-38.72
-10.02
17.92
42.72
62.96
77.96
87.44
91.42
90.21
84.66
76.15
66.47
57.24
49.56
43.66
38.99
34.65
29.82
24.16
17.88
11.53
5.65
0.43
-4.49
-10
-17.26
-27.34
-40.7
-56.8
-73.83
-88.87
-98.58
-100.14
-92.13
-75.03
-51.04
-23.41
4.61
30.41
52.4
69.75
82.08
89.14
90.91
87.8
80.87
71.78
62.39
54.15
47.73
42.85
38.61
34.04
28.58
22.26
15.63
9.35
3.82
-1.05
-5.79
-11.26
-18.34
-27.79
-40
-54.63
-70.37
-84.75
-94.6
-96.87
-89.69
-73.18
-49.48
-22.02
5.66
30.84
52.12
69.1
81.72
89.88
93.3
91.94
86.34
77.78
68.02
58.77
51.22
45.69
41.65
38.11
34.03
28.73
22.2
14.93
7.68
1.07
-4.8
-10.31
-16.24
-23.46
-32.67
-44.23
-57.93
-72.92
-87.56
-99.5
-106.05
-104.91
-94.85
-76.27
-51.21
-22.76
5.71
31.45
52.71
68.8
79.7
85.73
87.32
85.02
79.64
72.19
63.87
55.8
48.8
43.27
39.18
36.15
33.62
30.98
27.64
23.25
17.72
11.35
4.61
-2.02
-8.29
-14.38
-20.77
-28.23
-37.41
-48.78
-62.33
-77.35
-92.24
-104.53
-111.29
-109.96
-99.18
-79.49
-53.32
-24.24
4.05
28.75
48.38
62.64
71.91
76.71
77.53
74.85
69.37
62.1
54.24
46.94
40.95
36.48
33.19
30.41
27.42
23.65
18.96
13.55
7.88
2.42
-2.59
-7.25
-12.05
-17.67
-24.88
-34.3
-46.22
-60.31
-75.41
-89.45
-99.68
-103.35
-98.52
-84.84
-63.7
-37.9
-10.72
14.96
37.25
55.27
68.74
77.64
81.89
81.62
77.3
69.98
61.14
52.37
44.84
39.05
34.77
31.26
27.66
23.38
18.25
12.51
6.59
0.88
-4.52
-9.81
-15.45
-21.98
-29.93
-39.79
-51.86
-66.01
-81.34
-95.98
-107.17
-111.89
-107.82
-94.2
-72.31
-45.05
-16.06
11.41
35.23
54.52
69.26
79.6
85.61
87.21
84.57
78.38
69.94
60.85
52.52
45.75
40.49
36.15
31.85
26.97
21.3
15.1
8.82
2.86
-2.64
-7.92
-13.41
-19.65
-27.15
-36.32
-47.46
-60.58
-75.13
-89.71
-102.07
-109.38
-109.13
-99.92
-82.11
-57.79
-30.12
-2.41
22.8
44.03
60.77
72.97
80.72
84.07
83.18
78.65
71.45
62.96
54.52
47.2
41.5
37.3
34.04
30.88
27.11
22.32
16.58
10.28
3.99
-1.89
-7.32
-12.6
-18.34
-25.16
-33.62
-44.07
-56.54
-70.49
-84.65
-96.89
-104.5
-104.99
-96.85
-80.27
-57.21
-30.81
-4.38
19.43
39.11
54.18
64.63
70.58
72.1
69.41
63.13
54.42
44.85
35.91
28.73
23.6
20.13
17.4
14.47
10.69
5.93
0.56
-4.84
-9.77
-14.07
-18.03
-22.28
-27.65
-34.95
-44.73
-57.09
-71.43
-86.29
-99.39
-107.97
-109.59
-102.79
-87.65
-65.85
-40.05
-13.18
12.36
34.96
53.73
68.19
77.93
82.67
82.39
77.65
69.64
59.94
50.13
41.4
34.28
28.67
24.01
19.61
14.88
9.48
3.48
-2.84
-9.1
-15.02
-20.6
-26.13
-32.15
-39.31
-48.21
-59.27
-72.41
-86.87
-100.89
-111.91
-116.97
-113.66
-100.95
-79.65
-52.33
-22.5
6.4
31.9
52.76
68.73
80.07
87.06
89.9
88.82
84.28
77.11
68.44
59.42
51.03
43.88
38.14
33.58
29.73
26.01
21.94
17.15
11.53
5.16
-1.72
-8.84
-16.01
-23.21
-30.66
-38.83
-48.36
-59.82
-73.43
-88.54
-103.43
-115.33
-121.11
-118.19
-105.42
-83.69
-55.61
-24.77
5.38
32.3
54.64
71.98
84.3
91.73
94.41
92.83
87.94
81.09
73.67
66.68
60.55
55.17
50.22
45.49
41.03
37.03
33.53
30.29
26.73
22.19
16.2
8.7
0.06
-9.05
-18.01
-26.49
-34.56
-42.71
-51.73
-62.44
-75.37
-90.38
-106.29
-120.86
-131.07
-133.87
-127.13
-110.39
-85.17
-54.52
-22.16
8.55
35.23
56.66
72.52
82.94
88.33
89.25
86.58
81.41
74.95
68.25
61.97
56.32
51.17
46.33
41.69
37.38
33.57
30.31
27.37
24.21
20.16
14.67
7.62
-0.67
-9.53
-18.27
-26.51
-34.36
-42.43
-51.57
-62.56
-75.7
-90.43
-105.14
-117.3
-123.96
-122.57
-111.82
-92.19
-65.91
-36.34
-6.97
19.4
41.17
57.75
69.31
76.17
78.68
77.26
72.52
65.4
57.08
48.75
41.38
35.5
31.15
27.97
25.33
22.56
19.18
14.99
10.1
4.74
-0.88
-6.69
-12.83
-19.51
-26.93
-35.32
-44.94
-56.12
-69.03
-83.32
-97.62
-109.55
-116.07
-114.45
-103.21
-82.85
-55.78
-25.55
4.22
30.74
52.49
69.03
80.49
87.18
89.34
87.35
81.83
73.81
64.6
55.47
47.35
40.61
35.07
30.2
25.38
20.19
14.48
8.43
2.3
-3.66
-9.41
-15.14
-21.22
-28.17
-36.46
-46.56
-58.73
-72.86
-88.18
-102.96
-114.67
-120.38
-117.62
-105.25
-83.93
-56.05
-25.04
5.58
33.03
55.66
72.87
84.7
91.48
93.65
91.73
86.44
78.76
69.83
60.71
52.27
44.98
38.92
33.83
29.26
24.73
19.83
14.31
8.13
1.36
-5.83
-13.33
-21.08
-29.17
-37.77
-47.19
-57.82
-70.06
-84.04
-99.19
-113.93
-125.64
-131.2
-127.89
-114.46
-91.6
-61.92
-29.13
3.07
31.84
55.58
73.74
86.38
93.79
96.36
94.7
89.68
82.53
74.5
66.68
59.73
53.82
48.78
44.27
39.99
35.72
31.35
26.71
21.63
15.88
9.36
2.06
-5.9
-14.35
-23.25
-32.72
-43.18
-55.14
-69.05
-84.74
-101.02
-115.5
-124.92
-126.09
-116.96
-97.53
-69.96
-37.91
-5.4
24.33
49.36
69
83.28
92.49
96.87
96.78
92.91
86.26
78.05
69.45
61.34
54.23
48.37
43.7
40.01
36.87
33.7
29.96
25.19
19.28
12.37
4.81
-3.07
-11.09
-19.25
-27.76
-37
-47.55
-59.91
-74.28
-90.04
-105.43
-117.64
-123.43
-120.15
-106.69
-84.07
-55.12
-23.61
6.87
33.72
55.61
72.14
83.36
89.45
90.63
87.38
80.63
71.72
62.24
53.56
46.58
41.46
37.74
34.59
31.18
26.92
21.66
15.63
9.24
2.88
-3.27
-9.32
-15.63
-22.74
-31.24
-41.65
-54.27
-68.85
-84.29
-98.57
-108.88
-112.31
-106.77
-91.75
-68.65
-40.33
-10.29
18.36
43.52
64.17
80
90.84
96.54
97.03
92.7
84.65
74.54
64.22
55.09
47.74
41.93
36.9
31.76
25.96
19.39
12.31
5.15
-1.74
-8.21
-14.38
-20.61
-27.46
-35.58
-45.6
-57.93
-72.44
-88.18
-103.12
-114.39
-118.86
-114.1
-99.33
-75.75
-46.38
-15.07
14.64
40.28
60.75
75.93
86.11
91.53
92.36
88.93
82.08
73.13
63.69
55.17
48.32
43.12
38.85
34.59
29.58
23.59
16.94
10.18
3.88
-1.8
-7.13
-12.79
-19.47
-27.78
-38.08
-50.45
-64.66
-79.91
-94.72
-106.72
-113.18
-111.58
-100.63
-80.82
-54.42
-24.84
4.46
30.77
52.64
69.58
81.68
89.09
91.89
90.3
84.86
76.66
67.15
57.89
50.05
44.1
39.71
36
31.98
26.95
20.85
14.16
7.55
1.51
-4.02
-9.53
-15.77
-23.39
-32.78
-44.07
-57.19
-71.81
-87.02
-101.13
-111.6
-115.57
-110.72
-96.23
-73.24
-44.6
-14.01
15.12
40.42
60.77
75.93
86.02
91.13
91.35
87.05
79.19
69.27
59.08
50.15
43.31
38.51
35
31.73
27.82
22.89
17.11
10.98
5.03
-0.47
-5.65
-11.03
-17.33
-25.2
-35.11
-47.25
-61.39
-76.76
-91.8
-104.22
-111.26
-110.45
-100.38
-81.37
-55.53
-26.16
3.23
29.78
51.75
68.44
79.7
85.64
86.46
82.67
75.28
65.84
56.16
47.77
41.46
37.09
33.77
30.36
25.99
20.41
14
7.48
1.49
-3.77
-8.66
-13.95
-20.56
-29.27
-40.5
-54.17
-69.49
-84.91
-98.07
-106.19
-106.73
-98.21
-80.79
-56.36
-28.07
0.7
27.16
49.59
67.24
79.91
87.53
90.04
87.64
81.09
71.85
61.77
52.58
45.32
40.08
36.09
32.23
27.59
21.81
15.15
8.26
1.83
-3.79
-8.72
-13.55
-19.17
-26.51
-36.37
-49.09
-64.36
-80.93
-96.58
-108.42
-113.43
-109.43
-95.74
-73.53
-45.57
-15.36
13.77
39.46
60.48
76.48
87.49
93.62
94.94
91.77
84.95
75.85
66.15
57.31
50.17
44.73
40.3
35.98
31.04
25.24
18.76
12.07
5.58
-0.55
-6.5
-12.71
-19.69
-27.97
-37.98
-49.97
-63.85
-78.93
-93.71
-105.84
-112.49
-111.1
-100.27
-80.38
-53.68
-23.65
6
32.31
53.64
69.54
80.32
86.48
88.44
86.61
81.55
74.17
65.65
57.18
49.67
43.58
38.81
34.91
31.28
27.34
22.77
17.52
11.81
5.97
0.22
-5.44
-11.3
-17.78
-25.28
-34.09
-44.37
-56.26
-69.67
-84.1
-98.16
-109.5
-115.17
-112.46
-99.99
-78.4
-50.34
-19.63
9.86
35.32
55.3
69.62
78.71
83.14
83.35
79.77
73.1
64.33
54.77
45.63
37.81
31.67
27.01
23.32
19.86
16.07
11.63
6.58
1.21
-4.1
-9.07
-13.77
-18.6
-24.18
-31.11
-39.88
-50.7
-63.46
-77.52
-91.53
-103.29
-109.99
-108.99
-98.68
-79.3
-53.01
-23.29
6.1
32.23
53.44
69.31
80.03
85.97
87.4
84.63
78.31
69.53
59.78
50.53
42.89
37.26
33.26
29.94
26.24
21.42
15.39
8.67
2.05
-3.83
-8.92
-13.77
-19.28
-26.35
-35.57
-47.1
-60.74
-75.85
-91.17
-104.69
-113.81
-115.82
-108.77
-92.33
-68.07
-39.13
-9.25
18.27
41.36
59.23
72.05
80.29
84.34
84.47
80.95
74.41
65.83
56.49
47.64
40.15
34.33
29.89
26.19
22.5
18.32
13.45
8.01
2.26
-3.51
-9.2
-14.93
-21.03
-27.95
-36.25
-46.42
-58.74
-72.99
-88.16
-102.28
-112.61
-116.21
-110.85
-95.8
-72.26
-43.09
-11.97
17.57
42.99
63.02
77.45
86.64
91.15
91.46
88.1
81.79
73.48
64.34
55.47
47.73
41.47
36.6
32.7
29.2
25.58
21.44
16.57
10.88
4.4
-2.75
-10.36
-18.2
-26.12
-34.1
-42.47
-51.8
-62.71
-75.51
-89.67
-103.58
-114.58
-119.61
-116.13
-103.03
-81.17
-53.21
-22.75
6.67
32.49
53.4
69.08
79.81
85.9
87.66
85.45
79.94
72.16
63.38
54.86
47.48
41.62
37.1
33.36
29.72
25.52
20.39
14.29
7.53
0.59
-6.03
-12.08
-17.73
-23.42
-29.86
-37.74
-47.59
-59.55
-73.21
-87.38
-100.05
-108.61
-110.44
-103.73
-88.1
-65.04
-37.42
-8.72
17.91
40.35
57.61
69.56
76.43
78.54
76.28
70.29
61.64
51.77
42.22
34.2
28.32
24.38
21.61
19.03
15.78
11.44
6.1
0.19
-5.76
-11.42
-16.82
-22.37
-28.77
-36.75
-46.95
-59.62
-74.34
-89.85
-103.92
-113.66
-116.23
-109.64
-93.58
-69.61
-40.74
-10.59
17.61
41.64
60.44
73.75
81.69
84.5
82.55
76.56
67.72
57.68
48.11
40.25
34.53
30.5
27.08
23.15
18.01
11.72
4.93
-1.51
-7.04
-11.73
-16.25
-21.59
-28.71
-38.28
-50.55
-65.23
-81.36
-97.14
-109.98
-116.95
-115.57
-104.67
-84.91
-58.72
-29.42
-0.34
26.04
48.32
65.91
78.59
86.19
88.61
86.09
79.52
70.36
60.39
51.2
43.72
38.08
33.65
29.51
24.84
19.3
13.04
6.58
0.51
-4.87
-9.71
-14.6
-20.39
-28
-38.14
-51.04
-66.16
-82.03
-96.22
-105.73
-107.79
-100.64
-84.26
-60.44
-32.3
-3.31
23.63
46.64
64.92
78.23
86.54
89.81
88.22
82.43
73.74
63.88
54.49
46.68
40.72
36.14
32.06
27.68
22.54
16.69
10.54
4.61
-0.74
-5.51
-10.15
-15.42
-22.27
-31.48
-43.49
-58.01
-73.87
-88.9
-100.26
-105.05
-101.1
-87.83
-66.4
-39.53
-10.61
17.2
41.7
61.7
76.71
86.49
90.81
89.69
83.67
74.12
63.07
52.62
44.38
38.82
35.34
32.55
29
23.82
17.01
9.35
1.89
-4.59
-9.97
-14.79
-20.01
-26.58
-35.24
-46.34
-59.71
-74.56
-89.24
-101.24
-107.61
-105.82
-94.6
-74.66
-48.47
-19.52
8.82
34.13
55.13
71.34
82.53
88.42
88.85
84.14
75.51
64.83
54.27
45.47
39.14
34.91
31.64
28.14
23.66
18.18
12.24
6.61
1.73
-2.49
-6.72
-11.92
-19.03
-28.72
-41.22
-56.17
-72.45
-88.07
-100.33
-106.29
-103.65
-91.52
-70.89
-44.41
-15.54
12.45
37.26
57.7
73.35
84.05
89.67
90.17
85.93
78.04
68.15
58.11
49.39
42.71
37.86
33.98
30.01
25.21
19.34
12.73
6.03
-0.19
-5.71
-10.82
-16.24
-22.93
-31.78
-43.37
-57.67
-73.75
-89.69
-102.67
-109.55
-107.75
-96.14
-75.57
-48.72
-19.28
9.17
34.09
54.24
69.46
80.01
86.11
87.82
85.29
79.08
70.41
60.88
52.05
44.97
39.86
36.17
32.97
29.4
24.95
19.7
14.02
8.36
3.01
-2.07
-7.19
-12.85
-19.56
-27.86
-38.22
-50.87
-65.6
-81.3
-95.92
-106.6
-110.36
-105.09
-90.33
-67.56
-39.8
-10.67
16.67
40.15
58.89
72.82
82.11
86.89
87.29
83.68
76.96
68.49
59.82
52.23
46.38
42.15
38.89
35.79
32.22
27.92
22.96
17.6
12.04
6.39
0.57
-5.5
-11.99
-19.04
-26.91
-36.04
-46.89
-59.65
-73.8
-87.77
-98.96
-104.34
-101.41
-89.16
-68.6
-42.47
-14.4
12.23
35.08
53.1
66.15
74.49
78.32
77.78
73.24
65.58
56.24
46.93
39.15
33.71
30.45
28.51
26.64
23.87
19.72
14.4
8.57
2.91
-2.16
-6.77
-11.39
-16.75
-23.52
-32.2
-43.01
-55.8
-69.84
-83.64
-94.98
-101.2
-99.93
-89.94
-71.68
-47.29
-19.98
6.92
30.86
50.41
65.18
75.28
80.89
82.09
79.07
72.43
63.34
53.45
44.39
37.31
32.49
29.31
26.61
23.2
18.4
12.2
5.25
-1.56
-7.59
-12.7
-17.35
-22.38
-28.72
-37.13
-48.01
-61.21
-75.85
-90.17
-101.66
-107.46
-105.14
-93.61
-73.62
-47.69
-19.28
8.19
32.26
51.77
66.5
76.7
82.53
84.01
81.28
74.91
66.12
56.5
47.63
40.52
35.33
31.45
27.9
23.81
18.81
13.08
7.17
1.65
-3.22
-7.6
-11.99
-17.03
-23.3
-31.26
-41.19
-53.2
-66.85
-80.98
-93.44
-101.44
-102.31
-94.37
-77.74
-54.33
-27.31
-0.06
24.74
45.54
61.84
73.58
80.86
83.72
82.39
77.47
70.08
61.58
53.28
46.1
40.39
36.05
32.6
29.51
26.27
22.51
18.06
12.88
7.1
0.85
-5.74
-12.64
-19.9
-27.73
-36.5
-46.63
-58.48
-71.89
-85.89
-98.43
-106.73
-108
-100.49
-84.21
-61.06
-34.21
-7.08
17.62
38.29
54.4
65.88
72.8
75.26
73.51
68.22
60.52
51.82
43.48
36.47
31.18
27.44
24.66
22.1
19.03
15.05
10.1
4.46
-1.38
-7.03
-12.34
-17.55
-23.12
-29.65
-37.72
-47.73
-59.77
-73.35
-87.1
-98.77
-105.55
-104.9
-95.41
-77.51
-53.4
-26.38
0.2
23.82
43.14
57.74
67.58
72.63
72.85
68.53
60.64
50.85
41.15
33.21
27.89
24.9
23.16
21.27
18.2
13.63
7.96
2.03
-3.44
-8.14
-12.35
-16.73
-22.08
-29.03
-37.96
-48.98
-61.83
-75.7
-89.01
-99.4
-104.18
-101.14
-89.35
-69.67
-44.6
-17.48
8.52
31.17
49.39
62.89
71.69
75.83
75.38
70.73
62.9
53.4
43.95
35.88
29.81
25.49
22.06
18.5
14.06
8.58
2.43
-3.76
-9.41
-14.37
-18.96
-23.95
-30.23
-38.59
-49.5
-62.93
-78.1
-93.39
-106.37
-114.21
-114.39
-105.55
-88.06
-63.97
-36.44
-8.75
16.45
37.55
53.91
65.35
72.03
74.17
72.31
67.36
60.54
53.2
46.42
40.83
36.4
32.59
28.65
23.95
18.26
11.86
5.36
-0.62
-5.76
-10.3
-14.95
-20.74
-28.67
-39.41
-53.08
-68.91
-85.13
-99.05
-107.6
-108.08
-99.14
-81.3
-56.82
-29.06
-1.36
23.74
44.82
61.32
72.98
79.56
80.85
77.06
69.23
59.17
49.01
40.53
34.49
30.5
27.38
23.83
19.09
13.23
6.96
1.16
-3.69
-7.74
-11.78
-16.81
-23.8
-33.3
-45.44
-59.86
-75.52
-90.73
-103.05
-109.8
-108.65
-98.53
-80.05
-55.46
-27.97
-0.75
23.77
44.2
59.97
70.86
76.73
77.58
73.82
66.49
57.27
47.99
40.1
34.17
29.87
26.22
22.19
17.19
11.27
5.01
-0.88
-5.95
-10.34
-14.74
-20.2
-27.85
-38.5
-52.35
-68.68
-85.71
-100.76
-110.67
-112.66
-105.17
-88.4
-64.29
-35.95
-6.69
20.68
44.23
62.84
75.83
82.83
83.86
79.6
71.54
61.83
52.64
45.49
40.79
37.82
35.26
31.86
27.11
21.29
15.24
9.78
5.22
1.24
-3.08
-8.8
-16.93
-28.07
-42.23
-58.59
-75.25
-89.45
-97.94
-97.99
-88.25
-69.31
-43.63
-14.7
13.98
39.82
61.36
77.98
89.45
95.6
96.41
92.36
84.69
75.27
66.08
58.51
52.94
48.67
44.51
39.38
32.95
25.68
18.49
12.23
7.07
2.43
-2.82
-9.94
-19.92
-33.16
-49.26
-66.86
-83.64
-96.55
-102.48
-99.21
-86.17
-64.82
-38.24
-10.08
16.49
39.47
58.04
72.04
81.41
85.94
85.53
80.62
72.47
62.99
54.11
47.14
42.31
38.8
35.28
30.63
24.38
16.93
9.2
2.11
-3.87
-8.97
-13.96
-19.97
-28.01
-38.72
-52.11
-67.29
-82.48
-95.06
-102.09
-101.04
-90.54
-70.93
-44.2
-13.53
17.62
46.26
70.29
88.55
100.57
106.39
106.45
101.66
93.44
83.58
73.82
65.51
59.2
54.57
50.74
46.64
41.59
35.42
28.59
21.73
15.38
9.58
3.81
-2.84
-11.39
-22.59
-36.5
-52.25
-67.94
-80.91
-88.27
-87.73
-78.35
-60.86
-37.49
-11.31
14.74
38.33
57.99
72.86
82.43
86.44
85.01
78.97
69.87
59.68
50.27
42.77
37.35
33.28
29.45
24.91
19.26
12.79
6.19
0.18
-4.92
-9.29
-13.66
-18.98
-26.25
-36.14
-48.71
-63.12
-77.49
-89.1
-94.94
-92.68
-81.38
-62
-37.07
-9.91
16.28
39.19
57.48
70.56
78.28
80.7
78.25
71.83
62.92
53.24
44.36
37.17
31.74
27.44
23.31
18.64
13.17
7.23
1.41
-3.76
-8.2
-12.36
-17.11
-23.5
-32.32
-43.79
-57.16
-70.71
-81.96
-88.15
-87.08
-77.76
-60.81
-38.28
-13.06
11.96
34.44
52.86
66.43
74.81
77.99
76.3
70.59
62.14
52.56
43.27
35.22
28.64
23.14
18.06
12.8
7.18
1.4
-4.16
-9.19
-13.7
-18.17
-23.43
-30.43
-39.93
-52.09
-66.14
-80.26
-91.82
-97.95
-96.41
-86.24
-68.2
-44.53
-18.3
7.37
29.95
47.77
59.96
66.33
67.13
63.16
55.63
46.07
36.05
26.78
18.87
12.33
6.74
1.61
-3.37
-8.17
-12.58
-16.42
-19.67
-22.68
-26.1
-30.8
-37.66
-47.25
-59.38
-72.84
-85.32
-93.85
-95.6
-88.87
-73.72
-52.02
-26.8
-1.33
21.66
40.47
54.29
62.87
66.31
64.95
59.57
51.39
41.94
32.65
24.51
17.83
12.28
7.27
2.23
-3.03
-8.41
-13.57
-18.32
-22.76
-27.37
-32.95
-40.36
-50.19
-62.32
-75.74
-88.38
-97.55
-100.53
-95.45
-81.92
-61.15
-35.66
-8.4
17.91
41.27
60.39
74.39
82.74
85.24
82.34
75.25
65.88
56.23
47.81
41.23
36.05
31.31
26.04
19.79
12.78
5.67
-0.86
-6.51
-11.53
-16.78
-23.4
-32.51
-44.69
-59.58
-75.63
-90.14
-99.95
-102.18
-95.29
-79.53
-56.88
-30.38
-3.15
22.33
44.51
62.58
76.11
84.73
88.26
86.93
81.55
73.59
64.66
56.13
48.68
42.29
36.36
30.22
23.51
16.3
9.09
2.43
-3.38
-8.54
-13.68
-19.79
-27.89
-38.76
-52.63
-68.77
-85.41
-99.73
-108.5
-108.92
-99.62
-81.14
-55.86
-27.11
1.83
28.61
51.96
71.37
86.49
96.83
101.86
101.49
96.39
88.12
78.65
69.76
62.48
56.83
52.03
47.03
41.02
33.78
25.71
17.54
9.94
3.17
-3
-9.23
-16.32
-24.99
-35.73
-48.74
-63.78
-79.95
-95.44
-107.62
-113.48
-110.52
-97.67
-75.82
-47.66
-16.81
13.19
39.84
61.84
78.84
90.87
97.99
100.22
97.82
91.57
82.77
73
63.67
55.59
48.93
43.26
37.95
32.43
26.47
20.11
13.64
7.35
1.38
-4.35
-10.14
-16.41
-23.6
-32.06
-42.07
-53.85
-67.36
-82.11
-96.74
-108.96
-115.85
-114.71
-103.96
-83.93
-56.89
-26.34
4.07
31.52
54.44
72.42
85.56
94.01
97.71
96.59
90.92
81.54
69.88
57.6
46.16
36.36
28.22
21.18
14.47
7.57
0.43
-6.58
-12.98
-18.52
-23.34
-27.99
-33.11
-39.29
-47.01
-56.58
-68.09
-81.23
-94.98
-107.37
-115.8
-117.59
-110.93
-95.54
-72.84
-45.5
-16.59
11.17
35.88
56.36
71.93
82.11
86.69
85.86
80.48
71.98
62.13
52.51
44.18
37.45
31.99
27.1
22.1
16.53
10.35
3.8
-2.63
-8.59
-13.9
-18.77
-23.79
-29.75
-37.53
-47.76
-60.5
-74.92
-89.2
-100.68
-106.45
-104.22
-93.05
-73.78
-48.7
-20.91
6.63
31.69
52.94
69.72
81.62
88.4
89.99
86.83
79.94
70.81
61.1
52.1
44.51
38.34
33.07
28.04
22.72
16.9
10.67
4.31
-1.94
-7.92
-13.7
-19.43
-25.45
-32.26
-40.45
-50.66
-63.19
-77.64
-92.48
-105.12
-112.48
-111.84
-101.89
-83.19
-58.1
-29.95
-2.05
23.2
44.48
61.36
73.74
81.48
84.41
82.61
76.71
67.91
57.87
48.16
39.87
33.36
28.28
23.88
19.39
14.35
8.75
2.93
-2.63
-7.67
-12.29
-16.97
-22.34
-29.07
-37.62
-48.26
-61.01
-75.41
-90.29
-103.56
-112.49
-114.31
-107.18
-90.94
-67.24
-39.13
-10.03
17.2
40.73
59.7
73.84
83.04
87.2
86.47
81.42
73.23
63.41
53.59
44.98
38.14
32.98
28.84
24.87
20.37
15.08
9.18
3.17
-2.49
-7.76
-13.08
-19.32
-27.33
-37.68
-50.51
-65.43
-81.58
-97.59
-111.5
-120.92
-123.52
-117.59
-102.82
-80.45
-53.06
-23.75
4.61
29.98
51.15
67.48
78.6
84.34
84.8
80.62
73.02
63.64
54.1
45.67
38.91
33.7
29.39
25.16
20.4
14.87
8.77
2.53
-3.41
-8.94
-14.28
-20
-26.84
-35.5
-46.45
-59.66
-74.41
-89.09
-101.29
-108.27
-107.63
-98.19
-80.38
-56.22
-28.71
-0.95
24.52
46.03
62.61
73.68
78.92
78.33
72.55
62.98
51.61
40.52
31.23
24.29
19.19
14.8
10.02
4.26
-2.33
-9.05
-15.16
-20.19
-24.32
-28.16
-32.61
-38.54
-46.61
-57.11
-69.77
-83.55
-96.42
-105.68
-108.46
-102.68
-87.78
-64.99
-37.04
-7.26
21.33
46.52
67.03
82.24
91.8
95.62
93.99
87.8
78.61
68.29
58.53
50.31
43.71
38.04
32.32
25.85
18.52
10.83
3.51
-2.85
-8.19
-13.09
-18.56
-25.81
-35.85
-49.09
-64.99
-81.88
-97.09
-107.39
-109.87
-102.85
-86.39
-62.36
-33.78
-3.99
24.1
48.44
67.8
81.46
89.14
90.91
87.41
79.89
70.05
59.69
50.19
42.22
35.6
29.65
23.6
17.03
10.07
3.22
-2.9
-8.03
-12.39
-16.68
-21.94
-29.18
-39.18
-52.16
-67.49
-83.53
-97.68
-106.88
-108.38
-100.61
-83.72
-59.56
-31.07
-1.44
26.62
51.22
71.15
85.61
94.1
96.49
93.19
85.42
75.04
64.13
54.42
46.81
41.16
36.5
31.64
25.68
18.47
10.58
2.97
-3.57
-8.81
-13.24
-17.96
-24.26
-33.29
-45.57
-60.79
-77.48
-93.1
-104.44
-108.36
-102.72
-87.14
-63.21
-34.02
-3.22
25.94
51.22
71.46
86.22
95.36
98.87
96.97
90.48
80.87
70.09
60.04
52
46.25
42.1
38.34
33.83
28
20.98
13.44
6.14
-0.46
-6.41
-12.23
-18.74
-26.79
-37.12
-50.1
-65.45
-82.02
-97.6
-109.15
-113.54
-108.43
-93.19
-69.26
-39.71
-8.31
21.54
47.51
68.37
83.7
93.33
97.19
95.42
88.72
78.47
66.68
55.37
46.06
39.29
34.57
30.76
26.67
21.6
15.56
9.21
3.34
-1.56
-5.67
-9.73
-14.76
-21.74
-31.23
-43.31
-57.5
-72.64
-86.87
-97.7
-102.46
-99
-86.44
-65.61
-38.88
-9.51
19.3
45.05
66.18
81.82
91.52
95.07
92.65
85.09
73.96
61.37
49.41
39.55
32.26
27.03
22.72
18.24
13.02
7.17
1.27
-4.08
-8.68
-12.9
-17.56
-23.65
-32.03
-43.16
-56.89
-72.2
-87.14
-98.98
-104.73
-102
-89.78
-68.88
-41.64
-11.25
19.12
46.9
70.22
87.82
98.86
103.01
100.61
92.93
81.93
69.83
58.5
49.04
41.57
35.5
29.96
24.16
17.79
11.01
4.31
-1.78
-7.04
-11.71
-16.54
-22.5
-30.63
-41.65
-55.68
-71.93
-88.51
-102.52
-110.62
-109.89
-98.8
-77.89
-49.65
-17.85
13.64
41.8
64.87
82.19
93.7
99.49
99.75
94.98
86.27
75.29
63.98
53.98
46.15
40.36
35.69
30.98
25.36
18.68
11.47
4.61
-1.2
-5.81
-9.78
-14.2
-20.27
-28.98
-40.82
-55.54
-71.96
-87.94
-100.57
-106.71
-103.9
-91.18
-69.53
-41.64
-11.09
18.66
45.08
66.78
83.14
93.93
98.99
98.33
92.48
82.66
70.71
58.64
48.05
39.78
33.69
29.03
24.76
20.03
14.51
8.31
1.92
-4.16
-9.7
-14.89
-20.34
-26.88
-35.35
-46.3
-59.79
-75.05
-90.44
-103.48
-111.24
-111.14
-101.71
-83.18
-57.52
-27.9
2.28
30.12
53.69
72
84.61
91.37
92.35
88.09
79.69
68.88
57.67
47.77
40.13
34.71
30.7
26.89
22.35
16.73
10.33
3.86
-2.08
-7.18
-11.76
-16.45
-22.1
-29.44
-39.03
-51.09
-65.31
-80.6
-94.91
-105.46
-109.27
-104.18
-89.61
-66.89
-38.95
-9.35
18.66
42.88
62.1
75.9
84.1
86.66
83.86
76.51
66.19
54.86
44.47
36.26
30.48
26.5
23.13
19.27
14.26
8.13
1.41
-5.13
-10.87
-15.64
-19.87
-24.46
-30.47
-38.92
-50.24
-64.13
-79.28
-93.48
-103.97
-108.09
-103.96
-91.14
-70.76
-45.24
-17.65
9.11
32.76
51.83
65.48
73.33
75.37
72.08
64.54
54.45
43.71
34.04
26.43
20.97
16.95
13.31
9.1
3.91
-2
-7.99
-13.26
-17.47
-20.8
-24.07
-28.4
-34.94
-44.48
-57.11
-72
-87.19
-99.89
-106.94
-105.74
-95.06
-75.57
-49.71
-20.87
7.47
32.66
53.16
68.31
77.93
82
80.72
74.68
65.15
53.94
43
33.82
27.03
22.26
18.42
14.32
9.18
3
-3.58
-9.61
-14.44
-18.11
-21.39
-25.59
-32.08
-41.89
-55.19
-71.16
-87.82
-102.31
-111.41
-112.34
-103.64
-85.65
-60.51
-31.45
-1.88
25.45
48.79
67.22
80.32
87.85
89.77
86.45
78.88
68.65
57.54
47.1
38.25
31.1
25.14
19.56
13.74
7.45
0.91
-5.36
-10.9
-15.63
-19.96
-24.66
-30.72
-38.99
-49.99
-63.61
-78.89
-93.9
-105.84
-111.64
-108.8
-96.26
-74.92
-47.39
-17.24
12.11
38.14
59.45
75.42
85.81
90.45
89.4
83.24
73.36
61.76
50.62
41.6
35.33
31.32
28.28
24.8
19.92
13.56
6.34
-0.76
-6.99
-12.28
-17.23
-22.89
-30.38
-40.49
-53.45
-68.76
-85.08
-100.24
-111.48
-115.94
-111.54
-97.62
-75.35
-47.39
-17.18
12.06
37.97
59.2
75.16
85.59
90.36
89.63
84.08
75.09
64.6
54.58
46.44
40.7
36.86
33.82
30.44
26
20.44
14.21
7.98
2.23
-2.97
-8.06
-13.8
-21.11
-30.83
-43.4
-58.62
-75.29
-91.22
-103.39
-108.74
-104.97
-91.43
-69.36
-41.58
-11.58
17.36
42.82
63.36
78.29
87.31
90.42
88.01
81.08
71.24
60.43
50.43
42.35
36.38
31.86
27.71
22.97
17.23
10.75
4.24
-1.55
-6.25
-10.11
-13.97
-18.92
-25.99
-35.88
-48.67
-63.66
-79.21
-92.81
-101.42
-102.28
-93.71
-75.85
-50.71
-21.55
8
35
57.51
74.6
85.87
91.16
90.58
84.76
75.1
63.64
52.57
43.56
37.24
33.11
29.9
26.29
21.4
15.17
8.16
1.21
-5.1
-10.73
-16.21
-22.51
-30.68
-41.55
-55.34
-71.37
-87.87
-102.06
-110.73
-110.99
-101.29
-81.98
-55.3
-24.73
6.08
34.19
57.8
76.03
88.56
95.19
95.9
91.18
82.2
70.94
59.61
50.04
43.04
38.28
34.55
30.49
25.23
18.66
11.4
4.31
-1.98
-7.44
-12.59
-18.34
-25.7
-35.51
-48.2
-63.45
-79.94
-95.22
-106.08
-109.27
-102.64
-85.94
-61.04
-31.36
-0.76
27.51
51.46
70.24
83.66
91.74
94.46
92.09
85.45
76.06
65.93
56.91
50.13
45.65
42.63
39.71
35.77
30.29
23.6
16.55
10.08
4.76
0.46
-3.59
-8.53
-15.52
-25.4
-38.46
-54.19
-71.13
-86.82
-98.16
-102.06
-96.38
-80.73
-56.75
-27.7
2.58
30.68
54.41
72.86
85.91
93.73
96.46
94.28
87.78
78.17
67.22
56.77
48.25
42.14
38.01
34.8
31.37
27
21.63
15.72
9.91
4.61
-0.26
-5.27
-11.22
-18.88
-28.73
-40.93
-55.27
-71.01
-86.75
-100.29
-108.86
-109.79
-101.31
-83.45
-58.09
-28.54
1.5
28.94
51.89
69.66
82.26
89.86
92.6
90.69
84.68
75.7
65.35
55.29
46.86
40.62
36.3
33
29.63
25.4
20.11
14.14
8.15
2.7
-2.1
-6.64
-11.7
-18.09
-26.48
-37.25
-50.3
-64.95
-79.72
-92.29
-99.88
-99.92
-90.99
-73.49
-49.64
-22.77
3.66
27
45.78
59.47
68
71.35
69.61
63.19
53.26
41.64
30.47
21.47
15.39
11.85
9.6
7.21
3.68
-1.16
-6.78
-12.28
-17.01
-20.85
-24.29
-28.22
-33.61
-41.27
-51.61
-64.42
-78.7
-92.52
-103.23
-107.92
-104.36
-91.75
-71.09
-44.96
-16.69
10.57
34.56
54.05
68.62
78.19
82.79
82.6
78.22
70.74
61.74
52.84
45.27
39.51
35.22
31.51
27.42
22.32
16.21
9.59
3.22
-2.35
-7.09
-11.58
-16.82
-23.89
-33.65
-46.33
-61.31
-76.89
-90.47
-99
-99.81
-91.52
-74.6
-51.33
-25.05
0.87
23.95
42.92
57.45
67.52
73
73.7
69.75
61.99
52.1
42.14
33.9
28.18
24.59
21.92
18.77
14.25
8.33
1.74
-4.53
-9.76
-13.94
-17.72
-22.16
-28.32
-36.99
-48.41
-62.17
-77.1
-91.2
-101.88
-106.4
-102.7
-90.15
-69.82
-44.35
-17.07
8.91
31.51
49.72
63.36
72.49
77.05
77
72.6
64.79
55.19
45.75
38.01
32.62
29.12
26.3
22.88
18.13
12.15
5.73
-0.17
-4.98
-8.87
-12.64
-17.48
-24.54
-34.61
-47.79
-63.41
-79.81
-94.48
-104.42
-106.83
-100.04
-84.08
-60.85
-33.49
-5.46
20.42
42.44
59.91
72.67
80.64
83.69
81.9
75.91
67.06
57.25
48.35
41.54
37.04
34.12
31.57
28.3
23.76
18.11
11.91
5.85
0.29
-4.83
-9.98
-15.76
-22.74
-31.4
-42.03
-54.75
-69.13
-83.94
-96.99
-105.4
-106.37
-98.12
-80.7
-56.05
-27.44
1.53
27.9
49.86
66.66
78.13
84.39
85.58
82.14
74.98
65.56
55.65
46.82
40.02
35.24
31.76
28.47
24.45
19.35
13.41
7.26
1.49
-3.68
-8.53
-13.67
-19.83
-27.61
-37.37
-49.19
-62.67
-76.84
-89.89
-99.42
-102.84
-98.22
-85.01
-64.36
-38.86
-11.71
14.08
36.39
54.02
66.44
73.47
75.08
71.64
64.08
54.07
43.6
34.52
27.86
23.62
20.84
18.14
14.43
9.23
2.9
-3.75
-9.83
-14.86
-18.94
-22.8
-27.49
-34.09
-43.44
-55.7
-70.15
-84.99
-97.52
-104.7
-103.94
-94.03
-75.54
-50.79
-23.05
4.41
29.17
49.88
66.06
77.6
84.37
86.29
83.5
76.82
67.71
58.04
49.47
42.88
38.22
34.63
30.96
26.33
20.55
14.04
7.52
1.54
-3.86
