1626692063.00
64.000000
-0.00
-0.00
-0.00
-0.00
-0.00
-0.00
-0.00
-0.00
-0.00
-0.00
0.00
0.01
0.01
-0.00
-0.03
-0.05
-0.05
0.00
0.13
0.36
0.66
1.01
1.37
1.72
2.06
2.40
2.79
3.24
3.80
4.42
5.06
5.66
6.20
6.68
7.15
7.68
8.31
9.14
10.09
11.04
11.88
12.56
13.14
13.76
14.65
15.96
17.91
20.32
22.90
25.38
27.58
29.57
31.68
34.32
37.81
42.54
48.15
54.10
59.83
64.97
69.58
74.14
79.34
85.71
93.76
103.00
112.62
121.73
129.77
136.75
143.30
150.75
157.77
166.64
177.95
191.79
206.97
220.57
228.25
225.36
208.53
176.87
132.76
80.05
23.07
-34.94
-92.44
-149.16
-205.23
-260.37
-313.74
-363.87
-409.83
-450.91
-486.50
-515.74
-537.23
-549.22
-549.96
-538.37
-514.21
-478.67
-433.88
-382.45
-327.02
-269.84
-212.63
-156.66
-102.95
-52.37
-5.90
35.58
71.43
101.35
125.50
144.38
158.69
169.15
176.37
180.75
182.57
182.07
179.51
175.23
169.65
163.18
156.15
148.81
141.30
133.69
126.02
118.33
110.69
103.16
95.80
88.68
81.83
75.25
68.95
62.95
57.25
51.86
46.78
42.03
37.59
33.45
29.61
26.07
22.81
19.83
17.11
14.67
12.48
10.54
8.83
7.35
6.07
4.97
4.05
3.27
2.62
2.09
1.65
1.30
1.01
0.79
0.61
0.47
0.37
0.29
0.23
0.19
0.16
0.15
0.14
0.15
0.16
0.18
0.22
0.27
0.33
0.37
0.39
0.37
0.32
0.25
0.19
0.17
0.20
0.27
0.35
0.41
0.44
0.42
0.38
0.37
0.41
0.52
0.69
0.87
1.01
1.05
1.02
0.95
0.94
1.08
1.40
1.85
2.30
2.61
2.66
2.47
2.17
2.00
2.15
2.72
3.60
4.50
5.09
5.14
4.65
3.90
3.33
3.36
4.16
5.56
7.05
8.05
8.15
7.27
5.79
4.29
3.20
2.69
2.45
1.85
0.21
-3.00
-8.14
-15.38
-24.41
-34.27
-43.10
-48.46
-48.15
-41.26
-28.88
-13.92
-0.02
9.91
14.73
15.26
13.40
11.00
9.07
7.67
6.46
5.23
4.26
3.99
4.72
6.23
7.88
8.98
8.96
7.80
5.88
3.81
2.22
1.43
1.44
1.93
2.45
2.61
2.22
1.35
0.23
-0.79
-1.46
-1.70
-1.59
-1.34
-1.17
-1.25
-1.59
-2.18
-2.95
-3.89
-4.98
-6.17
-7.15
-7.54
-6.92
-5.07
-2.06
1.70
5.61
9.03
11.54
13.04
13.68
13.78
13.64
13.20
12.45
11.41
10.08
8.57
7.03
5.65
4.60
3.95
3.67
3.66
3.81
3.99
4.13
4.26
4.40
4.60
4.80
4.84
4.57
3.86
2.70
1.27
-0.19
-1.46
-2.47
-3.25
-3.94
-4.65
-5.41
-6.23
-7.06
-7.92
-8.84
-9.84
-10.93
-12.10
-13.28
-14.52
-15.91
-17.57
-19.52
-21.58
-23.39
-24.42
-24.21
-22.46
-19.20
-14.74
-9.56
-4.17
0.99
5.63
9.58
12.74
15.10
16.68
17.52
17.71
17.31
16.43
15.19
13.80
12.48
11.47
10.91
10.86
11.20
11.73
12.20
12.44
12.37
12.02
11.52
10.95
10.37
9.74
8.98
8.03
6.87
5.56
4.20
2.92
1.88
1.16
0.81
0.79
0.95
1.03
0.77
-0.01
-1.35
-3.12
-5.00
-6.67
-7.89
-8.64
-9.21
-10.08
-11.77
-14.52
-18.14
-21.93
-24.89
-26.05
-24.82
-21.28
-16.14
-10.49
-5.49
-1.95
-0.15
0.21
-0.24
-0.77
-0.87
-0.36
0.61
1.71
2.66
3.41
4.11
5.07
6.46
8.25
10.13
11.70
12.68
13.01
12.93
12.75
12.74
13.01
13.39
13.67
13.64
13.19
12.39
11.38
10.34
9.42
8.67
8.08
7.56
6.99
6.24
5.23
3.97
2.54
1.06
-0.35
-1.59
-2.58
-3.27
-3.66
-3.88
-4.21
-5.06
-6.77
-9.42
-12.68
-15.80
-17.92
-18.35
-16.88
-13.85
-9.92
-5.83
-2.07
1.18
3.97
6.44
8.63
10.48
11.86
12.68
12.93
12.69
12.10
11.33
10.54
9.87
9.43
9.30
9.47
9.85
10.27
10.58
10.66
10.50
10.17
9.76
9.34
8.89
8.36
7.64
6.70
5.55
4.23
2.81
1.30
-0.28
-1.86
-3.33
-4.54
-5.42
-6.00
-6.44
-6.97
-7.81
-9.00
-10.48
-12.02
-13.41
-14.49
-15.24
-15.83
-16.55
-17.74
-19.60
-22.09
-24.76
-26.90
-27.72
-26.63
-23.51
-18.72
-13.01
-7.22
-2.07
2.04
5.00
6.88
7.89
8.22
8.07
7.62
7.06
6.53
6.16
5.99
6.05
6.28
6.61
6.99
7.41
7.85
8.32
8.79
9.18
9.41
9.38
9.07
8.58
8.06
7.66
7.48
7.41
7.23
6.64
5.42
3.56
1.26
-1.10
-3.09
-4.43
-5.08
-5.21
-5.14
-5.23
-5.67
-6.52
-7.70
-9.08
-10.59
-12.20
-13.88
-15.66
-17.54
-19.52
-21.64
-23.89
-26.10
-27.94
-28.88
-28.44
-26.32
-22.59
-17.69
-12.31
-7.16
-2.76
0.65
3.10
4.81
6.07
7.12
8.06
8.83
9.25
9.14
8.45
7.32
6.07
5.07
4.60
4.75
5.36
6.15
6.85
7.27
7.39
7.26
7.00
6.69
6.36
5.98
5.49
4.82
3.94
2.82
1.55
0.26
-0.85
-1.69
-2.22
-2.54
-2.85
-3.29
-3.96
-4.87
-5.97
-7.20
-8.47
-9.63
-10.52
-11.06
-11.36
-11.73
-12.69
-14.60
-17.53
-21.07
-24.37
-26.55
-26.95
-25.39
-22.18
-17.95
-13.37
-8.95
-4.96
-1.48
1.54
4.15
6.34
8.04
9.12
9.58
9.49
9.08
8.61
8.31
8.28
8.52
8.99
9.62
10.38
11.23
12.09
12.88
13.50
13.92
14.15
14.16
13.93
13.37
12.47
11.30
9.98
8.71
7.59
6.67
5.89
5.20
4.54
3.79
2.87
1.67
0.14
-1.65
-3.58
-5.46
-7.16
-8.71
-10.32
-12.32
-15.05
-18.63
-22.82
-27.00
-30.34
-32.02
-31.60
-29.12
-25.07
-20.15
-15.02
-10.14
-5.75
-1.99
1.05
3.29
4.73
5.55
5.99
6.34
6.74
7.19
7.57
7.77
7.84
7.96
8.31
9.03
10.00
10.97
11.69
12.10
12.38
12.81
13.54
14.38
14.87
14.52
13.12
10.95
8.62
6.79
5.78
5.43
5.17
4.46
3.01
1.04
-0.99
-2.64
-3.86
-5.01
-6.61
-9.01
-12.08
-15.30
-18.03
-20.04
-21.72
-23.84
-27.08
-31.45
-36.09
-39.56
-40.49
-38.24
-33.19
-26.52
-19.63
-13.47
-8.37
-4.07
-0.11
3.74
7.35
10.36
12.40
13.39
13.54
13.33
13.20
13.42
14.01
14.76
15.42
15.87
16.12
16.26
16.39
16.49
16.46
16.20
15.73
15.17
14.66
14.32
14.09
13.74
13.04
11.84
10.20
8.36
6.63
5.23
4.17
3.31
2.41
1.23
-0.33
-2.23
-4.29
-6.26
-7.91
-9.17
-10.22
-11.48
-13.51
-16.75
-21.29
-26.64
-31.86
-35.84
-37.68
-37.01
-34.05
-29.40
-23.78
-17.81
-11.88
-6.25
-1.09
3.42
7.11
9.90
11.76
12.78
13.10
12.85
12.27
11.58
11.07
10.95
11.34
12.20
13.36
14.62
15.80
16.81
17.62
18.21
18.59
18.70
18.45
17.77
16.65
15.21
13.64
12.17
10.91
9.84
8.75
7.38
5.54
3.26
0.74
-1.64
-3.58
-4.96
-5.96
-6.99
-8.55
-11.04
-14.56
-18.87
-23.44
-27.49
-30.27
-31.17
-29.86
-26.34
-20.97
-14.32
-7.09
0.06
6.59
12.16
16.57
19.83
22.00
23.21
23.65
23.49
22.99
22.37
21.89
21.67
21.76
22.06
22.42
22.74
22.98
23.18
23.42
23.68
23.87
23.79
23.22
22.00
20.14
17.81
15.29
12.90
10.82
9.04
7.36
5.46
3.07
0.09
-3.35
-6.96
-10.39
-13.41
-15.94
-18.14
-20.36
-23.03
-26.48
-30.76
-35.52
-40.00
-43.23
-44.37
-42.95
-39.08
-33.30
-26.38
-19.05
-11.86
-5.17
0.81
5.94
10.16
13.44
15.78
17.23
17.86
17.81
17.31
16.64
16.13
16.03
16.46
17.38
18.62
19.96
21.20
22.21
22.89
23.15
22.94
22.20
20.91
19.10
16.91
14.51
12.21
10.24
8.73
7.60
6.60
5.35
3.51
0.96
-2.16
-5.50
-8.61
-11.15
-13.00
-14.31
-15.48
-16.96
-19.15
-22.14
-25.69
-29.20
-31.88
-32.97
-31.97
-28.77
-23.66
-17.21
-10.15
-3.18
3.20
8.70
13.28
17.05
20.15
22.61
24.31
25.13
24.99
24.09
22.83
21.67
20.99
20.89
21.23
21.73
22.16
22.38
22.38
22.21
21.93
21.52
20.93
20.10
18.97
17.52
15.73
13.65
11.37
9.06
6.88
4.99
3.38
1.96
0.50
-1.20
-3.21
-5.44
-7.73
-9.86
-11.71
-13.25
-14.56
-15.79
-17.13
-18.82
-21.15
-24.27
-28.11
-32.19
-35.73
-37.77
-37.52
-34.65
-29.38
-22.40
-14.63
-6.97
-0.07
5.69
10.20
13.50
15.70
16.98
17.44
17.24
16.55
15.60
14.67
14.04
13.86
14.13
14.68
15.27
15.72
16.03
16.31
16.70
17.19
17.55
17.42
16.53
14.81
12.56
10.29
8.48
7.39
6.99
6.92
6.74
6.09
4.79
2.89
0.58
-1.87
-4.19
-6.23
-7.93
-9.39
-10.79
-12.42
-14.55
-17.43
-21.09
-25.30
-29.49
-32.82
-34.40
-33.57
-30.15
-24.57
-17.69
-10.51
-3.90
1.66
6.07
9.49
12.18
14.32
15.93
16.95
17.28
16.92
16.02
14.94
14.10
13.84
14.29
15.25
16.34
17.18
17.52
17.41
17.04
16.60
16.19
15.73
15.07
14.10
12.82
11.35
9.82
8.33
6.91
5.56
4.27
3.05
1.87
0.70
-0.58
-2.11
-3.98
-6.22
-8.73
-11.35
-13.85
-16.07
-17.91
-19.46
-20.95
-22.73
-25.08
-28.12
-31.59
-34.84
-37.03
-37.32
-35.24
-30.81
-24.59
-17.49
-10.42
-4.12
1.06
5.12
8.24
10.62
12.39
13.53
13.99
13.73
12.83
11.54
10.18
9.09
8.48
8.45
8.92
9.73
10.74
11.80
12.79
13.60
14.10
14.17
13.79
13.02
12.07
11.21
10.64
10.37
10.25
9.97
9.27
8.06
6.47
4.78
3.26
2.03
0.95
-0.23
-1.76
-3.76
-6.13
-8.67
-11.19
-13.56
-15.79
-17.96
-20.22
-22.70
-25.55
-28.81
-32.34
-35.76
-38.44
-39.67
-38.85
-35.70
-30.37
-23.40
-15.62
-7.91
-1.06
4.46
8.54
11.39
13.37
14.76
15.69
16.06
15.75
14.75
13.29
11.83
10.84
10.55
10.90
11.55
12.05
12.14
11.80
11.24
10.77
10.55
10.53
10.41
9.85
8.59
6.63
4.22
1.72
-0.52
-2.28
-3.49
-4.25
-4.75
-5.23
-5.96
-7.15
-8.92
-11.13
-13.49
-15.58
-17.05
-17.76
-17.87
-17.81
-18.12
-19.22
-21.29
-24.10
-27.14
-29.69
-31.05
-30.72
-28.50
-24.51
-19.12
-12.84
-6.24
0.13
5.82
10.48
13.93
16.17
17.36
17.76
17.69
17.39
17.06
16.81
16.65
16.52
16.25
15.68
14.74
13.67
13.05
13.72
16.45
21.62
28.81
36.82
43.94
48.56
49.62
47.04
41.61
34.65
27.48
21.06
15.81
11.61
8.13
5.01
2.06
-0.80
-3.60
-6.38
-9.23
-12.16
-15.09
-17.86
-20.34
-22.60
-24.99
-28.07
-32.28
-37.65
-43.62
-49.13
-52.97
-54.21
-52.56
-48.35
-42.45
-35.81
-29.22
-23.13
-17.69
-12.89
-8.75
-5.28
-2.52
-0.44
1.10
2.30
3.36
4.37
5.39
6.47
7.65
9.02
10.58
12.24
13.77
14.90
15.47
15.52
15.26
14.93
14.71
14.59
14.40
13.93
13.06
11.78
10.24
8.62
7.03
5.52
4.06
2.55
0.93
-0.84
-2.74
-4.71
-6.65
-8.50
-10.21
-11.82
-13.44
-15.33
-17.78
-21.01
-25.06
-29.58
-33.88
-37.12
-38.47
-37.47
-34.11
-28.84
-22.35
-15.42
-8.74
-2.72
2.40
6.59
9.94
12.54
14.42
15.58
16.01
15.79
15.11
14.33
13.81
13.85
14.50
15.63
16.94
18.06
18.74
18.93
18.73
18.42
18.20
18.10
17.91
17.24
15.79
13.52
10.76
8.04
5.87
4.41
3.44
2.48
1.10
-0.84
-3.22
-5.62
-7.73
-9.39
-10.66
-11.71
-12.73
-13.84
-15.14
-16.74
-18.81
-21.51
-24.77
-28.28
-31.38
-33.25
-33.14
-30.65
-25.94
-19.64
-12.71
-6.05
-0.23
4.61
8.60
11.96
14.75
16.79
17.82
17.75
16.79
15.42
14.25
13.68
13.81
14.36
14.95
15.28
15.31
15.26
15.40
15.86
16.52
17.02
16.94
16.07
14.46
12.50
10.64
9.18
8.14
7.26
6.19
4.71
2.87
0.90
-0.87
-2.24
-3.19
-3.88
-4.56
-5.46
-6.78
-8.71
-11.39
-14.80
-18.68
-22.47
-25.37
-26.56
-25.52
-22.19
-17.03
-10.77
-4.24
1.96
7.46
12.14
15.94
18.81
20.71
21.63
21.66
20.98
19.86
18.56
17.31
16.29
15.60
15.24
15.12
15.10
15.04
14.87
14.58
14.24
13.88
13.45
12.83
11.85
10.45
8.71
6.91
5.38
4.34
3.84
3.66
3.47
2.96
1.98
0.58
-1.09
-2.83
-4.54
-6.17
-7.72
-9.14
-10.47
-11.82
-13.46
-15.78
-19.05
-23.14
-27.46
-31.02
-32.74
-31.94
-28.57
-23.22
-16.87
-10.48
-4.67
0.33
4.58
8.19
11.20
13.50
14.98
15.58
15.42
14.71
13.70
12.59
11.50
10.53
9.83
9.57
9.90
10.87
12.34
14.03
15.61
16.85
17.65
18.04
18.13
17.96
17.54
16.88
16.01
15.03
14.02
13.01
11.92
10.67
9.22
7.68
6.26
5.08
4.13
3.13
1.74
-0.31
-3.04
-6.12
-9.08
-11.46
-13.11
-14.23
-15.31
-16.95
-19.54
-23.13
-27.31
-31.32
-34.28
-35.42
-34.31
-30.97
-25.84
-19.65
-13.20
-7.18
-2.08
1.96
4.95
7.11
8.58
9.47
9.77
9.46
8.60
7.42
6.22
5.34
5.01
5.31
6.15
7.33
8.65
9.96
11.16
12.17
12.96
13.51
13.80
13.81
13.55
13.00
12.17
11.05
9.67
8.12
6.55
5.16
4.07
3.37
2.93
2.54
1.91
0.89
-0.52
-2.17
-3.79
-5.17
-6.22
-6.97
-7.61
-8.43
-9.78
-11.87
-14.72
-17.99
-21.05
-23.08
-23.37
-21.56
-17.80
-12.69
-7.05
-1.66
2.95
6.55
9.16
10.94
12.03
12.55
12.56
12.11
11.29
10.25
9.19
8.29
7.65
7.27
7.06
6.89
6.72
6.55
6.49
6.64
6.97
7.38
7.67
7.60
7.11
6.28
5.35
4.57
4.05
3.73
3.39
2.78
1.79
0.51
-0.77
-1.77
-2.31
-2.52
-2.72
-3.27
-4.41
-6.11
-8.11
-10.06
-11.65
-12.78
-13.52
-14.09
-14.75
-15.77
-17.36
-19.60
-22.36
-25.18
-27.36
-28.15
-26.99
-23.80
-19.06
-13.59
-8.29
-3.84
-0.50
1.81
3.39
4.52
5.43
6.22
6.85
7.24
7.25
6.88
6.21
5.52
5.12
5.31
6.15
7.50
9.08
10.55
11.69
12.42
12.79
12.83
12.56
12.00
11.20
10.28
9.43
8.76
8.26
7.76
7.02
5.84
4.24
2.38
0.57
-0.94
-2.11
-3.07
-4.10
-5.38
-6.98
-8.77
-10.53
-12.04
-13.17
-13.92
-14.45
-15.09
-16.23
-18.23
-21.19
-24.76
-28.17
-30.43
-30.67
-28.55
-24.36
-18.90
-13.20
-8.04
-3.82
-0.54
2.06
4.19
5.94
7.21
7.89
7.92
7.43
6.70
6.05
5.68
5.66
5.88
6.16
6.41
6.63
6.91
7.36
7.95
8.52
8.86
8.78
8.22
7.27
6.04
4.65
3.20
1.77
0.49
-0.50
-1.13
-1.45
-1.69
-2.15
-2.95
-4.05
-5.16
-5.98
-6.34
-6.36
-6.35
-6.69
-7.70
-9.50
-11.94
-14.76
-17.45
-19.47
-20.28
-19.47
-16.93
-12.87
-7.81
-2.46
2.55
6.70
9.76
11.71
12.74
13.12
13.08
12.76
12.17
11.30
10.17
8.91
7.73
6.87
6.45
6.46
6.73
7.05
7.25
7.26
7.06
6.72
6.30
5.81
5.27
4.66
4.00
3.33
2.68
2.07
1.46
0.77
-0.05
-1.02
-2.03
-2.93
-3.59
-4.02
-4.35
-4.79
-5.48
-6.47
-7.63
-8.78
-9.73
-10.36
-10.71
-10.96
-11.41
-12.43
-14.28
-17.00
-20.23
-23.30
-25.39
-25.86
-24.48
-21.48
-17.42
-12.97
-8.68
-4.92
-1.83
0.55
2.29
3.55
4.53
5.38
6.14
6.72
6.94
6.71
6.12
5.46
5.06
5.15
5.73
6.56
7.37
7.91
8.13
8.13
8.08
8.13
8.32
8.56
8.65
8.37
7.56
6.24
4.56
2.82
1.28
0.11
-0.74
-1.44
-2.20
-3.17
-4.34
-5.63
-6.91
-8.06
-9.04
-9.83
-10.48
-11.07
-11.80
-12.93
-14.76
-17.43
-20.81
-24.42
-27.48
-29.14
-28.78
-26.19
-21.72
-16.14
-10.37
-5.17
-0.97
2.18
4.46
6.07
7.07
7.43
7.02
5.92
4.31
2.48
0.67
-1.05
-2.78
-4.60
-6.47
-8.18
-9.38
-9.78
-9.33
-8.24
-6.96
-5.96
-5.50
-5.54
-5.73
-5.69
-5.16
-4.12
-2.72
-1.13
0.64
2.69
5.07
7.63
9.88
11.23
11.20
9.68
6.99
3.62
0.03
-3.49
-6.76
-9.54
-11.45
-12.03
-10.97
-8.27
-4.31
0.31
5.00
9.31
13.03
16.08
18.44
20.03
20.82
20.82
20.15
19.01
17.66
16.32
15.18
14.31
13.71
13.34
13.12
13.01
12.98
13.02
13.10
13.15
13.07
12.81
12.41
12.02
11.74
11.59
11.38
10.78
9.43
7.13
3.93
0.12
-3.84
-7.50
-10.54
-12.82
-14.42
-15.66
-17.03
-19.04
-22.03
-25.93
-30.17
-33.76
-35.68
-35.27
-32.46
-27.83
-22.28
-16.73
-11.84
-7.94
-5.17
-3.50
-2.88
-3.10
-3.83
-4.70
-5.43
-6.02
-6.66
-7.61
-8.95
-10.49
-11.93
-13.12
-14.21
-15.56
-17.38
-19.40
-20.74
-20.22
-16.94
-10.87
-2.99
4.95
11.14
14.43
14.70
12.81
10.18
8.10
7.30
7.67
8.51
8.84
7.92
5.47
1.70
-2.86
-7.62
-12.07
-15.78
-18.35
-19.39
-18.57
-15.75
-11.07
-4.97
1.89
8.79
15.05
20.08
23.44
24.87
24.44
22.55
19.94
17.52
16.06
15.95
17.00
18.61
20.01
20.60
20.21
19.04
17.46
15.73
13.84
11.58
8.73
5.29
1.52
-2.15
-5.31
-7.66
-8.97
-9.04
-7.69
-4.89
-1.01
2.99
5.74
5.89
2.64
-3.79
-12.14
-20.57
-27.24
-30.92
-31.21
-28.42
-23.24
-16.49
-8.89
-1.12
6.14
12.23
16.65
19.14
19.81
19.11
17.63
16.06
14.93
14.58
15.08
16.23
17.71
19.17
20.44
21.56
22.73
24.18
25.92
27.74
29.25
29.99
29.74
28.44
26.32
23.73
21.02
18.47
16.18
14.11
12.07
9.74
6.75
2.79
-2.29
-8.35
-14.92
-21.20
-26.25
-29.17
-29.38
-26.74
-21.60
-14.71
-7.00
0.64
7.52
13.22
17.61
20.70
22.55
23.15
22.39
20.15
16.45
11.58
6.17
1.03
-3.08
-5.68
-6.75
-6.62
-5.79
-4.70
-3.54
-2.35
-1.07
0.27
1.54
2.64
3.52
4.28
5.07
5.88
6.54
6.66
5.80
3.75
0.55
-3.50
-8.12
-13.12
-18.49
-24.18
-29.90
-34.95
-38.41
-39.44
-37.60
-33.07
-26.63
-19.30
-12.06
-5.60
-0.28
3.86
6.90
8.94
10.03
10.22
9.56
8.21
6.43
4.58
3.08
2.21
2.07
2.48
3.14
3.76
4.21
4.63
5.30
6.49
8.23
10.23
11.97
12.88
12.70
11.55
9.99
8.64
7.94
7.87
8.01
7.81
6.91
5.32
3.26
1.00
-1.35
-3.81
-6.31
-8.45
-9.56
-8.87
-5.94
-0.97
5.30
11.84
17.78
22.67
26.54
29.67
32.27
34.37
35.74
36.08
35.16
33.04
30.08
26.78
23.69
21.09
18.99
17.19
15.48
13.86
12.60
12.12
12.66
14.05
15.68
16.63
16.12
13.89
10.28
6.19
2.60
0.15
-1.12
-1.70
-2.37
-3.83
-6.40
-10.03
-14.33
-18.74
-22.71
-25.70
-27.20
-26.81
-24.31
-19.89
-14.08
-7.68
-1.55
3.71
7.76
10.61
12.42
13.33
13.42
12.72
11.28
9.30
7.06
4.87
2.94
1.36
0.02
-1.21
-2.40
-3.49
-4.30
-4.64
-4.40
-3.70
-2.84
-2.17
-2.08
-2.73
-4.19
-6.34
-8.98
-11.87
-14.70
-17.21
-19.26
-20.91
-22.39
-23.98
-25.74
-27.39
-28.32
-27.76
-25.24
-20.73
-14.80
-8.36
-2.36
2.55
6.09
8.31
9.45
9.76
9.43
8.65
7.53
6.24
4.86
3.50
2.18
0.96
-0.13
-1.03
-1.68
-2.04
-2.11
-1.94
-1.68
-1.54
-1.74
-2.41
-3.50
-4.77
-5.93
-6.72
-7.06
-7.08
-7.12
-7.57
-8.78
-10.92
-13.87
-17.21
-20.25
-22.19
-22.36
-20.43
-16.51
-11.15
-5.14
0.73
5.81
9.81
12.75
14.86
16.44
17.75
18.86
19.66
19.98
19.74
19.03
18.12
17.31
16.72
16.28
15.76
15.05
14.24
13.66
13.60
14.10
14.76
14.89
13.85
11.38
7.79
3.84
0.33
-2.23
-3.89
-5.12
-6.55
-8.67
-11.66
-15.38
-19.48
-23.43
-26.68
-28.67
-28.89
-27.06
-23.21
-17.79
-11.53
-5.39
-0.23
3.35
5.12
5.30
4.38
2.95
1.47
0.17
-0.89
-1.81
-2.63
-3.30
-3.73
-3.85
-3.66
-3.25
-2.66
-1.82
-0.61
1.00
2.87
4.68
6.02
6.59
6.40
5.68
4.82
4.13
3.75
3.59
3.33
2.59
0.99
-1.62
-5.14
-9.05
-12.60
-14.95
-15.50
-14.10
-11.06
-7.01
-2.61
1.65
5.47
8.67
11.09
12.49
12.70
11.80
10.14
8.28
6.82
6.10
6.13
6.64
7.26
7.77
8.17
8.68
9.53
10.82
12.43
14.02
15.22
15.77
15.58
14.81
13.70
12.47
11.23
9.95
8.56
6.97
5.08
2.81
0.04
-3.28
-7.00
-10.68
-13.66
-15.21
-14.88
-12.69
-9.19
-5.20
-1.49
1.45
3.53
4.88
5.64
5.81
5.35
4.23
2.59
0.68
-1.17
-2.74
-4.06
-5.24
-6.42
-7.63
-8.72
-9.46
-9.71
-9.49
-9.05
-8.66
-8.55
-8.74
-9.12
-9.50
-9.83
-10.15
-10.60
-11.29
-12.14
-12.96
-13.51
-13.65
-13.47
-13.30
-13.52
-14.39
-15.79
-17.17
-17.79
-16.93
-14.27
-9.96
-4.57
1.14
6.52
11.13
14.79
17.41
18.94
19.32
18.55
16.85
14.56
12.21
10.25
8.94
8.27
7.99
7.73
7.15
6.10
4.63
2.97
1.40
0.17
-0.60
-0.95
-1.08
-1.27
-1.82
-2.99
-4.87
-7.32
-10.03
-12.59
-14.64
-16.00
-16.71
-16.95
-17.02
-17.18
-17.67
-18.63
-20.08
-21.87
-23.60
-24.67
-24.48
-22.66
-19.26
-14.73
-9.78
-5.02
-0.81
2.80
5.90
8.50
10.41
11.37
11.25
10.27
8.90
7.73
7.09
7.00
7.17
7.24
7.08
6.83
6.78
7.17
8.03
9.15
10.21
10.95
11.28
11.21
10.87
10.35
9.72
9.04
8.32
7.63
6.94
6.18
5.18
3.69
1.54
-1.20
-4.16
-6.71
-8.15
-8.02
-6.25
-3.24
0.34
3.83
6.78
9.02
10.49
11.16
10.90
9.59
7.30
4.37
1.39
-1.02
-2.44
-2.81
-2.44
-1.81
-1.36
-1.33
-1.68
-2.25
-2.83
-3.30
-3.68
-4.04
-4.46
-4.94
-5.41
-5.82
-6.12
-6.41
-6.81
-7.49
-8.59
-10.20
-12.32
-14.89
-17.73
-20.43
-22.44
-23.11
-21.91
-18.68
-13.74
-7.85
-1.97
3.08
6.83
9.25
10.53
10.88
10.41
9.10
7.00
4.39
1.70
-0.58
-2.14
-3.03
-3.55
-4.13
-5.05
-6.30
-7.62
-8.68
-9.32
-9.60
-9.80
-10.25
-11.13
-12.40
-13.80
-15.03
-15.89
-16.38
-16.63
-16.90
-17.38
-18.18
-19.27
-20.51
-21.60
-22.22
-22.03
-20.81
-18.44
-15.00
-10.61
-5.51
-0.06
5.27
9.88
13.17
14.72
14.53
12.96
10.71
8.42
6.53
5.14
4.18
3.54
3.30
3.62
4.62
6.18
7.93
9.42
10.34
10.69
10.74
10.85
11.24
11.83
12.37
12.55
12.23
11.51
10.66
9.90
9.29
8.66
7.66
5.89
3.13
-0.51
-4.59
-8.35
-11.02
-12.00
-11.07
-8.43
-4.57
0.01
4.83
9.58
13.97
17.70
20.42
21.90
22.08
21.16
19.49
17.45
15.32
13.24
11.30
9.57
8.15
7.10
6.42
6.00
5.69
5.40
5.17
5.06
5.11
5.17
4.96
4.14
2.55
0.32
-2.17
-4.41
-6.02
-6.89
-7.26
-7.56
-8.26
-9.68
-11.93
-14.88
-18.16
-21.28
-23.67
-24.82
-24.37
-22.23
-18.57
-13.85
-8.68
-3.75
0.34
3.22
4.72
4.94
4.15
2.74
1.08
-0.54
-1.98
-3.30
-4.60
-6.03
-7.60
-9.18
-10.47
-11.13
-10.87
-9.62
-7.58
-5.18
-2.96
-1.45
-1.01
-1.69
-3.20
-4.97
-6.34
-6.84
-6.42
-5.50
-4.83
-5.10
-6.62
-9.11
-11.81
-13.81
-14.33
-13.08
-10.25
-6.35
-2.01
2.22
5.99
9.09
11.38
12.79
13.26
12.75
11.39
9.40
7.14
5.06
3.52
2.71
2.61
2.89
3.17
3.09
2.54
1.65
0.75
0.16
0.02
0.24
0.61
0.98
1.32
1.78
2.46
3.36
4.16
4.36
3.43
1.06
-2.73
-7.42
-12.17
-15.94
-17.82
-17.30
-14.40
-9.65
-3.94
1.77
6.78
10.73
13.66
15.79
17.36
18.49
19.19
19.38
19.03
18.19
17.00
15.57
14.07
12.64
11.41
10.51
10.03
9.96
10.11
10.22
9.98
9.21
7.88
6.13
4.22
2.38
0.79
-0.54
-1.75
-3.20
-5.30
-8.39
-12.54
-17.35
-22.00
-25.46
-26.81
-25.62
-22.10
-17.06
-11.59
-6.68
-2.89
-0.27
1.56
3.02
4.35
5.38
5.71
4.94
2.95
0.05
-3.12
-5.86
-7.72
-8.68
-9.07
-9.47
-10.38
-12.06
-14.51
-17.45
-20.50
-23.34
-25.79
-27.96
-30.10
-32.58
-35.77
-39.86
-44.86
-50.52
-56.36
-61.70
-65.71
-67.53
-66.36
-61.69
-53.38
-41.81
-27.75
-12.27
3.51
18.62
32.29
43.97
53.23
59.78
63.51
64.61
63.70
61.74
59.76
58.52
58.29
58.72
59.15
58.88
57.53
55.07
51.81
48.12
44.31
40.56
36.95
33.61
30.64
28.09
25.85
23.65
21.09
17.85
13.79
9.17
4.59
0.84
-1.34
-1.57
0.05
2.91
6.18
9.03
10.95
11.87
11.96
11.50
10.63
9.26
7.21
4.36
0.85
-2.87
-6.17
-8.51
-9.56
-9.36
-8.25
-6.72
-5.25
-4.18
-3.61
-3.43
-3.40
-3.25
-2.78
-1.85
-0.43
1.39
3.39
5.24
6.52
6.92
6.35
5.06
3.55
2.46
2.29
3.26
5.24
7.85
10.64
13.20
15.18
16.35
16.58
15.87
14.36
12.29
9.89
7.34
4.76
2.25
0.04
-1.53
-2.12
-1.58
-0.03
2.06
4.06
5.41
5.85
5.53
4.79
4.05
3.57
3.39
3.38
3.41
3.36
3.14
2.58
1.44
-0.48
-3.14
-6.14
-8.74
-10.07
-9.54
-7.04
-3.00
1.77
6.43
10.33
13.20
15.06
16.12
16.63
16.79
16.69
16.37
15.78
14.93
13.83
12.58
11.29
10.03
8.81
7.63
6.56
5.71
5.25
5.27
5.72
6.43
7.15
7.64
7.73
7.33
6.41
5.04
3.38
1.65
0.10
-1.05
-1.77
-2.19
-2.67
-3.56
-5.12
-7.31
-9.76
-11.85
-12.96
-12.64
-10.85
-7.93
-4.44
-0.97
2.08
4.52
6.41
7.86
8.95
9.68
9.98
9.74
8.90
7.50
5.75
3.98
2.59
1.88
1.92
2.48
3.14
3.49
3.41
3.11
3.03
3.61
5.01
7.02
9.19
10.98
12.01
12.16
11.50
10.21
8.53
6.69
4.83
3.04
1.31
-0.45
-2.34
-4.36
-6.35
-8.09
-9.42
-10.30
-10.93
-11.62
-12.68
-14.19
-15.99
-17.67
-18.70
-18.65
-17.28
-14.62
-10.96
-6.77
-2.61
0.94
3.37
4.32
3.67
1.55
-1.61
-5.29
-8.93
-12.10
-14.50
-15.91
-16.18
-15.25
-13.23
-10.47
-7.58
-5.13
-3.50
-2.71
-2.45
-2.33
-2.06
-1.65
-1.24
-1.06
-1.13
-1.34
-1.47
-1.37
-1.02
-0.57
-0.21
-0.06
-0.20
-0.54
-1.01
-1.49
-1.88
-2.13
-2.23
-2.18
-2.02
-1.77
-1.48
-1.29
-1.37
-1.95
-3.16
-4.88
-6.72
-8.09
-8.44
-7.48
-5.33
-2.43
0.62
3.30
5.34
6.73
7.56
7.98
8.06
7.85
7.34
6.59
5.62
4.47
3.18
1.78
0.36
-0.92
-1.92
-2.47
-2.46
-1.89
-0.80
0.65
2.19
3.50
4.24
4.18
3.31
1.92
0.51
-0.34
-0.24
0.82
2.45
4.03
4.92
4.74
3.48
1.42
-0.97
-3.25
-5.13
-6.51
-7.41
-7.89
-7.98
-7.70
-7.12
-6.46
-6.08
-6.34
-7.41
-9.10
-10.86
-11.92
-11.74
-10.15
-7.49
-4.38
-1.50
0.81
2.43
3.55
4.32
4.86
5.11
4.96
4.30
3.04
1.25
-0.93
-3.26
-5.51
-7.56
-9.45
-11.30
-13.21
-15.18
-17.11
-18.89
-20.55
-22.32
-24.44
-27.08
-30.04
-32.84
-34.87
-35.58
-34.79
-32.61
-29.41
-25.61
-21.60
-17.67
-14.06
-10.99
-8.70
-7.31
-6.74
-6.74
-6.82
-6.55
-5.57
-3.86
-1.70
0.40
1.88
2.35
1.78
0.53
-0.75
-1.36
-0.80
1.02
3.77
6.82
9.44
11.10
11.55
10.87
9.38
7.49
5.50
3.60
1.86
0.28
-1.14
-2.37
-3.40
-4.21
-4.86
-5.42
-5.97
-6.55
-7.14
-7.70
-8.20
-8.62
-8.99
-9.33
-9.61
-9.78
-9.78
-9.57
-9.20
-8.84
-8.65
-8.73
-9.04
-9.34
-9.32
-8.71
-7.43
-5.61
-3.56
-1.67
-0.27
0.37
0.19
-0.71
-2.03
-3.34
-4.17
-4.13
-3.08
-1.14
1.34
3.91
6.13
7.74
8.65
8.94
8.86
8.65
8.48
8.38
8.27
8.00
7.57
7.07
6.77
6.89
7.52
8.54
9.66
10.63
11.30
11.72
12.05
12.40
12.75
12.95
12.79
12.14
11.06
9.72
8.37
7.17
6.13
5.14
4.07
2.82
1.42
-0.07
-1.59
-3.14
-4.75
-6.34
-7.72
-8.60
-8.70
-7.93
-6.41
-4.52
-2.67
-1.20
-0.27
0.10
0.01
-0.40
-1.07
-1.94
-3.00
-4.22
-5.54
-6.82
-7.87
-8.51
-8.70
-8.54
-8.23
-7.98
-7.84
-7.75
-7.52
-7.04
-6.33
-5.54
-4.90
-4.57
-4.58
-4.87
-5.29
-5.78
-6.31
-6.95
-7.79
-8.82
-9.97
-11.15
-12.30
-13.45
-14.71
-16.14
-17.68
-19.01
-19.64
-19.14
-17.28
-14.22
-10.49
-6.80
-3.72
-1.53
-0.18
0.61
1.14
1.62
2.08
2.43
2.52
2.30
1.79
1.09
0.36
-0.29
-0.72
-0.79
-0.45
0.28
1.26
2.21
2.89
3.17
3.10
2.93
2.86
2.99
3.14
3.03
2.35
1.02
-0.84
-2.96
-5.03
-6.84
-8.30
-9.40
-10.20
-10.86
-11.64
-12.86
-14.76
-17.33
-20.18
-22.59
-23.82
-23.37
-21.18
-17.61
-13.22
-8.55
-4.01
0.15
3.75
6.65
8.72
9.91
10.29
10.00
9.23
8.18
7.05
6.07
5.40
5.15
5.24
5.43
5.43
5.07
4.40
3.70
3.33
3.49
4.10
4.77
4.99
4.37
2.81
0.51
-2.10
-4.57
-6.59
-8.03
-8.96
-9.58
-10.16
-11.03
-12.52
-14.77
-17.68
-20.82
-23.54
-25.13
-25.07
-23.14
-19.45
-14.37
-8.41
-2.11
3.98
9.37
13.74
16.95
19.08
20.36
21.03
21.26
21.09
20.51
19.58
18.50
17.55
16.97
16.85
17.06
17.37
17.53
17.49
17.34
17.27
17.37
17.50
17.35
16.53
14.81
12.18
8.93
5.47
2.17
-0.72
-3.17
-5.31
-7.44
-9.92
-13.12
-17.25
-22.18
-27.40
-32.06
-35.18
-35.99
-34.12
-29.73
-23.41
-16.01
-8.36
-1.18
5.02
9.94
13.46
15.68
16.75
16.94
16.45
15.43
14.01
12.28
10.42
8.64
7.16
6.20
5.84
6.05
6.72
7.61
8.53
9.30
9.85
10.16
10.23
10.10
9.70
8.95
7.75
6.04
3.87
1.40
-1.16
-3.63
-5.85
-7.78
-9.41
-10.79
-12.01
-13.33
-15.15
-17.85
-21.59
-26.13
-30.69
-34.11
-35.27
-33.47
-28.66
-21.45
-12.87
-3.98
4.32
11.50
17.31
21.70
24.73
26.47
27.06
26.66
25.48
23.79
21.87
20.04
18.54
17.49
16.86
16.56
16.52
16.77
17.37
18.37
19.69
21.04
22.04
22.35
21.81
20.46
18.53
16.31
14.09
12.16
10.76
10.01
9.89
10.07
10.12
9.54
8.08
5.83
3.15
0.53
-1.67
-3.39
-4.87
-6.60
-9.08
-12.71
-17.54
-23.18
-28.79
-33.18
-35.20
-34.06
-29.58
-22.26
-13.10
-3.26
6.23
14.67
21.65
27.04
30.80
33.02
33.83
33.44
32.14
30.29
28.25
26.38
24.90
23.92
23.42
23.29
23.40
23.64
23.95
24.31
24.65
24.88
24.87
24.51
23.71
22.46
20.80
18.86
16.79
14.78
12.95
11.34
9.89
8.41
6.71
4.66
2.30
-0.17
-2.45
-4.28
-5.54
-6.28
-6.75
-7.29
-8.31
-10.13
-12.97
-16.72
-20.98
-24.95
-27.67
-28.26
-26.19
-21.47
-14.69
-6.75
1.41
9.00
15.56
20.89
24.92
27.68
29.20
29.57
28.95
27.64
26.01
24.43
23.19
22.42
22.04
21.86
21.68
21.38
20.95
20.50
20.14
19.89
19.64
19.17
18.24
16.71
14.60
12.07
9.36
6.70
4.22
1.87
-0.47
-2.98
-5.76
-8.77
-11.83
-14.68
-17.13
-19.09
-20.60
-21.80
-22.88
-24.06
-25.60
-27.81
-30.93
-34.87
-39.15
-42.79
-44.65
-43.79
-39.83
-33.13
-24.66
-15.61
-7.08
0.24
6.06
10.42
13.51
15.52
16.60
16.88
16.45
15.43
14.01
12.41
10.89
9.65
8.85
8.52
8.58
8.85
9.21
9.49
9.71
9.85
9.95
9.95
9.74
9.25
8.43
7.34
6.13
4.95
3.85
2.79
1.63
0.26
-1.38
-3.19
-5.02
-6.72
-8.24
-9.62
-10.94
-12.21
-13.41
-14.49
-15.52
-16.76
-18.62
-21.45
-25.25
-29.56
-33.47
-35.87
-35.83
-32.94
-27.42
-19.99
-11.67
-3.46
3.87
9.87
14.35
17.37
19.11
19.78
19.56
18.59
16.95
14.81
12.46
10.28
8.70
7.96
8.07
8.76
9.59
10.19
10.45
10.47
10.54
10.91
11.58
12.34
12.86
12.88
12.36
11.41
10.25
9.07
7.92
6.80
5.61
4.32
2.91
1.36
-0.40
-2.46
-4.85
-7.48
-10.13
-12.48
-14.29
-15.47
-16.20
-16.96
-18.33
-20.85
-24.70
-29.63
-34.87
-39.34
-41.95
-41.91
-38.95
-33.37
-25.95
-17.71
-9.65
-2.49
3.41
8.05
11.61
14.27
16.13
17.21
17.49
17.11
16.32
15.50
14.98
14.96
15.43
16.26
17.22
18.15
18.97
19.66
20.25
20.76
21.11
21.15
20.71
19.66
18.06
16.06
13.94
11.88
9.90
7.87
5.62
3.04
0.20
-2.72
-5.48
-7.91
-9.96
-11.71
-13.26
-14.80
-16.54
-18.83
-21.97
-26.09
-30.95
-35.81
-39.62
-41.29
-40.13
-36.13
-29.92
-22.51
-14.95
-7.98
-1.93
3.11
7.20
10.33
12.40
13.33
13.15
12.08
10.48
8.73
7.18
6.01
5.26
4.89
4.83
5.03
5.47
6.14
6.97
7.90
8.78
9.44
9.74
9.59
8.95
7.88
6.53
5.07
3.65
2.37
1.23
0.12
-1.09
-2.53
-4.27
-6.20
-8.20
-10.12
-11.89
-13.53
-15.12
-16.70
-18.33
-20.07
-22.10
-24.68
-28.02
-32.05
-36.30
-39.82
-41.54
-40.60
-36.69
-30.19
-21.96
-13.08
-4.51
3.14
9.55
14.64
18.40
20.86
22.04
22.05
21.08
19.44
17.48
15.59
14.04
13.03
12.61
12.70
13.19
13.93
14.80
15.65
16.36
16.81
16.88
16.55
15.89
15.04
14.16
13.35
12.62
11.85
10.89
9.66
8.17
6.50
4.75
2.90
0.88
-1.40
-3.93
-6.52
-8.89
-10.77
-12.02
-12.73
-13.10
-13.38
-13.83
-14.72
-16.36
-19.04
-22.87
-27.58
-32.37
-36.09
-37.57
-36.06
-31.55
-24.72
-16.67
-8.57
-1.26
4.88
9.82
13.76
16.92
19.38
21.06
21.87
21.72
20.71
19.15
17.46
16.06
15.19
14.85
14.86
15.01
15.15
15.26
15.43
15.74
16.11
16.41
16.40
15.92
14.93
13.53
11.90
10.23
8.63
7.15
5.72
4.28
2.77
1.24
-0.26
-1.64
-2.86
-3.95
-4.98
-6.03
-7.14
-8.32
-9.60
-11.11
-13.08
-15.75
-19.20
-23.12
-26.83
-29.37
-29.84
-27.69
-22.97
-16.30
-8.60
-0.84
6.20
12.10
16.71
20.02
22.09
22.98
22.80
21.70
19.94
17.86
15.80
14.08
12.81
12.01
11.54
11.28
11.12
11.05
11.10
11.22
11.31
11.21
10.77
9.93
8.75
7.37
5.91
4.45
2.94
1.32
-0.44
-2.26
-4.04
-5.63
-6.99
-8.18
-9.36
-10.70
-12.28
-14.07
-15.90
-17.56
-18.85
-19.69
-20.22
-20.76
-21.77
-23.69
-26.68
-30.49
-34.37
-37.35
-38.45
-37.10
-33.26
-27.35
-20.08
-12.21
-4.44
2.68
8.70
13.33
16.47
18.28
19.11
19.29
19.02
18.34
17.18
15.56
13.69
11.89
10.52
9.79
9.68
10.01
10.54
11.07
11.49
11.75
11.81
11.65
11.26
10.66
9.94
9.17
8.39
7.52
6.45
5.10
3.50
1.80
0.25
-0.97
-1.84
-2.50
-3.19
-4.05
-5.14
-6.40
-7.73
-9.11
-10.58
-12.25
-14.22
-16.61
-19.51
-22.94
-26.76
-30.58
-33.76
-35.50
-35.12
-32.29
-27.16
-20.28
-12.52
-4.75
2.28
8.06
12.38
15.30
17.09
18.11
18.64
18.80
18.54
17.80
16.58
15.12
13.79
12.97
12.91
13.55
14.65
15.82
16.77
17.33
17.51
17.43
17.18
16.79
16.23
15.36
14.09
12.38
10.32
8.09
5.86
3.80
1.91
0.15
-1.63
-3.50
-5.45
-7.35
-9.05
-10.46
-11.55
-12.36
-12.98
-13.49
-14.03
-14.82
-16.16
-18.33
-21.36
-24.92
-28.33
-30.69
-31.20
-29.45
-25.44
-19.65
-12.81
-5.71
0.98
6.80
11.61
15.42
18.36
20.54
21.92
22.46
22.12
21.08
19.68
18.39
17.59
17.43
17.81
18.45
19.04
19.41
19.51
19.39
19.14
18.77
18.21
17.35
16.10
14.42
12.37
10.07
7.69
5.36
3.18
1.17
-0.72
-2.62
-4.68
-6.99
-9.61
-12.44
-15.35
-18.14
-20.59
-22.53
-23.91
-24.86
-25.79
-27.25
-29.77
-33.52
-38.11
-42.57
-45.66
-46.31
-43.99
-38.92
-31.88
-23.90
-15.89
-8.51
-2.12
3.10
7.06
9.81
11.50
12.40
12.82
12.97
12.95
12.74
12.28
11.57
10.73
9.95
9.42
9.26
9.48
9.93
10.45
10.86
11.06
11.07
10.92
10.67
10.28
9.70
8.87
7.81
6.56
5.20
3.74
2.14
0.36
-1.61
-3.69
-5.76
-7.71
-9.45
-10.97
-12.28
-13.40
-14.38
-15.40
-16.77
-18.86
-21.89
-25.75
-29.87
-33.35
-35.26
-34.97
-32.33
-27.74
-21.89
-15.54
-9.30
-3.52
1.67
6.24
10.18
13.45
15.92
17.48
18.03
17.63
16.48
14.96
13.53
12.56
12.27
12.62
13.36
14.16
14.74
14.96
14.86
14.57
14.24
13.91
13.50
12.80
11.63
9.94
7.92
5.91
4.28
3.14
2.34
1.46
0.08
-2.01
-4.68
-7.51
-10.02
-11.86
-13.04
-13.80
-14.58
-15.86
-18.01
-21.27
-25.57
-30.52
-35.32
-38.93
-40.38
-39.02
-34.87
-28.56
-21.10
-13.58
-6.74
-0.88
4.06
8.28
11.87
14.70
16.56
17.29
17.04
16.17
15.24
14.67
14.68
15.22
16.06
17.01
17.99
19.04
20.20
21.41
22.52
23.25
23.43
22.99
22.06
20.83
19.48
18.16
16.80
15.30
13.45
11.07
8.16
4.84
1.35
-1.95
-4.82
-7.15
-9.09
-11.03
-13.46
-16.81
-21.19
-26.26
-31.26
-35.17
-37.08
-36.46
-33.26
-27.92
-21.18
-13.84
-6.65
-0.19
5.14
9.10
11.67
12.99
13.31
12.93
12.07
10.90
9.59
8.33
7.37
6.92
7.06
7.67
8.51
9.32
9.89
10.20
10.32
10.34
10.27
10.00
9.35
8.18
6.51
4.56
2.66
1.13
0.02
-0.85
-1.85
-3.35
-5.44
-7.95
-10.47
-12.56
-13.98
-14.83
-15.43
-16.32
-18.07
-21.08
-25.40
-30.68
-36.06
-40.36
-42.36
-41.12
-36.26
-28.03
-17.30
-5.29
6.64
17.24
25.64
31.47
34.85
36.29
36.42
35.72
34.48
32.78
30.71
28.43
26.18
24.14
22.30
20.47
18.44
16.21
14.05
12.44
11.78
12.25
13.58
15.27
16.69
17.37
17.15
16.14
14.64
13.01
11.52
10.29
9.23
8.10
6.62
4.59
1.97
-1.03
-4.08
-6.84
-9.06
-10.68
-11.82
-12.78
-13.97
-15.87
-18.88
-23.12
-28.29
-33.60
-37.99
-40.36
-40.02
-36.85
-31.33
-24.31
-16.74
-9.42
-2.85
2.75
7.36
11.08
14.08
16.47
18.26
19.35
19.58
18.88
17.35
15.34
13.36
11.88
11.17
11.29
12.07
13.27
14.69
16.17
17.57
18.69
19.29
19.13
18.12
16.36
14.16
11.86
9.78
8.09
6.76
5.64
4.53
3.28
1.85
0.32
-1.20
-2.59
-3.78
-4.75
-5.53
-6.26
-7.17
-8.58
-10.86
-14.22
-18.45
-22.95
-26.76
-28.88
-28.59
-25.67
-20.48
-13.76
-6.42
0.71
6.98
12.00
15.61
17.81
18.72
18.55
17.57
16.05
14.30
12.62
11.27
10.48
10.36
10.87
11.76
12.64
13.10
12.89
12.01
10.74
9.51
8.66
8.29
8.21
8.07
7.53
6.43
4.87
3.09
1.36
-0.14
-1.37
-2.41
-3.39
-4.46
-5.69
-7.08
-8.61
-10.21
-11.85
-13.49
-15.13
-16.78
-18.51
-20.53
-23.08
-26.38
-30.37
-34.57
-38.16
-40.13
-39.70
-36.58
-31.08
-23.99
-16.29
-8.86
-2.35
2.96
7.03
9.97
11.96
13.20
13.82
13.93
13.59
12.90
12.01
11.12
10.46
10.21
10.44
11.08
11.94
12.82
13.56
14.09
14.45
14.65
14.71
14.55
14.06
13.21
12.02
10.64
9.24
7.92
6.72
5.61
4.48
3.25
1.88
0.41
-1.13
-2.68
-4.23
-5.81
-7.50
-9.34
-11.31
-13.31
-15.27
-17.29
-19.67
-22.82
-26.98
-31.95
-36.93
-40.76
-42.30
-40.87
-36.51
-29.91
-22.14
-14.23
-6.99
-0.83
4.17
8.13
11.26
13.74
15.65
16.96
17.57
17.49
16.83
15.87
14.94
14.32
14.13
14.40
15.08
16.11
17.41
18.81
20.06
20.89
21.10
20.67
19.74
18.52
17.19
15.83
14.38
12.74
10.86
8.78
6.64
4.63
2.88
1.37
-0.03
-1.55
-3.34
-5.40
-7.60
-9.69
-11.45
-12.79
-13.78
-14.63
-15.67
-17.32
-19.95
-23.76
-28.65
-34.07
-39.09
-42.57
-43.52
-41.45
-36.54
-29.54
-21.51
-13.48
-6.17
0.06
5.15
9.16
12.16
14.19
15.31
15.66
15.49
15.14
14.94
15.11
15.73
16.73
17.90
19.05
20.03
20.81
21.48
22.13
22.79
23.36
23.62
23.34
22.39
20.81
18.80
16.68
14.68
12.92
11.37
9.88
8.26
6.36
4.06
1.34
-1.74
-5.05
-8.38
-11.49
-14.21
-16.46
-18.41
-20.44
-23.05
-26.65
-31.31
-36.58
-41.51
-44.94
-45.90
-43.90
-39.16
-32.42
-24.66
-16.81
-9.54
-3.24
1.91
5.86
8.62
10.29
11.04
11.09
10.68
10.04
9.35
8.77
8.39
8.30
8.48
8.90
9.53
10.35
11.35
12.49
13.66
14.68
15.36
15.55
15.23
14.51
13.54
12.42
11.16
9.64
7.76
5.53
3.09
0.68
-1.52
-3.43
-5.15
-6.85
-8.69
-10.73
-12.91
-15.08
-17.09
-18.84
-20.33
-21.81
-23.70
-26.43
-30.27
-34.97
-39.73
-43.39
-44.78
-43.18
-38.61
-31.74
-23.62
-15.35
-7.76
-1.31
3.87
7.86
10.82
12.92
14.33
15.19
15.55
15.50
15.11
14.55
14.01
13.69
13.73
14.13
14.85
15.76
16.74
17.74
18.65
19.41
19.91
20.07
19.84
19.28
18.50
17.57
16.54
15.32
13.80
11.94
9.83
7.68
5.73
4.10
2.77
1.60
0.37
-1.07
-2.84
-4.94
-7.30
-9.76
-12.12
-14.23
-16.05
-17.84
-20.08
-23.30
-27.76
-33.14
-38.50
-42.55
-44.05
-42.34
-37.49
-30.29
-21.86
-13.31
-5.45
1.26
6.65
10.75
13.66
15.53
16.57
16.94
16.83
16.35
15.65
14.92
14.38
14.27
14.73
15.69
16.92
18.12
19.04
19.62
19.96
20.19
20.38
20.43
20.11
19.23
17.78
15.94
13.98
12.18
10.68
9.47
8.42
7.37
6.12
4.50
2.43
-0.06
-2.76
-5.33
-7.36
-8.62
-9.17
-9.40
-9.96
-11.51
-14.49
-18.87
-24.17
-29.42
-33.55
-35.58
-34.92
-31.53
-25.81
-18.51
-10.46
-2.42
5.01
11.42
16.55
20.29
22.65
23.77
23.86
23.24
22.19
21.04
20.05
19.40
19.21
19.49
20.15
21.04
22.00
22.89
23.59
24.05
24.23
24.09
23.58
22.59
21.06
18.97
16.44
13.63
10.83
8.23
5.94
3.90
1.89
-0.29
-2.79
-5.58
-8.51
-11.40
-14.10
-16.60
-18.93
-21.15
-23.32
-25.56
-28.09
-31.24
-35.31
-40.29
-45.64
-50.34
-53.14
-53.02
-49.59
-43.18
-34.79
-25.61
-16.69
-8.69
-1.92
3.63
8.05
11.48
14.01
15.74
16.74
17.06
16.81
16.17
15.44
14.94
14.97
15.60
16.72
18.07
19.34
20.41
21.28
22.03
22.71
23.21
23.31
22.76
21.45
19.44
16.97
14.37
11.90
9.71
7.79
6.02
4.22
2.21
-0.09
-2.68
-5.47
-8.31
-11.07
-13.66
-15.99
-18.00
-19.69
-21.26
-23.14
-25.87
-29.85
-35.01
-40.64
-45.45
-48.04
-47.38
-43.19
-36.04
-27.03
-17.42
-8.22
-0.08
6.75
12.20
16.32
19.19
20.89
21.59
21.50
20.87
19.97
19.06
18.31
17.79
17.50
17.43
17.58
17.97
18.63
19.51
20.47
21.29
21.78
21.84
21.43
20.55
19.24
17.47
15.29
12.88
10.48
8.37
6.67
5.29
3.87
2.00
-0.59
-3.87
-7.53
-11.05
-14.01
-16.16
-17.59
-18.63
-19.81
-21.74
-24.91
-29.53
-35.35
-41.55
-46.91
-50.13
-50.24
-46.91
-40.55
-32.14
-22.86
-13.78
-5.65
1.18
6.62
10.84
14.00
16.30
17.82
18.54
18.50
17.82
16.76
15.74
15.16
15.28
16.11
17.40
18.84
20.13
21.16
21.96
22.60
23.08
23.26
22.92
21.92
20.32
18.41
16.54
14.89
13.34
11.53
9.10
5.95
2.35
-1.11
-3.84
-5.54
-6.30
-6.61
-7.18
-8.70
-11.66
-16.23
-22.15
-28.65
-34.54
-38.42
-39.11
-35.96
-29.22
-19.87
-9.33
0.95
9.95
17.16
22.58
26.45
29.00
30.39
30.69
30.06
28.78
27.25
25.86
24.84
24.17
23.65
23.04
22.23
21.35
20.62
20.22
20.17
20.22
20.01
19.19
17.53
15.06
12.01
8.72
5.51
2.63
0.10
-2.23
-4.62
-7.35
-10.50
-13.99
-17.58
-20.95
-23.91
-26.39
-28.51
-30.54
-32.90
-35.98
-40.06
-45.02
-50.27
-54.76
-57.26
-56.76
-52.86
-45.88
-36.70
-26.41
-15.98
-6.04
3.10
11.28
18.38
24.21
28.63
31.54
33.03
33.30
32.66
31.48
30.11
28.90
28.03
27.59
27.46
27.39
27.12
26.51
25.53
24.31
23.05
21.83
20.64
19.31
17.66
15.60
13.26
10.92
8.93
7.52
6.63
5.95
4.99
3.32
0.74
-2.57
-6.20
-9.69
-12.72
-15.26
-17.52
-19.82
-22.48
-25.82
-30.00
-35.02
-40.55
-45.84
-49.86
-51.51
-50.04
-45.28
-37.79
-28.58
-18.81
-9.40
-0.90
6.48
12.76
17.97
22.10
25.08
26.85
27.40
26.86
25.53
23.86
22.38
21.57
21.70
22.69
24.22
25.78
26.94
27.45
27.30
26.61
25.52
24.11
22.42
20.51
18.47
16.43
14.49
12.65
10.85
9.01
7.15
5.40
3.90
2.65
1.47
0.03
-1.87
-4.24
-6.75
-8.93
-10.41
-11.12
-11.39
-11.82
-13.06
-15.57
-19.44
-24.36
-29.68
-34.49
-37.81
-38.77
-36.83
-31.95
-24.70
-16.10
-7.33
0.61
7.19
12.37
16.39
19.51
21.80
23.14
23.35
22.42
20.65
18.61
16.91
16.01
16.05
16.85
18.05
19.29
20.30
21.03
21.54
21.98
22.47
22.96
23.29
23.18
22.41
20.88
18.73
16.27
13.87
11.80
10.10
8.56
6.86
4.70
1.95
-1.31
-4.84
-8.36
-11.68
-14.75
-17.61
-20.30
-22.93
-25.61
-28.55
-32.04
-36.29
-41.22
-46.35
-50.77
-53.37
-53.17
-49.73
-43.23
-34.47
-24.58
-14.72
-5.76
1.77
7.77
12.34
15.69
17.96
19.27
19.68
19.38
18.67
17.90
17.41
17.31
17.54
17.92
18.29
18.64
19.08
19.70
20.48
21.21
21.54
21.20
20.06
18.21
15.93
13.55
11.32
9.37
7.71
6.21
4.76
3.29
1.78
0.27
-1.22
-2.68
-4.21
-5.90
-7.88
-10.17
-12.74
-15.45
-18.15
-20.69
-23.01
-25.19
-27.49
-30.23
-33.70
-37.99
-42.79
-47.38
-50.75
-51.87
-50.03
-45.06
-37.45
-28.10
-18.11
-8.48
0.04
7.01
12.24
15.78
17.86
18.80
19.01
18.83
18.49
18.12
17.77
17.48
17.32
17.36
17.64
18.13
18.74
19.36
19.86
20.16
20.20
19.97
19.48
18.81
18.07
17.31
16.53
15.64
14.53
13.10
11.35
9.36
7.35
5.50
3.95
2.73
1.66
0.46
-1.22
-3.63
-6.81
-10.54
-14.40
-17.92
-20.78
-22.92
-24.60
-26.28
-28.52
-31.73
-36.04
-41.09
-46.13
-50.12
-52.03
-51.13
-47.24
-40.72
-32.45
-23.48
-14.84
-7.25
-1.06
3.74
7.36
10.01
11.80
12.66
12.56
11.61
10.18
8.85
8.18
8.47
9.65
11.37
13.18
14.79
16.14
17.32
18.40
19.31
19.89
19.96
19.50
18.67
17.71
16.79
15.96
15.10
14.07
12.79
11.28
9.64
7.92
6.10
4.10
1.84
-0.70
-3.44
-6.21
-8.87
-11.33
-13.58
-15.79
-18.19
-21.12
-24.82
-29.23
-33.92
-38.05
-40.61
-40.72
-37.93
-32.41
-24.84
-16.30
-7.84
-0.31
5.80
10.44
13.79
16.17
17.86
19.01
19.65
19.77
19.38
18.65
17.80
17.13
16.83
16.98
17.50
18.26
19.11
19.89
20.54
20.94
21.06
20.89
20.46
19.81
18.95
17.84
16.37
14.45
12.09
9.43
6.75
4.31
2.22
0.40
-1.41
-3.46
-5.90
-8.70
-11.66
-14.57
-17.28
-19.74
-22.05
-24.36
-26.90
-29.92
-33.66
-38.11
-42.99
-47.53
-50.70
-51.46
-49.18
-43.86
-36.21
-27.30
-18.27
-9.94
-2.73
3.26
8.13
11.93
14.73
16.58
17.59
17.93
17.76
17.26
16.56
15.82
15.21
14.89
14.97
15.38
15.95
16.48
16.82
16.97
17.01
17.04
17.08
17.04
16.72
15.92
14.56
12.68
10.46
8.19
6.12
4.40
3.01
1.78
0.46
-1.21
-3.36
-5.98
-8.95
-12.06
-15.12
-17.95
-20.40
-22.43
-24.14
-25.88
-28.11
-31.26
-35.42
-40.09
-44.25
-46.63
-46.18
-42.49
-35.93
-27.48
-18.31
-9.48
-1.61
5.00
10.33
14.43
17.34
19.14
19.89
19.78
19.01
17.87
16.66
15.70
15.21
15.28
15.85
16.78
17.86
18.93
19.87
20.58
20.96
20.93
20.46
19.55
18.26
16.73
15.07
13.40
11.81
10.33
8.91
7.42
5.69
3.62
1.26
-1.19
-3.42
-5.16
-6.28
-6.86
-7.23
-7.82
-9.13
-11.56
-15.29
-20.14
-25.49
-30.39
-33.77
-34.77
-33.02
-28.68
-22.44
-15.19
-7.79
-0.81
5.44
10.85
15.36
18.86
21.19
22.22
22.06
21.01
19.62
18.40
17.75
17.76
18.27
19.02
19.78
20.49
21.17
21.91
22.70
23.40
23.79
23.64
22.81
21.32
19.31
17.06
14.78
12.62
10.61
8.64
6.61
4.39
1.94
-0.72
-3.54
-6.39
-9.09
-11.51
-13.61
-15.59
-17.86
-20.93
-25.13
-30.36
-35.94
-40.73
-43.51
-43.38
-40.11
-34.17
-26.53
-18.29
-10.35
-3.24
2.85
7.92
12.00
15.04
16.97
17.83
17.79
17.14
16.28
15.50
14.98
14.74
14.74
14.94
15.31
15.84
16.52
17.24
17.85
18.19
18.12
17.59
16.59
15.16
13.37
11.39
9.42
7.67
6.23
5.01
3.80
2.28
0.26
-2.26
-5.10
-7.92
-10.41
-12.39
-13.89
-15.13
-16.42
-18.16
-20.70
-24.22
-28.59
-33.26
-37.30
-39.65
-39.48
-36.45
-30.89
-23.54
-15.39
-7.23
0.38
7.14
12.91
17.54
20.93
23.02
23.94
23.96
23.42
22.59
21.64
20.62
19.57
18.59
17.85
17.55
17.75
18.40
19.22
19.90
20.22
20.10
19.65
19.03
18.32
17.47
16.35
14.82
12.88
10.67
8.41
6.34
4.59
3.13
1.89
0.71
-0.51
-1.84
-3.32
-4.97
-6.77
-8.70
-10.72
-12.72
-14.66
-16.51
-18.41
-20.59
-23.35
-26.89
-31.05
-35.26
-38.61
-40.09
-39.02
-35.26
-29.35
-22.22
-14.91
-8.22
-2.48
2.28
6.22
9.45
11.96
13.67
14.58
14.76
14.41
13.79
13.16
12.70
12.58
12.90
13.63
14.68
15.88
17.00
17.85
18.40
18.64
18.64
18.42
17.91
17.05
15.78
14.20
12.44
10.67
8.99
7.42
5.92
4.42
2.87
1.23
-0.54
-2.46
-4.45
-6.44
-8.29
-9.92
-11.37
-12.81
-14.43
-16.39
-18.75
-21.47
-24.46
-27.53
-30.39
-32.58
-33.57
-32.82
-30.00
-25.22
-18.93
-11.90
-4.91
1.43
6.81
11.16
14.50
16.84
18.19
18.52
17.92
16.63
15.04
13.58
12.63
12.37
12.76
13.57
14.49
15.25
15.73
15.96
16.02
15.96
15.73
15.19
14.24
12.84
11.12
9.30
7.57
6.03
4.63
3.28
1.86
0.35
-1.20
-2.72
-4.16
-5.52
-6.84
-8.21
-9.65
-11.14
-12.62
-14.02
-15.33
-16.66
-18.14
-19.97
-22.24
-24.94
-27.96
-31.08
-33.96
-36.18
-37.29
-36.87
-34.66
-30.67
-25.22
-18.88
-12.29
-6.00
-0.35
4.55
8.69
12.05
14.52
16.00
16.44
15.95
14.87
13.60
12.55
11.93
11.77
11.93
12.23
12.56
12.90
13.28
13.69
14.09
14.33
14.24
13.77
12.96
11.95
10.92
10.01
9.24
8.52
7.71
6.65
5.29
3.70
2.06
0.57
-0.63
-1.60
-2.51
-3.64
-5.18
-7.17
-9.44
-11.70
-13.70
-15.32
-16.61
-17.77
-19.09
-20.84
-23.17
-26.10
-29.47
-32.88
-35.77
-37.51
-37.51
-35.45
-31.39
-25.74
-19.14
-12.27
-5.73
0.13
5.09
9.09
12.15
14.27
15.50
15.92
15.65
14.86
13.80
12.75
11.93
11.46
11.30
11.32
11.40
11.51
11.75
12.21
12.91
13.69
14.31
14.55
14.34
13.77
12.98
12.05
10.96
9.62
8.02
6.28
4.59
3.16
2.03
1.06
0.04
-1.19
-2.69
-4.36
-6.05
-7.67
-9.20
-10.69
-12.25
-13.94
-15.84
-18.01
-20.52
-23.38
-26.47
-29.44
-31.83
-33.05
-32.62
-30.29
-26.11
-20.46
-13.91
-7.13
-0.66
5.08
9.85
13.57
16.18
17.69
18.15
17.69
16.59
15.21
13.92
13.00
12.56
12.54
12.75
13.04
13.33
13.62
13.96
14.37
14.77
15.03
14.96
14.45
13.44
12.03
10.35
8.60
6.93
5.43
4.06
2.75
1.42
-0.02
-1.61
-3.35
-5.23
-7.19
-9.17
-11.03
-12.69
-14.08
-15.28
-16.46
-17.89
-19.81
-22.41
-25.71
-29.56
-33.58
-37.22
-39.82
-40.71
-39.44
-35.90
-30.40
-23.60
-16.34
-9.34
-3.05
2.34
6.91
10.75
13.87
16.18
17.49
17.73
17.02
15.73
14.33
13.26
12.77
12.86
13.36
14.05
14.79
15.55
16.39
17.25
18.04
18.51
18.49
17.86
16.66
15.03
13.14
11.18
9.28
7.50
5.82
4.18
2.53
0.79
-1.01
-2.83
-4.58
-6.20
-7.71
-9.14
-10.62
-12.19
-13.94
-15.90
-18.20
-20.97
-24.26
-27.98
-31.75
-35.01
-37.09
-37.43
-35.72
-31.95
-26.43
-19.66
-12.26
-4.88
1.91
7.67
12.18
15.43
17.60
18.91
19.59
19.74
19.42
18.71
17.81
16.94
16.33
16.11
16.27
16.68
17.21
17.82
18.47
19.15
19.77
20.15
20.08
19.44
18.23
16.60
14.77
12.92
11.20
9.62
8.12
6.62
5.01
3.17
1.05
-1.27
-3.65
-5.89
-7.83
-9.49
-11.06
-12.78
-14.88
-17.46
-20.49
-23.82
-27.24
-30.45
-33.03
-34.41
-34.08
-31.71
-27.32
-21.35
-14.54
-7.64
-1.27
4.23
8.72
12.13
14.45
15.62
15.69
14.87
13.49
11.97
10.67
9.79
9.38
9.40
9.78
10.50
11.52
12.74
13.98
15.03
15.67
15.82
15.52
14.87
13.98
12.88
11.57
10.06
8.37
6.56
4.66
2.68
0.58
-1.66
-3.98
-6.30
-8.49
-10.50
-12.43
-14.52
-17.02
-20.14
-23.81
-27.68
-31.12
-33.43
-33.94
-32.32
-28.56
-23.06
-16.44
-9.39
-2.57
3.63
8.96
13.34
16.75
19.16
20.53
20.89
20.37
19.29
18.06
17.06
16.56
16.57
16.93
17.39
17.78
18.03
18.22
18.44
18.70
18.87
18.72
18.04
16.76
14.98
12.99
11.06
9.37
7.92
6.50
4.87
2.82
0.30
-2.55
-5.50
-8.23
-10.56
-12.44
-14.02
-15.61
-17.56
-20.17
-23.57
-27.60
-31.78
-35.46
-37.90
-38.47
-36.83
-33.00
-27.33
-20.42
-12.95
-5.54
1.34
7.35
12.31
16.15
18.84
20.49
21.23
21.27
20.83
20.14
19.45
18.96
18.80
19.00
19.49
20.14
20.82
21.44
21.95
22.35
22.57
22.52
22.07
21.13
19.70
17.90
15.92
13.94
12.07
10.31
8.51
6.56
4.35
1.95
-0.51
-2.83
-4.88
-6.63
-8.17
-9.63
-11.11
-12.70
-14.44
-16.41
-18.73
-21.57
-24.96
-28.71
-32.37
-35.22
-36.50
-35.66
-32.49
-27.25
-20.58
-13.28
-6.09
0.46
6.10
10.77
14.50
17.35
19.31
20.40
20.63
20.16
19.20
18.08
17.12
16.61
16.66
17.27
18.27
19.41
20.46
21.21
21.56
21.49
21.01
20.18
19.07
17.77
16.40
15.02
13.68
12.37
11.01
9.54
7.94
6.21
4.42
2.61
0.82
-0.94
-2.67
-4.35
-5.93
-7.35
-8.64
-9.87
-11.24
-12.95
-15.19
-17.99
-21.28
-24.84
-28.40
-31.60
-33.99
-35.10
-34.49
-31.92
-27.46
-21.57
-14.93
-8.28
-2.17
3.12
7.51
10.97
13.42
14.70
14.73
13.71
12.10
10.52
9.54
9.41
10.11
11.30
12.67
13.97
15.14
16.18
17.07
17.73
18.00
17.81
17.12
16.05
14.71
13.18
11.54
9.84
8.14
6.51
4.95
3.40
1.73
-0.17
-2.26
-4.39
-6.35
-7.99
-9.34
-10.61
-12.11
-14.11
-16.74
-20.01
-23.69
-27.40
-30.63
-32.75
-33.18
-31.56
-27.89
-22.55
-16.15
-9.47
-3.15
2.38
6.89
10.33
12.72
14.14
14.66
14.43
13.68
12.67
11.67
10.88
10.38
10.18
10.22
10.48
10.96
11.68
12.59
13.55
14.36
14.80
14.69
13.98
12.73
11.08
9.22
7.37
5.70
4.27
3.03
1.77
0.28
-1.60
-3.83
-6.26
-8.65
-10.83
-12.73
-14.42
-16.05
-17.77
-19.76
-22.18
-25.11
-28.51
-32.12
-35.40
-37.68
-38.27
-36.71
-32.93
-27.27
-20.33
-12.86
-5.57
1.06
6.72
11.32
14.86
17.37
18.88
19.46
19.21
18.34
17.18
16.07
15.33
15.12
15.45
16.16
17.03
17.87
18.55
19.01
19.21
19.12
18.71
17.97
16.90
15.58
14.08
12.53
11.06
9.75
8.61
7.57
6.51
5.31
3.89
2.28
0.58
-1.12
-2.72
-4.19
-5.56
-6.93
-8.40
-10.14
-12.28
-14.88
-17.87
-21.00
-23.87
-25.96
-26.81
-26.05
-23.58
-19.51
-14.24
-8.27
-2.23
3.37
8.15
11.90
14.60
16.26
16.93
16.70
15.69
14.16
12.49
11.04
10.10
9.74
9.85
10.23
10.67
11.11
11.56
12.03
12.48
12.74
12.64
12.05
11.04
9.77
8.46
7.22
6.05
4.87
3.57
2.13
0.62
-0.87
-2.28
-3.58
-4.77
-5.89
-6.96
-8.03
-9.21
-10.64
-12.48
-14.80
-17.56
-20.55
-23.39
-25.61
-26.67
-26.11
-23.70
-19.51
-14.00
-7.87
-1.84
3.54
8.01
11.54
14.21
16.05
17.06
17.20
16.52
15.22
13.63
12.08
10.81
9.94
9.46
9.27
9.27
9.36
9.49
9.65
9.86
10.07
10.20
10.11
9.63
8.68
7.28
5.57
3.74
2.01
0.49
-0.74
-1.75
-2.64
-3.51
-4.50
-5.67
-7.04
-8.55
-10.10
-11.58
-12.93
-14.16
-15.34
-16.64
-18.21
-20.18
-22.52
-24.97
-27.05
-28.15
-27.67
-25.33
-21.18
-15.71
-9.65
-3.76
1.39
5.51
8.63
10.92
12.58
13.72
14.35
14.42
13.95
13.06
11.96
10.91
10.12
9.68
9.53
9.54
9.54
9.49
9.44
9.46
9.66
9.98
10.25
10.23
9.75
8.74
7.37
5.88
4.59
3.64
3.01
2.55
2.05
1.40
0.57
-0.35
-1.28
-2.20
-3.19
-4.33
-5.67
-7.15
-8.62
-9.94
-11.09
-12.16
-13.41
-15.07
-17.19
-19.54
-21.62
-22.79
-22.50
-20.54
-17.08
-12.66
-7.96
-3.58
0.12
3.01
5.15
6.61
7.42
7.59
7.19
6.39
5.42
4.47
3.68
3.01
2.41
1.87
1.47
1.38
1.71
2.41
3.27
3.98
4.30
4.15
3.64
2.99
2.36
1.85
1.37
0.83
0.15
-0.66
-1.56
-2.45
-3.32
-4.18
-5.02
-5.86
-6.68
-7.47
-8.28
-9.21
-10.39
-11.89
-13.63
-15.37
-16.65
-17.00
-16.04
-13.68
-10.16
-5.95
-1.62
2.39
5.83
8.64
10.87
12.52
13.55
13.90
13.54
12.57
11.18
9.63
8.15
6.92
6.06
5.57
5.42
5.53
5.76
5.99
6.10
6.03
5.80
5.42
4.95
4.40
3.78
3.10
2.42
1.75
1.07
0.30
-0.74
-2.18
-4.04
-6.20
-8.36
-10.23
-11.62
-12.55
-13.25
-14.01
-15.11
-16.65
-18.56
-20.51
-22.13
-22.95
-22.65
-21.05
-18.24
-14.55
-10.44
-6.38
-2.72
0.36
2.86
4.79
6.19
7.05
7.34
7.12
6.52
5.74
4.99
4.39
3.98
3.69
3.45
3.23
3.06
3.04
3.24
3.65
4.13
4.48
4.49
4.07
3.27
2.25
1.17
0.16
-0.76
-1.63
-2.51
-3.42
-4.32
-5.21
-6.12
-7.07
-8.13
-9.31
-10.56
-11.76
-12.89
-13.97
-15.17
-16.62
-18.41
-20.43
-22.37
-23.80
-24.30
-23.57
-21.54
-18.41
-14.52
-10.29
-6.03
-1.97
1.78
5.12
7.92
10.01
11.25
11.58
11.12
10.12
8.90
7.79
6.95
6.44
6.19
6.12
6.18
6.37
6.66
7.05
7.45
7.77
7.91
7.82
7.52
7.06
6.49
5.80
5.00
4.04
2.93
1.67
0.25
-1.29
-2.90
-4.45
-5.84
-6.98
-7.87
-8.63
-9.38
-10.24
-11.25
-12.41
-13.70
-15.10
-16.55
-17.80
-18.49
-18.20
-16.63
-13.83
-10.16
-6.19
-2.39
0.97
3.88
6.46
8.77
10.68
11.93
12.31
11.76
10.50
8.97
7.65
6.93
6.99
7.72
8.86
10.07
11.01
11.54
11.60
11.28
10.71
10.01
9.28
8.57
7.95
7.49
7.25
7.26
7.48
7.81
8.08
8.17
8.00
7.62
7.14
6.66
6.24
5.82
5.32
4.70
3.95
3.07
2.04
0.79
-0.76
-2.63
-4.66
-6.66
-8.41
-9.79
-10.88
-11.88
-13.07
-14.68
-16.86
-19.56
-22.55
-25.38
-27.45
-28.17
-27.14
-24.30
-19.97
-14.75
-9.32
-4.26
0.07
3.55
6.26
8.30
9.82
10.85
11.37
11.32
10.71
9.67
8.49
7.48
6.87
6.74
6.95
7.28
7.56
7.79
8.04
8.45
9.00
9.53
9.79
9.57
8.79
7.57
6.15
4.77
3.57
2.58
1.69
0.74
-0.41
-1.79
-3.33
-4.90
-6.34
-7.55
-8.52
-9.36
-10.26
-11.45
-13.12
-15.35
-18.07
-21.00
-23.73
-25.73
-26.57
-25.93
-23.72
-20.04
-15.20
-9.60
-3.80
1.71
6.48
10.19
12.77
14.29
14.96
14.99
14.63
14.05
13.39
12.80
12.36
12.12
12.06
12.13
12.26
12.44
12.64
12.86
13.01
12.97
12.64
11.94
10.88
9.51
7.97
6.40
4.91
3.53
2.23
0.97
-0.30
-1.56
-2.75
-3.86
-4.91
-5.98
-7.12
-8.38
-9.75
-11.24
-12.90
-14.77
-16.79
-18.71
-20.07
-20.34
-19.14
-16.41
-12.49
-7.95
-3.41
0.74
4.28
7.22
9.55
11.24
12.19
12.35
11.80
10.78
9.61
8.61
7.99
7.84
8.12
8.72
9.52
10.35
11.05
11.49
11.56
11.25
10.63
9.85
9.08
8.39
7.74
7.02
6.11
4.94
3.55
2.01
0.42
-1.17
-2.71
-4.22
-5.71
-7.25
-8.93
-10.92
-13.34
-16.22
-19.36
-22.31
-24.45
-25.18
-24.14
-21.36
-17.24
-12.36
-7.34
-2.63
1.51
4.99
7.79
9.88
11.25
11.91
11.94
11.47
10.67
9.71
8.73
7.85
7.17
6.80
6.77
7.04
7.51
8.05
8.47
8.66
8.54
8.10
7.33
6.30
5.04
3.63
2.14
0.61
-0.93
-2.49
-4.08
-5.72
-7.38
-9.03
-10.62
-12.14
-13.58
-15.01
-16.52
-18.21
-20.20
-22.49
-24.96
-27.28
-28.97
-29.48
-28.42
-25.69
-21.49
-16.36
-10.86
-5.50
-0.57
3.83
7.67
10.95
13.58
15.44
16.45
16.59
16.03
15.02
13.90
12.96
12.38
12.17
12.26
12.52
12.89
13.38
14.01
14.72
15.34
15.64
15.40
14.53
13.17
11.59
10.11
8.94
8.10
7.44
6.69
5.62
4.13
2.31
0.33
-1.60
-3.33
-4.80
-6.07
-7.29
-8.64
-10.33
-12.55
-15.33
-18.55
-21.87
-24.73
-26.54
-26.77
-25.21
-21.90
-17.23
-11.72
-5.94
-0.36
4.64
8.85
12.17
14.57
16.07
16.67
16.45
15.53
14.15
12.66
11.42
10.74
10.74
11.34
12.25
13.20
13.99
14.58
15.01
15.37
15.61
15.59
15.15
14.19
12.81
11.24
9.76
8.54
7.56
6.62
5.47
3.97
2.13
0.17
-1.61
-3.03
-4.03
-4.75
-5.47
-6.49
-8.04
-10.17
-12.77
-15.50
-17.89
-19.41
-19.57
-18.11
-15.03
-10.59
-5.30
0.30
5.72
10.60
14.76
18.10
20.54
22.01
22.51
22.09
20.98
19.50
18.05
16.92
16.29
16.13
16.30
16.62
16.94
17.16
17.30
17.36
17.32
17.13
16.69
15.89
14.66
13.02
11.11
9.11
7.25
5.64
4.30
3.09
1.82
0.35
-1.35
-3.19
-4.99
-6.59
-7.89
-8.95
-9.88
-10.85
-12.03
-13.54
-15.47
-17.83
-20.52
-23.30
-25.72
-27.27
-27.50
-26.13
-23.20
-18.99
-13.98
-8.70
-3.57
1.14
5.27
8.75
11.53
13.53
14.66
14.93
14.43
13.42
12.24
11.25
10.69
10.60
10.85
11.21
11.47
11.56
11.58
11.66
11.90
12.27
12.57
12.57
12.13
11.25
10.07
8.77
7.46
6.18
4.90
3.64
2.50
1.57
0.94
0.53
0.16
-0.38
-1.22
-2.37
-3.74
-5.18
-6.54
-7.75
-8.78
-9.72
-10.68
-11.88
-13.50
-15.65
-18.30
-21.17
-23.84
-25.78
-26.50
-25.67
-23.19
-19.28
-14.42
-9.20
-4.20
0.17
3.74
6.57
8.78
10.51
11.77
12.51
12.68
12.35
11.70
10.99
10.43
10.13
10.05
10.05
10.02
9.92
9.77
9.64
9.55
9.44
9.22
8.81
8.19
7.43
6.64
5.90
5.21
4.57
3.94
3.32
2.71
2.07
1.37
0.54
-0.43
-1.49
-2.54
-3.51
-4.37
-5.15
-5.94
-6.80
-7.71
-8.58
-9.36
-10.06
-10.82
-11.82
-13.19
-14.82
-16.38
-17.38
-17.34
-16.00
-13.42
-9.89
-5.87
-1.79
2.06
5.48
8.37
10.59
12.00
12.53
12.25
11.38
10.30
9.36
8.83
8.76
9.07
9.55
9.99
10.29
10.42
10.41
10.34
10.24
10.13
10.02
9.91
9.73
9.43
8.93
8.18
7.24
6.18
5.11
4.07
3.00
1.84
0.55
-0.84
-2.17
-3.34
-4.34
-5.23
-6.15
-7.18
-8.33
-9.50
-10.59
-11.61
-12.65
-13.89
-15.44
-17.35
-19.48
-21.60
-23.40
-24.50
-24.60
-23.43
-20.97
-17.35
-12.95
-8.29
-3.84
-0.01
3.02
5.24
6.74
7.65
8.08
8.10
7.79
7.29
6.80
6.47
6.40
6.56
6.83
7.09
7.24
7.29
7.35
7.48
7.71
7.97
8.11
7.93
7.36
6.40
5.17
3.85
2.61
1.55
0.66
-0.12
-0.85
-1.59
-2.35
-3.11
-3.91
-4.75
-5.69
-6.75
-7.91
-9.10
-10.20
-11.11
-11.80
-12.30
-12.77
-13.43
-14.50
-16.12
-18.27
-20.72
-23.07
-24.77
-25.31
-24.37
-21.89
-18.15
-13.60
-8.79
-4.15
0.02
3.55
6.38
8.48
9.85
10.51
10.56
10.16
9.48
8.70
7.94
7.29
6.83
6.60
6.62
6.86
7.29
7.85
8.45
9.00
9.41
9.59
9.49
9.12
8.49
7.67
6.69
5.56
4.30
2.96
1.64
0.44
-0.53
-1.30
-1.95
-2.66
-3.57
-4.75
-6.12
-7.52
-8.81
-9.94
-10.99
-12.09
-13.34
-14.77
-16.32
-17.89
-19.46
-21.03
-22.55
-23.92
-24.85
-24.98
-24.04
-21.90
-18.67
-14.69
-10.33
-6.01
-2.04
1.34
4.00
5.89
7.05
7.58
7.62
7.27
6.67
5.92
5.15
4.51
4.13
4.07
4.32
4.77
5.31
5.86
6.38
6.84
7.17
7.31
7.18
6.77
6.13
5.37
4.60
3.84
3.07
2.16
0.99
-0.54
-2.40
-4.42
-6.33
-7.85
-8.89
-9.57
-10.18
-11.09
-12.59
-14.75
-17.46
-20.49
-23.46
-26.00
-27.64
-27.96
-26.62
-23.60
-19.20
-14.01
-8.79
-4.09
-0.23
2.80
5.24
7.27
9.01
10.37
11.17
11.30
10.78
9.85
8.89
8.26
8.22
8.80
9.78
10.84
11.68
12.18
12.33
12.29
12.16
11.92
11.45
10.57
9.27
7.67
6.04
4.62
3.46
2.37
1.05
-0.78
-3.15
-5.81
-8.41
-10.63
-12.33
-13.62
-14.74
-16.01
-17.67
-19.86
-22.64
-25.91
-29.45
-32.82
-35.43
-36.68
-36.13
-33.62
-29.38
-23.91
-17.79
-11.55
-5.56
-0.07
4.75
8.71
11.64
13.42
14.08
13.85
13.12
12.35
11.87
11.88
12.36
13.15
14.06
14.93
15.68
16.29
16.81
17.24
17.54
17.66
17.49
16.98
16.08
14.81
13.25
11.54
9.84
8.29
6.91
5.64
4.34
2.85
1.07
-0.97
-3.16
-5.34
-7.39
-9.35
-11.33
-13.56
-16.21
-19.39
-23.09
-27.12
-31.14
-34.68
-37.19
-38.13
-37.14
-34.12
-29.26
-23.02
-15.98
-8.70
-1.65
4.80
10.35
14.74
17.78
19.43
19.83
19.33
18.40
17.45
16.77
16.51
16.64
17.10
17.81
18.74
19.84
21.03
22.15
22.98
23.30
22.97
22.06
20.72
19.22
17.76
16.42
15.13
13.73
12.07
10.13
8.03
5.94
4.00
2.26
0.68
-0.86
-2.43
-4.06
-5.77
-7.63
-9.80
-12.47
-15.71
-19.37
-22.94
-25.66
-26.77
-25.76
-22.54
-17.49
-11.22
-4.43
2.35
8.72
14.43
19.23
22.87
25.14
25.95
25.50
24.19
22.59
21.20
20.35
20.10
20.32
20.75
21.21
21.62
22.01
22.47
23.01
23.55
23.88
23.76
23.00
21.56
19.57
17.26
14.94
12.80
10.88
9.01
6.94
4.47
1.56
-1.61
-4.74
-7.56
-9.94
-11.95
-13.78
-15.63
-17.66
-19.98
-22.67
-25.84
-29.51
-33.52
-37.40
-40.38
-41.67
-40.62
-37.05
-31.23
-23.83
-15.69
-7.55
0.01
6.70
12.38
16.97
20.45
22.81
24.05
24.28
23.72
22.65
21.44
20.40
19.72
19.40
19.33
19.36
19.42
19.55
19.83
20.28
20.78
21.06
20.83
19.88
18.17
15.86
13.22
10.51
7.99
5.80
3.99
2.56
1.37
0.19
-1.24
-3.07
-5.28
-7.65
-9.85
-11.62
-12.93
-14.00
-15.19
-16.89
-19.34
-22.57
-26.43
-30.53
-34.35
-37.21
-38.42
-37.42
-34.00
-28.33
-21.04
-13.00
-5.07
2.13
8.28
13.34
17.39
20.49
22.59
23.63
23.61
22.73
21.36
19.97
18.97
18.61
18.88
19.58
20.48
21.35
22.09
22.66
23.03
23.08
22.70
21.77
20.33
18.53
16.62
14.83
13.28
11.93
10.62
9.22
7.65
5.94
4.21
2.52
0.88
-0.73
-2.37
-4.03
-5.70
-7.36
-9.01
-10.70
-12.51
-14.57
-16.99
-19.82
-23.04
-26.45
-29.72
-32.33
-33.72
-33.40
-31.13
-26.98
-21.33
-14.76
-7.87
-1.15
5.01
10.33
14.54
17.44
18.95
19.17
18.42
17.16
15.85
14.86
14.38
14.42
14.89
15.63
16.48
17.31
18.01
18.54
18.90
19.07
19.00
18.60
17.77
16.48
14.78
12.87
10.95
9.17
7.60
6.21
4.86
3.40
1.73
-0.22
-2.39
-4.68
-6.96
-9.11
-11.07
-12.90
-14.68
-16.61
-18.84
-21.51
-24.60
-28.00
-31.41
-34.47
-36.73
-37.79
-37.36
-35.26
-31.49
-26.24
-19.84
-12.76
-5.55
1.30
7.40
12.50
16.51
19.36
21.02
21.55
21.09
19.97
18.57
17.29
16.40
15.99
16.02
16.39
17.01
17.83
18.73
19.59
20.19
20.34
19.93
19.00
17.69
16.18
14.63
13.08
11.49
9.81
8.00
6.14
4.31
2.66
1.27
0.12
-0.86
-1.88
-3.15
-4.83
-6.99
-9.54
-12.23
-14.78
-16.94
-18.65
-20.07
-21.51
-23.32
-25.74
-28.80
-32.29
-35.77
-38.68
-40.38
-40.36
-38.28
-34.17
-28.34
-21.39
-14.01
-6.80
-0.22
5.52
10.35
14.27
17.26
19.31
20.38
20.53
19.94
18.92
17.84
17.03
16.67
16.75
17.16
17.72
18.28
18.77
19.16
19.45
19.60
19.54
19.17
18.43
17.30
15.84
14.18
12.49
10.89
9.39
7.92
6.32
4.54
2.62
0.75
-0.82
-1.97
-2.76
-3.43
-4.27
-5.48
-7.08
-8.98
-10.94
-12.80
-14.40
-15.74
-16.90
-18.07
-19.53
-21.55
-24.33
-27.82
-31.70
-35.38
-38.12
-39.25
-38.33
-35.29
-30.37
-24.04
-16.96
-9.76
-2.99
2.96
7.85
11.61
14.19
15.64
16.03
15.54
14.44
13.09
11.85
10.97
10.60
10.71
11.23
12.04
13.03
14.12
15.14
15.94
16.35
16.31
15.82
14.96
13.89
12.73
11.57
10.43
9.28
8.06
6.70
5.16
3.44
1.57
-0.38
-2.34
-4.25
-6.08
-7.77
-9.25
-10.51
-11.59
-12.60
-13.75
-15.23
-17.22
-19.82
-23.01
-26.69
-30.59
-34.27
-37.13
-38.51
-37.89
-35.06
-30.25
-24.03
-17.15
-10.28
-3.90
1.74
6.53
10.38
13.21
14.97
15.68
15.54
14.84
13.92
13.07
12.47
12.21
12.31
12.73
13.42
14.31
15.24
16.04
16.53
16.57
16.17
15.45
14.54
13.57
12.55
11.41
10.09
8.53
6.79
4.94
3.10
1.32
-0.37
-1.96
-3.47
-4.89
-6.24
-7.60
-9.05
-10.70
-12.60
-14.78
-17.19
-19.78
-22.42
-24.98
-27.31
-29.30
-30.91
-32.14
-32.93
-33.13
-32.43
-30.47
-27.03
-22.16
-16.24
-9.87
-3.64
2.02
6.94
11.14
14.67
17.50
19.52
20.63
20.77
20.11
18.91
17.51
16.23
15.26
14.68
14.46
14.51
14.74
15.06
15.40
15.65
15.67
15.34
14.62
13.54
12.26
10.99
9.86
8.90
8.03
7.14
6.11
4.89
3.47
1.91
0.26
-1.41
-3.01
-4.51
-5.95
-7.45
-9.21
-11.36
-13.90
-16.66
-19.32
-21.61
-23.40
-24.78
-26.03
-27.53
-29.54
-32.08
-34.89
-37.47
-39.20
-39.54
-38.11
-34.83
-29.86
-23.59
-16.54
-9.29
-2.37
3.79
8.95
13.03
16.03
18.02
19.05
19.19
18.56
17.38
15.98
14.74
13.97
13.80
14.18
14.93
15.81
16.66
17.41
18.06
18.62
19.03
19.23
19.16
18.96
18.92
19.45
20.82
22.95
25.35
27.23
27.80
26.57
23.54
19.05
13.74
8.23
3.07
-1.28
-4.44
-6.10
-6.21
-5.01
-3.16
-1.53
-1.03
-2.28
-5.39
-9.96
-15.12
-19.81
-23.02
-24.03
-22.52
-18.64
-12.87
-5.98
1.24
8.06
13.91
18.46
21.55
23.16
23.41
22.51
20.78
18.62
16.50
14.81
13.82
13.61
14.07
14.94
15.98
17.01
17.94
18.75
19.44
19.94
20.09
19.68
18.51
16.50
13.69
10.23
6.34
2.26
-1.80
-5.61
-9.01
-11.85
-14.10
-15.82
-17.18
-18.36
-19.51
-20.73
-22.06
-23.49
-25.01
-26.57
-28.10
-29.53
-30.87
-32.26
-33.99
-36.26
-39.04
-41.87
-43.93
-44.31
-42.32
-37.82
-31.26
-23.50
-15.50
-8.07
-1.66
3.54
7.55
10.47
12.41
13.54
14.03
14.09
13.93
13.72
13.59
13.63
13.89
14.44
15.29
16.41
17.71
19.05
20.23
21.13
21.65
21.79
21.58
21.11
20.45
19.64
18.65
17.43
15.97
14.32
12.63
11.09
9.83
8.86
8.05
7.16
5.99
4.50
2.80
1.06
-0.55
-1.98
-3.32
-4.70
-6.26
-8.10
-10.34
-13.09
-16.44
-20.29
-24.30
-27.82
-30.12
-30.51
-28.68
-24.75
-19.28
-13.10
-7.04
-1.76
2.42
5.46
7.53
8.84
9.56
9.72
9.33
8.40
7.06
5.55
4.17
3.17
2.67
2.66
3.01
3.61
4.41
5.42
6.66
8.11
9.63
10.93
11.73
11.78
11.05
9.72
8.14
6.74
5.84
5.45
5.29
4.87
3.71
1.57
-1.37
-4.56
-7.34
-9.17
-9.89
-9.72
-9.19
-8.88
-9.26
-10.68
-13.24
-16.79
-20.89
-24.77
-27.50
-28.23
-26.57
-22.76
-17.63
-12.36
-7.98
-5.11
-3.77
-3.51
-3.70
-3.75
-3.28
-2.10
-0.18
2.45
5.76
9.56
13.62
17.55
20.94
23.43
24.85
25.28
24.97
24.28
23.52
22.81
22.10
21.21
19.94
18.26
16.25
14.17
12.20
10.44
8.86
7.34
5.79
4.15
2.42
0.61
-1.29
-3.29
-5.36
-7.45
-9.44
-11.24
-12.85
-14.39
-16.07
-18.13
-20.74
-23.84
-27.16
-30.16
-32.17
-32.59
-31.06
-27.60
-22.58
-16.60
-10.30
-4.24
1.20
5.75
9.29
11.80
13.36
14.11
14.27
14.05
13.63
13.07
12.34
11.35
10.06
8.47
6.71
5.01
3.66
2.93
3.00
3.89
5.40
7.18
8.79
9.81
9.98
9.30
7.98
6.37
4.81
3.46
2.35
1.30
0.18
-1.12
-2.52
-3.87
-5.05
-6.02
-6.87
-7.79
-8.99
-10.62
-12.69
-15.11
-17.64
-19.97
-21.70
-22.47
-21.96
-20.06
-16.87
-12.74
-8.17
-3.67
0.38
3.72
6.27
8.05
9.10
9.46
9.18
8.33
7.05
5.56
4.15
3.13
2.69
2.88
3.57
4.52
5.47
6.19
6.55
6.49
6.05
5.28
4.27
3.14
1.96
0.78
-0.38
-1.54
-2.69
-3.82
-4.87
-5.80
-6.67
-7.58
-8.70
-10.15
-11.98
-14.12
-16.44
-18.72
-20.70
-22.03
-22.36
-21.34
-18.79
-14.76
-9.60
-3.85
1.85
6.98
11.20
14.36
16.45
17.53
17.65
16.95
15.64
14.02
12.39
10.98
9.88
9.09
8.52
8.14
7.95
7.96
8.11
8.28
8.28
7.98
7.33
6.36
5.16
3.78
2.22
0.49
-1.41
-3.38
-5.35
-7.24
-9.02
-10.74
-12.46
-14.22
-16.06
-18.00
-20.08
-22.39
-25.01
-27.94
-31.03
-33.93
-36.09
-36.96
-36.10
-33.35
-28.86
-23.06
-16.57
-9.99
-3.83
1.57
6.05
9.58
12.22
14.06
15.17
15.60
15.39
14.63
13.48
12.21
11.16
10.64
10.79
11.56
12.71
13.97
15.11
15.96
16.45
16.48
15.98
14.91
13.37
11.59
9.87
8.42
7.31
6.41
5.48
4.34
2.86
1.07
-0.95
-3.06
-5.13
-7.07
-8.87
-10.58
-12.34
-14.35
-16.77
-19.60
-22.64
-25.41
-27.32
-27.75
-26.32
-22.96
-18.02
-12.10
-5.97
-0.27
4.66
8.70
11.97
14.58
16.53
17.72
17.99
17.33
15.92
14.13
12.39
11.03
10.18
9.78
9.72
9.92
10.34
11.00
11.82
12.63
13.16
13.15
12.50
11.29
9.78
8.26
6.94
5.83
4.84
3.77
2.46
0.84
-1.07
-3.17
-5.37
-7.62
-9.96
-12.42
-15.02
-17.69
-20.20
-22.21
-23.35
-23.32
-21.91
-19.12
-15.14
-10.28
-4.98
0.31
5.13
9.14
12.08
13.84
14.44
14.01
12.80
11.12
9.30
7.66
6.42
5.70
5.48
5.66
6.08
6.57
7.00
7.31
7.50
7.60
7.65
7.66
7.55
7.19
6.43
5.23
3.62
1.78
-0.10
-1.84
-3.39
-4.82
-6.27
-7.89
-9.80
-12.04
-14.56
-17.29
-20.02
-22.37
-23.89
-24.10
-22.61
-19.35
-14.57
-8.82
-2.76
2.99
8.03
12.18
15.44
17.86
19.48
20.25
20.21
19.42
18.09
16.49
14.91
13.55
12.49
11.77
11.33
11.14
11.14
11.26
11.33
11.18
10.65
9.68
8.34
6.83
5.39
4.13
3.08
2.09
0.98
-0.42
-2.18
-4.22
-6.39
-8.49
-10.39
-12.08
-13.65
-15.27
-17.16
-19.46
-22.16
-25.01
-27.52
-29.05
-29.03
-27.17
-23.53
-18.55
-12.87
-7.13
-1.79
2.91
6.85
10.04
12.45
14.08
14.99
15.27
15.06
14.50
13.70
12.77
11.82
10.96
10.30
9.93
9.83
9.96
10.22
10.57
10.94
11.31
11.57
11.54
11.10
10.12
8.67
6.87
4.91
2.92
0.97
-0.98
-2.94
-4.87
-6.71
-8.38
-9.87
-11.23
-12.57
-14.02
-15.67
-17.57
-19.72
-22.06
-24.37
-26.29
-27.33
-27.02
-25.08
-21.55
-16.74
-11.21
-5.56
-0.28
4.35
8.20
11.26
13.51
14.95
15.57
15.41
14.65
13.54
12.36
11.37
10.69
10.33
10.19
10.18
10.24
10.36
10.53
10.70
10.75
10.54
9.96
9.00
7.78
6.46
5.13
3.84
2.52
1.12
-0.40
-2.00
-3.56
-5.00
-6.29
-7.50
-8.73
-10.08
-11.64
-13.45
-15.51
-17.73
-19.86
-21.52
-22.26
-21.70
-19.68
-16.35
-12.14
-7.57
-3.12
0.87
4.22
6.85
8.77
9.95
10.43
10.29
9.64
8.68
7.63
6.71
6.09
5.85
5.96
6.32
6.80
7.25
7.61
7.84
7.94
7.91
7.77
7.48
7.03
6.42
5.61
4.58
3.29
1.77
0.10
-1.57
-3.07
-4.33
-5.42
-6.52
-7.89
-9.73
-12.07
-14.75
-17.39
-19.54
-20.76
-20.77
-19.46
-16.88
-13.18
-8.62
-3.55
1.58
6.31
10.16
12.87
14.43
15.05
15.09
14.82
14.38
13.74
12.85
11.72
10.50
9.40
8.59
8.05
7.69
7.31
6.84
6.30
5.80
5.45
5.21
4.99
4.62
4.01
3.13
2.04
0.83
-0.47
-1.87
-3.41
-5.12
-6.96
-8.79
-10.49
-11.97
-13.30
-14.66
-16.28
-18.34
-20.81
-23.44
-25.78
-27.26
-27.36
-25.77
-22.45
-17.64
-11.86
-5.70
0.18
5.32
9.42
12.42
14.42
15.57
16.02
15.84
15.13
14.01
12.73
11.59
10.81
10.47
10.45
10.52
10.50
10.31
10.02
9.75
9.54
9.35
9.04
8.46
7.56
6.40
5.08
3.72
2.35
0.96
-0.48
-2.03
-3.68
-5.37
-7.01
-8.50
-9.78
-10.89
-11.95
-13.21
-14.86
-17.03
-19.62
-22.25
-24.40
-25.43
-24.87
-22.58
-18.77
-13.98
-8.85
-3.87
0.63
4.57
7.90
10.55
12.34
13.12
12.86
11.78
10.28
8.81
7.67
6.99
6.70
6.66
6.74
6.87
7.00
7.06
6.96
6.62
6.04
5.26
4.38
3.48
2.55
1.54
0.37
-1.01
-2.55
-4.13
-5.64
-7.01
-8.26
-9.47
-10.79
-12.34
-14.13
-16.12
-18.12
-19.88
-21.08
-21.45
-20.73
-18.78
-15.63
-11.46
-6.63
-1.65
2.97
6.75
9.44
10.96
11.45
11.16
10.36
9.31
8.22
7.24
6.52
6.17
6.21
6.54
6.98
7.31
7.35
7.12
6.71
6.34
6.13
6.02
5.85
5.34
4.35
2.86
1.08
-0.73
-2.36
-3.77
-5.08
-6.54
-8.40
-10.77
-13.61
-16.65
-19.51
-21.72
-22.83
-22.51
-20.59
-17.14
-12.46
-7.04
-1.46
3.71
8.12
11.59
14.12
15.84
16.80
17.03
16.57
15.50
14.05
12.52
11.22
10.31
9.81
9.56
9.43
9.29
9.10
8.87
8.61
8.25
7.75
7.08
6.22
5.20
4.00
2.58
0.89
-1.02
-3.04
-4.98
-6.72
-8.26
-9.76
-11.44
-13.51
-16.02
-18.95
-22.14
-25.34
-28.22
-30.33
-31.15
-30.22
-27.34
-22.65
-16.71
-10.25
-3.97
1.65
6.43
10.37
13.52
15.86
17.32
17.84
17.45
16.34
14.80
13.18
11.77
10.77
10.22
10.04
10.11
10.31
10.59
10.92
11.29
11.58
11.65
11.31
10.47
9.19
7.64
6.08
4.62
3.30
1.98
0.54
-1.12
-2.95
-4.85
-6.69
-8.41
-10.01
-11.56
-13.22
-15.17
-17.56
-20.39
-23.43
-26.17
-27.89
-27.97
-26.01
-22.07
-16.58
-10.23
-3.70
2.48
8.00
12.73
16.55
19.35
21.03
21.53
20.97
19.59
17.85
16.20
15.02
14.45
14.47
14.87
15.42
15.97
16.45
16.81
16.99
16.84
16.24
15.13
13.56
11.75
9.91
8.18
6.54
4.85
2.95
0.77
-1.61
-3.96
-6.05
-7.71
-8.91
-9.79
-10.58
-11.57
-12.95
-14.85
-17.28
-20.08
-22.90
-25.25
-26.52
-26.17
-23.91
-19.82
-14.37
-8.27
-2.23
3.14
7.56
10.98
13.45
15.05
15.84
15.87
15.29
14.36
13.37
12.59
12.08
11.74
11.44
11.11
10.88
10.96
11.51
12.46
13.48
14.13
14.05
13.18
11.76
10.16
8.71
7.55
6.58
5.59
4.35
2.78
0.91
-1.15
-3.26
-5.31
-7.26
-9.15
-11.10
-13.26
-15.75
-18.55
-21.43
-24.01
-25.72
-26.08
-24.74
-21.64
-17.04
-11.42
-5.33
0.71
6.32
11.26
15.37
18.53
20.61
21.54
21.33
20.18
18.45
16.60
15.08
14.16
13.91
14.19
14.70
15.14
15.32
15.20
14.87
14.46
14.05
13.64
13.10
12.30
11.17
9.72
8.12
6.51
4.99
3.53
1.97
0.18
-1.89
-4.16
-6.48
-8.70
-10.76
-12.69
-14.56
-16.43
-18.40
-20.56
-23.01
-25.81
-28.77
-31.44
-33.14
-33.25
-31.35
-27.50
-22.17
-16.06
-9.84
-3.96
1.35
6.05
10.11
13.38
15.72
16.94
17.08
16.36
15.18
14.00
13.15
12.69
12.53
12.44
12.29
12.12
12.10
12.40
13.05
13.93
14.72
15.11
14.91
14.10
12.82
11.24
9.55
7.87
6.27
4.76
3.34
2.00
0.67
-0.71
-2.17
-3.78
-5.51
-7.27
-9.02
-10.66
-12.22
-13.76
-15.43
-17.36
-19.69
-22.45
-25.53
-28.67
-31.43
-33.24
-33.54
-31.92
-28.31
-23.06
-16.80
-10.31
-4.22
1.06
5.39
8.80
11.29
12.87
13.49
13.22
12.27
10.98
9.74
8.82
8.33
8.22
8.36
8.66
9.12
9.76
10.60
11.53
12.36
12.87
12.91
12.47
11.70
10.80
9.97
9.27
8.65
7.95
7.01
5.67
3.90
1.78
-0.50
-2.72
-4.69
-6.31
-7.63
-8.80
-10.08
-11.68
-13.75
-16.32
-19.27
-22.33
-25.05
-26.90
-27.32
-25.90
-22.59
-17.68
-11.82
-5.76
-0.10
4.83
8.99
12.47
15.31
17.41
18.56
18.61
17.64
15.97
14.07
12.42
11.28
10.74
10.69
11.02
11.57
12.27
13.02
13.67
14.11
14.23
14.03
13.57
12.94
12.15
11.17
9.91
8.33
6.52
4.59
2.66
0.76
-1.18
-3.27
-5.55
-7.92
-10.20
-12.17
-13.72
-14.94
-16.06
-17.43
-19.35
-22.00
-25.31
-29.06
-32.77
-35.87
-37.73
-37.75
-35.61
-31.33
-25.36
-18.43
-11.31
-4.62
1.28
6.31
10.49
13.80
16.09
17.14
16.86
15.44
13.38
11.40
10.12
9.86
10.49
11.54
12.47
12.97
13.07
13.11
13.41
14.13
15.08
15.85
16.03
15.38
14.02
12.23
10.34
8.59
7.01
5.48
3.86
2.03
0.02
-2.08
-4.18
-6.18
-8.06
-9.79
-11.41
-12.93
-14.43
-16.04
-17.97
-20.43
-23.54
-27.20
-31.06
-34.51
-36.80
-37.25
-35.47
-31.46
-25.68
-18.87
-11.80
-5.06
1.05
6.43
10.99
14.55
16.82
17.62
17.01
15.41
13.45
11.76
10.77
10.54
10.89
11.50
12.13
12.66
13.13
13.64
14.21
14.79
15.23
15.33
14.95
14.12
12.94
11.62
10.32
9.08
7.82
6.39
4.66
2.61
0.36
-1.90
-3.92
-5.61
-7.00
-8.25
-9.60
-11.25
-13.31
-15.81
-18.66
-21.70
-24.66
-27.12
-28.55
-28.46
-26.53
-22.73
-17.43
-11.27
-4.90
1.08
6.33
10.68
14.07
16.44
17.72
17.90
17.13
15.73
14.15
12.88
12.27
12.42
13.20
14.29
15.32
16.05
16.40
16.44
16.25
15.89
15.33
14.49
13.33
11.89
10.29
8.66
7.03
5.30
3.34
1.04
-1.57
-4.30
-6.92
-9.23
-11.15
-12.77
-14.28
-15.96
-18.09
-20.86
-24.30
-28.17
-31.92
-34.83
-36.14
-35.37
-32.45
-27.76
-21.94
-15.69
-9.52
-3.70
1.66
6.52
10.79
14.26
16.73
18.06
18.28
17.58
16.35
15.05
14.06
13.60
13.65
14.00
14.39
14.67
14.82
14.94
15.13
15.35
15.41
15.09
14.27
13.01
11.57
10.17
8.97
7.84
6.55
4.81
2.49
-0.33
-3.41
-6.42
-9.13
-11.47
-13.52
-15.46
-17.47
-19.72
-22.30
-25.32
-28.83
-32.80
-36.95
-40.72
-43.35
-44.09
-42.50
-38.57
-32.65
-25.32
-17.13
-8.55
0.04
8.23
15.50
21.34
25.38
27.54
28.10
27.56
26.50
25.40
24.51
23.92
23.60
23.44
23.37
23.36
23.42
23.58
23.85
24.19
24.50
24.62
24.37
23.61
22.29
20.41
18.13
15.63
13.15
10.87
8.88
7.16
5.59
4.01
2.28
0.32
-1.82
-4.05
-6.20
-8.22
-10.12
-12.00
-14.03
-16.35
-19.12
-22.41
-26.23
-30.38
-34.43
-37.73
-39.47
-38.96
-35.88
-30.41
-23.20
-15.21
-7.32
-0.19
5.89
10.88
14.86
17.84
19.75
20.54
20.28
19.26
17.92
16.75
16.11
16.12
16.68
17.52
18.37
19.12
19.75
20.36
20.98
21.56
21.91
21.76
20.96
19.52
17.64
15.62
13.74
12.10
10.63
9.10
7.32
5.17
2.74
0.19
-2.26
-4.46
-6.36
-8.04
-9.71
-11.55
-13.75
-16.41
-19.54
-23.07
-26.74
-30.13
-32.65
-33.65
-32.61
-29.33
-24.04
-17.30
-9.92
-2.66
3.98
9.73
14.51
18.28
20.99
22.55
22.96
22.38
21.11
19.59
18.22
17.30
16.96
17.12
17.63
18.27
18.87
19.34
19.65
19.82
19.85
19.69
19.24
18.36
16.99
15.16
13.04
10.86
8.83
7.03
5.41
3.79
1.98
-0.16
-2.58
-5.13
-7.61
-9.86
-11.84
-13.68
-15.53
-17.57
-19.90
-22.62
-25.78
-29.45
-33.56
-37.87
-41.86
-44.77
-45.80
-44.35
-40.28
-33.94
-26.08
-17.61
-9.29
-1.69
4.89
10.34
14.60
17.68
19.60
20.47
20.48
19.92
19.13
18.40
17.94
17.87
18.17
18.77
19.51
20.24
20.84
21.24
21.46
21.52
21.45
21.21
20.71
19.91
18.79
17.42
15.89
14.25
12.51
10.64
8.61
6.46
4.33
2.35
0.58
-1.03
-2.61
-4.34
-6.28
-8.44
-10.64
-12.77
-14.71
-16.48
-18.21
-20.12
-22.44
-25.34
-28.87
-32.87
-36.94
-40.42
-42.54
-42.60
-40.19
-35.37
-28.67
-20.91
-12.95
-5.47
1.17
6.82
11.46
15.04
17.49
18.77
18.95
18.27
17.10
15.83
14.79
14.19
14.11
14.48
15.19
16.08
16.98
17.73
18.23
18.43
18.36
18.08
17.67
17.14
16.44
15.46
14.13
12.46
10.54
8.56
6.66
4.92
3.32
1.72
0.03
-1.80
-3.73
-5.67
-7.54
-9.30
-11.01
-12.72
-14.53
-16.53
-18.81
-21.49
-24.63
-28.17
-31.82
-35.03
-37.10
-37.36
-35.41
-31.23
-25.22
-18.07
-10.58
-3.38
3.09
8.62
13.14
16.63
19.02
20.29
20.47
19.73
18.41
16.88
15.56
14.73
14.52
14.91
15.77
16.86
17.94
18.78
19.25
19.34
19.14
18.74
18.23
17.57
16.66
15.41
13.79
11.84
9.68
7.46
5.27
3.17
1.14
-0.84
-2.80
-4.79
-6.88
-9.14
-11.54
-14.04
-16.46
-18.65
-20.51
-22.09
-23.60
-25.36
-27.75
-30.98
-35.05
-39.54
-43.73
-46.71
-47.67
-46.09
-41.93
-35.63
-27.94
-19.69
-11.60
-4.21
2.22
7.54
11.74
14.84
16.93
18.12
18.55
18.41
17.91
17.24
16.62
16.19
16.08
16.31
16.87
17.63
18.48
19.26
19.83
20.12
20.08
19.72
19.08
18.15
17.00
15.67
14.23
12.77
11.30
9.77
8.10
6.22
4.17
2.05
0.03
-1.81
-3.45
-5.05
-6.76
-8.65
-10.71
-12.81
-14.84
-16.76
-18.67
-20.78
-23.30
-26.42
-30.15
-34.35
-38.61
-42.35
-44.83
-45.36
-43.50
-39.18
-32.76
-24.93
-16.47
-8.03
-0.07
7.19
13.54
18.64
22.01
23.11
21.69
17.94
12.67
7.08
2.41
-0.45
-1.14
0.13
2.84
6.40
10.36
14.45
18.44
22.05
24.88
26.59
27.00
26.27
24.78
23.08
21.59
20.47
19.57
18.52
17.00
14.87
12.24
9.44
6.82
4.57
2.66
0.90
-0.94
-3.00
-5.28
-7.65
-9.97
-12.13
-14.15
-16.16
-18.35
-20.93
-24.03
-27.69
-31.72
-35.74
-39.14
-41.23
-41.38
-39.21
-34.74
-28.39
-20.87
-13.02
-5.55
1.04
6.54
10.89
14.08
16.12
16.99
16.81
15.83
14.47
13.19
12.39
12.23
12.63
13.37
14.21
14.96
15.62
16.22
16.84
17.48
17.99
18.17
17.79
16.71
14.99
12.86
10.65
8.64
6.94
5.45
3.91
2.10
-0.11
-2.63
-5.27
-7.85
-10.22
-12.39
-14.46
-16.52
-18.72
-21.17
-24.00
-27.35
-31.21
-35.41
-39.48
-42.69
-44.18
-43.27
-39.67
-33.65
-25.91
-17.41
-9.03
-1.41
5.17
10.59
14.85
17.93
19.80
20.55
20.38
19.64
18.65
17.72
17.03
16.60
16.47
16.58
16.92
17.44
18.11
18.89
19.74
20.58
21.25
21.54
21.24
20.20
18.45
16.18
13.74
11.43
9.43
7.68
5.92
3.87
1.33
-1.69
-4.99
-8.27
-11.22
-13.68
-15.66
-17.32
-18.97
-20.94
-23.51
-26.87
-31.01
-35.68
-40.44
-44.61
-47.42
-48.14
-46.30
-41.80
-35.01
-26.66
-17.61
-8.71
-0.55
6.52
12.35
16.91
20.17
22.14
22.92
22.72
21.89
20.82
19.87
19.26
19.11
19.42
20.14
21.17
22.39
23.67
24.86
25.80
26.34
26.34
25.71
24.46
22.67
20.51
18.22
16.07
14.29
13.01
12.27
11.92
11.76
11.56
11.14
10.44
9.48
8.34
7.02
5.48
3.71
1.70
-0.40
-2.40
-4.14
-5.62
-7.02
-8.60
-10.55
-12.87
-15.39
-17.82
-19.93
-21.67
-23.22
-24.87
-27.01
-29.92
-33.73
-38.31
-43.21
-47.74
-50.99
-52.08
-50.35
-45.65
-38.38
-29.40
-19.78
-10.50
-2.18
4.88
10.72
15.42
19.01
21.48
22.78
23.03
22.50
21.62
20.83
20.42
20.47
20.92
21.59
22.32
23.01
23.61
24.13
24.57
24.95
25.23
25.32
25.03
24.18
22.63
20.36
17.57
14.57
11.68
9.14
6.99
5.10
3.29
1.39
-0.67
-2.83
-4.98
-7.02
-8.90
-10.68
-12.51
-14.61
-17.16
-20.31
-24.08
-28.35
-32.75
-36.75
-39.64
-40.70
-39.43
-35.71
-29.85
-22.55
-14.65
-6.87
0.31
6.68
12.16
16.65
19.94
21.83
22.26
21.42
19.80
18.02
16.66
16.05
16.22
16.94
17.88
18.79
19.54
20.12
20.54
20.76
20.66
20.12
19.01
17.39
15.40
13.29
11.27
9.43
7.73
5.94
3.82
1.16
-2.04
-5.61
-9.21
-12.53
-15.36
-17.70
-19.75
-21.82
-24.29
-27.52
-31.67
-36.62
-41.90
-46.73
-50.16
-51.35
-49.83
-45.60
-39.19
-31.43
-23.25
-15.37
-8.20
-1.78
4.11
9.70
15.05
19.94
23.91
26.51
27.55
27.26
26.22
25.08
24.35
24.14
24.30
24.58
24.86
25.12
25.45
25.86
26.12
25.93
24.97
23.12
20.56
17.63
14.72
12.03
9.57
7.16
4.61
1.78
-1.32
-4.53
-7.70
-10.68
-13.44
-16.08
-18.81
-21.93
-25.74
-30.37
-35.63
-40.93
-45.33
-47.81
-47.55
-44.26
-38.21
-30.16
-21.06
-11.72
-2.70
5.73
13.35
19.98
25.32
29.06
31.07
31.45
30.58
29.03
27.38
26.06
25.25
24.91
24.91
25.07
25.29
25.54
25.81
26.00
26.00
25.66
24.87
23.62
21.97
20.04
17.90
15.60
13.14
10.47
7.59
4.50
1.25
-2.07
-5.37
-8.54
-11.55
-14.42
-17.31
-20.47
-24.16
-28.51
-33.36
-38.22
-42.25
-44.48
-44.09
-40.71
-34.53
-26.31
-17.10
-7.96
0.27
7.18
12.65
16.79
19.72
21.54
22.27
21.97
20.81
19.13
17.38
15.97
15.17
15.04
15.43
16.10
16.82
17.43
17.85
18.07
18.07
17.80
17.19
16.17
14.66
12.72
10.44
7.97
5.45
2.97
0.57
-1.76
-4.06
-6.39
-8.79
-11.34
-14.14
-17.29
-20.83
-24.57
-28.13
-30.87
-32.12
-31.29
-28.14
-22.78
-15.73
-7.73
0.42
8.07
14.72
20.09
23.98
26.31
27.06
26.35
24.51
22.05
19.55
17.52
16.25
15.71
15.65
15.72
15.67
15.37
14.89
14.38
13.88
13.34
12.55
11.26
9.33
6.79
3.87
0.90
-1.84
-4.22
-6.37
-8.58
-11.16
-14.31
-18.07
-22.38
-27.06
-31.84
-36.32
-39.94
-42.02
-41.88
-39.15
-33.86
-26.56
-18.09
-9.36
-1.11
6.22
12.37
17.24
20.73
22.77
23.38
22.72
21.13
19.04
16.91
15.06
13.67
12.73
12.15
11.77
11.49
11.25
11.06
10.92
10.77
10.43
9.67
8.34
6.40
4.01
1.47
-0.95
-3.15
-5.21
-7.40
-10.01
-13.21
-16.94
-20.89
-24.49
-27.06
-27.94
-26.69
-23.22
-17.91
-11.42
-4.53
2.10
8.12
13.37
17.78
21.20
23.35
23.94
22.87
20.34
16.92
13.36
10.34
8.28
7.23
6.94
7.06
7.29
7.50
7.63
7.70
7.62
7.24
6.33
4.78
2.61
0.00
-2.76
-5.51
-8.24
-11.12
-14.35
-17.94
-21.56
-24.54
-26.09
-25.59
-22.87
-18.26
-12.48
-6.30
-0.39
4.84
9.19
12.54
14.78
15.80
15.60
14.32
12.24
9.72
7.12
4.74
2.77
1.31
0.41
0.03
0.06
0.31
0.59
0.68
0.43
-0.25
-1.39
-2.95
-4.83
-6.90
-9.06
-11.27
-13.56
-16.05
-18.82
-21.81
-24.75
-27.18
-28.49
-28.20
-26.02
-22.04
-16.62
-10.26
-3.46
3.38
9.96
16.03
21.29
25.44
28.20
29.43
29.23
27.94
26.04
24.02
22.24
20.84
19.77
18.86
18.00
17.15
16.37
15.74
15.25
14.75
14.01
12.80
11.01
8.66
5.89
2.88
-0.24
-3.43
-6.77
-10.36
-14.22
-18.21
-21.95
-24.88
-26.38
-26.03
-23.71
-19.72
-14.60
-9.01
-3.48
1.68
6.34
10.41
13.74
16.13
17.41
17.57
16.81
15.51
14.09
12.87
11.95
11.29
10.76
10.28
9.85
9.54
9.45
9.58
9.85
10.07
10.07
9.64
8.68
7.21
5.32
3.19
1.06
-0.96
-2.80
-4.55
-6.32
-8.25
-10.42
-12.87
-15.60
-18.54
-21.49
-24.11
-25.88
-26.31
-25.03
-22.02
-17.64
-12.50
-7.22
-2.26
2.18
6.08
9.47
12.28
14.35
15.50
15.68
15.06
13.98
12.82
11.91
11.36
11.13
11.07
11.09
11.15
11.33
11.67
12.12
12.50
12.54
12.03
10.90
9.26
7.36
5.48
3.82
2.42
1.17
-0.11
-1.56
-3.23
-5.01
-6.76
-8.32
-9.60
-10.68
-11.70
-12.84
-14.25
-15.99
-18.02
-20.23
-22.39
-24.17
-25.20
-25.13
-23.72
-20.99
-17.15
-12.65
-8.02
-3.73
-0.12
2.67
4.68
5.99
6.70
6.84
6.44
5.56
4.36
3.10
2.04
1.36
1.08
1.05
1.08
1.02
0.86
0.71
0.68
0.84
1.11
1.32
1.27
0.87
0.12
-0.85
-1.80
-2.50
-2.83
-2.81
-2.60
-2.46
-2.54
-2.93
-3.49
-4.04
-4.46
-4.71
-4.88
-5.13
-5.51
-6.00
-6.51
-7.08
-7.83
-8.97
-10.56
-12.36
-13.90
-14.63
-14.14
-12.42
-9.79
-6.76
-3.82
-1.25
0.85
2.50
3.71
4.49
4.75
4.46
3.67
2.55
1.35
0.28
-0.46
-0.86
-1.01
-1.12
-1.31
-1.59
-1.88
-2.02
-1.98
-1.82
-1.80
-2.14
-2.96
-4.21
-5.62
-6.89
-7.75
-8.14
-8.15
-8.03
-8.00
-8.17
-8.45
-8.68
-8.70
-8.48
-8.13
-7.79
-7.56
-7.45
-7.36
-7.24
-7.12
-7.11
-7.29
-7.62
-7.86
-7.65
-6.70
-4.91
-2.48
0.23
2.76
4.75
5.98
6.40
6.08
5.24
4.12
2.95
1.93
1.09
0.43
-0.13
-0.67
-1.17
-1.59
-1.85
-1.94
-1.84
-1.60
-1.24
-0.82
-0.41
-0.12
-0.08
-0.35
-0.87
-1.52
-2.16
-2.71
-3.19
-3.68
-4.23
-4.80
-5.30
-5.64
-5.79
-5.81
-5.79
-5.79
-5.85
-6.02
-6.36
-6.98
-7.91
-9.04
-10.12
-10.80
-10.78
-10.00
-8.59
-6.83
-5.03
-3.34
-1.86
-0.60
0.37
0.93
0.96
0.41
-0.63
-1.99
-3.41
-4.64
-5.53
-5.98
-6.01
-5.70
-5.21
-4.68
-4.24
-3.93
-3.69
-3.44
-3.13
-2.78
-2.51
-2.44
-2.63
-3.09
-3.68
-4.26
-4.72
-5.00
-5.18
-5.30
-5.43
-5.51
-5.51
-5.37
-5.16
-4.99
-5.02
-5.37
-6.04
-7.00
-8.17
-9.43
-10.65
-11.64
-12.10
-11.74
-10.39
-8.06
-5.11
-2.04
0.61
2.51
3.58
4.02
4.09
4.01
3.86
3.57
3.09
2.42
1.63
0.85
0.21
-0.25
-0.54
-0.70
-0.77
-0.76
-0.68
-0.56
-0.42
-0.30
-0.24
-0.29
-0.48
-0.82
-1.32
-1.91
-2.52
-3.08
-3.54
-3.94
-4.41
-5.07
-6.02
-7.19
-8.45
-9.59
-10.50
-11.16
-11.67
-12.24
-13.00
-14.00
-15.12
-16.12
-16.70
-16.60
-15.61
-13.72
-11.07
-8.00
-4.89
-2.09
0.23
2.06
3.48
4.57
5.29
5.50
5.12
4.16
2.88
1.67
0.89
0.70
1.01
1.52
1.96
2.17
2.16
2.09
2.05
2.07
2.06
1.91
1.51
0.89
0.09
-0.78
-1.65
-2.51
-3.37
-4.27
-5.21
-6.16
-7.10
-8.05
-9.08
-10.27
-11.66
-13.19
-14.62
-15.61
-15.81
-15.05
-13.34
-10.92
-8.10
-5.14
-2.22
0.59
3.19
5.45
7.17
8.19
8.42
7.91
6.89
5.65
4.48
3.60
3.09
2.94
3.06
3.29
3.53
3.70
3.77
3.72
3.57
3.31
2.93
2.41
1.76
0.95
-0.02
-1.19
-2.57
-4.16
-5.92
-7.81
-9.81
-11.90
-14.17
-16.69
-19.50
-22.54
-25.54
-28.09
-29.71
-29.96
-28.59
-25.61
-21.31
-16.14
-10.60
-5.11
0.01
4.52
8.26
11.08
12.80
13.40
12.96
11.74
10.17
8.67
7.57
7.02
6.96
7.21
7.52
7.75
7.84
7.84
7.85
7.94
8.13
8.31
8.30
7.92
7.04
5.65
3.84
1.83
-0.21
-2.18
-4.15
-6.29
-8.78
-11.73
-15.07
-18.50
-21.54
-23.63
-24.26
-23.06
-19.91
-15.02
-8.83
-2.01
4.78
10.98
16.23
20.39
23.43
25.37
26.21
25.98
24.82
23.01
20.95
19.03
17.62
16.81
16.55
16.63
16.82
16.95
16.93
16.75
16.42
15.93
15.21
14.19
12.80
11.07
9.10
7.03
5.02
3.14
1.33
-0.53
-2.61
-5.06
-7.98
-11.35
-15.04
-18.76
-22.03
-24.30
-25.05
-23.89
-20.76
-15.88
-9.73
-2.91
3.97
10.38
15.88
20.14
22.95
24.22
24.02
22.59
20.34
17.77
15.39
13.60
12.62
12.44
12.86
13.60
14.41
15.10
15.63
15.94
16.01
15.79
15.18
14.19
12.85
11.29
9.62
7.88
6.06
4.03
1.69
-1.10
-4.38
-8.07
-11.92
-15.47
-18.10
-19.16
-18.14
-14.85
-9.51
-2.71
4.74
12.01
18.46
23.69
27.52
29.98
31.15
31.15
30.13
28.31
26.01
23.62
21.52
20.00
19.12
18.76
18.67
18.61
18.43
18.14
17.79
17.46
17.13
16.67
15.88
14.58
12.65
10.08
7.02
3.69
0.39
-2.65
-5.25
-7.45
-9.40
-11.37
-13.64
-16.38
-19.67
-23.40
-27.31
-30.94
-33.71
-34.97
-34.18
-31.06
-25.75
-18.77
-10.92
-3.03
4.23
10.45
15.47
19.26
21.88
23.35
23.75
23.21
21.99
20.41
18.80
17.43
16.46
15.94
15.84
16.05
16.46
16.92
17.30
17.45
17.29
16.78
15.96
14.90
13.67
12.33
10.88
9.33
7.67
5.93
4.13
2.26
0.32
-1.66
-3.63
-5.50
-7.22
-8.88
-10.64
-12.74
-15.33
-18.32
-21.35
-23.80
-24.99
-24.41
-21.87
-17.57
-11.98
-5.76
0.49
6.30
11.33
15.44
18.55
20.63
21.71
21.83
21.14
19.84
18.22
16.61
15.28
14.38
13.91
13.75
13.76
13.81
13.91
14.12
14.45
14.85
15.13
15.10
14.60
13.63
12.31
10.83
9.40
8.16
7.09
6.08
4.96
3.60
1.92
0.01
-2.02
-4.01
-5.86
-7.52
-8.96
-10.25
-11.42
-12.61
-13.99
-15.76
-18.04
-20.74
-23.51
-25.73
-26.73
-25.99
-23.38
-19.19
-14.06
-8.65
-3.57
0.87
4.59
7.58
9.88
11.43
12.19
12.16
11.53
10.56
9.58
8.86
8.52
8.56
8.84
9.20
9.54
9.83
10.12
10.51
11.01
11.54
11.94
12.04
11.72
10.97
9.89
8.61
7.26
5.86
4.45
2.99
1.44
-0.17
-1.85
-3.54
-5.19
-6.74
-8.18
-9.56
-10.99
-12.61
-14.53
-16.83
-19.45
-22.21
-24.83
-26.93
-28.04
-27.77
-25.88
-22.45
-17.87
-12.79
-7.86
-3.56
-0.03
2.83
5.19
7.11
8.44
8.98
8.61
7.52
6.16
5.03
4.50
4.59
5.07
5.57
5.83
5.82
5.69
5.64
5.77
6.02
6.20
6.11
5.61
4.72
3.56
2.32
1.16
0.14
-0.74
-1.60
-2.55
-3.69
-4.98
-6.33
-7.63
-8.78
-9.79
-10.69
-11.59
-12.55
-13.63
-14.88
-16.39
-18.22
-20.43
-22.92
-25.40
-27.43
-28.48
-28.07
-25.94
-22.15
-17.13
-11.53
-6.07
-1.30
2.52
5.45
7.76
9.64
11.12
12.04
12.18
11.46
10.11
8.55
7.26
6.55
6.42
6.69
7.06
7.35
7.56
7.74
7.99
8.27
8.48
8.49
8.19
7.61
6.89
6.15
5.49
4.90
4.28
3.50
2.48
1.27
0.01
-1.15
-2.14
-3.06
-4.06
-5.25
-6.64
-8.07
-9.34
-10.33
-11.12
-11.94
-13.08
-14.77
-17.02
-19.66
-22.26
-24.38
-25.54
-25.42
-23.86
-20.96
-17.00
-12.41
-7.62
-3.02
1.12
4.63
7.35
9.21
10.18
10.33
9.85
9.00
8.09
7.36
6.94
6.85
7.02
7.35
7.79
8.33
9.00
9.80
10.70
11.58
12.30
12.69
12.64
12.13
11.21
10.00
8.64
7.30
6.11
5.13
4.34
3.62
2.78
1.65
0.19
-1.53
-3.33
-5.00
-6.42
-7.64
-8.87
-10.43
-12.56
-15.28
-18.29
-21.03
-22.83
-23.12
-21.63
-18.48
-14.06
-9.03
-4.03
0.31
3.57
5.52
6.15
5.66
4.40
2.76
1.10
-0.35
-1.51
-2.36
-2.94
-3.27
-3.34
-3.11
-2.56
-1.74
-0.75
0.24
1.07
1.66
2.05
2.36
2.66
2.97
3.18
3.11
2.70
1.97
1.11
0.33
-0.22
-0.61
-1.04
-1.75
-2.93
-4.57
-6.50
-8.43
-10.06
-11.22
-11.91
-12.36
-12.96
-14.18
-16.36
-19.58
-23.51
-27.43
-30.41
-31.54
-30.28
-26.60
-21.00
-14.32
-7.48
-1.24
3.93
7.91
10.81
12.88
14.37
15.44
16.13
16.37
16.12
15.38
14.28
13.13
12.20
11.70
11.67
11.94
12.28
12.46
12.42
12.20
11.86
11.49
11.05
10.44
9.59
8.49
7.24
5.99
4.90
4.06
3.46
3.01
2.56
1.91
0.86
-0.67
-2.59
-4.66
-6.52
-7.89
-8.65
-8.92
-8.98
-9.24
-10.13
-11.98
-14.94
-18.88
-23.30
-27.37
-30.07
-30.58
-28.49
-24.04
-17.98
-11.35
-5.11
0.14
4.20
7.19
9.41
11.09
12.35
13.19
13.55
13.37
12.73
11.79
10.78
9.94
9.38
9.11
9.06
9.17
9.47
10.01
10.84
11.87
12.87
13.51
13.55
12.94
11.87
10.69
9.74
9.22
9.07
9.04
8.81
8.13
6.89
5.18
3.24
1.35
-0.22
-1.31
-1.90
-2.12
-2.30
-2.87
-4.30
-6.87
-10.59
-15.01
-19.30
-22.45
-23.60
-22.32
-18.78
-13.55
-7.48
-1.36
4.22
8.90
12.48
14.85
16.00
16.01
15.13
13.71
12.12
10.68
9.55
8.76
8.25
7.93
7.75
7.69
7.75
7.93
8.18
8.46
8.70
8.84
8.81
8.57
8.10
7.38
6.41
5.23
3.91
2.58
1.36
0.41
-0.24
-0.68
-1.11
-1.79
-2.91
-4.45
-6.22
-7.93
-9.30
-10.24
-10.86
-11.46
-12.40
-14.07
-16.68
-20.19
-24.20
-27.95
-30.50
-30.99
-28.97
-24.57
-18.44
-11.57
-4.89
0.94
5.66
9.27
11.95
13.90
15.21
15.97
16.19
15.91
15.22
14.23
13.10
12.03
11.17
10.63
10.44
10.56
10.90
11.37
11.92
12.50
13.04
13.44
13.55
13.28
12.53
11.39
10.02
8.63
7.40
6.37
5.46
4.49
3.26
1.63
-0.38
-2.63
-4.90
-6.98
-8.69
-9.98
-10.90
-11.62
-12.43
-13.64
-15.60
-18.48
-22.13
-26.04
-29.36
-31.14
-30.64
-27.59
-22.27
-15.42
-7.99
-0.85
5.34
10.29
13.94
16.46
18.05
18.86
18.97
18.40
17.22
15.63
13.94
12.52
11.62
11.30
11.38
11.58
11.72
11.76
11.82
12.04
12.44
12.87
13.04
12.72
11.80
10.40
8.78
7.21
5.86
4.74
3.75
2.73
1.53
0.13
-1.44
-3.05
-4.58
-5.92
-7.03
-7.89
-8.54
-9.07
-9.70
-10.75
-12.53
-15.26
-18.79
-22.56
-25.62
-26.96
-25.83
-22.03
-16.00
-8.66
-1.06
5.99
12.07
17.12
21.26
24.54
26.90
28.20
28.34
27.39
25.53
23.00
19.96
16.51
12.79
9.10
5.86
3.55
2.49
2.62
3.54
4.66
5.46
5.62
5.11
4.05
2.63
0.96
-0.84
-2.66
-4.32
-5.61
-6.42
-6.81
-7.03
-7.46
-8.39
-9.92
-11.88
-13.95
-15.75
-17.07
-17.98
-18.78
-19.97
-22.02
-25.16
-29.26
-33.69
-37.49
-39.59
-39.18
-35.99
-30.31
-22.96
-14.94
-7.20
-0.41
5.10
9.26
12.21
14.16
15.33
15.93
16.11
15.92
15.41
14.66
13.80
13.00
12.42
12.15
12.19
12.47
12.90
13.44
14.04
14.64
15.17
15.46
15.36
14.77
13.65
12.12
10.35
8.61
7.11
5.96
5.13
4.39
3.43
1.95
-0.22
-2.95
-5.93
-8.71
-10.98
-12.59
-13.73
-14.80
-16.28
-18.61
-21.99
-26.27
-30.90
-34.99
-37.54
-37.70
-35.07
-29.87
-22.80
-14.87
-7.09
-0.19
5.48
9.88
13.19
15.67
17.54
18.92
19.80
20.10
19.74
18.75
17.33
15.83
14.65
14.05
14.07
14.57
15.31
16.07
16.77
17.40
17.92
18.20
17.96
16.94
15.06
12.48
9.64
7.06
5.14
3.96
3.27
2.59
1.50
-0.18
-2.31
-4.56
-6.57
-8.13
-9.20
-9.93
-10.55
-11.34
-12.60
-14.57
-17.36
-20.82
-24.45
-27.42
-28.87
-28.10
-24.89
-19.49
-12.61
-5.13
2.11
8.45
13.52
17.21
19.60
20.89
21.24
20.81
19.71
18.13
16.34
14.69
13.50
12.94
12.97
13.34
13.85
14.32
14.77
15.26
15.80
16.26
16.36
15.83
14.57
12.67
10.39
8.08
6.02
4.28
2.74
1.17
-0.72
-3.06
-5.82
-8.77
-11.61
-14.04
-15.85
-17.01
-17.66
-18.14
-18.90
-20.41
-23.00
-26.62
-30.83
-34.72
-37.23
-37.44
-34.85
-29.62
-22.40
-14.20
-6.02
1.32
7.37
12.02
15.42
17.86
19.59
20.74
21.35
21.35
20.73
19.57
18.09
16.58
15.31
14.48
14.14
14.19
14.46
14.75
14.87
14.72
14.31
13.70
12.96
12.07
10.95
9.50
7.65
5.48
3.23
1.14
-0.61
-2.02
-3.26
-4.55
-6.08
-7.85
-9.69
-11.41
-12.79
-13.78
-14.41
-14.78
-15.05
-15.43
-16.20
-17.66
-20.00
-23.15
-26.58
-29.45
-30.76
-29.78
-26.27
-20.67
-13.83
-6.73
-0.18
5.39
9.82
13.17
15.54
16.97
17.54
17.32
16.45
15.06
13.33
11.45
9.63
8.11
7.12
6.77
7.04
7.75
8.65
9.49
10.13
10.53
10.75
10.87
10.93
10.89
10.67
10.17
9.36
8.26
6.97
5.67
4.50
3.56
2.80
2.12
1.33
0.29
-1.07
-2.73
-4.57
-6.45
-8.21
-9.73
-10.95
-11.98
-13.13
-14.84
-17.52
-21.28
-25.78
-30.17
-33.37
-34.46
-32.95
-29.01
-23.29
-16.71
-10.13
-4.20
0.72
4.48
7.06
8.57
9.18
9.12
8.64
7.94
7.17
6.42
5.76
5.24
4.92
4.86
5.05
5.45
6.01
6.68
7.44
8.27
9.10
9.80
10.21
10.15
9.52
8.43
7.14
5.97
5.15
4.65
4.25
3.58
2.38
0.63
-1.44
-3.45
-5.04
-6.02
-6.44
-6.60
-6.93
-7.88
-9.75
-12.58
-16.06
-19.51
-22.05
-22.86
-21.42
-17.73
-12.26
-5.80
0.79
6.84
11.90
15.78
18.38
19.72
19.88
19.03
17.47
15.57
13.70
12.14
11.08
10.56
10.49
10.72
11.03
11.26
11.29
11.14
10.94
10.83
10.86
10.85
10.53
9.60
7.97
5.80
3.49
1.41
-0.25
-1.55
-2.78
-4.25
-6.11
-8.34
-10.74
-13.04
-15.04
-16.69
-18.03
-19.26
-20.66
-22.53
-25.15
-28.63
-32.71
-36.77
-39.88
-41.08
-39.75
-35.78
-29.67
-22.35
-14.81
-7.88
-2.06
2.53
5.96
8.44
10.18
11.34
12.04
12.31
12.20
11.78
11.22
10.74
10.56
10.84
11.51
12.40
13.30
14.04
14.59
15.01
15.33
15.49
15.32
14.56
13.04
10.77
7.99
5.09
2.47
0.37
-1.18
-2.40
-3.62
-5.17
-7.19
-9.60
-12.11
-14.38
-16.07
-17.05
-17.42
-17.55
-17.94
-19.12
-21.41
-24.75
-28.60
-32.02
-33.95
-33.54
-30.47
-25.09
-18.20
-10.83
-3.86
2.15
7.00
10.70
13.36
15.11
16.06
16.31
15.96
15.08
13.77
12.15
10.44
8.91
7.82
7.30
7.30
7.60
7.95
8.18
8.29
8.35
8.39
8.34
8.03
7.31
6.16
4.73
3.25
1.91
0.72
-0.46
-1.80
-3.39
-5.09
-6.65
-7.77
-8.28
-8.25
-7.93
-7.73
-8.12
-9.44
-11.77
-14.86
-18.04
-20.41
-21.05
-19.35
-15.22
-9.09
-1.83
5.57
12.26
17.70
21.67
24.18
25.43
25.66
25.12
24.02
22.58
20.99
19.41
17.97
16.77
15.88
15.28
14.96
14.84
14.84
14.88
14.92
14.94
14.90
14.67
14.05
12.89
11.10
8.79
6.27
3.88
1.83
0.11
-1.51
-3.36
-5.61
-8.23
-10.96
-13.46
-15.53
-17.15
-18.48
-19.82
-21.52
-23.89
-27.10
-30.99
-35.09
-38.53
-40.39
-39.91
-36.80
-31.34
-24.28
-16.60
-9.18
-2.65
2.73
6.96
10.19
12.59
14.28
15.34
15.81
15.74
15.25
14.55
13.83
13.28
12.96
12.88
12.95
13.11
13.30
13.48
13.66
13.80
13.83
13.64
13.06
12.02
10.51
8.76
7.12
5.92
5.32
5.21
5.19
4.81
3.71
1.82
-0.64
-3.27
-5.71
-7.71
-9.23
-10.43
-11.64
-13.28
-15.77
-19.32
-23.76
-28.47
-32.44
-34.57
-34.06
-30.67
-24.84
-17.46
-9.63
-2.23
4.13
9.24
13.11
15.88
17.73
18.81
19.26
19.19
18.72
17.96
17.11
16.35
15.80
15.54
15.52
15.65
15.83
16.03
16.26
16.50
16.66
16.54
15.97
14.82
13.14
11.17
9.22
7.55
6.23
5.10
3.83
2.14
-0.12
-2.89
-5.84
-8.58
-10.73
-12.08
-12.64
-12.68
-12.68
-13.22
-14.82
-17.70
-21.64
-25.93
-29.57
-31.54
-31.16
-28.29
-23.37
-17.21
-10.75
-4.79
0.15
3.89
6.52
8.27
9.38
9.96
10.01
9.47
8.37
6.89
5.41
4.35
4.01
4.44
5.40
6.57
7.66
8.54
9.26
9.90
10.50
11.00
11.31
11.33
11.07
10.53
9.71
8.55
7.01
5.13
3.09
1.14
-0.47
-1.65
-2.49
-3.16
-3.89
-4.90
-6.43
-8.70
-11.82
-15.65
-19.66
-22.95
-24.49
-23.52
-19.87
-14.05
-7.12
-0.30
5.47
9.70
12.42
13.95
14.61
14.64
14.16
13.29
12.22
11.27
10.75
10.84
11.46
12.35
13.18
13.71
13.92
13.94
13.99
14.16
14.40
14.50
14.24
13.50
12.32
10.90
9.41
7.97
6.51
4.90
3.05
0.98
-1.20
-3.30
-5.26
-7.14
-9.10
-11.35
-14.07
-17.34
-21.06
-25.00
-28.65
-31.37
-32.48
-31.48
-28.27
-23.19
-16.95
-10.38
-4.22
1.03
5.13
8.07
9.97
11.02
11.46
11.46
11.18
10.66
9.91
8.95
7.90
6.91
6.18
5.82
5.87
6.22
6.75
7.29
7.69
7.83
7.60
6.95
5.91
4.61
3.23
1.89
0.63
-0.62
-1.94
-3.45
-5.16
-7.01
-8.91
-10.76
-12.49
-14.04
-15.41
-16.70
-18.14
-20.01
-22.56
-25.71
-29.01
-31.66
-32.72
-31.52
-27.87
-22.22
-15.38
-8.30
-1.71
4.00
8.73
12.56
15.57
17.82
19.27
19.91
19.71
18.72
17.08
15.06
13.02
11.38
10.45
10.35
10.96
12.02
13.20
14.27
15.12
15.73
16.09
16.17
15.88
15.14
13.92
12.29
10.44
8.56
6.85
5.42
4.27
3.30
2.33
1.20
-0.15
-1.68
-3.31
-4.90
-6.37
-7.71
-9.01
-10.45
-12.29
-14.76
-18.01
-21.98
-26.34
-30.48
-33.63
-35.03
-34.17
-30.97
-25.80
-19.39
-12.63
-6.29
-0.86
3.49
6.87
9.49
11.51
12.98
13.83
14.00
13.54
12.62
11.56
10.66
10.13
9.98
10.06
10.17
10.16
10.07
10.03
10.21
10.62
11.12
11.41
11.27
10.67
9.80
8.96
8.38
8.03
7.68
7.03
5.89
4.30
2.53
0.92
-0.26
-0.93
-1.24
-1.55
-2.25
-3.73
-6.20
-9.54
-13.33
-16.80
-19.12
-19.57
-17.86
-14.18
-9.08
-3.34
2.29
7.29
11.33
14.30
16.19
17.11
17.20
16.62
15.57
14.18
12.54
10.76
8.96
7.35
6.08
5.28
4.95
4.99
5.22
5.51
5.76
5.92
5.98
5.88
5.54
4.89
3.96
2.86
1.74
0.75
-0.07
-0.77
-1.48
-2.33
-3.46
-4.88
-6.56
-8.36
-10.09
-11.59
-12.77
-13.69
-14.61
-15.95
-18.14
-21.38
-25.51
-29.91
-33.62
-35.58
-35.07
-31.87
-26.40
-19.54
-12.32
-5.62
0.01
4.46
7.86
10.47
12.46
13.88
14.67
14.71
13.98
12.60
10.89
9.24
8.08
7.70
8.17
9.38
11.02
12.73
14.20
15.25
15.85
16.03
15.86
15.39
14.66
13.68
12.52
11.24
9.91
8.59
7.28
5.98
4.63
3.20
1.64
-0.07
-1.92
-3.83
-5.67
-7.29
-8.64
-9.73
-10.70
-11.79
-13.27
-15.36
-18.23
-21.82
-25.84
-29.65
-32.38
-33.17
-31.47
-27.27
-21.13
-14.01
-6.94
-0.69
4.37
8.22
11.04
12.98
14.12
14.49
14.18
13.43
12.51
11.74
11.27
11.15
11.30
11.64
12.12
12.70
13.34
13.96
14.46
14.79
14.90
14.86
14.69
14.38
13.88
13.09
11.94
10.47
8.82
7.25
5.95
5.03
4.38
3.78
2.93
1.66
-0.00
-1.84
-3.53
-4.82
-5.63
-6.11
-6.60
-7.50
-9.15
-11.68
-14.96
-18.58
-21.90
-24.21
-24.95
-23.74
-20.58
-15.77
-9.83
-3.42
2.81
8.27
12.57
15.56
17.33
18.14
18.28
18.01
17.47
16.74
15.89
15.06
14.42
14.15
14.30
14.76
15.32
15.72
15.81
15.62
15.32
15.06
14.94
14.80
14.42
13.55
12.10
10.21
8.17
6.33
4.88
3.78
2.82
1.68
0.13
-1.89
-4.25
-6.71
-9.08
-11.19
-13.02
-14.60
-16.02
-17.40
-18.99
-21.07
-23.90
-27.45
-31.36
-34.83
-36.95
-36.92
-34.42
-29.71
-23.50
-16.71
-10.17
-4.48
0.08
3.49
5.91
7.58
8.73
9.54
10.07
10.30
10.18
9.72
9.08
8.49
8.16
8.17
8.45
8.84
9.20
9.48
9.75
10.11
10.59
11.06
11.29
11.05
10.20
8.81
7.15
5.47
4.01
2.79
1.70
0.55
-0.78
-2.33
-3.99
-5.62
-7.15
-8.53
-9.86
-11.23
-12.65
-14.07
-15.41
-16.67
-18.08
-20.01
-22.82
-26.58
-30.83
-34.68
-37.00
-36.88
-33.96
-28.64
-21.80
-14.55
-7.81
-2.09
2.50
6.15
9.09
11.53
13.53
15.02
15.88
16.02
15.42
14.19
12.57
10.86
9.34
8.21
7.50
7.14
6.98
6.84
6.57
6.12
5.50
4.79
4.08
3.44
2.92
2.50
2.09
1.62
1.02
0.27
-0.59
-1.53
-2.55
-3.68
-4.99
-6.50
-8.15
-9.77
-11.16
-12.12
-12.58
-12.61
-12.41
-12.33
-12.75
-14.02
-16.31
-19.47
-22.95
-25.85
-27.24
-26.37
-23.05
-17.64
-10.95
-3.96
2.53
8.06
12.49
15.94
18.57
20.44
21.56
21.88
21.41
20.27
18.76
17.26
16.10
15.49
15.36
15.52
15.68
15.71
15.62
15.55
15.63
15.83
15.98
15.83
15.19
14.07
12.64
11.17
9.84
8.73
7.74
6.67
5.35
3.67
1.63
-0.69
-3.11
-5.44
-7.55
-9.32
-10.78
-12.09
-13.56
-15.59
-18.44
-22.12
-26.16
-29.77
-31.94
-31.87
-29.24
-24.37
-18.05
-11.32
-5.07
0.15
4.20
7.19
9.32
10.74
11.48
11.54
11.00
10.05
9.02
8.22
7.87
7.95
8.30
8.67
8.89
8.90
8.79
8.69
8.73
8.94
9.26
9.53
9.53
9.07
8.05
6.54
4.77
3.06
1.70
0.76
0.08
-0.71
-1.97
-3.87
-6.30
-8.91
-11.30
-13.18
-14.50
-15.41
-16.25
-17.43
-19.30
-22.10
-25.77
-29.93
-33.83
-36.52
-37.15
-35.26
-30.93
-24.78
-17.67
-10.52
-4.01
1.48
5.81
9.08
11.40
12.95
13.81
14.00
13.54
12.52
11.19
9.92
9.11
9.09
9.90
11.31
12.88
14.17
14.93
15.16
15.09
15.04
15.25
15.67
16.05
16.01
15.27
13.82
11.88
9.83
8.01
6.55
5.36
4.23
2.98
1.50
-0.17
-1.95
-3.77
-5.65
-7.62
-9.72
-11.91
-14.08
-16.14
-18.08
-20.05
-22.34
-25.21
-28.66
-32.25
-35.17
-36.40
-35.19
-31.31
-25.31
-18.21
-11.19
-5.14
-0.34
3.43
6.63
9.60
12.35
14.57
15.87
16.03
15.24
13.98
12.86
12.35
12.55
13.23
14.04
14.69
15.11
15.40
15.76
16.26
16.84
17.31
17.50
17.31
16.79
16.06
15.21
14.30
13.31
12.21
11.01
9.71
8.32
6.77
5.01
2.99
0.77
-1.52
-3.66
-5.42
-6.75
-7.73
-8.68
-9.99
-12.05
-15.09
-19.01
-23.39
-27.51
-30.52
-31.68
-30.56
-27.16
-21.90
-15.52
-8.79
-2.40
3.26
8.00
11.81
14.71
16.69
17.70
17.80
17.20
16.28
15.47
15.15
15.45
16.25
17.30
18.35
19.24
19.99
20.65
21.30
21.92
22.46
22.84
22.99
22.83
22.30
21.35
19.95
18.16
16.12
14.04
12.08
10.32
8.65
6.87
4.79
2.30
-0.52
-3.42
-6.06
-8.19
-9.80
-11.21
-12.97
-15.64
-19.50
-24.36
-29.57
-34.15
-37.18
-38.04
-36.58
-33.07
-28.04
-22.09
-15.75
-9.49
-3.75
1.08
4.70
7.02
8.16
8.48
8.39
8.23
8.15
8.12
8.10
8.10
8.26
8.78
9.77
11.09
12.42
13.40
13.81
13.71
13.40
13.21
13.32
13.64
13.88
13.74
13.12
12.11
10.93
9.78
8.70
7.54
6.18
4.50
2.54
0.45
-1.61
-3.54
-5.36
-7.14
-8.98
-10.88
-12.83
-14.79
-16.84
-19.23
-22.21
-25.94
-30.18
-34.27
-37.19
-38.00
-36.10
-31.57
-25.12
-17.81
-10.63
-4.20
1.32
6.08
10.31
14.06
17.19
19.43
20.58
20.66
19.91
18.71
17.44
16.34
15.59
15.24
15.35
15.93
16.95
18.23
19.48
20.39
20.71
20.39
19.54
18.36
17.06
15.74
14.43
13.07
11.65
10.19
8.74
7.30
5.82
4.15
2.13
-0.29
-3.02
-5.81
-8.33
-10.35
-11.80
-12.86
-13.83
-15.07
-16.85
-19.34
-22.55
-26.38
-30.58
-34.71
-38.12
-40.05
-39.79
-36.97
-31.70
-24.64
-16.75
-9.09
-2.39
2.98
7.11
10.26
12.67
14.39
15.28
15.17
14.05
12.20
10.16
8.54
7.81
8.08
9.07
10.31
11.40
12.16
12.76
13.44
14.34
15.32
16.02
16.04
15.27
13.94
12.51
11.42
10.76
10.25
9.43
7.94
5.75
3.20
0.79
-1.12
-2.43
-3.33
-4.20
-5.46
-7.48
-10.47
-14.45
-19.11
-23.76
-27.45
-29.21
-28.35
-24.78
-19.01
-11.95
-4.62
2.15
7.87
12.38
15.69
17.88
19.03
19.19
18.53
17.32
15.89
14.60
13.66
13.09
12.75
12.41
11.92
11.28
10.66
10.28
10.22
10.39
10.51
10.23
9.34
7.82
5.89
3.82
1.88
0.15
-1.49
-3.23
-5.28
-7.68
-10.28
-12.78
-14.90
-16.46
-17.49
-18.20
-18.92
-20.01
-21.75
-24.35
-27.72
-31.53
-35.10
-37.53
-37.98
-35.87
-31.12
-24.21
-16.01
-7.58
0.12
6.45
11.20
14.52
16.81
18.48
19.76
20.62
20.87
20.26
18.76
16.62
14.25
12.09
10.39
9.20
8.43
7.99
7.87
8.18
8.94
10.02
11.07
11.58
11.21
9.86
7.87
5.82
4.28
3.55
3.44
3.41
2.83
1.24
-1.35
-4.52
-7.63
-10.10
-11.63
-12.33
-12.56
-12.87
-13.77
-15.63
-18.62
-22.58
-27.00
-31.08
-33.86
-34.49
-32.53
-28.08
-21.75
-14.46
-7.20
-0.68
4.68
8.85
11.97
14.26
15.84
16.72
16.87
16.24
14.94
13.21
11.44
10.01
9.19
9.06
9.51
10.36
11.43
12.58
13.67
14.52
14.86
14.44
13.15
11.13
8.78
6.57
4.89
3.82
3.17
2.50
1.43
-0.27
-2.50
-4.92
-7.06
-8.56
-9.27
-9.40
-9.42
-9.93
-11.42
-14.09
-17.71
-21.60
-24.84
-26.46
-25.74
-22.42
-16.78
-9.54
-1.70
5.76
12.11
16.97
20.28
22.24
23.12
23.13
22.43
21.13
19.39
17.42
15.49
13.87
12.74
12.13
11.92
11.88
11.75
11.38
10.77
9.99
9.20
8.44
7.66
6.67
5.32
3.58
1.61
-0.33
-2.00
-3.36
-4.59
-5.95
-7.65
-9.66
-11.77
-13.69
-15.23
-16.38
-17.31
-18.26
-19.47
-21.16
-23.50
-26.63
-30.40
-34.38
-37.74
-39.48
-38.72
-35.11
-28.90
-20.94
-12.34
-4.16
2.88
8.48
12.69
15.75
17.94
19.42
20.23
20.27
19.47
17.90
15.84
13.70
11.92
10.74
10.17
10.00
9.95
9.87
9.73
9.61
9.57
9.57
9.45
9.00
8.06
6.65
4.94
3.21
1.73
0.62
-0.21
-0.99
-1.98
-3.37
-5.11
-7.03
-8.82
-10.25
-11.22
-11.78
-12.14
-12.62
-13.61
-15.53
-18.63
-22.82
-27.57
-31.92
-34.75
-35.15
-32.71
-27.67
-20.77
-12.99
-5.29
1.64
7.40
11.87
15.08
17.14
18.19
18.30
17.58
16.18
14.37
12.52
11.01
10.12
9.90
10.19
10.74
11.35
11.95
12.61
13.40
14.27
15.03
15.38
15.09
14.06
12.45
10.58
8.79
7.32
6.20
5.26
4.26
2.97
1.30
-0.63
-2.56
-4.25
-5.51
-6.37
-7.06
-7.93
-9.40
-11.81
-15.21
-19.30
-23.38
-26.43
-27.44
-25.76
-21.32
-14.73
-7.04
0.59
7.31
12.74
16.87
19.91
21.98
23.09
23.19
22.34
20.78
18.95
17.26
16.01
15.23
14.75
14.38
14.00
13.65
13.46
13.52
13.78
13.99
13.88
13.22
11.91
10.04
7.84
5.58
3.50
1.70
0.15
-1.30
-2.87
-4.74
-6.98
-9.51
-12.18
-14.77
-17.11
-19.10
-20.78
-22.33
-24.03
-26.20
-29.08
-32.61
-36.30
-39.32
-40.66
-39.56
-35.74
-29.60
-22.01
-14.05
-6.65
-0.33
4.79
8.83
11.96
14.29
15.79
16.43
16.26
15.46
14.32
13.15
12.21
11.59
11.31
11.30
11.50
11.81
12.16
12.42
12.47
12.24
11.65
10.69
9.36
7.71
5.84
3.96
2.29
0.94
-0.11
-1.08
-2.28
-3.98
-6.24
-8.87
-11.50
-13.76
-15.44
-16.58
-17.45
-18.46
-20.05
-22.45
-25.67
-29.35
-32.80
-35.20
-35.73
-33.91
-29.69
-23.48
-16.08
-8.35
-1.09
5.22
10.34
14.27
17.12
19.01
20.07
20.33
19.85
18.71
17.08
15.24
13.52
12.24
11.59
11.60
12.10
12.87
13.62
14.13
14.25
13.90
12.99
11.44
9.30
6.86
4.66
3.35
3.37
4.71
6.83
8.88
10.07
10.10
9.21
8.01
7.15
6.94
7.24
7.50
7.10
5.49
2.45
-1.94
-7.26
-12.78
-17.59
-20.77
-21.66
-20.05
-16.24
-10.89
-4.83
1.24
6.86
11.73
15.58
18.08
18.97
18.24
16.27
13.75
11.48
9.98
9.43
9.67
10.40
11.42
12.65
14.01
15.34
16.29
16.45
15.56
13.63
10.94
7.96
5.14
2.87
1.45
1.08
1.81
3.42
5.42
7.10
7.78
7.04
4.82
1.46
-2.61
-7.05
-11.86
-17.32
-23.75
-31.16
-39.00
-46.24
-51.57
-53.90
-52.71
-48.20
-41.24
-32.99
-24.56
-16.74
-9.94
-4.27
0.31
3.84
6.32
7.80
8.43
8.44
8.14
7.83
7.72
7.89
8.32
8.93
9.64
10.41
11.24
12.16
13.11
14.02
14.75
15.15
15.12
14.56
13.51
12.05
10.37
8.67
7.08
5.66
4.28
2.78
1.01
-1.07
-3.37
-5.71
-7.92
-9.86
-11.49
-12.83
-14.00
-15.21
-16.83
-19.25
-22.68
-26.97
-31.46
-35.18
-37.05
-36.32
-32.85
-27.05
-19.78
-12.01
-4.59
1.93
7.34
11.63
14.93
17.37
19.01
19.84
19.83
18.97
17.42
15.50
13.64
12.24
11.58
11.73
12.52
13.68
14.92
16.03
16.86
17.42
17.75
17.92
17.97
17.89
17.63
17.14
16.36
15.25
13.79
12.04
10.09
8.11
6.23
4.54
3.02
1.54
-0.08
-1.99
-4.22
-6.65
-9.06
-11.24
-13.05
-14.52
-15.89
-17.52
-19.83
-23.09
-27.28
-31.92
-36.16
-38.96
-39.45
-37.18
-32.34
-25.61
-17.98
-10.41
-3.56
2.29
7.10
10.98
13.98
16.10
17.30
17.62
17.20
16.35
15.44
14.79
14.63
14.95
15.58
16.33
17.02
17.62
18.21
18.88
19.68
20.45
20.96
20.91
20.13
18.71
16.93
15.20
13.83
12.93
12.30
11.57
10.40
8.60
6.22
3.55
0.92
-1.37
-3.24
-4.80
-6.31
-8.11
-10.51
-13.72
-17.72
-22.24
-26.71
-30.35
-32.37
-32.20
-29.64
-25.01
-18.97
-12.32
-5.84
-0.06
4.71
8.33
10.75
12.01
12.22
11.60
10.52
9.31
8.29
7.61
7.29
7.27
7.48
7.92
8.55
9.31
10.09
10.76
11.24
11.56
11.76
11.90
11.93
11.71
11.12
10.12
8.79
7.34
5.92
4.61
3.34
1.95
0.30
-1.66
-3.86
-6.11
-8.25
-10.15
-11.77
-13.20
-14.56
-15.99
-17.68
-19.80
-22.50
-25.76
-29.27
-32.39
-34.29
-34.17
-31.65
-26.88
-20.55
-13.58
-6.85
-0.89
4.10
8.22
11.62
14.38
16.48
17.86
18.43
18.18
17.17
15.61
13.86
12.35
11.49
11.49
12.28
13.52
14.80
15.76
16.24
16.32
16.17
15.92
15.60
15.11
14.35
13.31
12.08
10.83
9.70
8.73
7.81
6.78
5.44
3.72
1.61
-0.72
-3.03
-5.10
-6.76
-7.99
-8.90
-9.69
-10.64
-12.00
-13.99
-16.75
-20.23
-24.09
-27.72
-30.32
-31.13
-29.72
-26.16
-20.99
-15.07
-9.23
-4.05
0.29
3.88
6.90
9.45
11.43
12.63
12.90
12.24
10.97
9.58
8.56
8.22
8.57
9.32
10.05
10.49
10.59
10.52
10.52
10.73
11.10
11.38
11.32
10.79
9.83
8.70
7.67
6.96
6.56
6.26
5.77
4.86
3.45
1.74
0.04
-1.33
-2.22
-2.67
-2.92
-3.36
-4.36
-6.23
-9.04
-12.58
-16.26
-19.23
-20.63
-19.84
-16.83
-12.08
-6.48
-0.97
3.80
7.54
10.29
12.22
13.47
14.07
13.98
13.23
11.92
10.30
8.63
7.19
6.10
5.41
5.00
4.76
4.57
4.43
4.43
4.65
5.09
5.61
6.00
6.02
5.56
4.68
3.55
2.38
1.26
0.19
-0.92
-2.16
-3.49
-4.88
-6.19
-7.39
-8.46
-9.45
-10.40
-11.33
-12.23
-13.04
-13.71
-14.30
-14.98
-16.04
-17.79
-20.38
-23.60
-26.87
-29.33
-30.13
-28.71
-25.06
-19.66
-13.31
-6.93
-1.22
3.40
6.86
9.28
10.89
11.89
12.39
12.44
12.05
11.29
10.24
9.00
7.70
6.41
5.25
4.30
3.65
3.30
3.19
3.21
3.25
3.20
3.03
2.74
2.32
1.76
1.07
0.29
-0.48
-1.15
-1.68
-2.05
-2.31
-2.47
-2.56
-2.64
-2.86
-3.38
-4.37
-5.86
-7.69
-9.57
-11.19
-12.35
-13.03
-13.43
-13.85
-14.66
-16.17
-18.58
-21.83
-25.55
-29.03
-31.40
-31.88
-30.04
-26.02
-20.45
-14.24
-8.26
-3.13
0.96
4.13
6.60
8.57
10.09
11.10
11.56
11.52
11.17
10.79
10.58
10.65
10.98
11.42
11.88
12.32
12.73
13.16
13.57
13.88
13.97
13.71
13.03
11.92
10.44
8.68
6.78
4.91
3.17
1.60
0.15
-1.29
-2.85
-4.55
-6.29
-7.86
-9.02
-9.59
-9.62
-9.34
-9.21
-9.65
-11.01
-13.30
-16.18
-18.98
-20.91
-21.20
-19.43
-15.52
-9.87
-3.18
3.73
10.10
15.35
19.19
21.56
22.57
22.44
21.48
20.01
18.37
16.86
15.66
14.81
14.22
13.67
13.03
12.21
11.29
10.41
9.71
9.21
8.83
8.40
7.67
6.50
4.85
2.81
0.58
-1.62
-3.58
-5.20
-6.49
-7.60
-8.72
-10.03
-11.64
-13.51
-15.52
-17.47
-19.15
-20.41
-21.25
-21.87
-22.65
-24.01
-26.21
-29.11
-32.16
-34.44
-34.99
-33.23
-29.10
-23.20
-16.42
-9.72
-3.78
1.04
4.71
7.41
9.31
10.58
11.25
11.36
10.93
10.09
9.05
8.06
7.31
6.89
6.74
6.73
6.74
6.76
6.90
7.26
7.88
8.57
9.06
9.02
8.28
6.87
5.03
3.13
1.51
0.36
-0.36
-0.93
-1.69
-2.95
-4.76
-6.96
-9.17
-11.03
-12.35
-13.16
-13.68
-14.20
-14.98
-16.24
-18.11
-20.64
-23.69
-26.84
-29.39
-30.52
-29.58
-26.36
-21.18
-14.83
-8.23
-2.14
3.06
7.31
10.76
13.57
15.77
17.28
17.95
17.71
16.63
15.00
13.20
11.68
10.73
10.43
10.62
11.01
11.35
11.53
11.62
11.76
12.00
12.20
12.08
11.42
10.20
8.70
7.30
6.33
5.78
5.34
4.59
3.24
1.38
-0.60
-2.24
-3.23
-3.57
-3.52
-3.51
-3.90
-4.98
-6.89
-9.69
-13.18
-16.95
-20.24
-22.20
-22.09
-19.60
-15.01
-9.09
-2.81
2.94
7.68
11.30
13.99
15.96
17.35
18.16
18.39
18.06
17.37
16.54
15.86
15.51
15.58
16.05
16.83
17.79
18.80
19.72
20.43
20.85
21.01
20.97
20.78
20.40
19.74
18.65
17.06
15.03
12.72
10.32
7.90
5.43
2.75
-0.23
-3.49
-6.80
-9.84
-12.36
-14.39
-16.30
-18.71
-22.15
-26.73
-31.96
-36.79
-39.97
-40.52
-38.07
-32.97
-26.15
-18.68
-11.49
-5.17
0.04
4.13
7.23
9.46
10.97
11.91
12.42
12.64
12.67
12.63
12.59
12.55
12.53
12.52
12.52
12.60
12.82
13.23
13.78
14.30
14.56
14.34
13.51
12.07
10.16
8.01
5.85
3.92
2.30
1.01
-0.11
-1.31
-2.82
-4.79
-7.19
-9.81
-12.35
-14.50
-16.12
-17.26
-18.23
-19.46
-21.41
-24.36
-28.28
-32.69
-36.71
-39.33
-39.67
-37.28
-32.29
-25.38
-17.49
-9.58
-2.35
3.82
8.81
12.68
15.53
17.47
18.60
19.05
18.94
18.46
17.74
16.91
16.09
15.38
14.93
14.87
15.28
16.14
17.25
18.37
19.25
19.75
19.85
19.67
19.33
18.90
18.38
17.67
16.70
15.48
14.09
12.67
11.35
10.14
8.96
7.64
5.99
3.92
1.45
-1.23
-3.89
-6.33
-8.42
-10.22
-11.90
-13.71
-15.97
-18.95
-22.86
-27.65
-32.94
-38.01
-41.91
-43.65
-42.60
-38.65
-32.30
-24.51
-16.46
-9.16
-3.22
1.25
4.57
7.19
9.46
11.43
12.92
13.67
13.62
13.00
12.27
11.99
12.49
13.75
15.48
17.26
18.74
19.83
20.62
21.27
21.92
22.53
22.98
23.03
22.51
21.34
19.64
17.67
15.74
14.10
12.82
11.76
10.61
9.11
7.12
4.75
2.29
0.10
-1.61
-2.84
-3.81
-4.89
-6.45
-8.74
-11.89
-15.83
-20.28
-24.76
-28.59
-31.02
-31.40
-29.42
-25.16
-19.12
-12.12
-5.01
1.42
6.70
10.66
13.38
15.12
16.18
16.78
17.05
17.03
16.74
16.26
15.75
15.40
15.32
15.55
16.00
16.54
17.06
17.53
18.00
18.50
18.99
19.32
19.29
18.75
17.69
16.27
14.72
13.20
11.76
10.29
8.64
6.78
4.78
2.86
1.19
-0.19
-1.44
-2.84
-4.63
-6.92
-9.60
-12.49
-15.30
-17.80
-19.82
-21.37
-22.64
-24.04
-26.06
-29.11
-33.21
-37.89
-42.17
-44.91
-45.18
-42.56
-37.30
-30.14
-22.03
-13.88
-6.33
0.24
5.66
9.88
12.95
14.98
16.16
16.70
16.80
16.68
16.45
16.18
15.93
15.70
15.56
15.56
15.80
16.34
17.13
18.06
18.90
19.40
19.40
18.84
17.80
16.41
14.86
13.31
11.90
10.71
9.76
8.97
8.16
7.09
5.62
3.78
1.84
0.17
-0.95
-1.47
-1.74
-2.27
-3.56
-5.82
-8.85
-12.20
-15.31
-17.82
-19.63
-20.97
-22.27
-24.00
-26.54
-29.96
-33.96
-37.84
-40.68
-41.58
-39.95
-35.73
-29.39
-21.77
-13.83
-6.35
0.16
5.54
9.83
13.13
15.53
17.02
17.54
17.10
15.84
14.14
12.54
11.63
11.79
13.10
15.27
17.75
20.00
21.64
22.55
22.81
22.56
21.83
20.58
18.70
16.22
13.34
10.41
7.80
5.76
4.32
3.32
2.54
1.74
0.74
-0.53
-2.08
-3.88
-5.79
-7.59
-9.05
-9.95
-10.29
-10.24
-10.19
-10.66
-12.12
-14.86
-18.88
-23.82
-28.95
-33.38
-36.16
-36.63
-34.47
-29.90
-23.53
-16.21
-8.78
-1.91
4.04
8.91
12.72
15.49
17.25
18.04
17.99
17.27
16.16
14.96
13.99
13.52
13.74
14.67
16.19
18.03
19.85
21.34
22.33
22.78
22.73
22.26
21.35
20.02
18.30
16.29
14.20
12.25
10.59
9.22
8.03
6.80
5.26
3.25
0.70
-2.32
-5.65
-9.04
-12.31
-15.28
-17.92
-20.29
-22.56
-25.00
-27.95
-31.67
-36.20
-41.21
-45.97
-49.49
-50.72
-49.00
-44.22
-36.92
-28.10
-18.93
-10.41
-3.17
2.57
6.92
10.12
12.40
13.94
14.86
15.26
15.25
15.01
14.71
14.52
14.58
14.99
15.76
16.80
17.98
19.10
19.99
20.49
20.57
20.29
19.79
19.20
18.55
17.78
16.76
15.36
13.56
11.44
9.16
6.85
4.60
2.40
0.16
-2.21
-4.72
-7.31
-9.87
-12.33
-14.65
-16.88
-19.10
-21.34
-23.68
-26.23
-29.20
-32.81
-37.18
-42.12
-46.99
-50.80
-52.38
-50.87
-45.99
-38.25
-28.75
-18.84
-9.68
-1.95
4.20
9.02
12.86
15.97
18.36
19.94
20.60
20.47
19.85
19.14
18.71
18.70
19.10
19.77
20.56
21.42
22.34
23.30
24.19
24.85
25.13
24.92
24.23
23.09
21.61
19.84
17.87
15.76
13.55
11.30
9.05
6.85
4.77
2.84
1.01
-0.87
-3.02
-5.61
-8.61
-11.78
-14.72
-17.04
-18.65
-19.82
-21.12
-23.25
-26.64
-31.34
-36.78
-41.95
-45.66
-46.91
-45.17
-40.51
-33.59
-25.36
-16.82
-8.74
-1.57
4.51
9.49
13.40
16.27
18.10
18.94
18.91
18.25
17.30
16.40
15.88
15.90
16.49
17.50
18.72
19.95
21.09
22.14
23.10
23.95
24.54
24.66
24.08
22.75
20.81
18.58
16.42
14.57
13.03
11.61
10.04
8.13
5.86
3.39
0.95
-1.35
-3.53
-5.78
-8.38
-11.54
-15.39
-19.83
-24.60
-29.20
-32.97
-35.22
-35.33
-33.01
-28.35
-21.81
-14.10
-6.05
1.66
8.54
14.32
18.85
22.09
24.03
24.72
24.36
23.28
21.88
20.59
19.70
19.33
19.43
19.88
20.54
21.30
22.06
22.72
23.16
23.27
22.99
22.27
21.13
19.58
17.59
15.21
12.54
9.74
7.02
4.57
2.41
0.43
-1.58
-3.84
-6.40
-9.17
-11.91
-14.40
-16.54
-18.39
-20.18
-22.19
-24.66
-27.71
-31.33
-35.35
-39.44
-43.10
-45.69
-46.52
-45.00
-40.93
-34.51
-26.39
-17.46
-8.58
-0.38
6.79
12.82
17.69
21.40
23.92
25.27
25.61
25.23
24.49
23.73
23.17
22.86
22.74
22.71
22.69
22.69
22.74
22.91
23.18
23.47
23.63
23.43
22.76
21.55
19.84
17.81
15.57
13.26
10.92
8.57
6.25
4.03
2.04
0.32
-1.16
-2.56
-4.07
-5.85
-7.91
-10.13
-12.39
-14.54
-16.59
-18.66
-20.92
-23.62
-26.92
-30.87
-35.29
-39.72
-43.45
-45.61
-45.45
-42.61
-37.20
-29.86
-21.46
-12.91
-4.87
2.32
8.56
13.86
18.22
21.57
23.81
24.86
24.83
23.96
22.68
21.45
20.63
20.40
20.68
21.26
21.88
22.33
22.59
22.70
22.69
22.55
22.17
21.44
20.35
19.00
17.57
16.18
14.85
13.47
11.92
10.15
8.27
6.45
4.78
3.25
1.63
-0.32
-2.73
-5.48
-8.31
-10.89
-13.04
-14.78
-16.35
-18.00
-20.00
-22.46
-25.44
-28.91
-32.71
-36.52
-39.82
-41.92
-42.17
-40.18
-35.96
-29.93
-22.79
-15.27
-7.96
-1.26
4.64
9.59
13.46
16.05
17.26
17.12
15.88
14.04
12.20
10.89
10.42
10.77
11.71
12.91
14.06
15.05
15.87
16.57
17.12
17.41
17.30
16.71
15.69
14.38
12.98
11.65
10.38
9.12
7.73
6.13
4.27
2.17
-0.07
-2.37
-4.60
-6.72
-8.68
-10.56
-12.56
-14.94
-17.96
-21.82
-26.46
-31.54
-36.40
-40.16
-41.93
-41.15
-37.72
-32.09
-25.05
-17.47
-10.04
-3.14
3.06
8.46
12.91
16.22
18.24
18.97
18.63
17.62
16.38
15.26
14.48
14.11
14.10
14.35
14.78
15.28
15.78
16.25
16.60
16.79
16.73
16.31
15.47
14.13
12.32
10.13
7.74
5.41
3.36
1.74
0.50
-0.59
-1.85
-3.55
-5.78
-8.44
-11.28
-14.03
-16.51
-18.68
-20.67
-22.67
-24.87
-27.48
-30.66
-34.45
-38.68
-42.86
-46.21
-47.82
-46.93
-43.25
-37.02
-29.00
-20.17
-11.45
-3.48
3.42
9.16
13.74
17.17
19.45
20.63
20.84
20.30
19.31
18.19
17.21
16.58
16.37
16.55
16.95
17.34
17.53
17.47
17.24
17.01
16.89
16.82
16.56
15.74
14.05
11.37
7.89
4.01
0.30
-2.81
-5.09
-6.70
-8.06
-9.75
-12.28
-15.89
-20.42
-25.35
-29.82
-32.81
-33.38
-30.94
-25.59
-18.28
-10.76
-5.20
-3.54
-6.75
-14.42
-24.77
-35.17
-43.04
-46.56
-45.11
-39.22
-30.15
-19.38
-8.25
2.09
10.59
16.24
18.17
16.00
10.07
1.60
-7.53
-15.49
-21.02
-23.96
-25.16
-25.99
-27.21
-28.67
-29.42
-28.24
-24.48
-18.58
-12.18
-7.45
-6.11
-8.04
-11.42
-13.54
-12.26
-7.15
0.21
6.94
10.10
8.02
1.64
-6.58
-14.02
-19.27
-22.54
-25.27
-29.51
-37.23
-49.72
-65.33
-81.57
-96.46
-109.60
-121.71
-133.54
-145.41
-157.21
-168.59
-175.47
-174.43
-165.21
-151.28
-137.40
-126.30
-117.75
-109.26
-97.73
-74.74
-33.99
24.91
95.35
167.66
234.20
291.40
339.37
380.45
425.82
485.88
565.02
659.60
762.02
865.57
965.32
1056.45
1083.82
1006.89
822.49
573.47
319.52
103.62
-57.90
-168.30
-240.29
-288.62
-316.60
-323.36
-309.85
-283.95
-256.65
-237.17
-230.02
-235.03
-249.52
-263.30
-267.04
-257.55
-239.63
-222.52
-215.02
-223.24
-245.05
-277.34
-311.03
-336.11
-345.40
-337.13
-314.23
-282.10
-246.64
-212.79
-184.29
-160.38
-138.45
-116.42
-94.37
-74.03
-57.19
-44.46
-35.05
-27.70
-20.23
-11.10
-0.17
11.28
21.42
28.96
33.60
36.02
37.06
37.60
38.19
38.86
39.28
38.99
37.66
35.32
32.28
28.87
25.44
22.21
19.20
16.33
13.47
10.61
7.81
5.20
2.81
0.58
-1.69
-4.30
-7.58
-11.76
-16.72
-21.95
-26.54
-29.42
-29.70
-26.97
-21.46
-13.95
-5.47
3.02
10.86
17.72
23.55
28.36
32.16
34.88
36.44
36.85
36.20
34.73
32.79
30.75
28.92
27.54
26.70
26.36
26.40
26.64
26.87
26.89
26.51
25.62
24.19
22.28
19.95
17.36
14.62
11.85
9.22
6.91
5.07
3.79
3.02
2.55
2.04
1.15
-0.34
-2.46
-4.98
-7.58
-9.90
-11.72
-13.07
-14.22
-15.65
-17.86
-21.20
-25.60
-30.54
-35.12
-38.29
-39.15
-37.27
-32.75
-26.17
-18.40
-10.35
-2.75
3.92
9.41
13.65
16.66
18.59
19.59
19.90
19.77
19.46
19.16
19.02
19.10
19.37
19.78
20.28
20.80
21.29
21.66
21.81
21.58
20.86
19.60
17.88
15.88
13.76
11.69
9.70
7.77
5.86
3.94
2.05
0.23
-1.51
-3.20
-4.86
-6.50
-8.04
-9.39
-10.56
-11.73
-13.21
-15.36
-18.34
-21.92
-25.46
-28.05
-28.86
-27.40
-23.74
-18.45
-12.34
-6.23
-0.67
4.10
8.12
11.50
14.32
16.49
17.86
18.23
17.55
15.93
13.74
11.45
9.58
8.46
8.21
8.72
9.73
10.91
12.02
12.88
13.43
13.66
13.56
13.20
12.63
11.93
11.19
10.45
9.70
8.84
7.74
6.30
4.49
2.44
0.35
-1.51
-2.96
-3.92
-4.42
-4.58
-4.57
-4.53
-4.58
-4.86
-5.44
-6.45
-8.03
-10.25
-13.08
-16.29
-19.42
-21.85
-22.98
-22.39
-20.05
-16.27
-11.64
-6.78
-2.19
1.84
5.24
8.01
10.18
11.75
12.68
12.96
12.56
11.55
10.08
8.38
6.75
5.48
4.75
4.60
4.86
5.27
5.56
5.58
5.31
4.84
4.35
3.99
3.89
4.05
4.44
4.88
5.11
4.87
3.95
2.31
0.12
-2.29
-4.54
-6.36
-7.70
-8.75
-9.82
-11.15
-12.81
-14.67
-16.46
-17.87
-18.65
-18.73
-18.26
-17.48
-16.81
-16.63
-17.18
-18.40
-19.86
-20.88
-20.77
-19.06
-15.70
-11.05
-5.72
-0.40
4.32
8.04
10.64
12.20
12.99
13.30
13.38
13.28
12.89
11.95
10.31
8.00
5.33
2.82
0.88
-0.28
-0.76
-0.82
-0.76
-0.75
-0.80
-0.86
-0.94
-1.11
-1.53
-2.26
-3.25
-4.30
-5.12
-5.52
-5.49
-5.18
-4.95
-5.13
-5.93
-7.34
-9.14
-10.98
-12.50
-13.47
-13.86
-13.82
-13.64
-13.62
-14.02
-14.99
-16.51
-18.33
-19.97
-20.83
-20.37
-18.35
-14.88
-10.42
-5.61
-1.06
2.77
5.63
7.47
8.40
8.59
8.31
7.80
7.26
6.74
6.23
5.65
4.99
4.40
4.07
4.17
4.75
5.62
6.49
7.07
7.21
6.96
6.54
6.17
5.97
5.86
5.61
5.04
4.07
2.83
1.60
0.63
0.03
-0.33
-0.67
-1.26
-2.26
-3.66
-5.31
-7.07
-8.84
-10.58
-12.25
-13.74
-14.90
-15.64
-16.02
-16.28
-16.79
-17.75
-19.08
-20.31
-20.81
-20.01
-17.68
-14.06
-9.77
-5.53
-2.01
0.39
1.63
1.89
1.52
0.87
0.15
-0.57
-1.32
-2.18
-3.14
-4.08
-4.77
-4.97
-4.53
-3.44
-1.79
0.27
2.51
4.73
6.74
8.31
9.28
9.53
9.10
8.10
6.78
5.43
4.31
3.51
2.92
2.25
1.12
-0.72
-3.24
-6.06
-8.61
-10.32
-10.93
-10.60
-9.86
-9.39
-9.71
-11.05
-13.24
-15.77
-17.99
-19.24
-19.04
-17.19
-13.81
-9.35
-4.50
0.02
3.64
6.13
7.60
8.36
8.84
9.28
9.75
10.11
10.18
9.86
9.24
8.56
8.10
8.01
8.26
8.67
9.03
9.20
9.20
9.13
9.13
9.23
9.27
9.05
8.35
7.12
5.47
3.65
1.94
0.52
-0.62
-1.67
-2.84
-4.28
-6.02
-7.96
-10.05
-12.20
-14.41
-16.59
-18.44
-19.56
-19.44
-17.76
-14.51
-10.10
-5.23
-0.59
3.30
6.25
8.36
9.87
10.94
11.59
11.72
11.24
10.20
8.81
7.42
6.34
5.78
5.77
6.17
6.80
7.47
8.03
8.37
8.43
8.23
7.84
7.36
6.85
6.30
5.69
5.01
4.27
3.50
2.70
1.78
0.66
-0.76
-2.43
-4.25
-6.06
-7.78
-9.51
-11.46
-13.86
-16.77
-19.95
-22.85
-24.75
-24.97
-23.18
-19.52
-14.59
-9.23
-4.24
-0.18
2.78
4.77
6.05
6.87
7.37
7.54
7.36
6.81
5.95
4.94
3.94
3.05
2.33
1.69
1.08
0.44
-0.21
-0.79
-1.24
-1.55
-1.77
-2.00
-2.35
-2.86
-3.50
-4.24
-5.01
-5.83
-6.73
-7.76
-8.94
-10.21
-11.38
-12.23
-12.57
-12.38
-11.83
-11.28
-11.21
-12.00
-13.78
-16.38
-19.26
-21.70
-22.99
-22.63
-20.46
-16.77
-12.10
-7.14
-2.50
1.46
4.61
7.02
8.76
9.87
10.30
10.02
9.13
7.88
6.64
5.77
5.50
5.84
6.55
7.27
7.72
7.75
7.50
7.26
7.32
7.83
8.66
9.47
9.89
9.63
8.69
7.26
5.63
4.03
2.61
1.40
0.44
-0.24
-0.64
-0.95
-1.49
-2.66
-4.68
-7.35
-10.00
-11.68
-11.51
-9.04
-4.45
1.55
8.03
14.12
19.29
23.30
26.13
27.86
28.55
28.32
27.32
25.75
23.84
21.82
19.87
18.16
16.83
15.98
15.68
15.86
16.37
16.97
17.44
17.62
17.46
17.01
16.34
15.52
14.57
13.48
12.27
10.93
9.49
7.91
6.18
4.31
2.28
0.18
-1.90
-3.87
-5.75
-7.65
-9.81
-12.48
-15.74
-19.36
-22.78
-25.19
-25.85
-24.32
-20.67
-15.48
-9.54
-3.63
1.74
6.34
10.13
13.13
15.29
16.54
16.87
16.42
15.43
14.16
12.86
11.61
10.48
9.51
8.83
8.59
8.89
9.71
10.82
11.84
12.38
12.19
11.23
9.67
7.81
5.96
4.31
2.92
1.73
0.55
-0.80
-2.48
-4.54
-6.88
-9.31
-11.52
-13.24
-14.29
-14.74
-14.86
-15.13
-16.02
-17.80
-20.36
-23.18
-25.45
-26.33
-25.24
-22.03
-17.08
-11.09
-4.94
0.61
5.03
8.13
10.00
10.86
10.90
10.25
8.89
6.84
4.27
1.53
-0.91
-2.57
-3.24
-2.98
-2.06
-0.83
0.45
1.66
2.77
3.79
4.69
5.42
5.93
6.14
6.03
5.50
4.52
3.10
1.38
-0.36
-1.80
-2.71
-3.00
-2.80
-2.36
-1.96
-1.86
-2.21
-3.07
-4.36
-5.82
-7.03
-7.45
-6.63
-4.25
-0.39
4.60
10.07
15.32
19.73
22.94
24.86
25.63
25.55
24.92
23.99
22.94
21.81
20.62
19.36
18.05
16.73
15.49
14.41
13.53
12.85
12.28
11.70
10.99
10.09
9.05
7.98
6.99
6.13
5.33
4.42
3.20
1.54
-0.58
-3.05
-5.67
-8.27
-10.72
-12.91
-14.81
-16.36
-17.64
-18.83
-20.19
-21.92
-24.02
-26.11
-27.57
-27.72
-26.07
-22.56
-17.59
-11.84
-6.09
-0.97
3.16
6.21
8.29
9.58
10.30
10.56
10.36
9.75
8.73
7.46
6.17
5.14
4.56
4.50
4.85
5.46
6.14
6.72
7.05
6.98
6.36
5.18
3.54
1.66
-0.20
-1.84
-3.31
-4.79
-6.54
-8.68
-11.10
-13.49
-15.54
-17.03
-17.99
-18.62
-19.19
-19.92
-21.00
-22.49
-24.34
-26.36
-28.15
-29.18
-28.93
-27.05
-23.56
-18.85
-13.61
-8.55
-4.20
-0.77
1.82
3.77
5.26
6.31
6.77
6.48
5.45
3.87
2.14
0.68
-0.17
-0.37
-0.08
0.40
0.79
1.02
1.19
1.54
2.23
3.26
4.35
5.10
5.09
4.09
2.15
-0.40
-3.07
-5.46
-7.33
-8.72
-9.83
-11.00
-12.56
-14.74
-17.66
-21.27
-25.32
-29.37
-32.88
-35.38
-36.62
-36.69
-36.06
-35.29
-34.85
-34.80
-34.79
-34.32
-33.06
-31.27
-29.74
-29.42
-30.91
-34.02
-37.86
-41.31
-43.61
-44.44
-44.14
-43.32
-42.28
-40.76
-38.14
-34.05
-28.66
-22.62
-16.41
-10.29
-4.70
-0.70
-0.16
-5.36
-17.87
-37.53
-62.05
-87.17
-109.02
-125.84
-138.47
-149.12
-159.47
-169.36
-176.65
-178.33
-170.58
-152.19
-125.48
-95.31
-66.55
-42.10
-22.39
-6.09
8.75
26.88
50.85
79.24
107.63
131.42
148.28
158.39
163.66
166.64
174.88
193.38
221.70
254.92
287.65
317.25
344.06
370.50
400.01
442.60
504.24
582.27
665.52
739.76
793.66
821.27
822.99
762.13
627.44
440.58
245.63
79.16
-45.75
-132.81
-191.14
-228.50
-250.61
-255.67
-244.22
-222.70
-200.22
-183.71
-174.91
-172.21
-172.82
-174.92
-173.20
-165.48
-154.38
-146.02
-146.55
-154.32
-167.25
-182.96
-200.01
-215.05
-226.90
-237.47
-250.43
-268.11
-289.31
-310.39
-326.22
-332.54
-325.90
-306.36
-277.57
-244.96
-213.18
-184.37
-158.98
-136.33
-115.88
-97.14
-80.23
-65.53
-53.18
-42.77
-33.38
-24.50
-16.02
-8.34
-2.12
2.08
4.16
4.55
4.02
3.49
3.46
4.13
5.36
6.80
8.07
8.82
8.86
8.06
6.37
3.83
0.70
-2.41
-4.67
-5.21
-3.46
0.66
6.61
13.46
20.21
26.08
30.73
34.17
36.55
38.00
38.53
38.03
36.49
34.07
31.12
28.09
25.36
23.13
21.46
20.28
19.52
19.15
19.20
19.64
20.32
21.00
21.40
21.34
20.83
20.07
19.29
18.67
18.16
17.54
16.57
15.09
13.18
11.07
8.98
6.98
5.01
2.90
0.48
-2.30
-5.52
-9.28
-13.71
-18.73
-23.93
-28.52
-31.49
-31.94
-29.48
-24.36
-17.44
-9.78
-2.39
4.10
9.48
13.82
17.32
20.06
22.04
23.14
23.26
22.46
21.00
19.34
17.99
17.30
17.40
18.10
19.11
20.13
21.00
21.70
22.30
22.82
23.24
23.42
23.27
22.73
21.88
20.79
19.54
18.16
16.61
14.95
13.23
11.60
10.12
8.74
7.32
5.64
3.60
1.27
-1.14
-3.37
-5.27
-6.91
-8.57
-10.62
-13.42
-17.12
-21.53
-26.19
-30.36
-33.25
-34.19
-32.82
-29.17
-23.63
-16.86
-9.59
-2.48
3.96
9.41
13.72
16.83
18.77
19.70
19.83
19.40
18.63
17.73
16.81
16.02
15.49
15.40
15.85
16.84
18.21
19.71
21.03
21.92
22.16
21.60
20.17
18.03
15.68
13.92
13.64
15.37
19.04
23.81
28.33
31.20
31.36
28.35
22.41
14.38
5.53
-2.80
-9.47
-13.99
-16.61
-18.21
-19.92
-22.69
-26.90
-32.32
-38.31
-44.07
-48.79
-51.87
-52.86
-51.58
-48.06
-42.63
-35.93
-28.76
-22.00
-16.28
-11.89
-8.80
-6.66
-5.10
-3.81
-2.73
-2.03
-1.93
-2.54
-3.85
-5.80
-8.27
-10.97
-13.40
-14.96
-15.17
-13.96
-11.54
-8.69
-6.79
-7.28
-11.14
-18.37
-27.87
-37.71
-45.54
-48.67
-45.68
-37.21
-25.80
-14.64
-6.08
-0.82
2.20
5.52
12.83
26.67
47.01
71.18
95.13
115.14
128.69
134.81
134.59
131.02
126.73
122.79
119.14
115.95
114.80
118.14
127.89
134.56
129.55
109.52
78.34
42.96
9.20
-19.14
-39.89
-52.03
-52.26
-39.13
-12.48
25.04
67.70
107.94
138.56
154.85
146.10
112.66
65.32
19.39
-13.59
-30.38
-34.96
-33.92
-32.22
-31.51
-29.97
-25.46
-17.91
-10.66
-7.06
-9.06
-16.08
-25.65
-34.61
-40.34
-42.02
-41.07
-40.57
-43.84
-53.47
-70.79
-96.39
-125.11
-152.57
-174.75
-188.64
-192.98
-188.36
-176.97
-161.65
-144.79
-127.54
-110.23
-92.50
-74.38
-56.70
-40.77
-27.79
-18.06
-10.88
-4.81
1.06
7.15
13.17
18.28
21.66
22.97
22.47
21.07
19.90
19.57
20.34
21.87
23.50
24.58
24.80
24.39
23.92
24.04
24.87
26.12
27.16
27.38
26.48
24.65
22.43
20.33
18.66
17.28
15.84
13.99
11.55
8.58
5.32
2.07
-0.96
-3.67
-6.02
-8.10
-10.04
-12.06
-14.48
-17.54
-21.26
-25.33
-29.07
-31.62
-32.22
-30.49
-26.53
-20.90
-14.41
-7.89
-1.95
3.07
7.04
10.05
12.23
13.74
14.73
15.27
15.42
15.22
14.72
14.06
13.38
12.87
12.64
12.69
12.95
13.28
13.49
13.47
13.10
12.36
11.30
9.96
8.45
6.80
5.05
3.16
1.09
-1.16
-3.53
-5.87
-8.00
-9.72
-10.96
-11.74
-12.29
-12.90
-13.94
-15.68
-18.24
-21.46
-24.90
-27.90
-29.80
-30.00
-28.23
-24.52
-19.28
-13.13
-6.78
-0.87
4.12
8.02
10.83
12.69
13.73
14.04
13.65
12.65
11.29
9.88
8.81
8.31
8.42
8.99
9.75
10.50
11.15
11.67
12.08
12.32
12.29
11.88
11.04
9.85
8.46
7.05
5.76
4.61
3.55
2.41
1.04
-0.63
-2.58
-4.66
-6.69
-8.54
-10.29
-12.18
-14.61
-17.82
-21.75
-25.89
-29.40
-31.36
-31.11
-28.45
-23.69
-17.44
-10.47
-3.46
3.05
8.69
13.22
16.58
18.75
19.83
19.89
19.06
17.49
15.45
13.31
11.49
10.31
9.93
10.27
11.11
12.17
13.21
14.12
14.85
15.42
15.80
15.96
15.84
15.45
14.77
13.81
12.54
10.89
8.77
6.15
3.09
-0.18
-3.34
-6.06
-8.17
-9.73
-11.10
-12.80
-15.36
-19.03
-23.69
-28.71
-33.17
-36.04
-36.51
-34.25
-29.50
-22.94
-15.50
-8.04
-1.20
4.76
9.81
14.00
17.33
19.71
21.01
21.25
20.62
19.53
18.47
17.87
17.91
18.53
19.41
20.26
20.84
21.12
21.26
21.40
21.64
21.88
21.91
21.43
20.22
18.24
15.64
12.64
9.47
6.26
3.05
-0.16
-3.42
-6.73
-10.06
-13.43
-16.91
-20.57
-24.38
-28.12
-31.21
-32.92
-32.52
-29.62
-24.36
-17.41
-9.79
-2.47
3.86
8.89
12.70
15.43
17.21
18.04
17.93
17.01
15.59
14.03
12.75
12.01
11.85
12.23
12.97
13.97
15.10
16.33
17.59
18.77
19.74
20.32
20.40
19.90
18.84
17.31
15.47
13.41
11.20
8.83
6.26
3.53
0.73
-1.96
-4.37
-6.42
-8.21
-10.05
-12.32
-15.39
-19.31
-23.75
-27.96
-30.99
-31.97
-30.42
-26.47
-20.76
-14.26
-7.84
-2.15
2.59
6.43
9.54
12.01
13.83
14.91
15.15
14.54
13.26
11.68
10.23
9.33
9.24
9.98
11.34
12.94
14.50
15.80
16.74
17.31
17.45
17.07
16.08
14.54
12.63
10.66
8.87
7.34
5.90
4.27
2.20
-0.39
-3.34
-6.31
-8.94
-10.95
-12.24
-12.96
-13.45
-14.18
-15.55
-17.74
-20.59
-23.53
-25.77
-26.51
-25.21
-21.84
-16.87
-11.13
-5.53
-0.77
2.84
5.33
6.93
7.93
8.52
8.76
8.67
8.29
7.71
7.10
6.67
6.58
6.97
7.85
9.15
10.69
12.26
13.59
14.52
14.95
14.89
14.40
13.55
12.38
10.89
9.10
7.09
4.97
2.92
1.04
-0.61
-2.06
-3.40
-4.67
-5.93
-7.19
-8.52
-10.10
-12.09
-14.61
-17.53
-20.44
-22.66
-23.47
-22.41
-19.41
-14.89
-9.58
-4.23
0.59
4.58
7.68
9.87
11.16
11.52
11.01
9.79
8.17
6.55
5.25
4.52
4.41
4.87
5.75
6.84
7.98
9.01
9.90
10.63
11.25
11.78
12.17
12.31
12.09
11.50
10.61
9.58
8.52
7.48
6.33
4.92
3.14
0.99
-1.42
-3.94
-6.48
-8.98
-11.46
-13.91
-16.31
-18.69
-21.14
-23.71
-26.29
-28.58
-30.05
-30.14
-28.48
-25.07
-20.22
-14.48
-8.41
-2.47
2.97
7.66
11.41
14.13
15.86
16.75
16.97
16.62
15.69
14.16
12.11
9.74
7.45
5.58
4.37
3.80
3.70
3.78
3.84
3.80
3.68
3.52
3.37
3.21
3.02
2.85
2.74
2.68
2.55
2.15
1.29
-0.12
-1.96
-3.96
-5.82
-7.28
-8.24
-8.71
-8.85
-8.85
-9.02
-9.69
-11.13
-13.43
-16.35
-19.34
-21.65
-22.58
-21.74
-19.13
-15.16
-10.42
-5.54
-0.97
3.00
6.26
8.81
10.67
11.92
12.65
12.97
12.99
12.79
12.49
12.17
11.95
11.93
12.13
12.48
12.88
13.18
13.35
13.35
13.18
12.83
12.27
11.44
10.34
9.02
7.56
6.03
4.43
2.77
1.02
-0.77
-2.53
-4.15
-5.54
-6.68
-7.65
-8.63
-9.93
-11.84
-14.49
-17.71
-20.98
-23.50
-24.55
-23.68
-20.94
-16.80
-11.99
-7.25
-3.08
0.27
2.76
4.49
5.54
5.99
5.92
5.42
4.65
3.78
3.00
2.40
2.07
2.00
2.14
2.44
2.80
3.15
3.39
3.45
3.26
2.78
2.03
1.06
-0.04
-1.13
-2.12
-2.92
-3.56
-4.11
-4.64
-5.21
-5.82
-6.48
-7.24
-8.17
-9.33
-10.61
-11.87
-12.93
-13.81
-14.79
-16.29
-18.60
-21.58
-24.56
-26.54
-26.61
-24.39
-20.13
-14.65
-8.92
-3.72
0.58
3.99
6.64
8.69
10.16
10.99
11.13
10.56
9.40
7.80
6.00
4.22
2.71
1.72
1.41
1.85
2.94
4.46
6.14
7.74
9.07
9.98
10.36
10.20
9.55
8.62
7.69
7.06
6.84
6.88
6.82
6.21
4.75
2.49
-0.22
-2.83
-4.94
-6.34
-7.21
-7.90
-8.84
-10.35
-12.56
-15.39
-18.58
-21.62
-23.94
-24.93
-24.11
-21.32
-16.76
-11.06
-5.01
0.56
5.08
8.32
10.39
11.61
12.35
12.80
12.98
12.77
12.04
10.86
9.51
8.44
8.04
8.49
9.63
11.06
12.35
13.24
13.77
14.18
14.75
15.59
16.59
17.43
17.77
17.42
16.37
14.81
12.94
10.93
8.81
6.62
4.40
2.25
0.32
-1.32
-2.81
-4.49
-6.80
-10.02
-14.04
-18.34
-22.01
-24.14
-24.14
-21.96
-18.09
-13.37
-8.68
-4.67
-1.61
0.53
1.96
2.90
3.48
3.72
3.59
3.07
2.25
1.25
0.24
-0.63
-1.31
-1.82
-2.18
-2.36
-2.21
-1.49
-0.08
1.96
4.25
6.27
7.49
7.69
6.99
5.81
4.57
3.45
2.35
0.95
-0.94
-3.29
-5.81
-8.10
-9.89
-11.18
-12.14
-13.02
-14.06
-15.47
-17.37
-19.82
-22.75
-25.81
-28.39
-29.73
-29.18
-26.52
-22.02
-16.40
-10.56
-5.28
-1.06
1.99
4.02
5.31
6.09
6.51
6.61
6.39
5.84
5.11
4.37
3.93
4.01
4.68
5.83
7.19
8.37
9.11
9.30
9.02
8.50
8.01
7.80
7.91
8.24
8.54
8.54
7.98
6.73
4.86
2.61
0.35
-1.61
-3.06
-4.04
-4.76
-5.57
-6.81
-8.74
-11.44
-14.76
-18.33
-21.58
-23.89
-24.72
-23.81
-21.23
-17.36
-12.75
-7.93
-3.31
0.84
4.36
7.03
8.66
9.08
8.37
6.86
5.14
3.87
3.47
3.91
4.77
5.36
5.13
3.99
2.32
0.75
-0.20
-0.26
0.51
1.93
3.63
5.03
5.24
3.41
-0.81
-6.59
-11.90
-14.04
-10.86
-1.79
11.74
26.88
40.63
50.97
57.33
60.21
60.43
58.56
54.88
49.82
44.27
39.43
36.47
35.86
37.09
38.81
39.40
37.47
32.33
24.07
13.42
1.59
-10.05
-20.28
-28.37
-34.17
-38.06
-40.60
-42.01
-42.03
-40.24
-36.72
-32.46
-29.24
-28.67
-31.24
-35.82
-40.08
-41.84
-40.30
-36.62
-33.35
-33.15
-37.47
-46.02
-57.00
-68.04
-76.95
-82.19
-83.15
-80.37
-75.85
-73.05
-76.14
-88.39
-110.32
-138.55
-166.08
-184.32
-186.00
-167.80
-131.56
-83.72
-33.15
11.52
44.07
61.90
66.01
59.91
48.19
35.00
22.83
12.19
1.89
-9.67
-23.55
-39.40
-55.24
-67.90
-74.02
-71.21
-58.71
-37.38
-8.98
24.17
59.35
93.37
122.68
143.79
153.97
152.24
139.86
120.61
98.92
78.03
59.08
41.47
23.97
5.85
-12.59
-30.24
-44.19
-52.55
-55.62
-55.61
-54.87
-54.58
-54.66
-54.47
-53.69
-49.36
-40.17
-27.62
-15.16
-5.34
2.12
9.82
20.85
37.06
63.56
101.97
148.72
196.36
238.42
272.54
300.36
325.56
352.39
391.68
450.89
529.42
617.74
702.24
770.60
814.79
832.14
782.10
649.94
456.21
248.09
67.27
-69.11
-163.88
-227.02
-267.97
-293.33
-300.90
-289.90
-264.88
-235.61
-210.99
-195.91
-189.62
-189.15
-191.47
-189.19
-177.71
-157.67
-135.13
-116.41
-104.91
-100.82
-102.84
-109.49
-116.80
-123.31
-126.24
-128.28
-133.02
-142.58
-157.32
-176.87
-200.79
-226.83
-252.48
-275.10
-292.72
-302.67
-302.36
-290.61
-268.85
-240.74
-210.16
-180.25
-152.70
-128.44
-107.39
-89.21
-73.79
-61.20
-51.30
-43.42
-36.42
-29.26
-21.81
-14.54
-8.36
-4.09
-1.92
-1.37
-1.45
-1.14
0.16
2.22
4.26
5.33
4.70
2.22
-1.50
-5.28
-7.68
-7.53
-4.33
1.61
9.33
17.59
25.32
31.93
37.31
41.72
45.44
48.56
50.90
52.17
52.11
50.70
48.26
45.26
42.22
39.51
37.27
35.46
33.98
32.73
31.72
31.03
30.71
30.68
30.73
30.52
29.68
28.03
25.62
22.73
19.84
17.34
15.45
14.06
12.86
11.44
9.51
7.05
4.27
1.53
-0.80
-2.49
-3.55
-4.20
-4.87
-6.06
-8.23
-11.59
-16.05
-21.05
-25.69
-28.93
-29.83
-27.93
-23.32
-16.65
-8.89
-1.05
6.08
12.04
16.72
20.17
22.49
23.74
23.89
22.96
21.09
18.64
16.08
13.93
12.52
11.91
11.95
12.34
12.81
13.29
13.81
14.50
15.39
16.37
17.20
17.55
17.20
16.11
14.50
12.72
11.12
9.85
8.78
7.58
5.89
3.57
0.79
-2.03
-4.49
-6.35
-7.74
-9.12
-11.08
-14.07
-18.15
-22.94
-27.59
-31.11
-32.56
-31.42
-27.67
-21.72
-14.31
-6.25
1.74
9.08
15.36
20.32
23.82
25.91
26.76
26.59
25.69
24.27
22.52
20.68
19.00
17.77
17.20
17.33
17.98
18.83
19.52
19.82
19.73
19.42
19.09
18.76
18.23
17.16
15.26
12.53
9.34
6.22
3.67
1.83
0.47
-0.94
-2.80
-5.23
-8.03
-10.81
-13.29
-15.38
-17.22
-18.97
-20.73
-22.56
-24.45
-26.54
-28.97
-31.80
-34.75
-37.22
-38.39
-37.48
-33.99
-27.76
-18.95
-7.98
4.52
17.67
30.32
41.10
48.67
52.06
50.98
45.96
38.34
29.85
22.22
16.60
13.35
12.01
11.72
11.68
11.50
11.35
11.51
12.15
13.08
13.96
14.68
15.51
16.98
19.38
22.40
25.10
26.36
25.50
22.75
19.04
15.41
12.44
9.88
6.97
3.01
-2.09
-7.66
-12.61
-16.04
-17.78
-18.40
-18.97
-20.46
-23.31
-27.40
-32.24
-37.34
-42.33
-47.00
-50.91
-53.23
-52.79
-48.53
-40.14
-28.47
-15.37
-3.03
6.87
13.64
17.72
20.21
22.22
24.18
25.75
26.06
24.32
20.19
13.93
6.41
-0.98
-7.00
-11.13
-13.87
-16.29
-19.27
-23.01
-26.79
-29.32
-28.80
-24.27
-16.46
-7.86
-1.53
0.38
-2.92
-10.71
-21.31
-31.62
-38.44
-39.54
-34.41
-23.87
-9.45
6.24
19.81
28.05
30.47
29.08
27.40
28.79
35.72
49.99
71.24
97.05
116.30
119.32
103.47
74.81
42.35
12.66
-10.13
-24.88
-32.45
-35.00
-33.75
-29.63
-22.52
-13.92
-5.03
5.60
20.06
40.16
66.75
99.99
138.10
176.65
209.40
220.06
201.50
157.23
100.08
45.58
5.48
-16.22
-23.03
-21.81
-18.61
-14.60
-8.81
-0.49
9.26
18.11
23.86
24.50
20.63
14.21
8.99
7.44
9.87
14.52
18.73
20.46
18.24
12.49
4.63
-2.87
-8.63
-13.06
-18.58
-29.20
-43.86
-63.26
-87.50
-115.99
-146.81
-177.03
-203.00
-220.96
-228.02
