1626688544.00
64.000000
-0.00
-0.00
-0.00
-0.00
-0.00
-0.00
-0.00
-0.00
-0.00
-0.00
0.00
0.01
0.01
-0.00
-0.03
-0.05
-0.05
0.00
0.13
0.36
0.66
1.01
1.37
1.72
2.06
2.40
2.79
3.24
3.80
4.42
5.06
5.66
6.20
6.68
7.15
7.68
8.31
9.14
10.09
11.04
11.88
12.56
13.14
13.76
14.65
15.96
17.91
20.32
22.90
25.38
27.58
29.57
31.68
34.32
37.81
42.54
48.15
54.10
59.83
64.97
69.58
74.14
79.34
85.71
93.76
103.00
112.62
121.73
129.77
136.75
143.30
150.75
157.77
166.64
177.95
191.79
206.97
220.57
228.25
225.36
208.53
176.87
132.76
80.05
23.07
-34.94
-92.44
-149.16
-205.23
-260.37
-313.74
-363.87
-409.83
-450.91
-486.50
-515.74
-537.23
-549.22
-549.96
-538.37
-514.21
-478.67
-433.88
-382.45
-327.02
-269.84
-212.63
-156.66
-102.95
-52.37
-5.90
35.58
71.43
101.35
125.50
144.38
158.69
169.15
176.37
180.75
182.57
182.07
179.51
175.23
169.65
163.18
156.15
148.81
141.30
133.69
126.02
118.33
110.69
103.16
95.80
88.68
81.83
75.25
68.95
62.95
57.25
51.86
46.78
42.03
37.59
33.45
29.61
26.07
22.81
19.83
17.11
14.67
12.48
10.54
8.83
7.35
6.07
4.97
4.05
3.27
2.62
2.09
1.65
1.30
1.01
0.79
0.61
0.48
0.37
0.29
0.24
0.21
0.19
0.18
0.18
0.20
0.22
0.25
0.28
0.32
0.36
0.41
0.45
0.49
0.55
0.59
0.65
0.70
0.76
0.83
0.90
0.97
1.06
1.15
1.26
1.38
1.51
1.66
1.82
2.01
2.21
2.44
2.70
2.98
3.28
3.62
3.99
4.40
4.84
5.31
5.82
6.37
6.97
7.60
8.28
9.01
9.77
10.59
11.45
12.35
13.31
14.31
15.38
16.51
17.71
18.96
20.25
21.52
22.74
23.80
24.60
25.03
24.95
24.27
22.89
20.80
17.98
14.53
10.51
6.14
1.61
-2.87
-7.09
-10.86
-14.02
-16.49
-18.19
-19.13
-19.35
-18.96
-18.11
-16.93
-15.59
-14.18
-12.77
-11.35
-9.89
-8.35
-6.75
-5.11
-3.51
-1.96
-0.48
0.97
2.46
4.10
6.00
8.06
10.21
12.33
14.32
16.17
17.95
19.85
22.09
24.91
28.12
31.45
34.61
37.32
39.49
41.26
43.02
45.27
48.50
52.38
56.45
60.07
62.69
64.05
64.36
64.25
64.58
66.05
68.19
70.15
70.72
68.70
63.25
54.05
41.00
23.59
5.41
-12.64
-30.60
-49.12
-69.21
-91.98
-118.43
-148.78
-181.73
-213.89
-240.77
-257.03
-258.62
-244.42
-216.95
-181.47
-144.08
-109.61
-80.48
-57.41
-39.77
-26.73
-17.76
-12.41
-9.87
-8.64
-6.90
-3.12
3.01
10.88
19.11
26.24
31.29
34.10
35.27
35.71
36.19
36.78
37.05
36.30
33.93
29.84
24.41
18.44
12.71
7.72
3.47
-0.40
-4.48
-9.33
-15.20
-21.97
-29.04
-35.48
-40.11
-41.84
-39.91
-34.11
-24.86
-13.02
0.23
13.71
26.36
37.33
46.00
51.88
54.72
54.51
51.61
46.73
40.79
34.78
29.55
25.65
23.23
22.08
21.74
21.72
21.58
21.09
20.17
18.83
16.98
14.49
11.18
7.01
2.16
-2.99
-8.00
-12.63
-16.94
-21.31
-26.23
-32.12
-39.06
-46.71
-54.31
-60.76
-64.78
-65.17
-61.12
-52.53
-40.10
-25.22
-9.53
5.47
18.77
29.85
38.50
44.63
48.13
48.98
47.45
44.19
40.11
36.17
33.02
30.93
29.77
29.22
28.94
28.68
28.30
27.74
26.97
25.88
24.29
21.97
18.72
14.45
9.28
3.54
-2.36
-8.04
-13.32
-18.21
-22.94
-27.84
-33.14
-39.08
-45.72
-52.92
-60.27
-66.95
-71.82
-73.58
-71.17
-64.08
-52.61
-37.83
-21.27
-4.57
10.98
24.49
35.57
44.03
49.83
53.06
53.89
52.75
50.23
47.06
43.89
41.26
39.43
38.48
38.29
38.63
39.26
39.88
40.24
40.07
39.15
37.27
34.41
30.72
26.52
22.18
17.95
13.79
9.44
4.58
-0.95
-6.97
-13.04
-18.70
-23.70
-28.17
-32.54
-37.34
-42.99
-49.63
-57.11
-64.93
-72.31
-78.17
-81.26
-80.41
-74.86
-64.56
-50.28
-33.49
-15.98
0.67
15.34
27.53
37.16
44.37
49.28
51.98
52.58
51.40
48.94
45.86
42.83
40.41
38.88
38.32
38.58
39.38
40.37
41.19
41.57
41.29
40.26
38.44
35.88
32.71
29.09
25.21
21.20
17.09
12.80
8.19
3.18
-2.21
-7.77
-13.23
-18.31
-22.90
-27.12
-31.30
-35.94
-41.48
-48.12
-55.56
-62.88
-68.69
-71.42
-69.80
-63.28
-52.23
-37.92
-22.05
-6.34
7.86
19.78
29.09
35.76
39.85
41.44
40.73
38.09
34.23
29.97
26.20
23.50
22.10
21.79
22.17
22.82
23.48
24.04
24.45
24.58
24.12
22.74
20.19
16.47
11.89
6.93
2.05
-2.52
-6.79
-10.99
-15.36
-20.11
-25.39
-31.31
-38.02
-45.53
-53.55
-61.29
-67.52
-70.76
-69.79
-64.04
-53.89
-40.51
-25.50
-10.39
3.69
16.12
26.59
34.93
40.92
44.38
45.35
44.22
41.73
38.77
36.07
34.06
32.75
31.96
31.52
31.31
31.33
31.56
31.88
32.00
31.58
30.31
28.03
24.80
20.81
16.33
11.58
6.67
1.61
-3.58
-8.87
-14.06
-18.93
-23.33
-27.29
-31.09
-35.13
-39.85
-45.49
-52.08
-59.32
-66.64
-73.17
-77.75
-79.13
-76.23
-68.53
-56.32
-40.69
-23.35
-6.07
9.66
22.97
33.55
41.48
46.97
50.26
51.57
51.23
49.68
47.46
45.14
43.17
41.76
40.89
40.45
40.27
40.29
40.50
40.89
41.37
41.68
41.45
40.31
38.02
34.56
30.13
25.16
20.08
15.26
10.95
7.16
3.77
0.51
-2.90
-6.69
-11.00
-15.77
-20.79
-25.78
-30.48
-34.69
-38.41
-41.88
-45.47
-49.66
-54.84
-61.06
-67.88
-74.25
-78.70
-79.68
-76.06
-67.47
-54.50
-38.49
-21.17
-4.22
11.08
23.97
34.08
41.39
46.05
48.37
48.76
47.74
45.88
43.77
41.84
40.40
39.51
39.06
38.84
38.63
38.31
37.86
37.30
36.61
35.65
34.24
32.20
29.50
26.23
22.61
18.82
14.91
10.80
6.32
1.39
-3.91
-9.31
-14.47
-19.12
-23.14
-26.57
-29.64
-32.66
-36.00
-40.02
-45.03
-51.03
-57.65
-64.00
-68.83
-70.78
-68.85
-62.62
-52.46
-39.39
-24.74
-9.93
3.82
15.60
24.79
31.09
34.49
35.25
33.90
31.12
27.64
24.14
21.13
18.92
17.62
17.10
17.15
17.49
17.88
18.21
18.39
18.36
17.96
16.93
14.99
11.96
7.86
2.95
-2.36
-7.66
-12.69
-17.42
-22.06
-26.90
-32.23
-38.20
-44.76
-51.53
-57.77
-62.48
-64.52
-62.96
-57.34
-47.88
-35.45
-21.33
-6.87
6.76
18.83
28.85
36.54
41.69
44.17
44.04
41.69
37.78
33.18
28.74
25.07
22.47
20.89
20.08
19.72
19.60
19.54
19.43
19.14
18.53
17.44
15.78
13.50
10.57
6.97
2.72
-2.14
-7.41
-12.81
-18.00
-22.76
-27.09
-31.23
-35.57
-40.56
-46.42
-53.10
-60.18
-66.78
-71.72
-73.69
-71.64
-65.05
-54.20
-40.11
-24.34
-8.49
6.08
18.51
28.40
35.60
40.11
41.97
41.39
38.81
34.98
30.80
27.15
24.56
23.18
22.76
22.86
23.06
23.09
22.84
22.34
21.64
20.75
19.61
18.14
16.21
13.71
10.53
6.65
2.16
-2.76
-7.89
-13.03
-18.10
-23.17
-28.40
-33.96
-39.94
-46.22
-52.43
-57.88
-61.70
-62.95
-60.90
-55.22
-46.06
-34.11
-20.42
-6.16
7.53
19.74
29.81
37.34
42.14
44.24
43.91
41.67
38.21
34.34
30.76
27.95
26.10
25.12
24.73
24.71
24.84
25.01
25.06
24.85
24.14
22.78
20.69
17.89
14.46
10.40
5.70
0.42
-5.29
-11.09
-16.60
-21.56
-26.01
-30.23
-34.70
-39.77
-45.51
-51.49
-56.89
-60.60
-61.47
-58.65
-51.76
-41.17
-27.86
-13.28
1.02
13.72
23.98
31.36
35.81
37.44
36.55
33.56
29.14
24.12
19.40
15.67
13.30
12.21
12.05
12.37
12.77
13.01
12.97
12.53
11.51
9.75
7.10
3.64
-0.36
-4.57
-8.70
-12.68
-16.71
-21.22
-26.61
-33.09
-40.52
-48.30
-55.44
-60.74
-63.02
-61.41
-55.56
-45.78
-33.01
-18.55
-3.78
10.05
22.05
31.65
38.55
42.63
43.96
42.84
39.83
35.69
31.22
27.15
23.91
21.66
20.28
19.53
19.16
18.98
18.80
18.44
17.63
16.05
13.44
9.69
4.90
-0.62
-6.47
-12.26
-17.83
-23.22
-28.72
-34.67
-41.39
-48.94
-56.97
-64.74
-71.08
-74.71
-74.51
-69.82
-60.69
-47.87
-32.65
-16.59
-1.12
12.73
24.41
33.75
40.74
45.40
47.63
47.43
45.03
41.06
36.49
32.34
29.40
27.98
27.83
28.39
28.97
29.11
28.60
27.51
25.98
24.10
21.82
18.92
15.20
10.62
5.37
-0.13
-5.42
-10.29
-14.86
-19.59
-25.03
-31.59
-39.32
-47.84
-56.47
-64.35
-70.54
-74.11
-74.17
-70.07
-61.59
-49.15
-33.81
-17.14
-0.72
14.16
26.76
36.89
44.59
49.95
52.97
53.66
52.25
49.27
45.55
41.97
39.18
37.42
36.58
36.26
36.11
35.86
35.42
34.82
34.04
32.98
31.43
29.15
25.95
21.81
16.86
11.33
5.53
-0.32
-6.00
-11.39
-16.43
-21.16
-25.78
-30.60
-35.98
-42.20
-49.18
-56.38
-62.76
-66.98
-67.77
-64.28
-56.42
-44.88
-30.89
-15.87
-1.09
12.54
24.50
34.43
42.06
47.19
49.75
49.90
48.11
45.11
41.67
38.48
35.94
34.18
33.10
32.49
32.11
31.80
31.47
31.05
30.45
29.46
27.79
25.11
21.23
16.15
10.19
3.83
-2.34
-7.91
-12.76
-17.09
-21.27
-25.74
-30.76
-36.41
-42.59
-48.93
-54.83
-59.45
-61.76
-60.80
-55.96
-47.30
-35.60
-22.17
-8.46
4.33
15.49
24.71
31.95
37.20
40.38
41.49
40.69
38.38
35.18
31.76
28.62
26.08
24.19
22.92
22.16
21.79
21.62
21.38
20.77
19.49
17.41
14.52
10.93
6.87
2.52
-2.01
-6.77
-11.90
-17.62
-24.06
-31.07
-38.09
-44.20
-48.30
-49.35
-46.80
-40.67
-31.55
-20.41
-8.31
3.86
15.38
25.66
34.23
40.62
44.54
45.90
44.94
42.20
38.39
34.21
30.25
26.88
24.29
22.50
21.45
21.05
21.12
21.38
21.46
20.88
19.21
16.23
12.02
6.99
1.68
-3.38
-7.97
-12.21
-16.47
-21.21
-26.76
-33.16
-40.11
-46.93
-52.62
-56.06
-56.22
-52.48
-44.79
-33.74
-20.42
-6.18
7.69
20.14
30.38
37.98
42.73
44.70
44.19
41.74
38.04
33.80
29.64
25.99
23.05
20.87
19.40
18.54
18.16
18.10
18.09
17.80
16.88
15.04
12.23
8.61
4.52
0.36
-3.62
-7.36
-11.08
-15.13
-19.87
-25.50
-31.97
-38.90
-45.64
-51.30
-54.84
-55.30
-52.00
-44.83
-34.31
-21.53
-7.91
5.18
16.64
25.84
32.49
36.56
38.16
37.43
34.67
30.34
25.07
19.59
14.59
10.57
7.76
6.11
5.45
5.43
5.74
6.00
5.83
4.89
2.99
0.14
-3.46
-7.44
-11.49
-15.44
-19.34
-23.43
-28.06
-33.55
-40.00
-47.09
-54.05
-59.67
-62.56
-61.56
-56.14
-46.56
-33.84
-19.37
-4.56
9.45
21.83
31.99
39.50
44.06
45.62
44.48
41.30
36.99
32.45
28.39
25.19
22.87
21.23
20.05
19.12
18.34
17.71
17.15
16.52
15.57
13.96
11.43
7.90
3.48
-1.53
-6.68
-11.63
-16.17
-20.39
-24.61
-29.32
-35.00
-41.80
-49.39
-56.83
-62.70
-65.51
-64.13
-58.18
-48.20
-35.43
-21.43
-7.61
5.04
16.04
25.20
32.46
37.68
40.71
41.49
40.29
37.68
34.50
31.50
29.13
27.39
26.00
24.62
23.14
21.74
20.73
20.31
20.33
20.29
19.52
17.50
14.04
9.36
3.95
-1.65
-6.98
-11.86
-16.29
-20.48
-24.75
-29.43
-34.79
-40.79
-47.05
-52.69
-56.56
-57.44
-54.46
-47.33
-36.51
-23.08
-8.45
5.95
18.88
29.49
37.26
41.99
43.83
43.20
40.75
37.29
33.54
30.06
27.11
24.77
22.94
21.52
20.37
19.42
18.56
17.69
16.68
15.40
13.73
11.53
8.73
5.32
1.39
-2.87
-7.22
-11.49
-15.62
-19.72
-24.04
-28.85
-34.32
-40.35
-46.54
-52.07
-55.90
-56.94
-54.39
-47.97
-38.11
-25.81
-12.41
0.72
12.44
21.99
28.94
33.11
34.55
33.54
30.58
26.42
21.87
17.72
14.47
12.30
11.08
10.53
10.36
10.36
10.37
10.24
9.82
8.90
7.35
5.11
2.19
-1.31
-5.32
-9.78
-14.65
-19.86
-25.39
-31.23
-37.37
-43.68
-49.73
-54.72
-57.51
-57.02
-52.55
-44.17
-32.66
-19.34
-5.65
7.18
18.27
27.08
33.23
36.53
36.99
34.93
31.00
26.09
21.08
16.76
13.54
11.51
10.49
10.16
10.22
10.37
10.41
10.13
9.33
7.83
5.56
2.57
-0.97
-4.83
-8.83
-12.94
-17.20
-21.76
-26.77
-32.39
-38.71
-45.63
-52.74
-59.14
-63.53
-64.55
-61.16
-53.13
-41.18
-26.78
-11.64
2.74
15.42
25.97
34.25
40.21
43.71
44.69
43.30
39.99
35.50
30.64
26.14
22.43
19.65
17.73
16.48
15.71
15.29
15.12
15.05
14.86
14.21
12.71
10.04
6.18
1.40
-3.74
-8.64
-12.92
-16.55
-19.95
-23.70
-28.37
-34.27
-41.35
-49.07
-56.49
-62.36
-65.35
-64.36
-58.81
-48.89
-35.54
-20.16
-4.31
10.69
23.92
34.87
43.28
49.01
52.07
52.58
50.93
47.74
43.76
39.78
36.43
34.08
32.82
32.45
32.62
32.92
32.97
32.51
31.40
29.56
26.88
23.29
18.78
13.51
7.84
2.27
-2.70
-6.78
-9.99
-12.71
-15.46
-18.76
-22.93
-28.10
-34.20
-41.03
-48.17
-54.89
-60.12
-62.60
-61.26
-55.58
-45.82
-33.02
-18.64
-4.14
9.34
21.02
30.38
36.98
40.53
40.95
38.56
34.21
28.98
23.99
20.01
17.41
16.07
15.69
15.89
16.34
16.77
17.02
16.93
16.37
15.22
13.40
10.88
7.78
4.26
0.53
-3.21
-6.87
-10.47
-14.11
-18.03
-22.40
-27.37
-32.93
-38.86
-44.60
-49.32
-51.98
-51.63
-47.67
-40.06
-29.37
-16.65
-3.11
10.06
21.95
31.87
39.29
43.84
45.31
43.80
39.87
34.48
28.83
23.99
20.60
18.72
17.97
17.79
17.78
17.82
17.99
18.35
18.70
18.59
17.41
14.67
10.28
4.58
-1.75
-7.96
-13.54
-18.30
-22.46
-26.48
-30.91
-36.20
-42.56
-49.81
-57.25
-63.76
-67.91
-68.42
-64.47
-56.05
-43.93
-29.44
-14.08
0.80
14.17
25.31
33.72
39.09
41.29
40.51
37.25
32.40
27.05
22.27
18.92
17.46
17.90
19.82
22.54
25.36
27.63
28.91
29.01
27.87
25.62
22.44
18.56
14.18
9.46
4.51
-0.66
-6.10
-11.91
-18.16
-24.88
-31.95
-39.16
-46.32
-53.26
-59.81
-65.76
-70.63
-73.68
-73.88
-70.19
-61.89
-48.89
-31.94
-12.63
6.83
24.00
36.69
43.51
44.33
40.59
35.12
31.61
33.48
42.73
58.99
79.47
99.66
114.79
121.39
118.29
106.72
89.45
69.68
50.08
32.34
17.32
5.36
-3.48
-9.46
-13.19
-15.64
-17.85
-20.60
-24.13
-28.18
-32.25
-36.03
-39.63
-43.57
-48.50
-54.72
-61.90
-68.88
-74.01
-75.61
-72.58
-64.78
-53.08
-39.01
-24.29
-10.30
2.14
12.67
21.26
27.87
32.41
34.83
35.23
34.01
31.77
29.20
26.83
24.94
23.54
22.52
21.84
21.49
21.57
22.07
22.83
23.56
23.89
23.57
22.41
20.41
17.60
14.10
10.08
5.79
1.46
-2.71
-6.65
-10.46
-14.32
-18.47
-23.06
-28.18
-33.80
-39.82
-45.97
-51.68
-56.10
-58.17
-56.97
-51.94
-43.19
-31.47
-18.02
-4.26
8.59
19.55
28.05
33.83
36.86
37.32
35.59
32.26
28.06
23.79
20.16
17.63
16.36
16.14
16.57
17.20
17.64
17.73
17.43
16.77
15.78
14.33
12.22
9.28
5.44
0.83
-4.26
-9.49
-14.57
-19.40
-24.02
-28.62
-33.39
-38.50
-44.02
-49.81
-55.49
-60.36
-63.47
-63.78
-60.48
-53.27
-42.48
-29.09
-14.41
0.19
13.51
24.75
33.39
39.26
42.37
42.90
41.24
37.96
33.81
29.62
26.18
24.00
23.18
23.40
24.11
24.72
24.87
24.47
23.64
22.55
21.23
19.54
17.27
14.22
10.34
5.78
0.73
-4.57
-9.95
-15.29
-20.48
-25.45
-30.16
-34.69
-39.30
-44.36
-50.19
-56.86
-63.91
-70.29
-74.56
-75.27
-71.44
-62.94
-50.56
-35.69
-19.93
-4.59
9.47
21.82
32.25
40.56
46.48
49.83
50.66
49.42
46.84
43.77
40.97
38.86
37.58
37.00
36.95
37.24
37.73
38.33
38.86
39.07
38.62
37.20
34.63
30.96
26.47
21.64
16.89
12.46
8.32
4.19
-0.29
-5.34
-10.91
-16.70
-22.29
-27.34
-31.77
-35.73
-39.63
-43.89
-48.87
-54.72
-61.21
-67.65
-72.89
-75.53
-74.28
-68.40
-57.96
-43.89
-27.70
-11.04
4.73
18.71
30.42
39.70
46.47
50.72
52.54
52.21
50.27
47.39
44.30
41.61
39.68
38.64
38.36
38.61
39.05
39.39
39.39
38.92
37.89
36.28
34.08
31.27
27.96
24.31
20.55
16.89
13.40
9.98
6.40
2.46
-1.89
-6.45
-10.91
-14.99
-18.62
-22.01
-25.57
-29.80
-35.06
-41.42
-48.58
-55.76
-61.80
-65.35
-65.24
-60.80
-52.11
-40.00
-25.85
-11.17
2.71
14.86
24.76
32.12
36.82
38.85
38.38
35.86
32.00
27.73
23.93
21.25
19.92
19.77
20.38
21.23
21.96
22.33
22.29
21.81
20.88
19.46
17.48
14.91
11.79
8.13
3.98
-0.56
-5.35
-10.15
-14.71
-18.89
-22.69
-26.35
-30.26
-34.77
-40.06
-46.05
-52.29
-58.08
-62.48
-64.49
-63.29
-58.38
-49.80
-38.14
-24.44
-9.98
4.06
16.77
27.57
36.16
42.40
46.25
47.76
47.19
45.04
41.98
38.75
35.96
33.95
32.79
32.31
32.26
32.44
32.73
33.05
33.27
33.18
32.44
30.79
28.09
24.42
20.12
15.58
11.15
7.03
3.17
-0.57
-4.38
-8.38
-12.58
-16.89
-21.18
-25.32
-29.19
-32.74
-36.04
-39.25
-42.73
-46.88
-52.01
-58.11
-64.65
-70.57
-74.45
-74.88
-70.89
-62.30
-49.75
-34.58
-18.41
-2.74
11.28
23.01
32.22
38.94
43.33
45.64
46.19
45.41
43.75
41.70
39.60
37.67
35.98
34.56
33.47
32.81
32.67
33.08
33.84
34.60
34.91
34.33
32.65
29.87
26.19
21.99
17.63
13.38
9.28
5.22
0.98
-3.56
-8.39
-13.31
-18.02
-22.29
-26.06
-29.55
-33.14
-37.28
-42.26
-48.04
-54.18
-59.82
-63.83
-65.08
-62.74
-56.49
-46.65
-34.14
-20.21
-6.16
6.92
18.29
27.55
34.46
38.91
40.87
40.47
38.08
34.38
30.23
26.46
23.67
22.06
21.52
21.66
22.08
22.51
22.77
22.81
22.61
22.05
20.96
19.14
16.44
12.81
8.46
3.69
-1.10
-5.61
-9.68
-13.36
-16.81
-20.25
-23.89
-27.92
-32.46
-37.54
-42.92
-48.10
-52.21
-54.17
-53.03
-48.24
-39.91
-28.83
-16.28
-3.60
8.00
17.73
25.10
29.95
32.24
32.11
29.88
26.10
21.51
16.89
12.88
9.85
7.86
6.71
6.15
5.92
5.90
6.01
6.20
6.29
5.96
4.89
2.76
-0.50
-4.69
-9.40
-14.13
-18.58
-22.68
-26.67
-30.94
-35.85
-41.59
-48.00
-54.56
-60.40
-64.44
-65.60
-63.07
-56.57
-46.47
-33.73
-19.64
-5.50
7.64
19.04
28.27
35.08
39.32
40.94
40.16
37.43
33.51
29.26
25.46
22.65
20.99
20.32
20.32
20.57
20.81
20.89
20.74
20.30
19.49
18.12
16.05
13.20
9.57
5.32
0.65
-4.20
-9.03
-13.72
-18.26
-22.72
-27.36
-32.46
-38.31
-45.05
-52.44
-59.91
-66.40
-70.69
-71.67
-68.62
-61.46
-50.76
-37.58
-23.18
-8.77
4.66
16.49
26.31
33.86
39.01
41.73
42.16
40.66
37.81
34.36
31.05
28.47
26.87
26.19
26.09
26.17
26.15
25.91
25.51
25.04
24.46
23.60
22.17
19.87
16.59
12.42
7.61
2.55
-2.45
-7.26
-11.86
-16.43
-21.17
-26.31
-31.99
-38.30
-45.11
-52.04
-58.37
-63.11
-65.15
-63.55
-57.87
-48.28
-35.64
-21.20
-6.38
7.61
19.91
30.07
37.90
43.33
46.38
47.09
45.68
42.59
38.46
34.01
29.85
26.32
23.51
21.42
20.15
20.04
21.46
24.64
29.30
34.65
39.53
42.80
43.64
41.79
37.51
31.38
24.06
16.15
8.12
0.30
-7.12
-14.10
-20.74
-27.27
-33.93
-40.91
-48.14
-55.15
-61.06
-64.66
-64.78
-60.68
-52.38
-40.74
-27.24
-13.49
-0.83
9.94
18.49
24.75
28.67
30.24
29.61
27.19
23.79
20.31
17.56
15.93
15.36
15.50
15.86
16.15
16.20
16.02
15.59
14.85
13.62
11.72
9.06
5.66
1.68
-2.63
-7.00
-11.27
-15.42
-19.64
-24.28
-29.78
-36.40
-44.02
-52.00
-59.15
-63.99
-65.19
-61.95
-54.27
-42.96
-29.29
-14.70
-0.43
12.57
23.62
32.20
37.96
40.77
40.83
38.69
35.16
31.14
27.39
24.38
22.30
21.08
20.55
20.50
20.71
21.07
21.49
21.95
22.36
22.55
22.22
20.99
18.52
14.64
9.47
3.35
-3.25
-9.81
-16.01
-21.73
-27.09
-32.39
-38.05
-44.40
-51.58
-59.36
-67.02
-73.40
-77.12
-76.93
-72.05
-62.51
-49.06
-33.08
-16.14
0.36
15.40
28.36
38.97
47.06
52.56
55.45
55.94
54.48
51.78
48.62
45.72
43.51
42.11
41.36
41.02
40.85
40.72
40.52
40.12
39.34
37.96
35.78
32.76
29.06
25.02
21.05
17.49
14.48
11.87
9.28
6.23
2.36
-2.50
-8.20
-14.35
-20.49
-26.16
-31.12
-35.40
-39.32
-43.38
-48.15
-54.09
-61.27
-69.25
-76.96
-82.90
-85.44
-83.35
-76.13
-64.23
-48.90
-31.79
-14.52
1.72
16.25
28.75
39.11
47.20
52.85
56.00
56.81
55.80
53.72
51.42
49.56
48.43
47.94
47.76
47.56
47.20
46.72
46.28
45.96
45.61
44.91
43.53
41.21
37.95
33.91
29.38
24.64
19.89
15.27
10.82
6.51
2.27
-2.00
-6.37
-10.80
-15.15
-19.20
-22.83
-26.09
-29.22
-32.63
-36.67
-41.58
-47.42
-53.99
-60.84
-67.21
-72.05
-74.18
-72.57
-66.66
-56.58
-43.16
-27.80
-12.05
2.73
15.59
26.00
33.75
38.83
41.30
41.38
39.49
36.27
32.57
29.24
26.95
26.00
26.27
27.35
28.70
29.88
30.62
30.85
30.57
29.76
28.35
26.24
23.37
19.77
15.58
10.97
6.15
1.31
-3.38
-7.80
-11.89
-15.71
-19.44
-23.33
-27.65
-32.62
-38.29
-44.47
-50.74
-56.33
-60.24
-61.41
-58.96
-52.48
-42.26
-29.21
-14.67
-0.05
13.46
25.01
34.11
40.52
44.17
45.21
44.04
41.34
37.97
34.73
32.22
30.62
29.80
29.45
29.26
29.08
28.88
28.71
28.52
28.14
27.29
25.72
23.31
20.17
16.58
12.86
9.24
5.75
2.24
-1.59
-5.94
-10.81
-15.97
-21.02
-25.52
-29.25
-32.26
-34.96
-37.92
-41.75
-46.84
-53.30
-60.78
-68.51
-75.36
-79.95
-81.01
-77.63
-69.52
-57.17
-41.73
-24.76
-7.83
7.82
21.39
32.49
40.98
46.83
50.04
50.78
49.48
46.83
43.72
40.96
39.05
38.07
37.73
37.59
37.30
36.78
36.11
35.51
35.07
34.69
34.06
32.81
30.63
27.47
23.57
19.35
15.25
11.47
7.97
4.48
0.68
-3.54
-8.06
-12.60
-16.88
-20.73
-24.22
-27.52
-30.88
-34.50
-38.60
-43.39
-48.94
-55.09
-61.19
-66.15
-68.61
-67.36
-61.79
-52.12
-39.30
-24.73
-9.83
4.29
16.82
27.31
35.51
41.30
44.74
46.03
45.57
43.87
41.48
38.90
36.57
34.75
33.55
32.85
32.46
32.13
31.75
31.35
31.06
30.98
31.02
30.88
30.16
28.53
25.90
22.42
18.47
14.43
10.53
6.79
3.09
-0.73
-4.74
-8.85
-12.85
-16.57
-19.89
-22.85
-25.57
-28.23
-31.05
-34.24
-38.03
-42.59
-47.87
-53.51
-58.67
-62.25
-63.10
-60.38
-53.87
-44.02
-31.84
-18.59
-5.48
6.56
16.93
25.31
31.53
35.47
37.13
36.63
34.41
31.13
27.60
24.61
22.67
21.95
22.25
23.16
24.24
25.19
25.85
26.21
26.28
26.01
25.27
23.82
21.40
17.82
13.02
7.17
0.68
-5.94
-12.11
-17.42
-21.64
-24.84
-27.26
-29.31
-31.47
-34.20
-37.84
-42.52
-47.96
-53.39
-57.63
-59.36
-57.51
-51.56
-41.79
-29.20
-15.16
-1.13
11.74
22.70
31.35
37.58
41.39
42.91
42.36
40.17
36.93
33.37
30.19
27.91
26.80
26.86
27.85
29.51
31.54
33.69
35.71
37.36
38.36
38.55
37.85
36.36
34.21
31.45
27.99
23.59
18.01
11.13
3.07
-5.89
-15.38
-25.11
-34.95
-44.86
-54.83
-64.88
-74.99
-85.07
-94.85
-103.70
-110.55
-114.05
-113.02
-106.84
-95.84
-81.22
-64.71
-48.08
-32.64
-19.20
-8.03
0.81
7.36
11.68
13.89
14.26
13.24
11.42
9.45
7.95
7.37
7.90
9.44
11.67
14.12
16.34
18.03
19.02
19.27
18.81
17.69
15.94
13.60
10.70
7.25
3.28
-1.13
-5.83
-10.62
-15.29
-19.74
-24.07
-28.54
-33.48
-39.14
-45.58
-52.62
-59.85
-66.61
-72.10
-75.35
-75.43
-71.62
-63.66
-51.91
-37.34
-21.32
-5.26
9.64
22.63
33.29
41.46
47.10
50.24
51.06
49.91
47.44
44.38
41.51
39.36
38.18
37.92
38.35
39.18
40.14
41.03
41.63
41.74
41.18
39.82
37.64
34.69
31.12
27.05
22.61
17.86
12.91
7.82
2.74
-2.22
-6.95
-11.48
-15.96
-20.67
-25.90
-31.85
-38.52
-45.60
-52.46
-58.19
-61.72
-62.07
-58.62
-51.28
-40.57
-27.55
-13.57
0.07
12.32
22.51
30.26
35.40
37.85
37.75
35.51
31.88
27.79
24.17
21.67
20.45
20.29
20.74
21.35
21.82
22.05
22.01
21.69
21.01
19.82
17.95
15.28
11.75
7.46
2.67
-2.28
-7.05
-11.40
-15.34
-19.12
-23.16
-27.84
-33.39
-39.74
-46.43
-52.60
-57.06
-58.59
-56.17
-49.42
-38.70
-25.12
-10.19
4.57
17.96
29.26
38.10
44.29
47.72
48.39
46.55
42.85
38.24
33.73
30.11
27.72
26.39
25.71
25.23
24.71
24.16
23.69
23.33
22.92
22.13
20.60
18.04
14.39
9.77
4.38
-1.54
-7.80
-14.18
-20.52
-26.61
-32.40
-38.02
-43.78
-50.05
-56.96
-64.17
-70.73
-75.31
-76.53
-73.43
-65.77
-54.09
-39.49
-23.38
-7.12
8.19
21.72
32.97
41.66
47.66
50.99
51.81
50.44
47.41
43.43
39.29
35.74
33.26
32.01
31.81
32.26
32.92
33.49
33.77
33.68
33.15
32.09
30.35
27.83
24.53
20.58
16.15
11.48
6.67
1.81
-3.11
-8.10
-13.18
-18.38
-23.77
-29.44
-35.52
-42.10
-49.10
-56.14
-62.49
-67.14
-68.95
-67.00
-60.84
-50.69
-37.40
-22.21
-6.50
8.54
22.05
33.48
42.60
49.23
53.39
55.12
54.69
52.57
49.40
45.94
42.84
40.56
39.23
38.72
38.74
38.98
39.16
39.10
38.62
37.52
35.58
32.67
28.79
24.18
19.21
14.27
9.53
4.96
0.32
-4.61
-9.86
-15.20
-20.27
-24.72
-28.47
-31.77
-35.10
-39.00
-43.87
-49.84
-56.70
-63.85
-70.37
-75.09
-76.83
-74.66
-68.20
-57.73
-44.14
-28.65
-12.52
3.20
17.72
30.33
40.44
47.54
51.42
52.27
50.76
47.84
44.46
41.35
38.89
37.18
36.23
36.02
36.50
37.48
38.59
39.29
39.09
37.64
34.92
31.20
26.87
22.25
17.46
12.40
6.92
1.00
-5.19
-11.22
-16.70
-21.42
-25.49
-29.34
-33.50
-38.38
-44.10
-50.48
-57.08
-63.25
-68.18
-70.99
-70.82
-67.00
-59.27
-47.94
-33.81
-18.02
-1.83
13.68
27.64
39.41
48.54
54.75
57.93
58.24
56.14
52.34
47.76
43.34
39.86
37.82
37.29
37.97
39.32
40.62
41.25
40.78
39.07
36.23
32.50
28.22
23.58
18.74
13.75
8.65
3.52
-1.53
-6.41
-11.14
-15.80
-20.54
-25.44
-30.45
-35.39
-40.09
-44.56
-49.01
-53.89
-59.60
-66.29
-73.61
-80.64
-86.14
-88.78
-87.54
-81.93
-72.11
-58.74
-42.85
-25.60
-8.13
8.52
23.43
35.83
45.17
51.22
54.13
54.42
52.92
50.54
48.09
46.15
45.06
44.92
45.66
47.16
49.14
51.27
53.11
54.20
54.13
52.65
49.73
45.55
40.46
34.87
29.21
23.74
18.64
13.85
9.26
4.68
-0.04
-4.97
-10.15
-15.57
-21.13
-26.71
-32.10
-37.13
-41.67
-45.81
-49.82
-54.13
-59.26
-65.48
-72.68
-80.10
-86.41
-90.02
-89.49
-84.02
-73.67
-59.33
-42.36
-24.17
-5.91
11.57
27.55
41.34
52.22
59.61
63.36
63.79
61.79
58.44
54.82
51.75
49.68
48.68
48.63
49.23
50.09
50.83
51.09
50.66
49.50
47.69
45.35
42.55
39.32
35.66
31.60
27.24
22.71
18.19
13.78
9.56
5.53
1.67
-2.11
-5.91
-9.82
-13.85
-17.93
-21.89
-25.51
-28.66
-31.41
-34.01
-36.91
-40.60
-45.48
-51.65
-58.77
-66.02
-72.13
-75.66
-75.37
-70.57
-61.37
-48.64
-33.78
-18.31
-3.56
9.50
20.34
28.63
34.21
37.05
37.34
35.55
32.47
29.04
26.17
24.45
24.12
24.95
26.48
28.17
29.50
30.14
29.92
28.82
27.00
24.66
22.09
19.48
16.97
14.56
12.18
9.68
6.90
3.70
-0.01
-4.19
-8.68
-13.19
-17.42
-21.24
-24.72
-28.27
-32.40
-37.57
-43.94
-51.30
-58.97
-65.99
-71.23
-73.62
-72.40
-67.26
-58.42
-46.68
-33.10
-18.88
-5.06
7.61
18.65
27.73
34.64
39.24
41.52
41.68
40.19
37.69
34.87
32.29
30.28
28.98
28.35
28.32
28.77
29.54
30.41
31.07
31.24
30.68
29.34
27.27
24.69
21.82
18.80
15.75
12.60
9.25
5.55
1.38
-3.31
-8.42
-13.75
-19.03
-24.02
-28.60
-32.81
-36.90
-41.20
-46.10
-51.83
-58.42
-65.52
-72.40
-78.01
-81.17
-80.83
-76.42
-67.98
-56.20
-42.19
-27.15
-12.18
1.90
14.49
25.16
33.57
39.49
42.85
43.88
43.04
41.01
38.50
36.12
34.31
33.26
32.96
33.26
33.97
34.93
36.01
37.07
37.88
38.13
37.49
35.69
32.71
28.79
24.39
19.98
15.89
12.19
8.66
4.91
0.63
-4.39
-10.09
-16.20
-22.34
-28.11
-33.25
-37.73
-41.81
-45.96
-50.69
-56.27
-62.56
-68.90
-74.19
-77.17
-76.72
-72.16
-63.43
-51.10
-36.19
-19.98
-3.73
11.46
24.78
35.60
43.55
48.42
50.22
49.28
46.20
41.89
37.33
33.37
30.58
29.14
28.89
29.46
30.45
31.51
32.36
32.83
32.76
32.07
30.69
28.64
26.02
23.00
19.76
16.47
13.23
10.03
6.75
3.24
-0.59
-4.71
-8.95
-13.08
-16.93
-20.50
-23.97
-27.65
-31.89
-36.99
-43.17
-50.38
-58.33
-66.21
-72.86
-76.87
-76.93
-72.26
-62.87
-49.62
-34.01
-17.79
-2.50
10.77
21.44
29.34
34.52
37.09
37.20
35.20
31.71
27.59
23.79
21.08
19.78
19.72
20.42
21.29
21.98
22.37
22.57
22.61
22.41
21.74
20.32
17.98
14.77
10.86
6.45
1.76
-3.12
-8.06
-12.95
-17.71
-22.31
-26.91
-31.80
-37.32
-43.63
-50.61
-57.63
-63.72
-67.68
-68.43
-65.28
-58.14
-47.55
-34.47
-20.10
-5.64
7.88
19.66
29.08
35.80
39.68
40.89
39.88
37.35
34.05
30.72
27.90
25.90
24.84
24.66
25.15
26.03
26.96
27.60
27.68
27.09
25.89
24.22
22.25
20.00
17.33
14.02
9.85
4.80
-0.93
-7.02
-13.13
-19.05
-24.72
-30.19
-35.66
-41.39
-47.65
-54.72
-62.61
-70.85
-78.41
-83.74
-85.23
-81.75
-73.01
-59.78
-43.60
-26.32
-9.60
5.44
18.26
28.74
36.89
42.74
46.27
47.56
46.87
44.70
41.72
38.59
35.84
33.74
32.39
31.71
31.57
31.83
32.27
32.61
32.57
31.93
30.55
28.43
25.61
22.15
18.08
13.39
8.17
2.55
-3.21
-8.82
-14.07
-18.84
-23.20
-27.41
-31.83
-36.89
-42.87
-49.80
-57.31
-64.61
-70.53
-73.73
-73.08
-67.91
-58.26
-44.95
-29.31
-12.89
2.93
17.14
29.16
38.76
45.86
50.44
52.64
52.75
51.29
48.90
46.24
43.83
41.94
40.65
39.97
39.81
40.13
40.76
41.49
41.98
41.85
40.84
38.82
35.89
32.31
28.38
24.34
20.24
16.02
11.46
6.42
0.87
-5.06
-11.09
-16.97
-22.55
-27.85
-33.05
-38.47
-44.45
-51.19
-58.58
-66.05
-72.55
-76.70
-77.16
-73.01
-64.10
-51.15
-35.55
-18.94
-2.85
11.62
23.82
33.43
40.34
44.53
46.06
45.19
42.38
38.35
33.96
30.04
27.18
25.60
25.14
25.37
25.79
26.00
25.81
25.21
24.25
23.00
21.39
19.30
16.61
13.26
9.35
5.09
0.70
-3.63
-7.89
-12.15
-16.63
-21.48
-26.78
-32.58
-38.84
-45.42
-52.00
-57.95
-62.28
-63.87
-61.71
-55.34
-45.07
-31.88
-17.22
-2.52
11.07
22.84
32.40
39.54
44.09
45.93
45.11
42.02
37.46
32.43
27.97
24.79
23.17
22.86
23.30
23.89
24.10
23.74
22.83
21.56
20.11
18.52
16.62
14.13
10.79
6.46
1.27
-4.43
-10.18
-15.59
-20.52
-25.10
-29.67
-34.65
-40.37
-47.06
-54.70
-62.98
-71.25
-78.47
-83.28
-84.31
-80.57
-71.85
-58.86
-43.11
-26.42
-10.49
3.55
15.26
24.72
32.16
37.72
41.36
42.96
42.60
40.69
38.02
35.47
33.74
33.06
33.23
33.78
34.29
34.59
34.75
34.90
35.04
34.90
34.07
32.17
29.06
24.89
20.02
14.81
9.45
3.94
-1.83
-7.88
-14.16
-20.44
-26.49
-32.27
-37.98
-44.00
-50.67
-57.95
-65.21
-71.22
-74.51
-73.84
-68.65
-59.22
-46.53
-31.90
-16.62
-1.72
12.11
24.36
34.65
42.71
48.37
51.70
52.95
52.54
50.96
48.72
46.26
43.98
42.15
40.93
40.35
40.28
40.53
40.81
40.87
40.39
39.09
36.77
33.37
29.04
24.11
18.98
13.98
9.27
4.77
0.31
-4.27
-9.07
-14.06
-19.10
-24.15
-29.20
-34.38
-39.88
-45.90
-52.50
-59.38
-65.82
-70.64
-72.51
-70.33
-63.61
-52.76
-38.92
-23.61
-8.30
5.95
18.50
29.02
37.24
42.92
45.90
46.26
44.49
41.33
37.72
34.42
31.91
30.33
29.59
29.45
29.72
30.22
30.77
31.14
31.05
30.26
28.57
25.93
22.39
18.06
13.12
7.73
2.09
-3.55
-8.97
-13.95
-18.47
-22.68
-26.90
-31.50
-36.74
-42.66
-49.00
-55.23
-60.55
-64.10
-65.05
-62.76
-56.92
-47.69
-35.66
-21.73
-6.98
7.51
20.79
32.09
40.82
46.61
49.40
49.44
47.34
43.91
39.93
36.06
32.65
29.87
27.79
26.44
25.80
25.80
26.19
26.62
26.72
26.21
24.95
22.89
20.05
16.37
11.87
6.65
0.96
-4.81
-10.36
-15.50
-20.31
-25.08
-30.17
-35.86
-42.33
-49.58
-57.42
-65.48
-73.09
-79.32
-83.09
-83.31
-79.26
-70.78
-58.36
-43.14
-26.55
-10.07
5.14
18.32
29.18
37.73
44.14
48.56
51.10
51.74
50.50
47.46
42.88
37.28
31.41
26.15
22.24
20.12
19.76
20.73
22.40
24.17
25.64
26.65
27.10
26.85
25.67
23.25
19.51
14.51
8.62
2.35
-3.85
-9.62
-14.79
-19.35
-23.49
-27.51
-31.84
-36.93
-43.03
-50.02
-57.29
-63.72
-67.98
-68.82
-65.50
-57.97
-46.84
-33.22
-18.37
-3.48
10.51
22.92
33.32
41.44
47.19
50.64
51.98
51.58
49.89
47.47
44.84
42.41
40.50
39.23
38.58
38.45
38.70
39.13
39.50
39.50
38.83
37.23
34.68
31.31
27.47
23.55
19.80
16.26
12.74
8.87
4.29
-1.14
-7.28
-13.70
-19.83
-25.21
-29.65
-33.26
-36.43
-39.73
-43.68
-48.63
-54.63
-61.21
-67.45
-71.98
-73.37
-70.51
-62.97
-51.22
-36.50
-20.44
-4.63
9.67
21.77
31.32
38.21
42.43
44.09
43.50
41.20
38.00
34.70
31.95
30.02
28.80
27.97
27.16
26.16
24.91
23.52
22.11
20.75
19.37
17.77
15.68
12.87
9.26
4.96
0.27
-4.46
-8.97
-13.26
-17.49
-21.91
-26.66
-31.71
-36.87
-42.01
-47.11
-52.29
-57.56
-62.61
-66.67
-68.66
-67.52
-62.61
-53.90
-42.09
-28.35
-14.04
-0.40
11.62
21.42
28.75
33.59
36.10
36.52
35.24
32.77
29.74
26.82
24.59
23.39
23.21
23.76
24.62
25.38
25.79
25.74
25.24
24.36
23.15
21.64
19.80
17.51
14.61
10.93
6.42
1.26
-4.22
-9.60
-14.63
-19.31
-23.89
-28.68
-33.93
-39.74
-46.06
-52.80
-59.74
-66.46
-72.13
-75.56
-75.48
-70.99
-62.00
-49.36
-34.66
-19.61
-5.55
6.85
17.50
26.51
33.86
39.23
42.14
42.31
40.00
36.03
31.61
27.92
25.77
25.33
26.24
27.83
29.47
30.73
31.38
31.31
30.40
28.51
25.60
21.85
17.61
13.36
9.37
5.62
1.80
-2.54
-7.65
-13.48
-19.64
-25.63
-31.09
-35.92
-40.38
-44.88
-49.85
-55.40
-61.21
-66.45
-69.93
-70.46
-67.21
-59.97
-49.20
-35.87
-21.13
-6.09
8.26
21.07
31.54
39.03
43.19
44.12
42.47
39.25
35.59
32.45
30.44
29.76
30.31
31.76
33.70
35.70
37.39
38.48
38.82
38.36
37.13
35.22
32.72
29.71
26.27
22.41
18.08
13.23
7.90
2.25
-3.44
-8.90
-13.99
-18.80
-23.59
-28.73
-34.48
-40.89
-47.81
-54.75
-60.95
-65.37
-66.88
-64.53
-57.91
-47.42
-34.20
-19.81
-5.76
6.86
17.51
26.04
32.36
36.35
37.84
36.88
33.88
29.63
25.13
21.22
18.41
16.69
15.80
15.35
15.10
14.98
15.00
15.14
15.20
14.84
13.68
11.51
8.33
4.38
0.05
-4.31
-8.52
-12.65
-16.91
-21.58
-26.85
-32.76
-39.20
-45.83
-52.06
-57.06
-59.78
-59.23
-54.78
-46.44
-34.92
-21.51
-7.65
5.41
16.84
26.21
33.27
37.85
39.79
39.14
36.30
32.05
27.38
23.17
19.94
17.75
16.32
15.24
14.29
13.43
12.76
12.34
12.02
11.41
10.09
7.75
4.28
-0.11
-5.04
-10.08
-14.92
-19.52
-24.08
-29.04
-34.84
-41.79
-49.82
-58.44
-66.71
-73.45
-77.42
-77.62
-73.55
-65.30
-53.59
-39.60
-24.65
-9.97
3.55
15.42
25.34
33.15
38.66
41.68
42.19
40.55
37.45
33.89
30.77
28.67
27.60
27.19
26.91
26.39
25.64
24.96
24.65
24.79
25.04
24.76
23.34
20.46
16.25
11.21
5.93
0.82
-4.07
-8.99
-14.30
-20.30
-27.14
-34.77
-43.01
-51.48
-59.55
-66.28
-70.53
-71.17
-67.43
-59.24
-47.25
-32.75
-17.26
-2.13
11.68
23.63
33.49
41.11
46.41
49.39
50.24
49.45
47.66
45.55
43.60
42.04
40.81
39.82
38.99
38.39
38.13
38.19
38.35
38.20
37.26
35.17
31.85
27.48
22.40
16.97
11.44
6.03
0.86
-3.97
-8.45
-12.67
-16.89
-21.49
-26.82
-33.14
-40.37
-48.08
-55.45
-61.35
-64.57
-64.08
-59.31
-50.37
-38.02
-23.49
-8.17
6.69
20.13
31.55
40.57
46.96
50.65
51.77
50.69
48.01
44.48
40.82
37.59
35.13
33.56
32.81
32.65
32.78
32.91
32.81
32.32
31.39
29.96
27.90
25.03
21.16
16.24
10.41
4.04
-2.33
-8.23
-13.39
-17.80
-21.74
-25.64
-29.90
-34.77
-40.33
-46.38
-52.53
-58.10
-62.15
-63.61
-61.52
-55.36
-45.27
-32.15
-17.38
-2.44
11.41
23.33
32.86
39.70
43.70
44.92
43.66
40.61
36.73
33.00
30.16
28.49
27.86
27.83
27.93
27.79
27.30
26.47
25.40
24.12
22.53
20.38
17.39
13.41
8.49
2.89
-3.01
-8.82
-14.31
-19.45
-24.38
-29.37
-34.73
-40.75
-47.57
-55.10
-62.90
-70.14
-75.63
-78.11
-76.60
-70.69
-60.67
-47.45
-32.32
-16.62
-1.48
12.23
23.95
33.30
40.06
44.20
45.90
45.59
43.86
41.38
38.75
36.49
34.93
34.21
34.30
34.95
35.85
36.57
36.75
36.11
34.54
32.09
28.95
25.39
21.64
17.84
13.96
9.85
5.34
0.37
-4.97
-10.42
-15.69
-20.61
-25.19
-29.69
-34.49
-39.95
-46.22
-53.11
-60.04
-66.06
-70.01
-70.78
-67.54
-60.08
-48.79
-34.69
-19.13
-3.50
11.03
23.71
34.17
42.30
48.09
51.55
52.78
52.04
49.83
46.85
43.83
41.30
39.49
38.37
37.72
37.32
37.02
36.71
36.27
35.55
34.37
32.60
30.17
27.17
23.79
20.24
16.71
13.29
9.91
6.41
2.61
-1.60
-6.22
-11.05
-15.80
-20.21
-24.10
-27.54
-30.85
-34.50
-39.00
-44.61
-51.14
-57.83
-63.48
-66.71
-66.35
-61.80
-53.11
-41.03
-26.77
-11.70
2.90
16.00
26.90
35.17
40.63
43.30
43.42
41.45
38.11
34.23
30.63
27.87
26.19
25.44
25.30
25.40
25.48
25.48
25.39
25.18
24.78
24.01
22.65
20.51
17.46
13.56
9.03
4.21
-0.52
-4.93
-9.03
-13.05
-17.32
-22.16
-27.68
-33.84
-40.33
-46.64
-52.11
-55.93
-57.26
-55.44
-50.17
-41.68
-30.65
-18.06
-4.93
7.79
19.35
29.05
36.29
40.64
41.93
40.42
36.78
31.99
27.08
22.87
19.78
17.84
16.78
16.21
15.84
15.52
15.23
14.92
14.48
13.60
11.97
9.31
5.60
1.06
-3.91
-8.85
-13.47
-17.65
-21.54
-25.41
-29.59
-34.42
-40.09
-46.68
-53.93
-61.20
-67.41
-71.27
-71.53
-67.43
-58.96
-46.89
-32.53
-17.35
-2.68
10.57
21.89
30.96
37.64
41.81
43.50
42.90
40.50
36.94
32.99
29.34
26.50
24.65
23.72
23.42
23.41
23.40
23.24
22.88
22.30
21.45
20.16
18.23
15.48
11.83
7.38
2.34
-2.96
-8.23
-13.24
-17.94
-22.43
-26.96
-31.84
-37.35
-43.64
-50.58
-57.75
-64.34
-69.29
-71.47
-69.95
-64.24
-54.51
-41.53
-26.56
-11.02
3.75
16.76
27.37
35.26
40.33
42.67
42.55
40.44
37.00
33.00
29.19
26.12
24.06
23.02
22.75
22.96
23.36
23.74
23.96
23.93
23.56
22.73
21.33
19.25
16.43
12.89
8.71
4.05
-0.92
-6.00
-10.99
-15.74
-20.24
-24.60
-29.13
-34.17
-40.03
-46.67
-53.68
-60.18
-65.01
-67.00
-65.27
-59.46
-49.82
-37.16
-22.62
-7.51
6.98
19.82
30.30
37.97
42.70
44.64
44.16
41.83
38.31
34.38
30.68
27.72
25.74
24.71
24.36
24.32
24.29
24.08
23.66
22.99
22.02
20.52
18.26
15.04
10.84
5.90
0.57
-4.71
-9.64
-14.06
-18.03
-21.75
-25.50
-29.59
-34.27
-39.67
-45.67
-51.89
-57.63
-61.98
-63.96
-62.76
-57.95
-49.60
-38.35
-25.22
-11.47
1.68
13.24
22.50
29.08
32.85
33.92
32.68
29.70
25.71
21.46
17.58
14.45
12.22
10.88
10.35
10.49
11.19
12.23
13.30
14.01
13.94
12.81
10.49
7.09
2.89
-1.73
-6.46
-11.11
-15.72
-20.51
-25.85
-32.04
-39.13
-46.78
-54.16
-60.05
-63.10
-62.25
-56.98
-47.56
-34.93
-20.42
-5.46
8.74
21.28
31.52
39.04
43.61
45.25
44.32
41.49
37.64
33.58
29.90
26.85
24.45
22.55
21.09
20.06
19.44
19.14
18.96
18.54
17.54
15.67
12.80
8.95
4.31
-0.82
-6.11
-11.23
-16.04
-20.59
-25.14
-30.08
-35.81
-42.57
-50.28
-58.48
-66.25
-72.38
-75.53
-74.60
-69.05
-59.13
-45.84
-30.61
-14.92
0.07
13.58
25.17
34.49
41.23
45.12
46.13
44.62
41.34
37.26
33.34
30.21
28.07
26.77
25.98
25.44
25.02
24.77
24.76
24.95
25.17
25.07
24.28
22.51
19.63
15.65
10.72
5.11
-0.83
-6.74
-12.33
-17.51
-22.48
-27.65
-33.50
-40.36
-48.17
-56.37
-63.93
-69.56
-71.91
-70.01
-63.41
-52.38
-37.91
-21.50
-4.77
10.79
24.19
34.89
42.80
48.03
50.79
51.34
50.05
47.43
44.13
40.80
37.92
35.79
34.43
33.77
33.63
33.86
34.29
34.71
34.89
34.62
33.70
32.06
29.68
26.66
23.08
19.06
14.62
9.79
4.58
-0.91
-6.54
-12.08
-17.40
-22.49
-27.51
-32.77
-38.59
-45.11
-52.21
-59.44
-66.01
-70.87
-72.87
-71.04
-64.83
-54.40
-40.61
-24.89
-8.81
6.23
19.27
29.75
37.43
42.22
44.21
43.70
41.27
37.72
33.91
30.50
27.87
26.08
25.00
24.44
24.27
24.38
24.65
24.88
24.79
24.08
22.48
19.86
16.19
11.59
6.38
0.99
-4.18
-8.82
-12.94
-16.83
-20.99
-25.92
-31.94
-38.97
-46.50
-53.61
-59.17
-62.06
-61.40
-56.74
-48.18
-36.31
-22.19
-7.09
7.75
21.25
32.63
41.42
47.41
50.52
50.94
49.00
45.32
40.68
35.98
31.97
29.16
27.64
27.16
27.28
27.54
27.61
27.33
26.71
25.74
24.40
22.61
20.19
17.02
13.05
8.27
2.82
-3.11
-9.27
-15.31
-20.95
-25.99
-30.48
-34.75
-39.33
-44.79
-51.51
-59.41
-67.93
-75.92
-81.95
-84.52
-82.47
-75.34
-63.46
-48.02
-30.65
-13.11
3.17
17.27
28.83
37.81
44.36
48.66
50.91
51.41
50.57
48.87
46.77
44.64
42.74
41.20
40.09
39.41
39.13
39.11
39.14
38.97
38.32
36.97
34.82
31.91
28.41
24.54
20.47
16.29
11.94
7.32
2.31
-3.11
-8.83
-14.65
-20.35
-25.81
-31.00
-36.07
-41.32
-47.09
-53.64
-60.95
-68.51
-75.23
-79.65
-80.32
-76.24
-67.21
-53.93
-37.80
-20.50
-3.65
11.56
24.44
34.74
42.50
47.92
51.21
52.62
52.40
50.90
48.59
45.98
43.59
41.79
40.76
40.45
40.68
41.23
41.89
42.48
42.83
42.74
42.03
40.51
38.10
34.84
30.92
26.63
22.28
18.10
14.16
10.31
6.28
1.80
-3.28
-8.85
-14.57
-20.02
-24.82
-28.83
-32.17
-35.25
-38.61
-42.82
-48.26
-55.05
-62.81
-70.69
-77.39
-81.40
-81.38
-76.56
-66.98
-53.55
-37.73
-21.16
-5.32
8.75
20.44
29.49
35.80
39.37
40.38
39.13
36.20
32.37
28.48
25.26
23.16
22.29
22.44
23.28
24.44
25.63
26.62
27.23
27.29
26.65
25.22
23.04
20.17
16.68
12.64
8.13
3.27
-1.72
-6.59
-11.20
-15.54
-19.86
-24.48
-29.74
-35.74
-42.34
-49.05
-55.11
-59.54
-61.34
-59.66
-54.09
-44.79
-32.52
-18.51
-4.13
9.39
21.18
30.78
38.00
42.84
45.33
45.62
43.98
40.90
37.05
33.11
29.68
27.15
25.66
25.15
25.39
26.08
26.86
27.36
27.31
26.56
25.10
23.01
20.35
17.12
13.26
8.67
3.33
-2.66
-9.06
-15.58
-21.93
-27.89
-33.37
-38.42
-43.27
-48.26
-53.81
-60.20
-67.42
-74.97
-81.79
-86.45
-87.45
-83.68
-74.84
-61.54
-45.25
-27.79
-10.91
4.14
16.74
26.73
34.21
39.31
42.22
43.21
42.68
41.21
39.30
37.35
35.61
34.19
33.19
32.71
32.84
33.53
34.57
35.58
36.16
35.96
34.77
32.58
29.52
25.81
21.69
17.39
13.02
8.60
4.05
-0.76
-5.92
-11.38
-17.01
-22.53
-27.72
-32.47
-36.91
-41.46
-46.63
-52.81
-59.94
-67.30
-73.60
-77.25
-76.85
-71.58
-61.51
-47.54
-31.20
-14.19
1.95
16.10
27.67
36.45
42.51
46.08
47.46
47.08
45.45
43.17
40.76
38.67
37.10
36.16
35.85
36.15
37.00
38.25
39.60
40.65
40.98
40.26
38.36
35.38
31.59
27.34
22.96
18.66
14.49
10.33
5.99
1.26
-3.93
-9.44
-14.98
-20.21
-24.87
-28.90
-32.50
-36.05
-40.06
-44.98
-51.08
-58.19
-65.69
-72.40
-76.82
-77.53
-73.58
-64.84
-52.02
-36.53
-20.03
-4.07
10.22
22.11
31.17
37.19
40.11
40.12
37.75
33.81
29.34
25.24
22.13
20.23
19.41
19.36
19.72
20.26
20.83
21.36
21.78
21.98
21.74
20.79
18.84
15.71
11.45
6.35
0.89
-4.46
-9.37
-13.79
-17.90
-22.00
-26.42
-31.41
-37.10
-43.41
-49.95
-56.00
-60.52
-62.35
-60.54
-54.64
-44.88
-32.15
-17.73
-3.00
10.85
22.98
32.92
40.42
45.36
47.71
47.56
45.22
41.23
36.38
31.53
27.43
24.52
22.88
22.32
22.46
22.91
23.30
23.41
23.04
22.07
20.40
17.95
14.66
10.51
5.59
0.07
-5.78
-11.63
-17.14
-22.15
-26.70
-31.07
-35.65
-40.86
-46.98
-54.06
-61.90
-69.90
-77.13
-82.30
-84.07
-81.37
-73.80
-61.79
-46.56
-29.77
-13.04
2.36
15.64
26.46
34.72
40.41
43.63
44.61
43.73
41.58
38.81
36.10
33.96
32.69
32.34
32.73
33.53
34.45
35.22
35.64
35.60
34.96
33.60
31.46
28.55
24.92
20.62
15.67
10.13
4.17
-1.94
-7.83
-13.18
-17.93
-22.32
-26.79
-31.87
-37.89
-44.84
-52.39
-59.77
-66.00
-69.98
-70.66
-67.30
-59.67
-48.24
-34.06
-18.57
-3.21
10.85
22.90
32.56
39.70
44.24
46.17
45.60
42.93
38.85
34.32
30.33
27.67
26.72
27.41
29.34
31.90
34.52
36.76
38.37
39.27
39.45
38.91
37.64
35.60
32.80
29.20
24.77
19.43
13.13
5.94
-1.87
-9.83
-17.39
-24.08
-29.65
-34.10
-37.75
-41.03
-44.52
-48.69
-53.84
-59.79
-65.78
-70.52
-72.43
-70.22
-63.30
-52.09
-37.87
-22.34
-7.14
6.60
18.25
27.61
34.61
39.20
41.38
41.31
39.42
36.47
33.33
30.82
29.42
29.19
29.84
30.90
31.94
32.67
32.98
32.88
32.38
31.40
29.82
27.43
24.19
20.13
15.52
10.68
5.96
1.58
-2.42
-6.19
-9.99
-14.10
-18.70
-23.88
-29.64
-35.94
-42.66
-49.51
-55.95
-61.10
-63.93
-63.48
-59.13
-50.84
-39.17
-25.14
-10.00
5.00
18.77
30.38
39.05
44.24
45.69
43.66
38.94
32.80
26.65
21.68
18.59
17.48
17.93
19.30
20.98
22.49
23.50
23.80
23.28
21.92
19.82
17.14
14.04
10.63
6.93
2.92
-1.37
-5.81
-10.34
-14.90
-19.59
-24.57
-29.97
-35.88
-42.30
-49.19
-56.50
-64.08
-71.50
-78.00
-82.45
-83.65
-80.65
-73.12
-61.45
-46.67
-30.18
-13.36
2.63
17.03
29.42
39.63
47.59
53.25
56.60
57.73
56.95
54.82
52.07
49.48
47.59
46.69
46.78
47.67
49.14
50.88
52.52
53.56
53.49
51.90
48.72
44.21
38.87
33.12
27.19
20.97
14.26
6.94
-0.83
-8.63
-15.93
-22.37
-27.85
-32.59
-37.02
-41.58
-46.64
-52.45
-59.19
-66.88
-75.34
-84.07
-92.03
-97.85
-99.94
-97.00
-88.37
-74.20
-55.36
-33.12
-9.00
15.25
37.59
55.82
68.07
73.38
72.31
66.71
59.22
52.27
47.29
44.56
43.57
43.59
44.17
45.20
46.61
48.14
49.30
49.59
48.71
46.70
43.90
40.65
37.24
33.71
29.99
26.03
21.79
17.33
12.68
7.80
2.65
-2.79
-8.36
-13.73
-18.54
-22.53
-25.78
-28.68
-31.79
-35.71
-40.78
-47.09
-54.35
-61.97
-69.07
-74.50
-76.98
-75.44
-69.32
-58.80
-44.83
-28.88
-12.45
3.19
17.20
29.10
38.59
45.46
49.64
51.29
50.84
48.98
46.49
43.99
41.89
40.33
39.29
38.67
38.36
38.27
38.26
38.21
37.95
37.26
35.90
33.68
30.52
26.55
22.01
17.29
12.64
8.19
3.84
-0.60
-5.28
-10.22
-15.18
-19.84
-23.92
-27.35
-30.36
-33.36
-36.82
-41.12
-46.33
-52.22
-58.14
-63.20
-66.29
-66.34
-62.63
-54.94
-43.73
-29.99
-15.11
-0.45
12.79
23.81
32.19
37.76
40.58
40.90
39.18
36.03
32.21
28.46
25.34
23.24
22.22
22.14
22.71
23.57
24.39
24.91
24.87
24.13
22.56
20.21
17.19
13.76
10.14
6.50
2.82
-0.99
-5.12
-9.67
-14.61
-19.81
-25.09
-30.33
-35.47
-40.60
-45.91
-51.65
-58.02
-64.91
-71.79
-77.65
-81.15
-80.97
-76.31
-67.13
-54.20
-38.91
-22.81
-7.26
6.82
18.92
28.82
36.46
41.82
44.92
45.92
45.14
43.09
40.43
37.80
35.74
34.54
34.28
34.81
35.88
37.19
38.41
39.25
39.42
38.66
36.80
33.80
29.75
24.94
19.69
14.31
9.01
3.84
-1.30
-6.58
-12.07
-17.75
-23.39
-28.72
-33.59
-38.07
-42.53
-47.42
-53.16
-59.84
-67.10
-74.02
-79.35
-81.74
-80.09
-73.93
-63.51
-49.82
-34.21
-18.13
-2.84
10.80
22.27
31.34
37.98
42.29
44.50
44.97
44.14
42.50
40.53
38.61
37.04
35.99
35.50
35.55
36.05
36.84
37.70
38.36
38.46
37.68
35.83
32.93
29.28
25.33
21.43
17.75
14.13
10.21
5.64
0.31
-5.56
-11.51
-17.05
-21.87
-26.00
-29.78
-33.75
-38.43
-44.12
-50.81
-58.07
-65.07
-70.66
-73.60
-72.79
-67.67
-58.31
-45.55
-30.73
-15.36
-0.79
12.04
22.62
30.78
36.48
39.71
40.52
39.13
36.02
31.95
27.83
24.49
22.43
21.74
22.16
23.20
24.39
25.39
26.00
26.14
25.80
24.97
23.59
21.59
18.85
15.30
10.98
6.04
0.79
-4.40
-9.25
-13.59
-17.46
-21.07
-24.75
-28.87
-33.78
-39.67
-46.43
-53.58
-60.13
-64.81
-66.29
-63.62
-56.49
-45.44
-31.65
-16.63
-1.84
11.56
22.82
31.52
37.46
40.63
41.17
39.51
36.31
32.39
28.55
25.37
23.14
21.87
21.38
21.39
21.65
21.94
22.05
21.85
21.21
20.04
18.24
15.70
12.32
8.05
2.94
-2.78
-8.80
-14.77
-20.44
-25.74
-30.81
-35.87
-41.22
-47.15
-53.85
-61.27
-69.05
-76.36
-81.99
-84.54
-82.85
-76.36
-65.36
-50.89
-34.48
-17.70
-1.86
12.14
23.82
32.97
39.52
43.50
45.10
44.68
42.82
40.16
37.41
35.09
33.46
32.59
32.31
32.37
32.51
32.49
32.11
31.29
29.99
28.25
26.11
23.56
20.47
16.69
12.11
6.73
0.85
-5.13
-10.81
-15.95
-20.62
-25.12
-29.84
-35.14
-41.22
-48.12
-55.62
-63.20
-69.98
-74.76
-76.23
-73.30
-65.59
-53.57
-38.49
-22.02
-5.78
9.03
21.81
32.28
40.39
46.04
49.17
49.91
48.65
46.09
43.01
40.10
37.75
36.10
35.07
34.55
34.42
34.57
34.80
34.84
34.36
33.14
31.11
28.39
25.20
21.69
17.92
13.80
9.25
4.31
-0.88
-6.05
-11.01
-15.67
-20.11
-24.59
-29.42
-34.94
-41.34
-48.59
-56.34
-63.83
-69.91
-73.28
-72.77
-67.71
-58.19
-45.07
-29.81
-14.03
0.86
13.87
24.48
32.53
38.01
41.03
41.79
40.63
38.13
34.98
31.92
29.46
27.85
27.03
26.72
26.64
26.55
26.36
26.06
25.62
24.92
23.77
21.90
19.10
15.28
10.57
5.26
-0.26
-5.62
-10.65
-15.33
-19.83
-24.44
-29.50
-35.25
-41.76
-48.77
-55.62
-61.34
-64.75
-64.78
-60.80
-52.79
-41.38
-27.71
-13.07
1.32
14.46
25.61
34.24
40.02
42.83
42.86
40.59
36.84
32.52
28.50
25.44
23.65
23.05
23.32
23.92
24.31
24.09
23.12
21.50
19.47
17.18
14.63
11.61
7.84
3.18
-2.25
-8.08
-13.88
-19.29
-24.27
-29.05
-34.01
-39.55
-45.92
-53.12
-60.85
-68.46
-74.96
-79.14
-79.77
-76.04
-67.74
-55.45
-40.41
-24.24
-8.45
5.79
17.86
27.55
34.97
40.22
43.42
44.70
44.29
42.61
40.26
37.92
36.13
35.16
34.98
35.32
35.84
36.27
36.44
36.31
35.78
34.75
33.04
30.44
26.87
22.37
17.10
11.33
5.31
-0.73
-6.60
-12.22
-17.58
-22.76
-27.98
-33.57
-39.89
-47.11
-55.07
-63.15
-70.26
-75.05
-76.21
-72.88
-64.89
-52.88
-38.05
-21.86
-5.70
9.38
22.67
33.78
42.49
48.67
52.36
53.74
53.21
51.38
48.91
46.44
44.48
43.31
42.96
43.31
44.03
44.78
45.24
45.15
44.33
42.71
40.24
37.01
33.16
28.89
24.37
19.69
14.88
9.89
4.68
-0.70
-6.09
-11.35
-16.42
-21.40
-26.58
-32.32
-38.95
-46.59
-55.04
-63.70
-71.59
-77.40
-79.78
-77.65
-70.59
-59.01
-44.07
-27.43
-10.74
4.73
18.23
29.48
38.42
45.01
49.21
51.06
50.82
49.00
46.32
43.44
40.90
38.96
37.69
37.10
37.10
37.58
38.29
38.80
38.69
37.56
35.31
32.08
28.22
24.02
19.65
15.09
10.24
5.06
-0.35
-5.81
-11.10
-16.12
-20.95
-25.76
-30.78
-36.25
-42.29
-48.89
-55.84
-62.59
-68.27
-71.82
-72.10
-68.35
-60.35
-48.57
-34.09
-18.33
-2.71
11.60
23.81
33.47
40.36
44.42
45.72
44.61
41.65
37.68
33.60
30.19
27.91
26.84
26.77
27.31
28.06
28.70
29.04
28.96
28.38
27.21
25.33
22.61
18.95
14.30
8.78
2.62
-3.79
-10.04
-15.84
-21.06
-25.83
-30.44
-35.30
-40.78
-47.13
-54.36
-62.23
-70.11
-77.06
-81.86
-83.25
-80.25
-72.46
-60.26
-44.76
-27.53
-10.25
5.69
19.36
30.30
38.40
43.73
46.51
47.09
46.01
43.93
41.55
39.42
37.89
37.06
36.83
37.05
37.52
37.98
38.22
37.96
37.02
35.33
32.94
30.04
26.76
23.17
19.20
14.73
9.65
3.97
-2.13
-8.40
-14.56
-20.43
-25.96
-31.21
-36.34
-41.60
-47.26
-53.60
-60.63
-67.99
-74.76
-79.57
-80.91
-77.61
-69.28
-56.53
-40.73
-23.65
-6.90
8.35
21.46
32.15
40.29
45.81
48.74
49.30
48.04
45.71
43.11
40.86
39.25
38.27
37.75
37.51
37.50
37.67
37.98
38.27
38.26
37.64
36.19
33.86
30.82
27.31
23.53
19.58
15.36
10.70
5.48
-0.24
-6.24
-12.16
-17.75
-22.93
-27.86
-32.87
-38.34
-44.56
-51.65
-59.44
-67.39
-74.58
-79.73
-81.48
-78.72
-70.98
-58.68
-43.01
-25.64
-8.27
7.71
21.43
32.48
40.71
46.14
48.87
49.15
47.45
44.43
40.89
37.54
34.91
33.23
32.45
32.35
32.63
32.99
33.19
33.02
32.35
31.07
29.13
26.53
23.33
19.64
15.57
11.19
6.54
1.64
-3.49
-8.80
-14.16
-19.44
-24.54
-29.50
-34.49
-39.81
-45.76
-52.43
-59.59
-66.54
-72.17
-75.20
-74.47
-69.30
-59.73
-46.57
-31.18
-15.10
0.23
13.78
24.97
33.50
39.32
42.43
43.01
41.41
38.22
34.21
30.20
26.85
24.56
23.31
22.87
22.84
22.88
22.82
22.64
22.40
22.08
21.50
20.32
18.11
14.55
9.58
3.46
-3.26
-9.94
-16.10
-21.59
-26.60
-31.61
-37.17
-43.71
-51.38
-59.95
-68.73
-76.67
-82.40
-84.57
-82.12
-74.66
-62.59
-47.06
-29.65
-11.98
4.57
19.04
30.86
39.71
45.52
48.36
48.58
46.71
43.48
39.64
35.85
32.60
30.19
28.73
28.18
28.37
29.01
29.74
30.23
30.15
29.29
27.54
24.83
21.15
16.57
11.24
5.39
-0.63
-6.48
-11.90
-16.84
-21.51
-26.34
-31.89
-38.61
-46.69
-55.91
-65.62
-74.73
-81.89
-85.74
-85.11
-79.42
-68.80
-54.14
-36.91
-18.80
-1.37
14.30
27.62
38.36
46.52
52.06
54.99
55.44
53.79
50.69
46.98
43.44
40.62
38.75
37.77
37.45
37.54
37.78
37.94
37.74
36.90
35.24
32.76
29.64
26.15
22.50
18.69
14.58
9.98
4.81
-0.77
-6.47
-12.03
-17.34
-22.56
-27.93
-33.76
-40.33
-47.77
-56.09
-64.97
-73.69
-80.99
-85.34
-85.27
-79.91
-69.37
-54.68
-37.53
-19.69
-2.62
12.78
26.02
36.82
44.92
50.09
52.24
51.66
48.99
45.18
41.26
38.04
35.98
35.10
35.13
35.64
36.18
36.38
35.99
34.91
33.19
30.94
28.31
25.34
21.95
17.97
13.24
7.76
1.72
-4.49
-10.48
-15.97
-20.94
-25.63
-30.39
-35.59
-41.56
-48.38
-55.90
-63.53
-70.21
-74.59
-75.27
-71.28
-62.42
-49.38
-33.57
-16.66
-0.15
14.81
27.48
37.37
44.12
47.51
47.68
45.17
40.92
36.10
31.74
28.47
26.44
25.39
24.88
24.55
24.24
23.90
23.57
23.19
22.52
21.26
19.07
15.77
11.32
5.92
-0.12
-6.41
-12.55
-18.33
-23.71
-28.96
-34.57
-41.06
-48.78
-57.60
-66.80
-75.09
-80.94
-82.91
-80.03
-72.05
-59.53
-43.58
-25.75
-7.61
9.43
24.33
36.42
45.33
50.99
53.55
53.41
51.17
47.64
43.71
40.16
37.47
35.85
35.14
35.05
35.22
35.34
35.19
34.60
33.45
31.71
29.30
26.16
22.17
17.24
11.39
4.79
-2.16
-9.06
-15.55
-21.57
-27.24
-32.88
-38.87
-45.51
-52.96
-61.13
-69.55
-77.30
-83.06
-85.39
-83.13
-75.81
-63.83
-48.35
-30.96
-13.27
3.44
18.28
30.75
40.56
47.54
51.65
53.02
52.00
49.26
45.64
42.04
39.19
37.50
36.93
37.16
37.72
38.21
38.43
38.29
37.74
36.66
34.86
32.15
28.48
23.91
18.63
12.89
6.94
0.93
-4.95
-10.62
-16.02
-21.20
-26.35
-31.75
-37.73
-44.53
-52.13
-60.10
-67.53
-73.12
-75.44
-73.40
-66.48
-55.03
-40.07
-23.08
-5.56
11.21
26.30
39.10
49.19
56.34
60.53
61.99
61.23
58.97
55.97
52.86
50.08
47.80
45.98
44.51
43.26
42.16
41.14
40.10
38.87
37.24
35.00
32.01
28.31
24.05
19.44
14.64
9.70
4.59
-0.77
-6.34
-12.00
-17.51
-22.74
-27.63
-32.36
-37.25
-42.73
-49.15
-56.62
-64.81
-72.87
-79.47
-83.01
-82.14
-76.16
-65.30
-50.66
-33.90
-16.75
-0.58
13.67
25.50
34.67
40.99
44.38
44.98
43.22
39.91
36.01
32.43
29.77
28.25
27.65
27.57
27.59
27.42
26.98
26.33
25.54
24.59
23.35
21.60
19.10
15.70
11.42
6.47
1.19
-4.10
-9.18
-13.99
-18.69
-23.48
-28.59
-34.15
-40.23
-46.74
-53.36
-59.47
-64.09
-66.08
-64.41
-58.55
-48.67
-35.63
-20.71
-5.29
9.49
22.84
34.18
43.11
49.28
52.48
52.77
50.61
46.78
42.29
38.13
34.98
33.14
32.51
32.69
33.15
33.38
33.04
31.92
30.00
27.34
24.01
20.13
15.76
10.96
5.78
0.27
-5.51
-11.44
-17.40
-23.27
-28.98
-34.53
-40.05
-45.75
-51.85
-58.55
-65.80
-73.24
-80.01
-84.90
-86.56
-83.88
-76.36
-64.34
-48.91
-31.60
-14.00
2.59
17.34
29.77
39.62
46.72
50.98
52.51
51.74
49.35
46.21
43.14
40.69
39.07
38.15
37.62
37.16
36.58
35.82
34.90
33.83
32.52
30.82
28.50
25.42
21.49
16.76
11.36
5.48
-0.66
-6.85
-12.89
-18.66
-24.15
-29.41
-34.65
-40.19
-46.40
-53.54
-61.55
-69.83
-77.21
-82.12
-83.07
-79.11
-70.17
-57.14
-41.50
-24.93
-8.80
5.95
18.84
29.56
37.93
43.77
47.02
47.85
46.71
44.20
41.01
37.72
34.78
32.44
30.84
29.95
29.60
29.51
29.34
28.75
27.54
25.67
23.34
20.93
18.87
17.54
17.14
17.63
18.70
19.88
20.68
20.73
19.92
18.34
16.24
13.83
11.14
8.04
4.35
-0.05
-5.00
-10.16
-15.09
-19.50
-23.38
-26.99
-30.74
-35.03
-40.13
-46.11
-52.90
-60.24
-67.54
-73.86
-77.95
-78.47
-74.46
-65.63
-52.60
-36.70
-19.62
-2.96
12.14
25.02
35.43
43.33
48.68
51.50
51.88
50.15
46.97
43.18
39.64
36.99
35.43
34.82
34.78
34.89
34.88
34.60
33.99
32.98
31.49
29.43
26.74
23.40
19.48
15.06
10.24
5.15
-0.04
-5.15
-10.04
-14.65
-19.07
-23.48
-28.15
-33.33
-39.26
-46.03
-53.56
-61.44
-68.89
-74.72
-77.58
-76.27
-70.23
-59.69
-45.73
-29.84
-13.59
1.79
15.46
26.86
35.61
41.43
44.18
44.08
41.77
38.20
34.42
31.27
29.12
27.91
27.25
26.72
26.03
25.15
24.19
23.30
22.48
21.51
20.07
17.80
14.52
10.27
5.33
0.10
-5.09
-10.03
-14.73
-19.34
-24.10
-29.26
-35.07
-41.71
-49.20
-57.29
-65.27
-72.00
-76.01
-75.94
-70.99
-61.26
-47.71
-31.91
-15.51
0.19
14.36
26.59
36.57
44.01
48.66
50.46
49.74
47.22
43.77
40.18
36.95
34.23
32.03
30.29
28.99
28.13
27.59
27.14
26.47
25.38
23.75
21.61
18.98
15.83
12.06
7.59
2.45
-3.15
-8.91
-14.55
-19.88
-24.92
-29.81
-34.82
-40.30
-46.55
-53.80
-61.95
-70.48
-78.32
-84.02
-86.04
-83.26
-75.27
-62.58
-46.42
-28.40
-10.12
7.17
22.60
35.61
45.88
53.18
57.40
58.66
57.36
54.15
49.87
45.37
41.30
38.01
35.59
33.90
32.76
31.97
31.32
30.66
29.79
28.53
26.78
24.50
21.72
18.43
14.58
10.08
4.90
-0.82
-6.77
-12.58
-17.94
-22.83
-27.45
-32.21
-37.50
-43.55
-50.39
-57.75
-65.08
-71.51
-75.96
-77.24
-74.34
-66.76
-54.71
-39.12
-21.50
-3.50
13.34
27.97
39.76
48.49
54.21
57.10
57.52
55.94
53.03
49.53
46.17
43.47
41.67
40.72
40.34
40.22
40.09
39.78
39.20
38.29
36.98
35.17
32.80
29.89
26.50
22.72
18.62
14.15
9.19
3.63
-2.50
-9.02
-15.59
-21.87
-27.63
-32.96
-38.17
-43.74
-50.12
-57.54
-65.79
-74.08
-81.17
-85.50
-85.65
-80.74
-70.77
-56.61
-39.78
-21.99
-4.73
10.91
24.24
34.84
42.45
46.96
48.49
47.49
44.68
40.92
37.03
33.60
30.97
29.15
27.99
27.24
26.68
26.14
25.56
24.87
23.96
22.58
20.44
17.25
12.91
7.63
1.83
-3.97
-9.32
-14.05
-18.26
-22.28
-26.50
-31.24
-36.70
-42.96
-49.92
-57.27
-64.31
-70.00
-73.03
-72.24
-66.92
-57.18
-43.86
-28.33
-12.05
3.68
17.95
30.09
39.62
46.17
49.52
49.81
47.56
43.61
38.94
34.41
30.61
27.73
25.70
24.23
23.06
21.97
20.85
19.67
18.36
16.75
14.57
11.51
7.39
2.25
-3.64
-9.79
-15.70
-21.09
-25.93
-30.59
-35.57
-41.44
-48.52
-56.79
-65.71
-74.27
-81.07
-84.65
-83.83
-78.05
-67.54
-53.24
-36.53
-18.89
-1.60
14.34
28.21
39.48
47.72
52.72
54.54
53.63
50.73
46.82
42.78
39.22
36.37
34.09
32.09
30.13
28.15
26.23
24.52
23.01
21.46
19.46
16.60
12.59
7.47
1.56
-4.67
-10.75
-16.43
-21.67
-26.80
-32.28
-38.62
-46.13
-54.68
-63.64
-71.77
-77.51
-79.36
-76.28
-68.06
-55.35
-39.49
-22.07
-4.60
11.79
26.35
38.61
48.21
54.92
58.60
59.31
57.47
53.76
49.09
44.38
40.39
37.46
35.61
34.50
33.72
32.98
32.18
31.38
30.65
29.79
28.40
25.94
21.96
16.37
9.54
2.17
-5.01
-11.46
-17.10
-22.26
-27.47
-33.26
-39.95
-47.59
-55.96
-64.52
-72.40
-78.51
-81.59
-80.55
-74.77
-64.32
-50.01
-33.21
-15.47
1.78
17.46
30.83
41.37
48.75
52.77
53.54
51.48
47.43
42.45
37.51
33.35
30.23
28.05
26.52
25.37
24.42
23.65
22.95
22.13
20.84
18.71
15.52
11.31
6.38
1.17
-3.87
-8.59
-13.05
-17.61
-22.68
-28.66
-35.71
-43.76
-52.35
-60.68
-67.60
-71.79
-72.04
-67.60
-58.44
-45.32
-29.59
-12.81
3.60
18.57
31.33
41.30
48.02
51.21
51.00
48.01
43.32
38.18
33.65
30.26
28.03
26.63
25.65
24.84
24.15
23.60
23.13
22.44
21.09
18.60
14.69
9.41
3.11
-3.66
-10.29
-16.42
-21.95
-27.12
-32.45
-38.50
-45.77
-54.36
-63.82
-73.13
-80.80
-85.22
-85.11
-79.85
-69.66
-55.45
-38.58
-20.52
-2.60
14.07
28.64
40.47
49.18
54.68
57.19
57.17
55.29
52.21
48.57
44.88
41.51
38.67
36.44
34.75
33.47
32.46
31.55
30.54
29.19
27.16
24.18
20.08
14.93
9.06
2.93
-3.02
-8.56
-13.73
-18.81
-24.23
-30.40
-37.61
-45.91
-54.95
-63.96
-71.67
-76.61
-77.38
-73.15
-63.88
-50.37
-34.00
-16.34
1.22
17.62
32.10
44.15
53.38
59.58
62.80
63.39
61.96
59.28
56.13
53.11
50.60
48.71
47.38
46.38
45.48
44.47
43.23
41.73
40.04
38.21
36.20
33.83
30.85
26.98
22.12
16.41
10.16
3.72
-2.66
-8.92
-15.18
-21.55
-28.11
-34.94
-42.13
-49.86
-58.25
-67.18
-76.00
-83.53
-88.26
-88.73
-84.07
-74.25
-60.19
-43.39
-25.58
-8.26
7.57
21.39
32.94
42.07
48.62
52.49
53.74
52.79
50.36
47.28
44.32
41.92
40.13
38.74
37.42
35.97
34.36
32.75
31.30
30.08
28.88
27.33
24.99
21.52
16.90
11.39
5.45
-0.47
-6.06
-11.26
-16.20
-21.10
-26.25
-31.88
-38.23
-45.34
-53.01
-60.65
-67.17
-71.25
-71.62
-67.43
-58.61
-45.83
-30.37
-13.72
2.66
17.65
30.41
40.41
47.34
51.12
51.93
50.23
46.76
42.41
38.05
34.36
31.63
29.87
28.79
28.01
27.22
26.25
25.11
23.82
22.37
20.58
18.19
14.88
10.49
5.10
-1.00
-7.38
-13.61
-19.43
-24.82
-29.98
-35.29
-41.18
-48.01
-55.85
-64.40
-72.85
-79.94
-84.19
-84.29
-79.47
-69.73
-55.86
-39.23
-21.40
-3.80
12.48
26.67
38.29
47.02
52.75
55.54
55.75
53.98
50.98
47.46
44.01
41.01
38.63
36.88
35.71
34.98
34.55
34.25
33.91
33.35
32.43
31.01
28.97
26.19
22.51
17.86
12.25
5.86
-0.96
-7.82
-14.40
-20.55
-26.36
-32.10
-38.06
-44.55
-51.69
-59.44
-67.43
-74.89
-80.71
-83.48
-81.94
-75.32
-63.67
-47.93
-29.69
-10.77
7.20
23.04
36.13
46.19
53.22
57.33
58.76
57.91
55.37
51.86
48.09
44.65
41.91
40.02
38.89
38.33
38.05
37.78
37.28
36.39
34.99
33.06
30.57
27.52
23.92
19.82
15.27
10.32
5.01
-0.59
-6.36
-12.16
-17.82
-23.26
-28.54
-33.90
-39.70
-46.24
-53.63
-61.60
-69.46
-76.12
-80.34
-80.89
-76.97
-68.42
-55.78
-40.24
-23.25
-6.27
9.51
23.21
34.20
42.02
46.37
47.29
45.26
41.20
36.35
31.83
28.41
26.30
25.21
24.61
24.03
23.27
22.38
21.52
20.80
20.08
19.06
17.31
14.51
10.62
5.82
0.52
-4.82
-9.90
-14.60
-19.08
-23.65
-28.69
-34.48
-41.11
-48.39
-55.73
-62.20
-66.58
-67.62
-64.41
-56.64
-44.76
-29.89
-13.52
2.82
17.86
30.66
40.59
47.25
50.48
50.39
47.45
42.51
36.64
30.94
26.21
22.80
20.63
19.28
18.34
17.50
16.70
15.98
15.36
14.65
13.53
11.55
8.42
4.08
-1.24
-7.11
-13.09
-18.88
-24.31
-29.45
-34.48
-39.73
-45.59
-52.41
-60.25
-68.71
-76.78
-82.94
-85.46
-82.97
-74.89
-61.67
-44.71
-25.87
-7.04
10.28
25.15
37.04
45.75
51.26
53.65
53.28
50.70
46.70
42.14
37.77
34.07
31.21
29.16
27.76
26.82
26.23
25.85
25.54
25.11
24.29
22.75
20.21
16.44
11.39
5.22
-1.74
-9.00
-16.12
-22.83
-29.08
-35.04
-41.07
-47.54
-54.72
-62.72
-71.30
-79.78
-87.10
-91.90
-92.86
-89.04
-80.22
-66.97
-50.62
-32.92
-15.64
-0.23
12.42
21.91
28.29
31.85
33.06
32.62
31.44
30.67
31.41
34.35
39.41
45.73
51.90
56.53
58.74
58.48
56.37
53.42
50.45
47.89
45.68
43.46
40.76
37.20
32.58
26.87
20.14
12.57
4.41
-3.97
-12.21
-19.95
-27.02
-33.49
-39.62
-45.66
-51.64
-57.03
-60.84
-61.79
-58.76
-51.20
-39.36
-24.25
-7.35
9.83
26.00
40.20
51.72
60.06
64.82
65.85
63.36
58.00
50.88
43.36
36.71
31.80
28.89
27.71
27.64
28.05
28.48
28.70
28.59
27.95
26.46
23.69
19.36
13.46
6.39
-1.21
-8.64
-15.43
-21.48
-26.99
-32.38
-38.08
-44.40
-51.48
-59.17
-66.95
-73.90
-78.76
-80.19
-77.16
-69.26
-56.95
-41.42
-24.31
-7.32
8.13
21.04
30.78
37.07
39.91
39.60
36.79
32.38
27.45
22.90
19.32
16.80
15.13
13.95
12.99
12.20
11.60
11.18
10.68
9.65
7.60
4.25
-0.35
-5.80
-11.51
-17.01
-22.04
-26.69
-31.28
-36.28
-42.11
-49.05
-57.06
-65.64
-73.78
-80.06
-82.94
-81.11
-73.99
-61.85
-45.86
-27.67
-9.04
8.58
24.19
37.14
47.03
53.54
56.55
56.24
53.20
48.40
43.01
38.02
34.01
31.09
28.98
27.32
25.84
24.54
23.54
22.93
22.65
22.31
21.40
19.39
15.95
11.08
5.09
-1.51
-8.17
-14.45
-20.16
-25.31
-30.21
-35.30
-41.11
-48.10
-56.38
-65.59
-74.68
-82.12
-86.20
-85.50
-79.30
-67.81
-52.09
-33.74
-14.56
3.85
20.33
34.14
44.91
52.52
56.95
58.34
57.05
53.73
49.27
44.68
40.81
38.18
36.81
36.41
36.45
36.51
36.36
35.94
35.27
34.32
32.93
30.88
27.95
24.03
19.19
13.65
7.67
1.54
-4.53
-10.38
-15.97
-21.30
-26.57
-32.08
-38.25
-45.41
-53.60
-62.38
-70.71
-77.16
-80.22
-78.70
-72.08
-60.62
-45.27
-27.45
-8.75
9.32
25.55
39.08
49.41
56.38
60.10
60.89
59.31
56.03
51.89
47.72
44.15
41.60
40.07
39.32
38.97
38.68
38.22
37.53
36.58
35.35
33.73
31.56
28.63
24.81
20.08
14.58
8.55
2.30
-3.88
-9.80
-15.40
-20.76
-26.09
-31.65
-37.75
-44.67
-52.51
-61.02
-69.54
-76.91
-81.70
-82.45
-78.17
-68.66
-54.59
-37.39
-18.88
-0.83
15.38
28.84
39.08
45.90
49.33
49.55
47.07
42.68
37.42
32.33
28.23
25.48
24.02
23.47
23.40
23.44
23.39
23.17
22.65
21.62
19.77
16.83
12.73
7.62
1.92
-3.90
-9.49
-14.72
-19.75
-24.94
-30.66
-37.25
-44.82
-53.21
-61.86
-69.78
-75.57
-77.75
-75.14
-67.31
-54.74
-38.77
-21.14
-3.54
12.73
26.90
38.59
47.53
53.50
56.35
56.16
53.40
48.87
43.61
38.61
34.61
31.91
30.48
30.00
30.08
30.33
30.47
30.27
29.55
28.18
26.00
22.96
19.02
14.26
8.77
2.72
-3.72
-10.33
-16.88
-23.20
-29.17
-34.80
-40.32
-46.10
-52.62
-60.25
-69.04
-78.46
-87.37
-94.19
-97.24
-95.22
-87.61
-74.80
-57.99
-38.85
-19.12
-0.25
16.71
31.12
42.61
50.98
56.20
58.45
58.12
55.91
52.62
49.06
45.85
43.36
41.72
40.84
40.57
40.67
40.84
40.80
40.26
39.06
37.18
34.73
31.84
28.59
24.92
20.70
15.83
10.34
4.40
-1.77
-7.93
-13.91
-19.68
-25.33
-31.03
-37.03
-43.60
-50.99
-59.28
-68.26
-77.27
-85.19
-90.50
-91.67
-87.54
-77.70
-62.77
-44.20
-23.93
-3.87
14.47
30.21
42.93
52.51
58.98
62.48
63.31
61.98
59.21
55.79
52.41
49.55
47.46
46.19
45.72
45.94
46.70
47.70
48.57
48.80
47.96
45.80
42.31
37.80
32.73
27.59
22.69
18.05
13.50
8.75
3.60
-1.99
-7.85
-13.71
-19.28
-24.47
-29.34
-34.16
-39.34
-45.30
-52.39
-60.63
-69.63
-78.38
-85.38
-88.89
-87.44
-80.30
-67.71
-50.95
-31.85
-12.37
5.83
21.69
34.61
44.35
50.80
54.00
54.16
51.83
47.90
43.49
39.64
37.03
35.77
35.52
35.71
35.83
35.64
35.12
34.36
33.31
31.76
29.37
25.86
21.15
15.42
9.08
2.65
-3.45
-8.95
-13.85
-18.37
-22.90
-27.84
-33.51
-40.05
-47.31
-54.93
-62.24
-68.30
-71.97
-72.14
-67.99
-59.30
-46.61
-31.11
-14.37
2.04
16.86
29.26
38.78
45.19
48.45
48.69
46.39
42.33
37.54
33.05
29.58
27.41
26.35
25.95
25.78
25.58
25.30
24.99
24.53
23.65
21.87
18.76
14.14
8.18
1.38
-5.62
-12.24
-18.18
-23.49
-28.55
-33.98
-40.37
-48.18
-57.43
-67.60
-77.58
-85.76
-90.38
-89.94
-83.67
-71.78
-55.47
-36.57
-17.10
1.20
17.16
30.19
40.14
47.00
50.90
52.03
50.76
47.76
43.85
39.95
36.78
34.73
33.78
33.61
33.76
33.81
33.56
32.94
32.02
30.83
29.25
27.02
23.85
19.52
14.03
7.64
0.79
-6.06
-12.59
-18.67
-24.42
-30.06
-35.92
-42.32
-49.52
-57.64
-66.53
-75.58
-83.75
-89.60
-91.61
-88.64
-80.29
-67.07
-50.26
-31.58
-12.71
5.00
20.66
33.71
43.85
50.85
54.63
55.37
53.56
50.02
45.77
41.78
38.74
36.96
36.35
36.57
37.18
37.78
38.11
38.03
37.43
36.19
34.09
30.91
26.48
20.82
14.22
7.18
0.30
-5.89
-11.20
-15.73
-19.90
-24.21
-29.14
-34.99
-41.91
-49.89
-58.68
-67.65
-75.73
-81.41
-83.09
-79.53
-70.33
-56.11
-38.43
-19.25
-0.53
16.34
30.52
41.73
49.95
55.21
57.59
57.25
54.64
50.44
45.56
40.89
37.08
34.41
32.72
31.62
30.68
29.60
28.32
26.89
25.40
23.75
21.70
18.92
15.12
10.24
4.50
-1.70
-7.90
-13.80
-19.31
-24.54
-29.73
-35.15
-41.08
-47.74
-55.26
-63.44
-71.61
-78.56
-82.71
-82.54
-77.03
-66.10
-50.72
-32.57
-13.63
4.28
19.80
32.16
40.98
46.21
48.05
46.96
43.60
38.86
33.65
28.79
24.82
22.01
20.28
19.40
19.02
18.85
18.73
18.57
18.27
17.68
16.53
14.53
11.51
7.56
3.04
-1.60
-6.02
-10.22
-14.58
-19.72
-26.22
-34.24
-43.37
-52.51
-60.17
-64.76
-65.00
-60.24
-50.63
-37.03
-20.86
-3.69
12.95
27.79
39.89
48.68
53.94
55.73
54.49
50.88
45.77
40.08
34.68
30.24
27.11
25.35
24.68
24.63
24.66
24.29
23.20
21.23
18.31
14.47
9.79
4.38
-1.57
-7.87
-14.39
-21.18
-28.54
-36.87
-46.43
-56.97
-67.61
-76.78
-82.67
-83.70
-79.02
-68.72
-53.75
-35.58
-15.82
4.12
23.05
39.99
54.14
64.79
71.53
74.32
73.56
69.96
64.37
57.65
50.47
43.31
36.52
30.31
24.82
20.07
15.99
12.38
8.97
5.43
1.44
-3.23
-8.68
-14.85
-21.52
-28.48
-35.72
-43.39
-51.75
-60.81
-69.90
-77.72
-82.39
-82.04
-75.41
-62.26
-43.36
-20.27
4.99
30.13
52.69
70.36
81.37
85.06
82.22
74.85
65.49
56.32
48.56
42.41
37.46
33.30
29.80
27.07
25.16
23.81
22.40
20.30
17.10
12.85
7.92
2.78
-2.18
-6.91
-11.67
-16.92
-23.15
-30.70
-39.68
-49.83
-60.43
-70.31
-77.95
-81.74
-80.38
-73.29
-60.83
-44.20
-25.12
-5.36
13.63
30.79
45.45
57.11
65.41
70.15
71.46
69.89
66.34
61.89
57.54
53.94
51.32
49.55
48.25
47.04
45.64
43.96
42.00
39.80
37.32
34.48
31.15
27.19
22.49
17.00
10.78
3.97
-3.15
-10.26
-17.10
-23.52
-29.65
-35.79
-42.35
-49.72
-58.08
-67.33
-76.89
-85.72
-92.38
-95.28
-93.11
-85.25
-72.03
-54.68
-34.94
-14.65
4.69
22.09
36.95
48.86
57.48
62.57
64.15
62.71
59.13
54.54
49.99
46.17
43.36
41.47
40.24
39.42
38.81
38.30
37.76
37.00
35.74
33.70
30.63
26.40
21.05
14.81
8.03
1.18
-5.36
-11.39
-16.98
-22.36
-27.85
-33.76
-40.28
-47.44
-55.17
-63.12
-70.65
-76.77
-80.26
-79.90
-74.90
-65.13
-51.30
-34.76
-17.21
-0.27
14.79
27.15
36.41
42.45
45.37
45.43
43.12
39.17
34.51
30.04
26.44
24.02
22.67
22.06
21.81
21.72
21.66
21.50
20.92
19.49
16.80
12.66
7.24
1.00
-5.49
-11.79
-17.70
-23.33
-28.96
-34.99
-41.80
-49.63
-58.32
-67.18
-74.93
-79.95
-80.74
-76.33
-66.64
-52.51
-35.37
-16.92
1.27
17.93
32.14
43.29
51.09
55.49
56.78
55.49
52.39
48.32
44.07
40.24
37.18
35.01
33.59
32.59
31.65
30.38
28.60
26.23
23.41
20.29
16.95
13.34
9.22
4.41
-1.14
-7.20
-13.36
-19.23
-24.57
-29.48
-34.32
-39.57
-45.70
-52.99
-61.40
-70.53
-79.51
-87.06
-91.72
-92.08
-87.26
-77.14
-62.43
-44.50
-25.03
-5.68
12.18
27.58
39.91
48.85
54.40
56.80
56.49
54.10
50.38
46.07
41.90
38.44
36.09
34.95
34.83
35.37
36.12
36.72
36.91
36.51
35.35
33.13
29.59
24.54
18.06
10.62
2.91
-4.36
-10.75
-16.19
-20.96
-25.51
-30.26
-35.45
-41.25
-47.69
-54.72
-62.05
-69.01
-74.47
-77.03
-75.39
-68.87
-57.60
-42.58
-25.31
-7.41
9.77
25.27
38.47
48.93
56.34
60.51
61.54
59.87
56.28
51.69
46.99
42.80
39.42
36.88
35.01
33.60
32.46
31.51
30.66
29.77
28.70
27.22
25.16
22.39
18.84
14.52
9.48
3.91
-1.92
-7.63
-12.86
-17.42
-21.42
-25.25
-29.50
-34.71
-41.12
-48.63
-56.66
-64.26
-70.23
-73.31
-72.43
-67.01
-57.13
-43.61
-27.83
-11.41
4.15
17.71
28.61
36.47
41.18
42.75
41.47
37.92
32.93
27.50
22.47
18.37
15.33
13.17
11.67
10.65
10.01
9.76
9.78
9.82
9.57
8.68
6.89
4.10
0.39
-4.05
-8.94
-14.07
-19.34
-24.90
-31.04
-38.08
-46.07
-54.60
-62.76
-69.22
-72.60
-71.91
-66.79
-57.56
-45.10
-30.49
-14.79
1.07
16.20
29.69
40.54
47.85
51.06
50.21
45.97
39.52
32.17
25.08
19.02
14.30
10.94
8.79
7.65
7.29
7.41
7.62
7.48
6.63
4.84
2.07
-1.55
-5.82
-10.50
-15.38
-20.34
-25.36
-30.55
-36.18
-42.58
-50.04
-58.52
-67.48
-75.77
-81.80
-83.89
-80.86
-72.34
-58.96
-42.20
-23.87
-5.75
10.84
25.08
36.53
44.94
50.18
52.27
51.47
48.46
44.17
39.59
35.50
32.24
29.78
27.82
26.11
24.56
23.30
22.49
22.18
22.13
21.84
20.76
18.48
14.86
10.04
4.42
-1.54
-7.44
-13.07
-18.41
-23.68
-29.27
-35.57
-42.91
-51.27
-60.14
-68.44
-74.66
-77.26
-75.04
-67.62
-55.51
-39.96
-22.61
-5.05
11.44
25.94
37.85
46.71
52.28
54.52
53.82
50.89
46.65
42.07
37.84
34.33
31.62
29.63
28.29
27.53
27.27
27.35
27.49
27.27
26.28
24.17
20.82
16.36
11.09
5.45
-0.17
-5.52
-10.62
-15.69
-21.12
-27.31
-34.54
-42.81
-51.87
-61.09
-69.57
-76.11
-79.44
-78.47
-72.58
-61.82
-46.98
-29.46
-10.94
6.92
22.78
35.71
45.19
51.08
53.57
53.11
50.41
46.28
41.55
36.90
32.73
29.24
26.45
24.30
22.74
21.75
21.20
20.88
20.44
19.44
17.51
14.48
10.44
5.69
0.64
-4.40
-9.27
-14.04
-18.95
-24.31
-30.38
-37.31
-45.01
-52.95
-60.20
-65.45
-67.32
-64.77
-57.44
-45.80
-31.02
-14.63
1.85
17.10
30.16
40.34
47.18
50.55
50.64
48.05
43.61
38.26
32.76
27.64
23.18
19.53
16.78
14.95
13.98
13.61
13.44
12.98
11.80
9.61
6.37
2.25
-2.43
-7.32
-12.14
-16.84
-21.54
-26.55
-32.21
-38.82
-46.48
-54.95
-63.59
-71.32
-76.74
-78.43
-75.34
-67.07
-54.12
-37.71
-19.52
-1.23
15.76
30.46
42.28
50.85
56.03
57.94
56.99
53.95
49.77
45.42
41.65
38.88
37.12
36.11
35.46
34.82
33.97
32.86
31.58
30.18
28.58
26.51
23.62
19.61
14.42
8.30
1.77
-4.65
-10.60
-16.09
-21.37
-26.89
-33.07
-40.18
-48.23
-56.87
-65.33
-72.45
-76.83
-77.14
-72.56
-62.98
-49.15
-32.45
-14.49
3.17
19.36
33.33
44.64
53.03
58.40
60.76
60.40
57.87
54.00
49.72
45.84
42.88
41.01
40.13
39.96
40.23
40.66
40.99
40.95
40.24
38.68
36.22
33.07
29.46
25.68
21.81
17.77
13.36
8.39
2.81
-3.22
-9.45
-15.60
-21.51
-27.21
-32.90
-38.90
-45.48
-52.77
-60.61
-68.41
-75.24
-79.87
-81.05
-77.83
-69.86
-57.50
-41.79
-24.21
-6.31
10.51
25.17
36.97
45.53
50.79
53.00
52.72
50.72
47.88
44.93
42.44
40.65
39.64
39.29
39.48
40.01
40.61
40.94
40.66
39.52
37.44
34.51
30.90
26.81
22.34
17.57
12.57
7.46
2.44
-2.38
-7.03
-11.64
-16.48
-21.72
-27.46
-33.67
-40.30
-47.26
-54.35
-61.09
-66.64
-69.86
-69.68
-65.36
-56.87
-44.89
-30.63
-15.50
-0.75
12.57
23.73
32.13
37.37
39.30
38.18
34.70
29.95
25.04
20.92
18.04
16.41
15.72
15.56
15.63
15.80
16.03
16.24
16.28
15.93
14.96
13.20
10.60
7.20
3.17
-1.31
-5.95
-10.53
-14.96
-19.29
-23.80
-28.83
-34.74
-41.58
-49.02
-56.23
-61.98
-64.90
-63.82
-58.12
-48.00
-34.40
-18.80
-2.85
12.04
24.89
35.11
42.48
46.95
48.63
47.82
45.03
41.01
36.60
32.57
29.43
27.38
26.33
26.00
26.12
26.41
26.68
26.74
26.39
25.46
23.83
21.49
18.52
15.03
11.10
6.73
1.88
-3.42
-9.08
-14.83
-20.41
-25.62
-30.47
-35.17
-40.08
-45.61
-51.98
-59.20
-66.87
-74.19
-80.05
-83.18
-82.45
-77.22
-67.50
-53.99
-37.94
-20.75
-3.77
11.96
25.70
36.89
45.14
50.23
52.23
51.60
49.11
45.68
42.13
39.05
36.67
35.04
34.09
33.68
33.67
33.83
33.93
33.75
33.14
32.00
30.32
28.08
25.25
21.81
17.77
13.20
8.25
3.05
-2.24
-7.52
-12.67
-17.65
-22.41
-26.99
-31.49
-36.17
-41.41
-47.57
-54.79
-62.75
-70.55
-76.74
-79.77
-78.42
-72.20
-61.61
-47.83
-32.42
-16.86
-2.33
10.42
20.93
28.99
34.50
37.58
38.53
37.89
36.30
34.46
33.00
32.45
33.14
35.23
38.62
42.91
47.43
51.36
53.98
54.87
54.00
51.63
48.13
43.78
38.68
32.81
26.25
19.20
12.00
5.02
-1.53
-7.62
-13.39
-18.98
-24.51
-30.02
-35.55
-41.18
-47.05
-53.11
-59.04
-64.02
-66.91
-66.49
-61.90
-53.01
-40.51
-25.75
-10.36
4.17
16.77
26.83
34.14
38.69
40.65
40.29
38.10
34.75
31.00
27.60
25.00
23.32
22.39
21.82
21.26
20.48
19.45
18.27
17.00
15.67
14.19
12.48
10.49
8.24
5.82
3.31
0.65
-2.29
-5.78
-10.16
-15.65
-22.39
-30.28
-38.93
-47.66
-55.46
-61.22
-63.84
-62.54
-57.05
-47.72
-35.47
-21.64
-7.73
4.84
14.96
21.90
25.39
25.57
22.90
18.08
11.97
5.45
-0.68
-5.82
-9.63
-12.08
-13.44
-14.09
-14.43
-14.72
-15.11
-15.66
-16.47
-17.70
-19.60
-22.33
-25.96
-30.36
-35.24
-40.34
-45.44
-50.55
-55.89
-61.80
-68.62
-76.40
-84.72
-92.59
-98.57
-101.09
-98.96
-91.78
-80.11
-65.35
-49.31
-33.70
-19.83
-8.45
0.11
5.75
8.57
8.90
7.33
4.75
2.14
0.41
0.19
1.78
5.33
10.87
18.48
28.12
39.63
52.48
65.78
78.37
88.99
96.61
100.63
101.01
98.29
93.36
87.21
80.60
73.87
66.95
59.42
50.72
40.34
28.03
14.05
-0.79
-15.01
-26.76
-34.18
-36.04
-32.04
-23.03
-10.66
3.10
16.47
28.28
37.95
45.33
50.42
53.26
53.90
52.58
49.71
45.89
41.64
37.32
33.10
29.00
25.11
21.66
18.95
17.22
16.45
16.28
16.08
15.17
12.97
9.20
3.90
-2.62
-9.87
-17.30
-24.39
-30.77
-36.32
-41.20
-45.86
-50.87
-56.78
-63.87
-71.96
-80.29
-87.62
-92.45
-93.43
-89.67
-81.05
-68.25
-52.49
-35.23
-17.79
-1.24
13.65
26.24
35.99
42.50
45.68
45.88
43.89
40.77
37.52
34.85
33.05
32.02
31.50
31.19
30.89
30.54
30.12
29.54
28.65
27.14
24.74
21.28
16.82
11.66
6.24
0.97
-3.97
-8.69
-13.47
-18.76
-24.90
-32.06
-40.09
-48.49
-56.37
-62.53
-65.71
-64.85
-59.46
-49.77
-36.74
-21.73
-6.22
8.47
21.39
31.84
39.37
43.76
45.07
43.67
40.34
36.05
31.79
28.28
25.84
24.35
23.49
22.90
22.35
21.76
21.11
20.32
19.19
17.42
14.73
11.02
6.38
1.10
-4.43
-9.87
-15.05
-20.01
-24.99
-30.37
-36.59
-43.90
-52.20
-60.92
-68.95
-74.88
-77.28
-75.14
-68.11
-56.68
-41.93
-25.35
-8.39
7.73
22.18
34.44
44.20
51.33
55.81
57.77
57.58
55.80
53.11
50.18
47.54
45.46
44.03
43.19
42.80
42.68
42.61
42.36
41.64
40.25
38.05
35.05
31.37
27.22
22.86
18.51
14.24
9.95
5.43
0.43
-5.12
-11.08
-17.09
-22.81
-28.03
-32.84
-37.62
-42.87
-49.03
-56.26
-64.33
-72.52
-79.68
-84.43
-85.40
-81.61
-72.80
-59.57
-43.23
-25.46
-7.81
8.50
22.83
34.84
44.41
51.43
55.85
57.81
57.71
56.22
54.13
52.10
50.54
49.54
49.00
48.75
48.64
48.59
48.52
48.34
47.89
47.02
45.60
43.57
40.95
37.83
34.34
30.61
26.76
22.84
18.88
14.85
10.72
6.40
1.86
-2.94
-7.99
-13.18
-18.33
-23.17
-27.51
-31.35
-34.95
-38.80
-43.50
-49.43
-56.56
-64.27
-71.40
-76.56
-78.47
-76.27
-69.78
-59.47
-46.26
-31.32
-15.83
-0.84
12.80
24.45
33.69
40.37
44.55
46.50
46.63
45.46
43.56
41.50
39.71
38.46
37.79
37.58
37.60
37.70
37.82
37.96
38.10
38.05
37.47
36.03
33.53
30.05
25.96
21.72
17.71
14.07
10.73
7.45
4.01
0.32
-3.58
-7.54
-11.45
-15.25
-18.96
-22.69
-26.62
-30.94
-35.85
-41.48
-47.76
-54.33
-60.44
-65.05
-67.05
-65.55
-60.12
-51.01
-39.00
-25.26
-11.06
2.48
14.40
24.02
30.89
34.84
35.95
34.65
31.62
27.69
23.70
20.34
18.05
16.94
16.86
17.41
18.16
18.73
18.88
18.54
17.79
16.69
15.27
13.49
11.26
8.50
5.23
1.49
-2.60
-6.88
-11.21
-15.44
-19.51
-23.45
-27.41
-31.63
-36.36
-41.73
-47.65
-53.74
-59.27
-63.37
-65.09
-63.64
-58.63
-50.15
-38.82
-25.68
-11.96
1.20
12.91
22.61
30.04
35.16
38.05
38.91
38.07
35.98
33.15
30.11
27.25
24.85
23.08
22.00
21.60
21.78
22.34
22.97
23.34
23.13
22.14
20.29
17.66
14.45
10.85
7.04
3.11
-0.97
-5.25
-9.75
-14.38
-18.97
-23.37
-27.54
-31.64
-36.02
-41.03
-46.87
-53.45
-60.32
-66.71
-71.67
-74.25
-73.64
-69.40
-61.55
-50.61
-37.53
-23.49
-9.63
3.24
14.59
24.22
32.07
38.04
42.05
44.03
44.07
42.53
39.94
36.94
34.08
31.73
30.08
29.15
28.86
29.08
29.61
30.19
30.50
30.21
29.08
26.97
23.98
20.34
16.40
12.47
8.69
5.01
1.21
-2.94
-7.55
-12.52
-17.59
-22.49
-27.08
-31.43
-35.81
-40.54
-45.89
-51.84
-58.09
-63.93
-68.36
-70.26
-68.65
-63.01
-53.43
-40.70
-26.12
-11.09
3.08
15.49
25.67
33.47
38.90
42.09
43.21
42.58
40.67
38.06
35.35
32.98
31.18
30.00
29.37
29.18
29.33
29.71
30.21
30.65
30.76
30.30
29.07
27.00
24.16
20.77
17.11
13.45
9.93
6.51
2.97
-0.92
-5.27
-9.99
-14.84
-19.52
-23.89
-28.00
-32.04
-36.35
-41.16
-46.63
-52.63
-58.78
-64.40
-68.55
-70.23
-68.56
-63.05
-53.81
-41.52
-27.31
-12.51
1.63
14.11
24.28
31.77
36.47
38.45
37.98
35.54
31.83
27.70
23.93
21.13
19.55
19.07
19.33
19.93
20.59
21.17
21.65
21.98
22.05
21.66
20.60
18.70
15.93
12.34
8.12
3.46
-1.38
-6.21
-10.90
-15.45
-19.95
-24.56
-29.42
-34.58
-40.04
-45.66
-51.20
-56.18
-59.87
-61.34
-59.65
-54.21
-44.94
-32.49
-18.01
-2.93
11.45
24.10
34.41
42.02
46.76
48.61
47.72
44.54
39.82
34.43
29.27
25.03
22.01
20.14
19.07
18.37
17.65
16.74
15.58
14.28
12.96
11.71
10.50
9.23
7.69
5.70
3.12
-0.12
-3.97
-8.34
-13.10
-18.11
-23.19
-28.23
-33.18
-38.12
-43.30
-49.01
-55.48
-62.64
-69.97
-76.42
-80.64
-81.31
-77.57
-69.29
-57.14
-42.36
-26.42
-10.64
3.96
16.71
27.23
35.32
40.87
43.97
44.82
43.86
41.67
38.87
36.05
33.66
31.94
30.95
30.61
30.76
31.21
31.74
32.12
32.07
31.35
29.77
27.32
24.09
20.25
15.97
11.32
6.31
0.97
-4.63
-10.31
-15.85
-21.06
-25.85
-30.32
-34.69
-39.33
-44.62
-50.84
-57.98
-65.57
-72.61
-77.71
-79.43
-76.67
-69.05
-57.07
-41.93
-25.25
-8.58
6.82
20.18
31.08
39.39
45.13
48.41
49.49
48.78
46.80
44.12
41.24
38.58
36.40
34.87
34.04
33.87
34.25
34.90
35.50
35.70
35.24
33.98
31.92
29.15
25.81
22.00
17.83
13.38
8.71
3.88
-1.06
-6.09
-11.16
-16.25
-21.31
-26.35
-31.41
-36.65
-42.33
-48.62
-55.51
-62.52
-68.69
-72.66
-73.11
-69.13
-60.56
-48.14
-33.22
-17.41
-2.18
11.46
22.94
32.03
38.67
42.87
44.70
44.41
42.43
39.44
36.19
33.35
31.37
30.37
30.21
30.58
31.12
31.59
31.82
31.73
31.26
30.33
28.83
26.66
23.74
20.10
15.81
11.05
6.03
0.97
-3.95
-8.69
-13.28
-17.86
-22.63
-27.82
-33.61
-40.05
-46.95
-53.77
-59.62
-63.42
-64.06
-60.80
-53.44
-42.46
-28.91
-14.19
0.32
13.44
24.37
32.66
38.11
40.72
40.65
38.34
34.48
29.99
25.75
22.44
20.33
19.30
19.04
19.20
19.58
20.04
20.50
20.79
20.65
19.88
18.24
15.66
12.14
7.81
2.87
-2.41
-7.68
-12.67
-17.28
-21.64
-26.10
-31.12
-37.07
-44.03
-51.72
-59.42
-66.13
-70.69
-72.04
-69.40
-62.58
-51.90
-38.34
-23.20
-7.85
6.54
19.23
29.82
38.14
44.14
47.82
49.21
48.55
46.33
43.26
40.13
37.65
36.25
36.05
36.83
38.12
39.39
40.18
40.25
39.58
38.38
36.86
35.09
32.93
30.08
26.21
21.21
15.29
8.96
2.85
-2.53
-6.99
-10.76
-14.35
-18.40
-23.52
-30.07
-38.04
-46.82
-55.17
-61.39
-63.83
-61.58
-55.11
-46.36
-38.17
-33.24
-33.22
-38.07
-46.36
-55.90
-64.61
-70.97
-74.10
-73.45
-68.68
-59.50
-45.95
-28.62
-8.58
12.81
34.20
54.32
71.86
85.42
93.61
95.56
91.39
82.53
71.35
60.49
51.89
46.33
43.46
42.34
42.13
42.37
42.92
43.64
44.09
43.58
41.52
37.78
32.81
27.47
22.59
18.64
15.41
12.21
8.29
3.17
-3.02
-9.70
-16.10
-21.65
-26.22
-30.16
-34.12
-38.81
-44.74
-51.99
-60.10
-68.01
-74.18
-77.03
-75.32
-68.59
-57.28
-42.58
-25.98
-8.96
7.35
22.19
35.03
45.47
53.21
58.07
60.16
59.89
57.88
54.92
51.70
48.75
46.38
44.65
43.54
42.94
42.70
42.61
42.36
41.66
40.22
37.93
34.83
31.12
27.09
23.01
19.02
15.10
11.16
7.03
2.62
-2.09
-7.00
-11.98
-16.98
-21.95
-26.96
-32.11
-37.57
-43.45
-49.84
-56.62
-63.35
-69.19
-72.93
-73.33
-69.45
-61.04
-48.68
-33.68
-17.70
-2.31
11.31
22.49
30.96
36.68
39.74
40.35
38.94
36.16
32.83
29.77
27.58
26.55
26.54
27.20
28.09
28.85
29.26
29.24
28.81
27.99
26.73
24.97
22.58
19.42
15.46
10.77
5.54
0.06
-5.36
-10.54
-15.47
-20.33
-25.42
-31.02
-37.27
-44.13
-51.28
-58.12
-63.76
-67.14
-67.23
-63.32
-55.28
-43.67
-29.66
-14.72
-0.29
12.55
23.21
31.48
37.40
41.17
43.00
43.16
41.94
39.64
36.49
32.74
28.71
24.83
21.61
19.52
18.81
19.42
21.00
22.97
24.71
25.65
25.39
23.67
20.42
15.77
10.12
4.00
-1.99
-7.42
-12.16
-16.44
-20.67
-25.34
-30.76
-36.99
-43.74
-50.47
-56.49
-61.19
-64.17
-65.26
-64.44
-61.67
-56.80
-49.58
-39.90
-27.98
-14.52
-0.52
12.89
24.86
34.92
42.99
49.13
53.40
55.80
56.30
55.03
52.37
48.83
45.00
41.36
38.24
35.80
34.08
33.05
32.57
32.39
32.17
31.57
30.33
28.36
25.67
22.41
18.68
14.54
9.98
5.02
-0.25
-5.62
-10.81
-15.55
-19.67
-23.16
-26.12
-28.80
-31.56
-34.80
-38.91
-44.07
-50.17
-56.66
-62.56
-66.60
-67.59
-64.69
-57.69
-47.10
-33.95
-19.61
-5.39
7.64
18.79
27.74
34.41
38.84
41.16
41.55
40.32
37.96
35.10
32.33
30.07
28.48
27.45
26.80
26.36
26.06
25.91
25.83
25.68
25.23
24.21
22.48
20.04
17.00
13.51
9.67
5.54
1.16
-3.43
-8.12
-12.71
-17.07
-21.08
-24.79
-28.39
-32.19
-36.56
-41.75
-47.71
-53.97
-59.65
-63.59
-64.63
-61.97
-55.44
-45.55
-33.34
-20.09
-6.97
5.09
15.50
23.87
29.99
33.71
35.06
34.25
31.74
28.20
24.37
20.96
18.42
16.92
16.28
16.13
16.04
15.67
14.92
13.88
12.75
11.67
10.59
9.25
7.34
4.65
1.16
-2.90
-7.22
-11.57
-15.92
-20.45
-25.41
-30.97
-37.10
-43.60
-50.13
-56.32
-61.74
-65.86
-68.09
-67.78
-64.39
-57.72
-48.07
-36.21
-23.26
-10.40
1.43
11.68
20.23
27.20
32.71
36.72
39.07
39.60
38.37
35.77
32.47
29.25
26.76
25.32
24.91
25.22
25.81
26.24
26.19
25.52
24.21
22.31
19.85
16.82
13.17
8.92
4.21
-0.70
-5.55
-10.13
-14.39
-18.39
-22.26
-26.15
-30.22
-34.62
-39.53
-45.11
-51.31
-57.81
-63.85
-68.39
-70.26
-68.48
-62.59
-52.77
-39.90
-25.34
-10.53
3.26
15.23
25.04
32.68
38.29
42.00
43.93
44.25
43.28
41.45
39.29
37.18
35.39
34.02
33.08
32.56
32.43
32.58
32.79
32.76
32.22
30.99
29.01
26.36
23.14
19.47
15.45
11.17
6.76
2.36
-1.96
-6.20
-10.39
-14.58
-18.83
-23.20
-27.80
-32.83
-38.43
-44.57
-50.89
-56.63
-60.74
-62.13
-60.01
-54.10
-44.75
-32.85
-19.58
-6.15
6.39
17.24
25.82
31.79
35.04
35.76
34.43
31.80
28.71
25.93
23.94
22.90
22.69
23.03
23.63
24.25
24.74
24.99
24.86
24.22
22.93
20.88
18.06
14.58
10.65
6.55
2.50
-1.32
-4.92
-8.38
-11.90
-15.69
-19.94
-24.78
-30.23
-36.14
-42.15
-47.72
-52.16
-54.70
-54.68
-51.69
-45.64
-36.87
-26.08
-14.17
-2.19
8.92
18.33
25.46
30.01
31.92
31.50
29.25
25.83
21.96
18.26
15.17
12.95
11.66
11.23
11.46
12.10
12.85
13.49
13.86
13.83
13.29
12.05
9.87
6.57
2.15
-3.10
-8.70
-14.14
-19.08
-23.46
-27.54
-31.75
-36.52
-42.16
-48.73
-55.95
-63.13
-69.20
-72.87
-72.96
-68.75
-60.30
-48.38
-34.33
-19.60
-5.43
7.37
18.27
27.01
33.43
37.47
39.25
39.12
37.63
35.41
33.04
30.91
29.20
27.89
26.90
26.16
25.59
25.22
25.03
24.99
24.93
24.58
23.61
21.72
18.75
14.70
9.72
4.11
-1.75
-7.50
-12.85
-17.68
-22.05
-26.25
-30.68
-35.73
-41.61
-48.23
-55.14
-61.54
-66.43
-68.77
-67.68
-62.69
-53.84
-41.81
-27.73
-12.98
1.13
13.68
24.17
32.54
38.89
43.37
46.00
46.82
45.96
43.81
41.02
38.32
36.29
35.17
34.88
35.11
35.49
35.77
35.81
35.48
34.65
33.09
30.63
27.27
23.23
18.91
14.72
10.93
7.52
4.32
1.00
-2.64
-6.64
-10.92
-15.32
-19.78
-24.37
-29.35
-34.99
-41.54
-48.91
-56.59
-63.62
-68.69
-70.51
-68.16
-61.38
-50.70
-37.26
-22.49
-7.78
5.83
17.63
27.20
34.35
38.98
41.13
41.09
39.33
36.52
33.38
30.56
28.48
27.31
26.97
27.22
27.78
28.38
28.81
28.94
28.65
27.84
26.41
24.30
21.46
17.96
14.00
9.81
5.64
1.67
-2.10
-5.77
-9.57
-13.67
-18.21
-23.25
-28.78
-34.82
-41.30
-47.94
-54.12
-58.87
-61.07
-59.73
-54.41
-45.34
-33.45
-20.04
-6.49
6.15
17.16
26.16
32.93
37.35
39.45
39.38
37.61
34.76
31.56
28.67
26.50
25.23
24.77
24.90
25.34
25.83
26.12
26.05
25.46
24.26
22.44
19.99
16.92
13.29
9.12
4.45
-0.63
-6.01
-11.48
-16.87
-22.01
-26.83
-31.39
-35.91
-40.74
-46.24
-52.68
-59.99
-67.64
-74.64
-79.59
-81.15
-78.32
-70.83
-59.21
-44.67
-28.68
-12.65
2.32
15.51
26.50
35.07
41.14
44.78
46.30
46.21
45.17
43.79
42.53
41.57
40.85
40.19
39.40
38.36
37.15
35.86
34.64
33.44
32.13
30.50
28.39
25.84
23.02
20.16
17.37
14.56
11.44
7.73
3.29
-1.75
-7.04
-12.19
-16.91
-21.12
-25.00
-28.96
-33.48
-38.99
-45.73
-53.48
-61.51
-68.58
-73.24
-74.14
-70.50
-62.30
-50.33
-35.88
-20.44
-5.32
8.52
20.50
30.39
38.08
43.57
46.95
48.40
48.31
47.19
45.64
44.17
43.07
42.38
41.94
41.57
41.20
40.89
40.78
40.90
41.10
41.10
40.52
39.07
36.70
33.50
29.77
25.80
21.83
17.93
14.03
9.91
5.36
0.28
-5.26
-11.00
-16.59
-21.71
-26.25
-30.42
-34.60
-39.32
-44.99
-51.70
-59.06
-66.23
-71.98
-74.96
-74.06
-68.71
-59.10
-46.18
-31.32
-16.07
-1.69
10.95
21.43
29.62
35.47
39.00
40.32
39.72
37.73
35.06
32.38
30.20
28.70
27.83
27.45
27.38
27.52
27.81
28.17
28.45
28.48
28.03
26.96
25.16
22.64
19.43
15.64
11.37
6.81
2.12
-2.50
-6.93
-11.07
-14.97
-18.72
-22.56
-26.74
-31.52
-37.07
-43.34
-49.94
-56.07
-60.61
-62.33
-60.27
-54.06
-44.08
-31.42
-17.53
-3.84
8.58
19.09
27.39
33.37
37.01
38.29
37.40
34.72
30.95
26.89
23.36
20.91
19.71
19.57
19.99
20.45
20.57
20.18
19.37
18.26
16.93
15.31
13.14
10.18
6.31
1.67
-3.39
-8.43
-13.05
-17.12
-20.74
-24.22
-27.91
-32.09
-36.98
-42.70
-49.25
-56.41
-63.59
-69.82
-73.79
-74.21
-70.25
-61.82
-49.68
-35.22
-20.02
-5.47
7.52
18.50
27.40
34.23
39.01
41.78
42.60
41.73
39.66
37.00
34.37
32.26
30.92
30.38
30.50
31.09
31.91
32.71
33.22
33.13
32.17
30.18
27.18
23.37
19.05
14.52
9.98
5.54
1.15
-3.25
-7.73
-12.37
-17.22
-22.38
-27.94
-34.00
-40.61
-47.75
-55.27
-62.87
-69.96
-75.64
-78.79
-78.28
-73.36
-63.96
-50.83
-35.34
-19.13
-3.65
10.10
21.60
30.71
37.44
41.86
44.11
44.43
43.21
40.98
38.31
35.73
33.61
32.18
31.50
31.45
31.79
32.20
32.40
32.18
31.47
30.33
28.81
26.96
24.77
22.16
19.04
15.38
11.21
6.70
2.03
-2.63
-7.17
-11.69
-16.30
-21.23
-26.65
-32.64
-39.24
-46.29
-53.49
-60.24
-65.67
-68.65
-68.13
-63.40
-54.50
-42.19
-27.85
-13.02
0.99
13.31
23.55
31.60
37.44
41.08
42.59
42.23
40.47
38.00
35.51
33.54
32.32
31.79
31.67
31.64
31.44
30.95
30.20
29.26
28.19
26.94
25.32
23.09
20.08
16.23
11.71
6.78
1.73
-3.27
-8.18
-13.11
-18.14
-23.37
-28.84
-34.61
-40.73
-47.22
-53.82
-59.92
-64.54
-66.49
-64.82
-59.07
-49.55
-37.21
-23.37
-9.38
3.70
15.11
24.36
31.14
35.26
36.73
35.84
33.21
29.67
26.13
23.25
21.37
20.43
20.10
20.02
19.96
19.84
19.72
19.59
19.25
18.36
16.52
13.52
9.37
4.42
-0.85
-5.97
-10.70
-15.08
-19.37
-24.00
-29.37
-35.74
-43.09
-51.06
-58.82
-65.22
-68.95
-68.91
-64.49
-55.82
-43.77
-29.69
-15.00
-0.91
11.79
22.67
31.48
38.03
42.13
43.73
43.07
40.68
37.37
33.97
31.13
29.17
28.08
27.64
27.55
27.58
27.58
27.44
27.03
26.16
24.57
22.00
18.35
13.71
8.41
2.88
-2.52
-7.64
-12.55
-17.53
-22.85
-28.70
-35.19
-42.32
-50.08
-58.31
-66.55
-73.98
-79.40
-81.52
-79.36
-72.61
-61.68
-47.61
-31.73
-15.30
0.66
15.46
28.52
39.43
47.76
53.24
55.83
55.78
53.73
50.53
47.09
44.17
42.21
41.31
41.22
41.54
41.89
41.99
41.74
41.13
40.11
38.52
36.14
32.73
28.14
22.41
15.80
8.70
1.54
-5.36
-11.86
-18.09
-24.27
-30.63
-37.26
-44.08
-50.97
-57.87
-64.84
-71.93
-78.92
-85.03
-89.03
-89.43
-85.01
-75.28
-60.59
-41.89
-20.44
2.44
25.24
46.13
63.00
73.98
78.16
76.08
69.69
61.67
54.40
49.25
46.29
44.80
43.96
43.34
43.04
43.29
44.12
45.13
45.64
45.03
43.02
39.76
35.75
31.63
27.82
24.39
21.09
17.44
13.08
7.88
2.07
-3.91
-9.61
-14.81
-19.59
-24.28
-29.27
-34.88
-41.26
-48.40
-56.13
-64.05
-71.53
-77.56
-80.94
-80.53
-75.56
-66.00
-52.60
-36.70
-19.87
-3.56
11.20
23.83
34.08
41.90
47.32
50.45
51.51
50.91
49.18
46.92
44.67
42.83
41.58
40.95
40.84
41.12
41.63
42.18
42.58
42.52
41.68
39.79
36.76
32.72
28.06
23.23
18.63
14.36
10.24
5.91
1.05
-4.40
-10.19
-15.86
-21.03
-25.56
-29.62
-33.62
-38.01
-43.11
-48.97
-55.30
-61.46
-66.50
-69.32
-68.89
-64.59
-56.43
-45.15
-31.99
-18.28
-5.13
6.80
17.16
25.70
32.12
36.02
37.19
35.82
32.62
28.70
25.18
22.82
21.81
21.90
22.60
23.44
24.16
24.63
24.83
24.71
24.18
23.06
21.25
18.66
15.31
11.34
6.99
2.52
-1.84
-6.03
-10.13
-14.32
-18.79
-23.63
-28.89
-34.62
-40.91
-47.76
-54.91
-61.66
-66.88
-69.23
-67.59
-61.46
-51.14
-37.68
-22.52
-7.14
7.25
19.81
30.00
37.51
42.20
44.11
43.57
41.19
37.78
34.22
31.25
29.27
28.35
28.29
28.78
29.50
30.20
30.72
30.90
30.63
29.76
28.22
25.99
23.18
19.89
16.26
12.36
8.12
3.50
-1.58
-7.06
-12.79
-18.54
-24.11
-29.40
-34.45
-39.47
-44.72
-50.45
-56.75
-63.45
-70.01
-75.47
-78.66
-78.43
-74.05
-65.45
-53.25
-38.65
-23.03
-7.68
6.41
18.64
28.71
36.45
41.83
44.88
45.81
45.01
42.98
40.30
37.48
34.87
32.72
31.09
30.03
29.55
29.61
30.12
30.91
31.67
32.03
31.68
30.45
28.36
25.64
22.52
19.17
15.58
11.62
7.13
2.09
-3.39
-9.06
-14.64
-19.96
-24.96
-29.69
-34.34
-39.15
-44.45
-50.50
-57.34
-64.58
-71.30
-76.12
-77.56
-74.54
-66.80
-54.99
-40.48
-24.88
-9.61
4.38
16.60
26.82
34.86
40.54
43.77
44.66
43.66
41.42
38.68
36.05
33.90
32.39
31.56
31.37
31.77
32.61
33.68
34.65
35.12
34.77
33.44
31.12
27.97
24.25
20.26
16.25
12.36
8.57
4.72
0.62
-3.90
-8.82
-13.94
-18.93
-23.47
-27.41
-30.86
-34.14
-37.68
-41.91
-47.07
-53.08
-59.49
-65.40
-69.65
-70.98
-68.46
-61.68
-51.00
-37.41
-22.30
-7.11
7.00
19.23
29.14
36.56
41.45
43.86
44.05
42.45
39.70
36.58
33.73
31.61
30.39
29.95
30.09
30.57
31.21
31.84
32.25
32.22
31.52
30.02
27.79
25.01
21.96
18.85
15.77
12.71
9.58
6.26
2.69
-1.19
-5.40
-9.91
-14.65
-19.49
-24.26
-28.84
-33.20
-37.53
-42.15
-47.39
-53.41
-59.89
-66.05
-70.66
-72.44
-70.39
-64.13
-54.07
-41.21
-26.94
-12.60
0.74
12.34
21.74
28.63
32.85
34.39
33.54
30.88
27.28
23.64
20.72
18.86
18.03
17.86
17.92
17.89
17.69
17.39
17.13
16.94
16.66
16.06
14.85
12.86
10.12
6.81
3.14
-0.71
-4.65
-8.70
-12.93
-17.39
-22.05
-26.92
-32.00
-37.36
-43.03
-48.98
-54.92
-60.23
-64.03
-65.31
-63.21
-57.32
-47.78
-35.37
-21.27
-6.76
7.02
19.25
29.47
37.43
43.00
46.15
46.95
45.68
42.93
39.45
36.08
33.41
31.77
31.12
31.19
31.67
32.27
32.84
33.28
33.55
33.74
33.98
34.52
35.60
37.39
39.86
42.79
45.88
48.83
51.36
53.19
53.97
53.23
50.54
45.69
38.85
30.59
21.79
13.49
6.74
2.56
1.66
4.38
10.53
19.35
29.77
40.59
50.59
58.51
63.03
62.76
56.56
44.00
25.62
2.83
-22.57
-48.80
-73.99
-95.85
-111.56
-118.24
-114.17
-99.92
-78.93
-56.58
-38.43
-28.13
-26.32
-30.95
-38.68
-46.52
-52.82
-57.34
-60.55
-62.88
-64.42
-65.07
-64.96
-64.66
-65.12
-67.29
-71.57
-77.38
-83.36
-87.92
-89.94
-89.23
-86.53
-83.05
-79.70
-76.62
-73.08
-67.88
-60.13
-49.81
-37.88
-25.96
-15.70
-8.25
-3.91
-2.20
-2.27
-3.20
-4.32
-5.25
-5.79
-5.85
-5.34
-4.26
-2.86
-1.57
-0.97
-1.39
-2.80
-4.67
-6.18
-6.59
-5.64
-3.68
-1.54
-0.22
-0.42
-2.32
-5.57
-9.58
-13.76
-17.86
-21.92
-26.26
-31.24
-37.17
-44.12
-51.91
-59.94
-67.25
-72.49
-74.23
-71.25
-62.97
-49.67
-32.51
-13.16
6.55
25.10
41.44
54.97
65.40
72.59
76.56
77.57
76.18
73.26
69.80
66.65
64.32
62.92
62.22
61.85
61.44
60.76
59.71
58.26
56.43
54.18
51.43
48.05
43.95
39.08
33.58
27.64
21.56
15.59
9.88
4.39
-1.07
-6.78
-13.04
-20.08
-27.96
-36.47
-45.09
-52.93
-58.90
-61.87
-60.98
-55.87
-46.85
-34.77
-20.86
-6.43
7.42
19.90
30.56
39.15
45.53
49.63
51.48
51.30
49.55
46.94
44.31
42.42
41.70
42.18
43.43
44.83
45.79
46.06
45.81
45.41
45.26
45.42
45.57
45.01
43.00
39.05
33.17
25.90
18.23
11.24
5.77
2.06
-0.40
-2.72
-6.35
-12.43
-21.43
-32.95
-45.59
-57.15
-64.96
-66.42
-59.85
-45.27
-24.84
-2.38
17.80
32.48
40.61
43.45
43.54
43.32
43.97
45.26
46.16
45.82
44.18
41.93
39.97
38.84
38.46
38.42
38.29
38.01
37.79
38.08
39.06
40.54
41.99
42.78
42.51
41.27
39.65
38.48
38.43
39.57
41.32
42.64
42.51
40.46
36.89
32.94
30.15
29.76
32.12
36.43
40.82
43.02
41.09
34.24
23.19
10.02
-2.45
-11.57
-15.63
-14.17
-7.98
1.40
12.09
22.26
30.45
35.62
37.38
36.00
32.36
27.64
22.93
18.88
15.48
12.20
8.30
3.17
-3.37
-10.92
-18.67
-25.67
-31.16
-34.85
-36.99
-38.31
-39.70
-41.84
-44.96
-48.88
-53.22
-57.68
-62.27
-67.30
-73.19
-80.33
-88.87
-98.74
-109.55
-120.66
-131.15
-139.93
-145.98
-148.48
-147.16
-142.34
-134.96
-126.35
-117.82
-110.25
-103.74
-97.52
-90.19
-80.25
-66.74
-49.60
-29.72
-8.63
12.05
31.06
47.60
61.36
72.15
79.86
84.39
85.87
84.73
81.78
78.03
74.41
71.53
69.56
68.29
67.34
66.41
65.37
64.25
63.12
61.94
60.51
58.56
55.88
52.41
48.29
43.73
38.94
33.99
28.84
23.44
17.75
11.81
5.73
-0.38
-6.40
-12.28
-18.01
-23.66
-29.36
-35.35
-41.72
-48.35
-54.59
-59.33
-61.28
-59.33
-53.04
-42.80
-29.69
-15.16
-0.51
13.22
25.36
35.44
42.94
47.44
48.66
46.80
42.54
37.03
31.51
27.00
24.04
22.72
22.75
23.76
25.43
27.47
29.62
31.54
32.86
33.35
32.93
31.75
30.05
27.98
25.51
22.50
18.84
14.65
10.28
6.23
2.83
0.07
-2.50
-5.59
-9.98
-16.21
-24.42
-34.29
-44.94
-55.06
-63.07
-67.44
-67.05
-61.57
-51.51
-38.13
-23.04
-7.83
6.26
18.38
27.99
34.80
38.75
40.10
39.39
37.41
34.94
32.62
30.72
29.28
28.20
27.42
26.99
27.04
27.64
28.70
29.91
30.82
30.94
29.90
27.56
24.01
19.56
14.68
9.80
5.24
1.04
-2.99
-7.19
-11.87
-17.17
-23.00
-29.09
-35.16
-41.03
-46.74
-52.50
-58.61
-65.25
-72.30
-79.25
-85.13
-88.74
-88.87
-84.73
-76.19
-63.80
-48.68
-32.15
-15.49
0.25
14.26
25.88
34.63
40.26
42.88
43.01
41.49
39.28
37.17
35.64
34.80
34.55
34.69
35.06
35.59
36.21
36.86
37.39
37.61
37.23
36.03
33.87
30.79
27.01
22.88
18.70
14.63
10.61
6.40
1.78
-3.35
-8.86
-14.44
-19.77
-24.60
-28.85
-32.59
-36.08
-39.70
-43.91
-49.07
-55.30
-62.15
-68.58
-73.12
-74.22
-70.79
-62.59
-50.33
-35.40
-19.45
-3.93
10.12
22.11
31.70
38.70
43.04
44.81
44.37
42.31
39.35
36.13
33.18
30.74
28.94
27.82
27.41
27.69
28.53
29.62
30.51
30.73
29.94
28.04
25.25
21.93
18.42
14.95
11.50
7.92
4.05
-0.17
-4.68
-9.30
-13.86
-18.18
-22.19
-25.89
-29.39
-32.91
-36.76
-41.21
-46.28
-51.51
-55.96
-58.29
-57.22
-51.91
-42.28
-29.05
-13.47
3.02
19.14
33.88
46.50
56.41
63.20
66.70
67.18
65.36
62.30
59.10
56.53
54.85
53.80
52.87
51.57
49.62
47.03
43.95
40.46
36.66
32.60
28.48
24.75
21.91
20.30
19.83
19.91
19.62
18.11
14.91
10.13
4.25
-2.24
-9.12
-16.50
-24.57
-33.39
-42.68
-51.92
-60.58
-68.27
-74.75
-79.70
-82.48
-82.12
-77.62
-68.33
-54.46
-37.20
-18.47
-0.48
14.86
26.32
33.52
36.77
36.77
34.35
30.19
24.81
18.57
11.69
4.24
-3.83
-12.71
-22.48
-33.01
-43.75
-53.85
-62.41
-68.75
-72.75
-74.83
-75.86
-76.80
-78.46
-81.15
-84.61
-88.09
-90.63
-91.36
-89.86
-86.24
-81.15
-75.51
-70.31
-66.36
-64.25
-64.20
-66.03
-69.01
-71.88
-73.03
-70.80
-64.02
-52.38
-36.55
-18.00
1.37
19.71
35.55
47.98
56.64
61.67
63.53
62.88
60.44
57.00
53.24
49.76
46.95
44.99
43.82
43.20
42.81
42.36
41.65
40.63
39.34
37.85
36.19
34.31
32.10
29.41
26.06
21.95
17.05
11.45
5.35
-0.92
-6.99
-12.58
-17.58
-22.10
-26.54
-31.36
-37.06
-43.89
-51.75
-60.07
-67.83
-73.69
-76.26
-74.45
-67.85
-56.81
-42.44
-26.28
-9.84
5.70
19.62
31.55
41.25
48.43
52.82
54.30
53.14
50.06
46.06
42.16
39.08
37.07
35.99
35.48
35.22
34.98
34.72
34.46
34.16
33.69
32.83
31.40
29.20
26.20
22.41
17.98
13.11
8.08
3.13
-1.58
-6.06
-10.52
-15.27
-20.68
-26.99
-34.28
-42.28
-50.44
-57.85
-63.34
-65.74
-64.09
-57.98
-47.69
-34.20
-18.95
-3.51
10.79
23.03
32.68
39.53
43.51
44.71
43.41
40.16
35.75
31.05
26.86
23.66
21.60
20.48
20.01
19.93
20.08
20.35
20.58
20.50
19.71
17.81
14.58
10.03
4.47
-1.61
-7.72
-13.56
-19.09
-24.54
-30.26
-36.63
-43.84
-51.86
-60.29
-68.43
-75.30
-79.82
-81.03
-78.28
-71.37
-60.59
-46.65
-30.50
-13.27
3.89
19.81
33.47
44.05
51.13
54.75
55.37
53.78
50.93
47.75
44.95
42.96
41.87
41.60
42.00
42.98
44.49
46.40
48.35
49.63
49.39
46.89
41.87
34.69
26.27
17.67
9.66
2.44
-4.35
-11.31
-19.05
-27.85
-37.77
-48.75
-60.61
-72.83
-84.09
-92.34
-95.37
-91.72
-81.56
-66.78
-50.16
-34.15
-19.94
-7.29
4.75
16.78
28.39
38.41
45.57
49.36
50.34
49.75
48.92
48.70
49.22
50.20
51.25
52.12
52.71
53.22
53.63
53.84
53.47
52.09
49.40
45.37
40.31
34.70
29.03
23.58
18.29
12.89
7.05
0.56
-6.57
-14.07
-21.57
-28.76
-35.59
-42.24
-49.11
-56.55
-64.52
-72.42
-79.11
-83.06
-82.84
-77.58
-67.16
-52.37
-34.66
-15.73
2.79
19.65
34.04
45.54
53.99
59.45
62.09
62.27
60.60
57.84
54.83
52.27
50.58
49.78
49.59
49.62
49.52
49.13
48.44
47.51
46.37
44.88
42.86
40.10
36.48
31.99
26.80
21.14
15.28
9.42
3.67
-1.98
-7.56
-13.06
-18.42
-23.57
-28.62
-33.93
-40.06
-47.57
-56.50
-66.14
-75.00
-81.11
-82.70
-78.79
-69.48
-55.90
-39.75
-22.78
-6.40
8.48
21.38
31.98
40.01
45.22
47.53
47.17
44.79
41.34
37.84
35.08
33.41
32.72
32.62
32.66
32.59
32.38
32.12
31.91
31.60
30.85
29.17
26.18
21.73
16.03
9.59
3.02
-3.22
-8.94
-14.25
-19.47
-24.97
-31.04
-37.83
-45.37
-53.45
-61.59
-68.90
-74.18
-76.09
-73.55
-66.15
-54.29
-39.11
-22.17
-5.03
11.09
25.32
37.16
46.27
52.45
55.62
55.94
53.87
50.13
45.68
41.41
38.06
35.97
35.09
35.04
35.26
35.23
34.58
33.19
31.11
28.49
25.42
21.88
17.75
12.92
7.31
1.01
-5.77
-12.73
-19.60
-26.22
-32.56
-38.83
-45.33
-52.35
-60.14
-68.76
-77.96
-87.18
-95.39
-101.34
-103.69
-101.35
-93.79
-81.22
-64.51
-45.02
-24.25
-3.54
16.01
33.56
48.42
59.95
67.75
71.73
72.25
70.15
66.52
62.51
58.95
56.34
54.77
54.12
54.14
54.56
55.05
55.25
54.74
53.15
50.25
46.02
40.70
34.70
28.42
22.14
15.94
9.67
3.11
-3.94
-11.52
-19.45
-27.41
-35.05
-42.17
-48.82
-55.32
-62.18
-69.82
-78.30
-87.06
-94.91
-100.22
-101.31
-96.92
-86.66
-71.03
-51.38
-29.51
-7.26
13.75
32.32
47.61
59.15
66.79
70.74
71.57
70.16
67.56
64.73
62.26
60.38
59.02
58.00
57.29
56.93
56.96
57.25
57.42
56.92
55.26
52.17
47.68
42.10
35.84
29.28
22.70
16.27
10.06
4.04
-1.90
-7.89
-13.97
-20.07
-26.00
-31.53
-36.54
-41.13
-45.62
-50.47
-56.13
-62.87
-70.57
-78.59
-85.71
-90.41
-91.17
-86.96
-77.62
-63.90
-47.24
-29.38
-11.86
4.18
18.02
29.26
37.64
42.99
45.36
45.07
42.76
39.25
35.42
31.90
29.11
27.15
26.01
25.54
25.60
25.95
26.39
26.61
26.38
25.49
23.82
21.39
18.25
14.51
10.30
5.74
0.99
-3.81
-8.50
-12.96
-17.16
-21.17
-25.16
-29.35
-34.01
-39.38
-45.64
-52.71
-60.15
-67.08
-72.15
-73.95
-71.32
-63.83
-51.92
-36.85
-20.30
-3.93
10.94
23.49
33.35
40.39
44.73
46.56
46.20
44.14
41.00
37.50
34.24
31.64
29.85
28.75
28.12
27.74
27.50
27.36
27.22
26.91
26.16
24.72
22.47
19.54
16.16
12.58
8.89
4.99
0.68
-4.18
-9.62
-15.45
-21.37
-27.11
-32.51
-37.56
-42.43
-47.45
-53.02
-59.56
-67.24
-75.76
-84.17
-90.90
-94.14
-92.34
-84.76
-71.80
-54.84
-35.90
-16.96
0.43
15.40
27.61
37.06
43.83
48.02
49.81
49.56
47.85
45.37
42.76
40.44
38.56
37.04
35.73
34.57
33.64
33.06
32.92
33.09
33.21
32.79
31.47
29.06
25.71
21.77
17.64
13.59
9.64
5.66
1.37
-3.38
-8.64
-14.25
-19.93
-25.44
-30.60
-35.38
-40.00
-44.82
-50.33
-56.85
-64.36
-72.23
-79.27
-83.84
-84.38
-79.86
-70.16
-56.08
-39.12
-21.04
-3.38
12.70
26.52
37.71
46.06
51.49
54.06
54.11
52.21
49.15
45.73
42.60
40.12
38.40
37.40
36.98
37.01
37.35
37.79
38.03
37.79
36.82
35.00
32.39
29.17
25.55
21.67
17.57
13.22
8.55
3.54
-1.76
-7.20
-12.60
-17.76
-22.63
-27.30
-32.05
-37.25
-43.30
-50.43
-58.50
-66.94
-74.69
-80.40
-82.69
-80.56
-73.66
-62.41
-47.87
-31.53
-14.91
0.63
14.08
24.72
32.12
36.12
36.79
34.56
30.15
24.54
18.82
14.02
10.85
9.61
10.17
12.07
14.70
17.51
20.11
22.30
24.02
25.19
25.65
25.18
23.50
20.49
16.21
10.97
5.27
-0.39
-5.73
-10.75
-15.76
-21.21
-27.48
-34.72
-42.78
-51.05
-58.63
-64.33
-66.94
-65.48
-59.50
-49.28
-35.79
-20.53
-5.05
9.32
21.64
31.37
38.19
41.90
42.50
40.22
35.66
29.70
23.38
17.63
13.12
10.10
8.46
7.89
7.96
8.29
8.62
8.78
8.63
8.00
6.63
4.17
0.32
-5.06
-11.87
-19.71
-27.99
-36.13
-43.61
-50.14
-55.69
-60.48
-64.94
-69.59
-74.78
-80.36
-85.55
-88.90
-88.74
-83.68
-73.17
-57.75
-38.85
-18.39
1.77
20.15
35.83
48.36
57.58
63.50
66.27
66.27
64.07
60.48
56.39
52.66
49.89
48.28
47.62
47.44
47.19
46.52
45.31
43.70
41.90
40.07
38.19
36.12
33.59
30.30
25.99
20.58
14.16
7.03
-0.33
-7.51
-14.23
-20.52
-26.65
-33.08
-40.19
-48.20
-57.01
-66.19
-74.94
-82.16
-86.58
-87.02
-82.69
-73.42
-59.81
-43.09
-24.82
-6.54
10.53
25.60
38.28
48.41
55.92
60.80
63.11
63.10
61.25
58.21
54.74
51.57
49.19
47.84
47.48
47.84
48.54
49.15
49.33
48.83
47.54
45.42
42.52
38.93
34.70
29.96
24.78
19.26
13.46
7.41
1.17
-5.19
-11.56
-17.77
-23.70
-29.27
-34.59
-39.95
-45.81
-52.60
-60.55
-69.39
-78.19
-85.46
-89.45
-88.68
-82.36
-70.68
-54.72
-36.10
-16.58
2.39
19.71
34.72
46.97
56.22
62.39
65.61
66.31
65.12
62.79
59.92
56.93
53.97
51.08
48.24
45.52
43.00
40.70
38.53
36.26
33.70
30.71
27.27
23.47
19.39
15.04
10.38
5.35
-0.02
-5.60
-11.14
-16.43
-21.37
-26.02
-30.53
-35.17
-40.21
-45.86
-52.31
-59.51
-67.09
-74.22
-79.61
-81.81
-79.60
-72.45
-60.76
-45.75
-29.09
-12.38
3.20
16.93
28.46
37.53
43.93
47.50
48.32
46.87
43.90
40.30
36.87
34.12
32.24
31.19
30.82
30.89
31.17
31.38
31.21
30.38
28.72
26.18
22.89
19.06
14.91
10.62
6.26
1.78
-2.96
-8.07
-13.61
-19.55
-25.69
-31.82
-37.73
-43.40
-49.01
-54.94
-61.66
-69.40
-77.94
-86.41
-93.28
-96.78
-95.35
-88.24
-75.78
-59.28
-40.61
-21.64
-3.74
12.25
25.98
37.30
46.06
52.16
55.66
56.89
56.44
55.09
53.49
52.08
50.96
50.02
49.09
48.06
46.99
46.02
45.30
44.80
44.32
43.46
41.79
39.02
35.09
30.26
24.98
19.73
14.83
10.31
5.94
1.42
-3.49
-8.83
-14.39
-19.88
-25.06
-29.90
-34.57
-39.38
-44.73
-50.91
-58.09
-66.21
-74.76
-82.77
-88.82
-91.28
-88.84
-80.91
-67.92
-51.19
-32.54
-13.78
3.72
19.17
32.21
42.70
50.56
55.77
58.47
59.01
58.00
56.16
54.15
52.41
51.15
50.32
49.78
49.33
48.85
48.28
47.64
46.93
46.11
45.01
43.39
41.00
37.71
33.53
28.71
23.63
18.64
13.99
9.72
5.70
1.66
-2.65
-7.42
-12.65
-18.20
-23.78
-29.08
-33.88
-38.11
-41.95
-45.79
-50.13
-55.45
-62.05
-69.85
-78.20
-85.92
-91.40
-93.02
-89.59
-80.78
-67.22
-50.35
-31.97
-13.80
2.87
17.30
29.10
38.10
44.25
47.62
48.44
47.24
44.70
41.61
38.68
36.37
34.82
33.96
33.54
33.36
33.34
33.47
33.70
33.84
33.52
32.33
30.01
26.59
22.39
17.90
13.53
9.42
5.51
1.58
-2.54
-6.94
-11.60
-16.45
-21.44
-26.54
-31.78
-37.24
-43.10
-49.63
-57.05
-65.26
-73.62
-80.84
-85.26
-85.34
-80.14
-69.77
-55.24
-38.20
-20.36
-3.13
12.52
25.99
36.91
44.98
50.04
52.16
51.71
49.38
45.99
42.36
39.09
36.54
34.82
33.86
33.53
33.64
34.00
34.38
34.48
34.02
32.74
30.55
27.49
23.78
19.67
15.39
11.05
6.64
2.04
-2.90
-8.27
-14.08
-20.19
-26.33
-32.28
-37.87
-43.14
-48.30
-53.79
-60.08
-67.49
-75.99
-84.99
-93.27
-99.13
-100.80
-96.99
-87.33
-72.53
-54.21
-34.37
-14.87
2.97
18.43
31.23
41.33
48.78
53.66
56.19
56.71
55.73
53.77
51.35
48.86
46.54
44.49
42.76
41.31
40.11
39.12
38.25
37.37
36.25
34.62
32.25
29.11
25.36
21.32
17.29
13.44
9.65
5.60
0.90
-4.65
-10.93
-17.54
-23.91
-29.62
-34.53
-38.88
-43.17
-48.02
-53.93
-61.19
-69.59
-78.36
-86.19
-91.39
-92.33
-87.90
-77.88
-63.05
-44.98
-25.56
-6.51
10.92
25.98
38.27
47.66
54.08
57.69
58.81
58.02
55.99
53.42
50.84
48.62
46.95
45.90
45.44
45.47
45.79
46.07
45.95
45.12
43.41
40.84
37.56
33.74
29.52
24.92
19.90
14.42
8.52
2.37
-3.83
-9.88
-15.65
-21.14
-26.41
-31.65
-37.14
-43.16
-50.05
-57.92
-66.49
-74.95
-81.95
-85.87
-85.29
-79.49
-68.69
-54.08
-37.34
-20.22
-4.09
10.17
22.07
31.28
37.57
40.79
41.03
38.80
35.00
30.69
26.87
24.14
22.64
22.15
22.25
22.52
22.77
22.93
23.06
23.12
22.92
22.16
20.51
17.77
13.95
9.30
4.16
-1.15
-6.49
-11.95
-17.81
-24.43
-32.14
-41.12
-51.31
-62.28
-73.19
-82.75
-89.37
-91.55
-88.29
-79.49
-65.97
-49.31
-31.37
-13.74
2.47
16.69
28.65
38.14
44.88
48.60
49.28
47.33
43.56
39.07
34.88
31.69
29.72
28.77
28.42
28.24
27.99
27.56
26.97
26.16
24.98
23.21
20.60
16.99
12.41
7.08
1.32
-4.49
-10.03
-15.19
-20.03
-24.88
-30.18
-36.43
-44.01
-53.03
-63.18
-73.64
-83.08
-89.87
-92.41
-89.61
-81.17
-67.76
-50.77
-31.95
-12.90
5.09
21.27
35.17
46.50
55.02
60.54
63.10
63.02
60.97
57.85
54.59
51.91
50.23
49.56
49.65
50.13
50.63
50.78
50.33
49.11
47.04
44.14
40.47
36.10
31.07
25.39
19.07
12.19
4.92
-2.51
-9.85
-16.92
-23.61
-29.94
-35.99
-41.98
-48.22
-55.03
-62.63
-70.92
-79.26
-86.48
-91.04
-91.47
-86.81
-76.94
-62.60
-45.12
-25.97
-6.44
12.51
30.18
45.98
59.24
69.32
75.80
78.69
78.53
76.24
72.92
69.50
66.60
64.53
63.38
63.10
63.52
64.37
65.18
65.39
64.47
62.03
57.99
52.50
45.84
38.31
30.19
21.69
13.07
4.57
-3.55
-11.12
-18.13
-24.72
-31.20
-37.96
-45.41
-53.83
-63.25
-73.25
-82.92
-90.99
-96.11
-97.15
-93.49
-85.14
-72.58
-56.67
-38.39
-18.77
1.07
20.01
36.88
50.62
60.33
65.51
66.18
62.94
56.94
49.63
42.47
36.58
32.59
30.60
30.29
31.11
32.47
33.84
34.76
34.83
33.75
31.36
27.74
23.14
17.96
12.58
7.21
1.83
-3.79
-9.99
-16.93
-24.52
-32.43
-40.21
-47.63
-54.81
-62.20
-70.28
-79.05
-87.83
-95.12
-98.96
-97.61
-90.00
-75.99
-56.34
-32.52
-6.55
19.07
41.68
58.88
69.16
72.40
69.94
64.03
57.01
50.60
45.55
41.87
39.27
37.58
36.79
36.82
37.38
37.88
37.71
36.51
34.27
31.29
27.85
24.17
20.20
15.66
10.28
3.90
-3.36
-11.10
-18.73
-25.69
-31.70
-36.90
-41.84
-47.27
-53.91
-62.16
-71.90
-82.42
-92.51
-100.54
-104.80
-103.85
-96.91
-84.14
-66.69
-46.39
-25.28
-5.11
12.96
28.37
40.95
50.67
57.52
61.58
63.09
62.55
60.63
58.07
55.50
53.25
51.43
49.94
48.61
47.31
46.04
44.79
43.57
42.26
40.62
38.40
35.44
31.69
27.26
22.30
16.86
10.93
4.49
-2.42
-9.57
-16.62
-23.27
-29.38
-35.09
-40.76
-46.90
-53.97
-62.24
-71.55
-81.21
-89.90
-95.87
-97.33
-92.97
-82.43
-66.48
-46.81
-25.60
-4.84
14.00
30.14
43.32
53.50
60.67
64.86
66.23
65.16
62.35
58.58
54.64
51.09
48.21
46.09
44.64
43.76
43.25
42.86
42.26
41.16
39.30
36.61
33.14
29.04
24.44
19.46
14.17
8.61
2.82
-3.16
-9.31
-15.55
-21.75
-27.77
-33.47
-38.85
-44.10
-49.63
-55.96
-63.53
-72.30
-81.65
-90.29
-96.50
-98.55
-95.27
-86.34
-72.39
-54.81
-35.28
-15.39
3.59
20.75
35.36
46.81
54.67
58.80
59.57
57.86
54.87
51.78
49.42
48.07
47.48
47.14
46.56
45.50
44.04
42.43
40.85
39.30
37.43
34.80
31.00
25.89
19.69
12.88
5.97
-0.69
-7.05
-13.32
-19.83
-26.92
-34.76
-43.41
-52.74
-62.46
-71.99
-80.35
-86.29
-88.42
-85.67
-77.61
-64.69
-48.15
-29.70
-11.08
6.25
21.26
33.31
42.05
47.33
49.31
48.44
45.53
41.57
37.55
34.20
31.81
30.30
29.30
28.42
27.38
26.16
24.86
23.64
22.53
21.33
19.63
16.99
13.00
7.59
0.94
-6.44
-14.00
-21.26
-27.98
-34.26
-40.41
-46.94
-54.33
-62.87
-72.43
-82.32
-91.30
-97.73
-99.96
-96.83
-87.95
-73.88
-55.93
-35.77
-15.13
4.55
22.20
37.07
48.69
56.86
61.59
63.18
62.19
59.37
55.58
51.69
48.40
46.08
44.78
44.23
43.98
43.62
42.87
41.64
39.98
37.93
35.44
32.36
28.49
23.75
18.18
12.01
5.52
-0.98
-7.28
-13.30
-19.15
-25.06
-31.39
-38.52
-46.73
-56.08
-66.19
-76.16
-84.58
-89.79
-90.22
-84.94
-73.90
-57.99
-38.81
-18.23
2.00
20.55
36.52
49.39
58.87
64.96
67.89
68.17
66.59
64.00
61.11
58.41
56.06
54.01
52.12
50.31
48.66
47.42
46.85
47.07
47.90
48.84
49.22
48.38
45.95
41.86
36.35
29.73
22.23
14.01
5.21
-3.94
-13.06
-21.70
-29.54
-36.47
-42.69
-48.71
-55.09
-62.40
-70.95
-80.56
-90.46
-99.20
-104.94
-105.92
-100.96
-89.95
-73.80
-54.23
-33.25
-12.68
6.21
22.59
36.00
46.16
52.86
56.12
56.30
54.12
50.61
46.83
43.60
41.30
39.82
38.78
37.76
36.52
35.14
33.85
32.85
32.13
31.32
29.89
27.27
23.20
17.77
11.39
4.67
-1.90
-7.99
-13.63
-19.05
-24.64
-30.82
-37.95
-46.15
-55.17
-64.33
-72.48
-78.17
-80.00
-76.95
-68.69
-55.77
-39.36
-21.06
-2.50
14.94
30.18
42.45
51.19
56.11
57.23
55.05
50.52
44.87
39.36
34.91
31.90
30.13
29.09
28.22
27.21
26.05
24.91
23.92
22.94
21.53
19.11
15.22
9.73
2.96
-4.48
-11.91
-18.82
-25.06
-30.76
-36.34
-42.30
-49.12
-57.12
-66.33
-76.27
-85.89
-93.62
-97.63
-96.34
-88.90
-75.51
-57.40
-36.49
-14.85
5.74
24.05
39.37
51.35
59.80
64.69
66.16
64.68
61.01
56.18
51.22
46.94
43.76
41.68
40.37
39.36
38.27
36.93
35.30
33.52
31.64
29.62
27.26
24.28
20.41
15.48
9.52
2.75
-4.44
-11.61
-18.41
-24.71
-30.64
-36.53
-42.84
-49.97
-58.21
-67.54
-77.59
-87.43
-95.66
-100.56
-100.49
-94.37
-82.13
-64.75
-44.07
-22.26
-1.22
17.68
33.71
46.56
56.16
62.49
65.70
66.13
64.38
61.29
57.68
54.24
51.32
49.04
47.29
45.92
44.76
43.70
42.61
41.36
39.79
37.73
35.03
31.61
27.45
22.56
17.02
10.93
4.48
-2.17
-8.81
-15.35
-21.76
-28.15
-34.67
-41.54
-48.98
-57.17
-66.11
-75.39
-84.11
-90.86
-94.03
-92.22
-84.73
-71.82
-54.65
-35.00
-14.77
4.36
21.16
34.81
44.88
51.19
53.85
53.25
50.15
45.54
40.47
35.84
32.19
29.66
28.10
27.25
26.92
27.03
27.51
28.17
28.62
28.33
26.78
23.66
18.94
12.99
6.35
-0.41
-6.86
-12.84
-18.50
-24.20
-30.40
-37.49
-45.67
-54.76
-64.14
-72.75
-79.15
-81.88
-79.78
-72.36
-59.99
-43.83
-25.55
-6.91
10.56
25.76
37.98
46.78
51.93
53.43
51.68
47.52
42.10
36.69
32.29
29.39
27.90
27.33
27.02
26.51
25.58
24.26
22.65
20.69
18.17
14.74
10.13
4.34
-2.37
-9.49
-16.55
-23.24
-29.59
-35.90
-42.63
-50.21
-58.91
-68.76
-79.39
-89.99
-99.21
-105.38
-106.83
-102.39
-91.83
-75.94
-56.34
-34.96
-13.61
6.37
24.06
38.88
50.37
58.24
62.41
63.17
61.20
57.52
53.18
49.14
45.98
43.89
42.66
41.91
41.22
40.35
39.29
38.14
36.96
35.61
33.69
30.65
26.05
19.79
12.19
3.91
-4.34
-12.07
-19.17
-25.89
-32.76
-40.30
-48.91
-58.73
-69.44
-80.24
-89.75
-96.24
-97.99
-93.76
-83.26
-67.30
-47.55
-26.07
-4.83
14.77
31.89
46.12
57.25
65.11
69.58
70.79
69.19
65.64
61.19
56.85
53.36
50.98
49.60
48.90
48.56
48.30
47.96
47.33
46.21
44.38
41.68
38.06
33.57
28.37
22.60
16.38
9.82
3.02
-3.90
-10.81
-17.65
-24.47
-31.45
-38.87
-47.04
-56.18
-66.21
-76.67
-86.60
-94.60
-99.07
-98.56
-92.25
-80.16
-63.22
-43.04
-21.50
-0.31
19.21
36.16
49.94
60.09
66.31
68.56
67.23
63.18
57.64
51.91
47.01
43.49
41.37
40.25
39.60
38.96
38.06
36.86
35.39
33.60
31.32
28.23
24.05
18.69
12.32
5.34
-1.77
-8.64
-15.15
-21.42
-27.68
-34.22
-41.25
-48.88
-57.14
-65.90
-74.71
-82.67
-88.46
-90.58
-87.69
-79.17
-65.28
-47.24
-26.85
-6.06
13.43
30.41
44.16
54.33
60.77
63.56
63.04
59.84
54.92
49.34
44.08
39.73
36.48
34.07
32.14
30.41
28.75
27.19
25.73
24.14
22.04
18.98
14.69
9.25
3.02
-3.51
-9.97
-16.29
-22.67
-29.49
-37.13
-45.85
-55.67
-66.18
-76.52
-85.26
-90.68
-91.13
-85.61
-74.10
-57.64
-38.04
-17.24
3.08
21.75
38.00
51.20
60.77
66.28
67.67
65.47
60.78
55.01
49.43
44.85
41.48
39.10
37.30
35.73
34.22
32.79
31.42
30.04
28.37
26.03
22.58
17.71
11.34
3.69
-4.74
-13.34
-21.56
-29.09
-35.98
-42.66
-49.77
-57.91
-67.48
-78.37
-89.86
-100.62
-108.87
-112.75
-110.77
-102.25
-87.48
-67.76
-44.95
-21.08
2.14
23.45
42.06
57.42
69.15
77.02
81.04
81.66
79.74
76.42
72.87
69.92
68.03
67.15
66.99
67.19
67.50
67.84
68.18
68.47
68.54
68.09
66.77
64.29
60.54
55.61
49.77
43.46
37.15
31.18
25.72
20.65
15.71
10.53
4.91
-1.12
-7.32
-13.27
-18.59
-23.11
-26.86
-30.15
-33.45
-37.18
-41.55
-46.34
-50.79
-53.64
-53.42
-48.89
-39.39
-25.15
-7.21
12.83
33.12
51.98
68.05
80.37
88.36
91.83
90.92
86.14
78.32
68.48
57.77
47.16
37.36
28.69
21.08
14.23
7.75
1.37
-5.01
-11.33
-17.46
-23.38
-29.22
-35.26
-41.86
-49.34
-57.86
-67.38
-77.59
-88.01
-98.03
-107.08
-114.70
-120.65
-124.89
-127.51
-128.71
-128.74
-128.00
-127.01
-126.50
-127.28
-130.07
-135.19
-142.23
-149.94
-156.24
-158.69
-155.07
-143.99
-125.30
-100.11
-70.46
-38.80
-7.41
21.84
47.63
69.12
85.77
97.43
104.27
106.85
106.05
102.94
98.62
93.95
89.52
85.60
82.24
79.41
77.10
75.29
74.00
73.11
72.33
71.23
69.33
66.27
61.95
56.55
50.48
44.18
37.95
31.86
25.73
19.29
12.36
5.01
-2.51
-9.80
-16.63
-23.01
-29.24
-35.84
-43.32
-52.00
-61.81
-72.13
-81.83
-89.31
-92.85
-91.01
-83.09
-69.40
-51.21
-30.47
-9.21
10.84
28.50
43.17
54.56
62.54
67.03
68.12
66.17
61.92
56.41
50.77
45.94
42.45
40.29
39.04
38.15
37.20
35.99
34.54
32.88
30.87
28.15
24.30
19.05
12.50
5.08
-2.57
-9.86
-16.49
-22.47
-28.12
-33.92
-40.37
-47.91
-56.75
-66.77
-77.36
-87.39
-95.28
-99.38
-98.32
-91.41
-78.84
-61.65
-41.40
-19.84
1.49
21.35
38.82
53.17
63.82
70.34
72.66
71.26
67.09
61.53
55.95
51.40
48.35
46.68
45.88
45.29
44.41
43.00
41.05
38.71
36.06
33.06
29.53
25.19
19.84
13.39
5.99
-2.03
-10.27
-18.36
-26.09
-33.48
-40.73
-48.18
-56.22
-65.18
-75.24
-86.20
-97.39
-107.57
-115.09
-118.23
-115.59
-106.51
-91.25
-70.89
-47.06
-21.55
3.95
28.02
49.49
67.41
81.13
90.31
95.03
95.84
93.64
89.49
84.44
79.35
74.80
71.09
68.28
66.23
64.64
63.14
61.33
58.84
55.44
51.03
45.68
39.52
32.74
25.48
17.80
9.68
1.04
-8.09
-17.59
-27.10
-36.26
-44.78
-52.69
-60.42
-68.64
-78.00
-88.66
-100.08
-110.83
-118.94
-122.29
-119.23
-108.86
-91.29
-67.56
-39.61
-10.07
18.14
42.37
60.83
73.00
79.59
82.10
82.16
80.90
78.90
76.33
73.33
70.27
67.65
65.83
64.82
64.17
63.31
61.76
59.37
56.31
52.85
49.24
45.55
41.61
37.18
31.97
25.77
18.52
10.33
1.49
-7.64
-16.65
-25.20
-33.12
-40.40
-47.21
-53.89
-60.84
-68.48
-77.06
-86.50
-96.11
-104.56
-109.99
-110.55
-104.88
-92.63
-74.64
-52.65
-28.87
-5.40
16.15
34.76
49.81
60.97
68.04
71.12
70.61
67.39
62.63
57.58
53.18
49.91
47.75
46.33
45.27
44.27
43.23
42.09
40.75
38.98
36.43
32.73
27.64
21.17
13.62
5.55
-2.44
-9.88
-16.62
-22.86
-29.02
-35.60
-42.97
-51.29
-60.44
-69.95
-79.03
-86.45
-90.78
-90.64
-85.15
-74.22
-58.65
-39.92
-19.76
0.24
18.74
34.73
47.40
56.12
60.61
61.06
58.27
53.48
48.03
43.03
39.08
36.24
34.19
32.50
30.82
28.99
27.01
24.90
22.68
20.27
17.51
14.23
10.26
5.48
-0.09
-6.34
-13.03
-19.92
-26.77
-33.51
-40.27
-47.39
-55.32
-64.46
-74.94
-86.36
-97.69
-107.28
-113.19
-113.69
-107.68
-95.13
-77.11
-55.43
-32.20
-9.34
11.75
30.17
45.43
57.22
65.41
69.98
71.24
69.80
66.50
62.26
57.92
54.06
50.96
48.67
47.02
45.80
44.74
43.65
42.34
40.65
38.39
35.33
31.27
26.13
19.99
13.14
5.88
-1.51
-8.88
-16.17
-23.39
-30.52
-37.59
-44.76
-52.32
-60.71
-70.23
-80.77
-91.55
-101.12
-107.61
-109.24
-104.82
-94.09
-77.77
-57.38
-34.80
-11.89
9.82
29.23
45.55
58.29
67.13
72.00
73.22
71.48
67.83
63.44
59.32
56.08
53.85
52.38
51.19
49.90
48.33
46.50
44.51
42.41
40.12
37.40
34.00
29.69
24.35
18.04
10.95
3.42
-4.17
-11.52
-18.47
-25.06
-31.55
-38.30
-45.70
-54.06
-63.44
-73.53
-83.53
-92.17
-97.82
-98.88
-94.23
-83.60
-67.72
-48.15
-26.82
-5.63
13.96
30.96
44.75
54.94
61.32
63.89
63.02
59.54
54.57
49.31
44.71
41.24
38.89
37.27
35.92
34.50
32.91
31.22
29.55
27.88
25.99
23.50
20.04
15.40
9.67
3.18
-3.63
-10.34
-16.69
-22.67
-28.42
-34.18
-40.27
-47.02
-54.71
-63.35
-72.48
-81.08
-87.58
-90.21
-87.55
-79.00
-65.04
-47.05
-26.91
-6.46
12.82
29.85
43.85
54.20
60.43
62.40
60.51
55.70
49.32
42.76
37.06
32.72
29.73
27.76
26.43
25.43
24.54
23.62
22.46
20.78
18.30
14.80
10.16
4.50
-1.94
-8.79
-15.67
-22.31
-28.63
-34.78
-41.12
-48.14
-56.30
-65.83
-76.45
-87.27
-96.73
-102.94
-104.06
-98.85
-87.07
-69.58
-48.07
-24.69
-1.54
19.63
37.57
51.58
61.38
67.12
69.32
68.73
66.28
62.88
59.27
55.94
53.08
50.65
48.50
46.44
44.42
42.46
40.65
39.04
37.51
35.84
33.71
30.82
27.02
22.24
16.55
10.03
2.79
-5.02
-13.16
-21.33
-29.21
-36.62
-43.57
-50.38
-57.58
-65.70
-75.04
-85.30
-95.47
-103.81
-108.31
-107.22
-99.57
-85.55
-66.44
-44.13
-20.70
2.11
23.01
41.13
55.90
66.93
74.12
77.66
78.16
76.49
73.63
70.45
67.58
65.31
63.66
62.51
61.69
61.09
60.66
60.33
59.95
59.17
57.57
54.74
50.45
44.78
38.12
31.02
23.94
17.17
10.66
4.18
-2.51
-9.47
-16.56
-23.43
-29.80
-35.64
-41.25
-47.22
-54.20
-62.63
-72.49
-83.17
-93.52
-101.94
-106.77
-106.59
-100.61
-88.85
-72.18
-52.07
-30.22
-8.26
12.49
31.06
46.68
58.83
67.14
71.63
72.67
71.12
68.02
64.42
61.05
58.23
55.93
53.98
52.31
50.93
49.96
49.40
49.06
48.55
47.39
45.21
41.82
37.34
32.04
26.33
20.57
15.02
9.76
4.72
-0.31
-5.53
-11.08
-16.98
-23.07
-29.14
-34.97
-40.51
-45.87
-51.42
-57.63
-64.92
-73.43
-82.72
-91.72
-98.81
-102.21
-100.45
-92.87
-79.79
-62.44
-42.57
-22.00
-2.27
15.50
30.48
42.08
49.91
53.78
53.94
51.12
46.47
41.27
36.66
33.29
31.29
30.36
29.97
29.64
29.12
28.38
27.48
26.47
25.23
23.48
20.87
17.16
12.35
6.70
0.67
-5.32
-10.95
-16.15
-21.04
-25.89
-31.09
-37.07
-44.26
-52.85
-62.64
-72.77
-81.73
-87.68
-88.91
-84.36
-74.05
-58.92
-40.66
-21.24
-2.39
14.54
28.72
39.80
47.73
52.68
54.97
54.98
53.18
50.14
46.49
42.88
39.83
37.66
36.42
35.92
35.86
35.94
35.92
35.60
34.81
33.34
31.06
27.86
23.80
19.04
13.75
8.12
2.22
-3.93
-10.32
-16.88
-23.49
-29.96
-36.19
-42.17
-48.10
-54.36
-61.35
-69.40
-78.46
-87.94
-96.59
-102.74
-104.62
-100.93
-91.24
-76.16
-57.19
-36.29
-15.36
4.14
21.30
35.62
46.89
54.96
59.83
61.70
61.04
58.58
55.21
51.70
48.58
46.07
44.15
42.74
41.75
41.18
41.02
41.12
41.18
40.80
39.64
37.53
34.55
30.93
26.95
22.71
18.12
12.94
7.01
0.36
-6.71
-13.70
-20.07
-25.48
-29.89
-33.60
-37.15
-41.17
-46.22
-52.67
-60.54
-69.41
-78.28
-85.69
-89.92
-89.43
-83.29
-71.54
-55.19
-35.92
-15.66
3.88
21.44
36.27
47.97
56.36
61.46
63.51
62.98
60.57
57.08
53.21
49.47
46.14
43.38
41.25
39.80
39.00
38.70
38.59
38.33
37.55
36.03
33.77
30.86
27.51
23.88
20.04
15.99
11.64
6.89
1.64
-4.09
-10.15
-16.28
-22.17
-27.57
-32.45
-37.02
-41.65
-46.87
-53.13
-60.64
-69.18
-77.95
-85.53
-90.20
-90.28
-84.72
-73.45
-57.47
-38.56
-18.76
0.13
16.83
30.61
41.10
48.12
51.62
51.78
49.17
44.66
39.38
34.36
30.33
27.53
25.84
24.90
24.33
23.86
23.39
22.90
22.36
21.62
20.48
18.63
15.88
12.15
7.58
2.45
-2.85
-8.03
-12.96
-17.72
-22.52
-27.65
-33.30
-39.59
-46.55
-54.03
-61.66
-68.73
-74.20
-76.79
-75.33
-69.15
-58.32
-43.73
-26.89
-9.51
6.90
21.26
32.96
41.69
47.26
49.60
48.78
45.21
39.72
33.46
27.67
23.29
20.74
19.90
20.20
20.95
21.62
21.93
21.83
21.35
20.46
19.02
16.79
13.60
9.39
4.38
-1.06
-6.41
-11.27
-15.44
-19.09
-22.64
-26.59
-31.35
-37.07
-43.72
-51.15
-59.27
-67.94
-76.80
-85.03
-91.25
-93.84
-91.34
-83.05
-69.26
-51.20
-30.67
-9.57
10.47
28.25
42.98
54.22
61.77
65.72
66.37
64.13
59.54
53.21
45.85
38.26
31.25
25.37
20.85
17.41
14.50
11.53
8.08
3.92
-1.22
-7.80
-16.51
-27.88
-41.93
-57.83
-74.15
-89.28
-102.07
-112.25
-120.30
-127.02
-133.14
-139.06
-145.08
-151.58
-159.18
-168.45
-179.34
-190.71
-200.15
-204.47
-200.51
-186.26
-161.40
-127.37
-86.75
-42.20
4.45
52.74
103.24
156.44
211.58
265.87
314.61
352.34
374.46
378.58
365.15
336.97
298.27
253.54
206.79
161.25
119.40
82.93
52.58
27.97
7.71
-10.21
-27.72
-45.97
-65.07
-84.16
-101.80
-116.59
-127.58
-134.60
-138.26
-139.92
-141.28
-143.72
-147.55
-151.53
-152.83
-147.98
-134.04
-109.66
-75.33
-32.75
16.27
70.38
128.40
188.32
246.45
297.58
336.51
360.04
368.54
365.82
357.55
348.99
343.16
340.52
339.68
338.69
335.94
330.34
321.00
306.90
287.01
260.77
228.58
191.96
153.26
114.84
78.50
44.90
13.58
-16.79
-47.92
-81.58
-119.19
-161.46
-207.85
-256.16
-302.51
-342.02
-370.22
-384.57
-385.42
-375.81
-360.23
-342.81
-326.09
-310.76
-296.42
-282.68
-269.86
-258.96
-250.91
-245.84
-242.69
-239.50
-234.10
-224.73
-210.57
-191.83
-169.45
-144.67
-118.72
-92.54
-66.86
-42.41
-20.11
-1.05
13.72
23.59
28.68
29.99
29.09
27.68
27.09
27.96
30.17
33.11
36.05
38.48
40.18
41.24
41.83
41.99
41.58
40.28
37.73
33.70
28.19
21.47
14.05
6.49
-0.79
-7.60
-14.08
-20.67
-27.89
-36.22
-45.89
-56.69
-67.90
-78.21
-85.95
-89.40
-87.27
-79.07
-65.35
-47.55
-27.50
-7.06
12.31
29.60
44.19
55.66
63.73
68.31
69.63
68.28
65.17
61.36
57.75
54.89
52.97
51.92
51.61
51.96
53.06
54.93
57.39
60.01
62.17
63.25
62.89
61.08
58.03
54.09
49.56
44.57
39.13
33.24
26.83
19.92
12.53
4.65
-3.77
-12.74
-22.18
-31.84
-41.38
-50.49
-58.72
-65.49
-69.82
-70.45
-66.13
-56.13
-40.70
-21.22
0.17
21.16
39.93
55.44
67.34
75.76
80.90
83.06
82.62
80.21
76.73
73.09
70.02
67.97
67.02
66.92
67.32
67.80
67.99
67.63
66.56
64.71
62.09
58.74
54.68
49.92
44.49
38.45
31.95
25.20
18.46
11.90
5.59
-0.54
-6.68
-13.07
-19.93
-27.44
-35.78
-44.98
-54.82
-64.68
-73.41
-79.51
-81.44
-78.11
-69.25
-55.53
-38.29
-19.22
0.13
18.52
35.05
49.06
59.99
67.48
71.42
72.13
70.27
66.77
62.62
58.63
55.33
52.92
51.33
50.33
49.63
48.96
48.10
46.88
45.21
42.99
40.15
36.64
32.46
27.65
22.32
16.61
10.73
4.83
-0.92
-6.46
-11.82
-17.18
-22.73
-28.75
-35.40
-42.71
-50.40
-57.84
-64.04
-67.80
-67.96
-63.73
-54.93
-42.14
-26.47
-9.34
7.86
23.96
38.06
49.44
57.60
62.28
63.59
62.06
58.52
53.98
49.28
45.06
41.64
39.11
37.44
36.50
36.09
35.89
35.54
34.67
33.04
30.54
27.23
23.22
18.67
13.70
8.40
2.88
-2.69
-8.14
-13.27
-17.97
-22.25
-26.16
-29.87
-33.61
-37.65
-42.38
-48.21
-55.53
-64.37
-74.21
-83.92
-91.82
-96.16
-95.60
-89.60
-78.52
-63.53
-46.14
-27.86
-9.93
6.81
21.77
34.52
44.69
51.99
56.36
58.04
57.58
55.77
53.40
51.10
49.21
47.74
46.53
45.42
44.39
43.53
42.98
42.75
42.68
42.42
41.59
39.95
37.44
34.16
30.29
25.99
21.40
16.62
11.72
6.79
1.81
-3.26
-8.47
-13.78
-19.05
-24.07
-28.65
-32.77
-36.64
-40.67
-45.32
-51.02
-57.92
-65.79
-73.97
-81.35
-86.61
-88.45
-85.98
-78.90
-67.62
-53.12
-36.67
-19.62
-3.14
11.85
24.68
34.94
42.42
47.14
49.33
49.47
48.15
46.02
43.71
41.61
39.91
38.55
37.36
36.15
34.82
33.44
32.14
31.09
30.32
29.72
29.03
27.99
26.37
24.11
21.28
17.98
14.31
10.31
6.03
1.58
-2.89
-7.19
-11.20
-14.91
-18.42
-21.94
-25.69
-29.91
-34.82
-40.58
-47.15
-54.21
-60.99
-66.41
-69.24
-68.44
-63.59
-54.93
-43.38
-30.22
-16.74
-3.99
7.29
16.68
23.89
28.74
31.20
31.41
29.77
26.92
23.61
20.57
18.34
17.21
17.18
18.02
19.33
20.59
21.25
20.87
19.18
16.17
12.14
7.60
3.07
-1.03
-4.62
-7.86
-11.14
-14.77
-18.90
-23.42
-28.07
-32.52
-36.58
-40.18
-43.44
-46.66
-50.31
-54.85
-60.56
-67.32
-74.32
-80.20
-83.36
-82.39
-76.64
-66.36
-52.58
-36.71
-20.14
-3.94
11.10
24.39
35.38
43.61
48.78
50.92
50.48
48.16
44.83
41.23
37.89
35.08
32.90
31.34
30.37
29.99
30.18
30.87
31.81
32.67
33.04
32.49
30.74
27.73
23.60
18.70
13.49
8.43
3.81
-0.30
-4.01
-7.64
-11.48
-15.69
-20.21
-24.78
-29.04
-32.68
-35.66
-38.21
-40.86
-44.25
-48.95
-55.27
-63.07
-71.66
-79.86
-86.20
-89.18
-87.64
-81.10
-69.84
-54.84
-37.52
-19.41
-1.84
14.20
28.07
39.41
48.00
53.82
57.02
58.01
57.42
56.03
54.57
53.50
52.91
52.53
51.92
50.69
48.68
46.05
43.14
40.31
37.84
35.70
33.68
31.40
28.46
24.60
19.81
14.35
8.72
3.48
-0.97
-4.54
-7.42
-10.06
-12.87
-16.19
-20.15
-24.69
-29.70
-34.99
-40.35
-45.55
-50.42
-54.89
-58.97
-62.67
-65.85
-68.02
-68.41
-66.13
-60.51
-51.45
-39.46
-25.57
-11.07
2.87
15.36
25.79
33.80
39.11
41.58
41.25
38.46
33.89
28.46
23.07
18.40
14.76
12.04
9.96
8.23
6.74
5.59
5.00
5.11
5.83
6.82
7.53
7.36
5.91
3.10
-0.86
-5.52
-10.43
-15.29
-20.06
-24.91
-30.16
-36.11
-42.80
-49.96
-57.02
-63.17
-67.61
-69.68
-68.96
-65.24
-58.46
-48.66
-36.07
-21.30
-5.44
9.95
23.13
32.61
37.55
38.02
34.94
29.78
24.15
19.36
16.23
14.98
15.43
17.10
19.50
22.20
24.83
27.06
28.58
29.13
28.57
27.00
24.78
22.35
20.07
18.01
15.87
13.15
9.37
4.29
-1.86
-8.51
-14.95
-20.71
-25.68
-30.24
-35.02
-40.55
-47.08
-54.33
-61.47
-67.39
-70.88
-70.96
-67.12
-59.41
-48.43
-35.16
-20.81
-6.52
6.70
18.15
27.40
34.31
38.96
41.61
42.59
42.30
41.12
39.39
37.47
35.65
34.10
32.81
31.62
30.26
28.56
26.59
24.61
23.01
22.02
21.48
20.88
19.45
16.52
11.82
5.65
-1.19
-7.71
-13.08
-16.94
-19.49
-21.39
-23.47
-26.41
-30.58
-35.94
-42.13
-48.55
-54.42
-58.88
-61.00
-59.96
-55.26
-46.90
-35.43
-21.87
-7.49
6.49
19.09
29.65
37.88
43.68
47.17
48.55
48.15
46.36
43.66
40.47
37.23
34.25
31.70
29.63
28.00
26.74
25.82
25.24
24.99
25.00
25.01
24.61
23.30
20.69
16.65
11.34
5.23
-1.11
-7.19
-12.78
-17.95
-22.92
-28.01
-33.51
-39.57
-46.23
-53.28
-60.24
-66.23
-70.18
-71.00
-67.99
-61.08
-50.80
-38.20
-24.47
-10.73
2.14
13.43
22.55
29.08
32.77
33.72
32.36
29.37
25.59
21.73
18.35
15.71
13.90
12.91
12.70
13.20
14.25
15.58
16.70
17.12
16.42
14.47
11.45
7.78
3.86
-0.02
-3.84
-7.71
-11.82
-16.43
-21.78
-28.15
-35.68
-44.12
-52.68
-60.02
-64.54
-64.89
-60.48
-51.59
-39.31
-25.03
-10.15
4.28
17.52
28.98
38.19
44.72
48.38
49.31
48.05
45.30
41.88
38.37
35.09
32.13
29.43
26.89
24.52
22.44
20.81
19.75
19.17
18.79
18.16
16.82
14.44
10.90
6.31
0.96
-4.83
-10.83
-16.91
-23.07
-29.45
-36.17
-43.33
-50.86
-58.38
-65.14
-70.12
-72.23
-70.56
-64.71
-54.90
-41.92
-26.99
-11.45
3.47
16.90
28.35
37.59
44.57
49.29
51.78
52.11
50.50
47.33
43.13
38.51
34.02
30.11
27.09
25.21
24.66
25.50
27.63
30.66
33.94
36.69
38.17
37.92
35.86
32.26
27.62
22.42
17.02
11.64
6.31
1.04
-4.18
-9.34
-14.51
-19.84
-25.63
-32.22
-39.88
-48.56
-57.76
-66.53
-73.55
-77.53
-77.49
-73.04
-64.44
-52.45
-38.16
-22.79
-7.49
6.67
18.85
28.45
35.26
39.37
41.17
41.16
39.86
37.75
35.25
32.84
30.92
29.84
29.71
30.37
31.46
32.54
33.23
33.32
32.81
31.79
30.42
28.73
26.69
24.17
21.00
17.10
12.47
7.29
1.83
-3.62
-8.85
-13.83
-18.71
-23.78
-29.35
-35.57
-42.35
-49.21
-55.23
-59.25
-60.03
-56.67
-48.88
-37.21
-22.84
-7.39
7.63
21.02
32.05
40.37
45.93
48.79
49.20
47.59
44.51
40.63
36.49
32.54
29.03
26.12
23.85
22.24
21.23
20.66
20.36
20.15
19.94
19.68
19.29
18.67
17.57
15.73
12.89
8.92
3.86
-2.07
-8.53
-15.10
-21.48
-27.51
-33.29
-39.05
-45.11
-51.70
-58.95
-66.76
-74.83
-82.63
-89.32
-93.89
-95.29
-92.72
-85.93
-75.32
-61.86
-46.68
-30.78
-14.76
1.03
16.28
30.40
42.52
51.70
57.27
59.17
57.92
54.51
49.92
44.87
39.66
34.31
28.79
23.25
18.05
13.69
10.47
8.35
6.80
4.95
1.78
-3.58
-11.61
-22.26
-34.98
-48.92
-63.21
-77.22
-90.78
-104.17
-117.87
-132.15
-146.75
-160.68
-172.54
-181.02
-185.53
-186.39
-184.63
-181.22
-176.42
-169.41
-158.67
-142.62
-120.43
-92.31
-59.41
-23.18
15.07
54.47
94.48
134.83
175.36
216.40
259.13
305.62
358.01
416.88
479.77
540.51
590.55
621.58
628.70
612.28
577.74
533.17
486.21
441.59
400.53
361.87
323.82
285.39
246.66
208.26
170.46
132.91
94.89
55.80
15.65
-24.95
-65.25
-104.97
-144.68
-185.36
-227.42
-269.75
-309.29
-341.75
-363.12
-371.36
-367.25
-354.12
-336.33
-317.73
-300.62
-285.62
-272.42
-260.54
-249.84
-240.46
-232.57
-226.03
-220.32
-214.70
-208.32
-200.33
-190.04
-176.95
-160.91
-142.09
-121.04
-98.61
-75.81
-53.74
-33.48
-15.97
-1.91
8.44
15.27
19.20
21.12
21.94
22.40
22.93
23.71
24.72
25.92
27.28
28.78
30.42
32.09
33.61
34.72
35.12
34.60
33.04
30.48
27.09
23.13
18.80
14.22
9.38
4.24
-1.18
-6.72
-12.08
-17.04
-21.49
-25.62
-29.79
-34.44
-39.87
-46.13
-53.04
-60.01
-66.24
-70.71
-72.35
-70.30
-64.11
-53.92
-40.47
-24.97
-8.75
6.94
21.18
33.37
43.19
50.44
55.05
57.11
56.92
55.01
52.10
48.94
46.13
44.03
42.69
42.02
41.86
42.07
42.54
43.14
43.66
43.78
43.17
41.57
38.93
35.44
31.46
27.42
23.56
19.92
16.27
12.30
7.76
2.66
-2.75
-8.11
-13.05
-17.42
-21.30
-24.99
-28.90
-33.48
-39.05
-45.75
-53.41
-61.35
-68.54
-73.64
-75.38
-72.93
-66.09
-55.32
-41.65
-26.27
-10.34
5.19
19.54
32.10
42.35
49.92
54.70
56.92
57.12
56.02
54.34
52.63
51.17
50.03
49.21
48.72
48.67
49.15
50.19
51.55
52.78
53.33
52.76
50.90
47.88
44.04
39.73
35.19
30.47
25.53
20.26
14.64
8.74
2.71
-3.28
-9.07
-14.58
-19.77
-24.69
-29.47
-34.28
-39.38
-45.03
-51.38
-58.41
-65.72
-72.58
-77.93
-80.61
-79.67
-74.49
-65.03
-51.66
-35.14
-16.39
3.50
23.25
41.43
56.54
67.28
72.86
73.33
69.54
63.00
55.47
48.47
43.00
39.39
37.50
36.94
37.29
38.14
39.11
39.76
39.66
38.48
36.17
33.02
29.49
26.01
22.74
19.49
15.90
11.64
6.65
1.16
-4.50
-10.14
-15.89
-22.21
-29.66
-38.56
-48.71
-59.36
-69.24
-76.93
-81.21
-81.29
-76.95
-68.51
-56.67
-42.34
-26.50
-10.17
5.73
20.36
33.02
43.21
50.58
54.99
56.49
55.33
51.94
46.93
41.02
34.98
29.55
25.31
22.62
21.54
21.85
23.06
24.59
25.89
26.57
26.41
25.34
23.33
20.36
16.41
11.46
5.56
-1.07
-8.10
-15.08
-21.57
-27.26
-32.11
-36.38
-40.55
-45.12
-50.51
-56.89
-64.09
-71.60
-78.61
-84.04
-86.73
-85.69
-80.37
-70.90
-58.07
-43.11
-27.36
-11.92
2.50
15.49
26.81
36.15
43.20
47.69
49.57
49.09
46.85
43.62
40.14
36.97
34.42
32.61
31.61
31.39
31.84
32.69
33.40
33.31
31.86
28.80
24.33
19.05
13.66
8.65
4.16
-0.07
-4.44
-9.23
-14.52
-20.14
-25.87
-31.53
-37.09
-42.68
-48.49
-54.75
-61.59
-68.97
-76.54
-83.55
-88.85
-91.13
-89.21
-82.45
-70.92
-55.39
-37.00
-16.99
3.52
23.57
42.16
58.19
70.52
78.27
81.19
79.79
75.30
69.31
63.27
58.25
54.86
53.32
53.66
55.74
59.21
63.45
67.62
70.83
72.41
72.06
69.89
66.16
61.20
55.23
48.48
41.21
33.81
26.63
19.94
13.81
8.13
2.71
-2.61
-7.88
-13.12
-18.36
-23.64
-28.95
-34.11
-38.78
-42.55
-45.20
-46.87
-48.07
-49.53
-51.87
-55.51
-60.58
-66.97
-74.34
-82.02
-88.96
-93.68
-94.66
-90.66
-81.19
-66.68
-48.34
-27.76
-6.61
13.69
31.95
47.20
58.67
65.83
68.53
67.17
62.61
56.06
48.78
41.89
36.14
31.86
29.01
27.31
26.27
25.41
24.30
22.65
20.35
17.46
14.05
10.23
5.97
1.26
-3.94
-9.69
-15.99
-22.88
-30.32
-38.16
-46.10
-53.80
-60.98
-67.56
-73.66
-79.27
-84.06
-87.21
-87.55
-84.01
-75.99
-63.62
-47.63
-29.14
-9.34
10.57
29.36
45.71
58.33
66.25
69.15
67.55
62.71
56.28
49.80
44.38
40.54
38.30
37.32
37.08
37.04
36.62
35.41
33.13
29.74
25.42
20.40
14.86
8.79
1.98
-5.84
-14.78
-24.59
-34.73
-44.45
-53.13
-60.53
-66.96
-73.06
-79.65
-87.25
-95.81
-104.65
-112.43
-117.29
-117.23
-110.52
-96.52
-76.10
-51.74
-26.81
-4.48
13.39
26.66
36.49
44.29
50.87
56.11
59.37
60.22
58.98
56.66
54.47
53.15
52.78
52.91
52.99
52.76
52.26
51.68
51.24
50.93
50.52
49.60
47.75
44.61
40.09
34.31
27.71
20.88
14.35
8.41
3.02
-2.17
-7.65
-13.76
-20.61
-28.08
-35.91
-43.94
-52.03
-59.90
-66.91
-71.99
-73.83
-71.41
-64.43
-53.47
-39.82
-24.98
-10.18
3.88
16.95
28.87
39.38
48.02
54.31
58.04
59.35
58.77
56.94
54.46
51.75
49.06
46.57
44.47
42.96
42.18
42.08
42.35
42.49
41.96
40.31
37.49
33.74
29.59
25.50
21.69
18.00
14.02
9.33
3.75
-2.50
-8.97
-15.15
-20.73
-25.72
-30.43
-35.32
-40.84
-47.36
-54.94
-63.31
-71.67
-78.81
-83.24
-83.61
-79.12
-69.81
-56.59
-40.94
-24.52
-8.77
5.27
16.93
25.87
31.91
35.08
35.66
34.21
31.43
28.05
24.56
21.21
18.01
14.95
12.09
9.64
7.78
6.45
5.33
3.80
1.24
-2.82
-8.53
-15.70
-23.92
-32.71
-41.67
-50.51
-59.14
-67.58
-76.03
-84.82
-94.31
-104.68
-115.79
-127.14
-137.98
-147.73
-156.25
-164.09
-172.18
-181.16
-190.55
-198.28
-200.89
-194.52
-176.36
-145.84
-104.98
-57.62
-8.10
40.26
86.10
129.93
173.59
219.52
270.16
327.17
390.49
457.29
521.55
575.02
609.49
619.71
605.39
571.25
524.92
473.88
423.07
374.17
326.80
280.29
234.83
191.45
151.01
113.18
76.33
38.22
-2.89
-47.63
-95.43
-144.75
-193.59
-239.65
-280.48
-313.76
-337.86
-352.36
-358.33
-357.79
-352.90
-344.98
-334.19
-319.86
-301.28
-278.57
-252.80
-225.62
-198.53
-172.30
-147.00
-122.47
-98.78
-76.62
-57.15
-41.47
-30.10
-22.60
-17.74
-13.94
-9.90
-5.02
0.58
6.22
11.28
15.43
18.83
21.93
25.14
28.56
31.86
34.42
35.59
35.04
32.82
29.37
25.30
21.14
17.16
13.32
9.42
5.25
0.72
-4.07
-8.93
-13.71
-18.37
-23.04
-28.01
-33.57
-39.87
-46.77
-53.80
-60.07
-64.45
-65.80
-63.25
-56.46
-45.76
-32.03
-16.48
-0.42
14.98
28.79
40.32
49.17
55.16
58.42
59.32
58.40
56.30
53.57
50.65
47.87
45.43
43.46
42.05
41.21
40.84
40.74
40.62
40.16
39.06
37.16
34.45
31.06
27.24
23.24
19.22
15.19
