1626353283.00
64.000000
-0.00
-0.00
-0.00
-0.00
-0.00
-0.00
-0.00
-0.00
-0.00
-0.00
0.00
0.01
0.01
-0.00
-0.03
-0.05
-0.05
0.00
0.13
0.36
0.66
1.01
1.37
1.72
2.06
2.40
2.79
3.24
3.80
4.42
5.06
5.66
6.20
6.68
7.15
7.68
8.31
9.14
10.09
11.04
11.88
12.56
13.14
13.76
14.65
15.96
17.91
20.32
22.90
25.38
27.58
29.57
31.68
34.32
37.81
42.54
48.15
54.10
59.83
64.97
69.58
74.14
79.34
85.71
93.76
103.00
112.62
121.73
129.77
136.75
143.30
150.75
157.77
166.64
177.95
191.79
206.97
220.57
228.25
225.36
208.53
176.87
132.76
80.05
23.07
-34.94
-92.44
-149.16
-205.23
-260.37
-313.74
-363.87
-409.83
-450.91
-486.50
-515.74
-537.23
-549.22
-549.96
-538.37
-514.21
-478.67
-433.88
-382.45
-327.02
-269.84
-212.63
-156.66
-102.95
-52.37
-5.90
35.58
71.43
101.35
125.50
144.38
158.69
169.15
176.37
180.75
182.57
182.07
179.51
175.23
169.65
163.18
156.15
148.81
141.30
133.69
126.02
118.33
110.69
103.16
95.80
88.68
81.83
75.25
68.95
62.95
57.25
51.86
46.78
42.03
37.59
33.45
29.61
26.07
22.81
19.83
17.11
14.67
12.48
10.54
8.83
7.34
6.07
4.98
4.07
3.30
2.65
2.07
1.56
1.12
0.74
0.46
0.25
0.12
0.04
-0.03
-0.12
-0.24
-0.37
-0.49
-0.55
-0.56
-0.50
-0.44
-0.41
-0.46
-0.61
-0.81
-1.01
-1.12
-1.09
-0.95
-0.79
-0.76
-0.95
-1.40
-2.01
-2.59
-2.95
-2.97
-2.71
-2.38
-2.27
-2.63
-3.50
-4.70
-5.85
-6.58
-6.67
-6.22
-5.60
-5.33
-5.80
-7.09
-8.89
-10.62
-11.72
-11.88
-11.22
-10.19
-9.34
-9.17
-9.94
-11.78
-14.61
-17.96
-20.74
-21.33
-17.97
-9.68
3.00
17.96
32.13
42.79
48.64
50.14
48.97
47.04
45.50
44.44
43.24
41.22
38.12
34.10
29.58
24.62
19.10
12.92
6.15
-0.83
-7.35
-12.72
-16.55
-18.89
-20.19
-21.06
-21.93
-22.93
-23.86
-24.30
-23.95
-22.76
-21.06
-19.45
-18.64
-19.19
-21.17
-23.96
-26.19
-26.11
-22.23
-13.99
-2.20
11.09
23.34
32.34
36.99
37.49
34.97
30.91
26.46
22.28
18.50
15.07
11.93
9.18
6.97
5.44
4.63
4.37
4.47
4.67
4.85
5.11
5.59
6.41
7.43
8.24
8.27
7.04
4.37
0.58
-3.61
-7.33
-10.04
-11.73
-12.97
-14.81
-17.72
-22.03
-27.59
-33.81
-39.86
-45.08
-49.21
-52.44
-55.37
-58.84
-63.83
-71.06
-80.65
-91.76
-102.44
-109.80
-110.86
-103.48
-87.25
-63.80
-36.26
-8.18
17.48
39.07
56.24
69.47
79.45
86.70
91.48
93.98
94.56
93.79
92.24
90.35
88.29
85.98
83.28
80.21
76.97
73.90
71.29
69.11
67.02
64.40
60.63
55.27
48.28
40.04
31.21
22.58
14.77
8.04
2.17
-3.44
-9.53
-16.63
-24.79
-33.56
-42.15
-49.78
-56.04
-61.09
-65.61
-70.65
-77.27
-86.23
-97.47
-109.81
-120.99
-127.98
-127.91
-119.02
-101.36
-76.93
-48.98
-21.00
4.26
25.38
42.20
55.25
65.23
72.57
77.44
79.91
80.22
78.89
76.70
74.45
72.73
71.68
71.08
70.42
69.22
67.27
64.74
62.06
59.63
57.58
55.55
52.88
48.80
42.78
34.84
25.53
15.82
6.73
-0.95
-7.02
-11.79
-16.11
-21.08
-27.81
-37.27
-49.86
-65.22
-81.92
-97.51
-109.02
-113.71
-110.01
-98.03
-79.64
-57.70
-35.25
-14.63
2.87
16.86
27.41
34.70
38.81
39.86
38.29
34.82
30.51
26.36
23.03
20.69
19.06
17.67
16.17
14.50
12.87
11.47
10.21
8.54
5.65
0.79
-6.27
-15.10
-24.62
-33.62
-41.19
-47.07
-51.80
-56.50
-62.47
-70.73
-81.56
-94.09
-106.29
-115.31
-118.21
-112.90
-98.88
-77.50
-51.55
-24.34
1.25
23.40
41.47
55.59
66.17
73.55
77.90
79.40
78.47
75.83
72.42
69.08
66.23
63.78
61.21
57.84
53.24
47.39
40.67
33.63
26.67
19.79
12.64
4.67
-4.53
-15.01
-26.35
-37.84
-48.68
-58.36
-66.78
-74.40
-81.98
-90.50
-100.78
-113.15
-127.05
-140.86
-151.95
-157.23
-154.10
-141.38
-119.89
-92.24
-62.07
-32.76
-6.61
15.60
34.23
50.12
63.91
75.77
85.38
92.39
96.61
98.26
97.89
96.18
93.79
91.13
88.39
85.54
82.51
79.28
75.92
72.54
69.11
65.48
61.24
55.95
49.22
40.88
31.12
20.38
9.29
-1.55
-11.70
-21.00
-29.58
-37.85
-46.34
-55.71
-66.61
-79.48
-94.25
-109.90
-124.33
-134.60
-137.68
-131.46
-115.64
-91.92
-63.45
-33.79
-5.83
18.81
39.82
57.55
72.47
84.80
94.47
101.37
105.60
107.54
107.77
106.86
105.18
102.85
99.88
96.27
92.26
88.23
84.62
81.67
79.16
76.50
72.88
67.69
60.81
52.70
44.16
35.95
28.41
21.33
14.04
5.83
-3.66
-14.27
-25.23
-35.59
-44.61
-52.05
-58.34
-64.42
-71.43
-80.40
-91.85
-105.32
-119.23
-130.92
-137.16
-135.17
-123.60
-103.17
-76.62
-47.77
-20.34
3.13
21.77
35.99
46.81
55.13
61.33
65.44
67.42
67.46
66.05
63.84
61.46
59.28
57.39
55.65
53.88
51.91
49.67
47.14
44.34
41.19
37.58
33.30
28.13
21.85
14.34
5.61
-4.14
-14.49
-24.91
-34.89
-44.04
-52.25
-59.72
-66.91
-74.46
-83.06
-93.21
-104.92
-117.39
-128.87
-136.82
-138.55
-132.09
-116.95
-94.39
-67.14
-38.50
-11.39
12.29
31.84
47.41
59.54
68.72
75.32
79.58
81.78
82.24
81.35
79.47
76.90
73.92
70.75
67.61
64.67
62.00
59.47
56.85
53.80
50.03
45.34
39.79
33.57
26.99
20.32
13.65
6.84
-0.38
-8.31
-17.08
-26.50
-36.16
-45.55
-54.22
-62.08
-69.37
-76.65
-84.73
-94.38
-106.03
-119.38
-133.01
-144.41
-150.46
-148.40
-136.83
-116.35
-89.45
-59.64
-30.29
-3.69
19.29
38.79
55.38
69.40
80.93
89.82
96.09
100.05
102.23
103.19
103.30
102.67
101.26
99.01
96.02
92.59
89.14
86.05
83.44
81.11
78.47
74.81
69.52
62.36
53.62
44.05
34.56
25.93
18.47
11.88
5.46
-1.61
-9.85
-19.24
-29.18
-38.85
-47.48
-54.78
-61.01
-66.94
-73.57
-81.91
-92.60
-105.64
-120.08
-133.88
-144.18
-147.94
-142.88
-128.31
-105.52
-77.43
-47.66
-19.38
5.41
26.07
42.91
56.58
67.56
76.07
82.20
86.10
88.11
88.75
88.47
87.61
86.25
84.36
81.90
79.00
75.94
73.08
70.71
68.84
67.12
64.87
61.32
55.94
48.66
39.99
30.82
22.09
14.38
7.76
1.75
-4.38
-11.23
-19.02
-27.45
-35.91
-43.73
-50.47
-56.17
-61.26
-66.56
-73.00
-81.42
-92.12
-104.56
-117.10
-127.10
-131.60
-128.11
-115.64
-95.05
-68.95
-40.86
-14.12
8.94
27.34
41.18
51.15
57.95
62.08
63.87
63.71
62.07
59.56
56.82
54.32
52.33
50.92
50.07
49.69
49.63
49.63
49.28
48.09
45.62
41.63
36.17
29.59
22.36
14.95
7.59
0.25
-7.27
-15.14
-23.40
-31.87
-40.22
-48.12
-55.40
-62.19
-68.89
-76.16
-84.72
-95.07
-107.07
-119.62
-130.59
-137.18
-136.70
-127.56
-109.85
-85.44
-57.41
-29.08
-3.17
18.77
36.32
49.85
59.98
67.31
72.24
75.07
76.09
75.73
74.47
72.80
71.07
69.39
67.73
65.99
64.18
62.47
61.05
59.94
58.81
57.05
53.94
49.03
42.38
34.56
26.40
18.63
11.57
4.97
-1.78
-9.37
-18.11
-27.83
-37.87
-47.40
-55.79
-62.86
-68.99
-75.07
-82.20
-91.33
-102.86
-116.25
-129.78
-140.76
-146.03
-142.93
-130.26
-108.73
-80.88
-50.30
-20.56
5.77
27.49
44.61
57.82
67.89
75.35
80.48
83.47
84.66
84.53
83.68
82.60
81.53
80.47
79.19
77.51
75.43
73.15
71.00
69.23
67.74
66.13
63.68
59.71
53.84
46.20
37.43
28.45
20.10
12.82
6.50
0.51
-5.94
-13.49
-22.30
-31.97
-41.75
-50.83
-58.69
-65.32
-71.16
-77.00
-83.72
-92.16
-102.79
-115.48
-129.16
-141.70
-150.11
-151.40
-143.49
-126.03
-100.76
-70.86
-40.03
-11.31
13.47
33.78
49.92
62.40
71.62
77.77
81.02
81.78
80.74
78.82
76.91
75.63
75.14
75.17
75.22
74.84
73.89
72.51
71.05
69.70
68.31
66.37
63.24
58.43
51.93
44.23
36.17
28.53
21.72
15.64
9.73
3.30
-4.15
-12.66
-21.84
-30.94
-39.25
-46.35
-52.26
-57.42
-62.58
-68.60
-76.25
-86.03
-97.78
-110.47
-122.02
-129.60
-130.35
-122.33
-105.25
-80.81
-52.18
-23.03
3.52
25.56
42.54
54.79
63.02
67.83
69.65
68.90
66.16
62.26
58.12
54.58
52.12
50.81
50.36
50.27
50.08
49.44
48.18
46.25
43.72
40.60
36.88
32.45
27.17
20.91
13.59
5.31
-3.64
-12.82
-21.73
-29.98
-37.39
-44.10
-50.45
-56.98
-64.26
-72.79
-82.85
-94.19
-105.84
-115.95
-122.08
-121.74
-113.22
-96.34
-72.64
-45.05
-17.00
8.56
29.84
46.34
58.45
66.91
72.32
75.00
75.20
73.28
69.91
65.98
62.35
59.61
57.91
57.01
56.41
55.64
54.36
52.43
49.86
46.69
42.94
38.55
33.42
27.48
20.63
12.82
4.10
-5.40
-15.37
-25.37
-34.92
-43.66
-51.52
-58.74
-65.87
-73.63
-82.75
-93.75
-106.69
-120.79
-134.31
-144.56
-148.53
-143.74
-129.26
-106.11
-77.08
-45.89
-16.00
10.24
31.91
49.22
62.90
73.63
81.80
87.53
90.90
92.14
91.70
90.16
88.11
85.99
84.09
82.51
81.18
79.99
78.73
77.18
75.08
72.10
67.96
62.48
55.72
47.96
39.61
31.04
22.35
13.40
3.87
-6.43
-17.38
-28.49
-39.09
-48.67
-57.14
-64.93
-72.91
-82.07
-93.17
-106.34
-120.72
-134.33
-144.33
-147.64
-141.92
-126.46
-102.55
-73.20
-42.18
-12.88
12.50
33.18
49.46
62.02
71.47
78.18
82.38
84.41
84.81
84.23
83.25
82.20
81.12
79.90
78.45
76.85
75.31
74.03
72.99
71.87
70.07
66.97
62.14
55.60
47.79
39.43
31.18
23.44
16.08
8.65
0.52
-8.72
-19.03
-29.90
-40.52
-50.14
-58.38
-65.41
-71.89
-78.81
-87.21
-97.74
-110.26
-123.55
-135.22
-142.17
-141.46
-131.35
-112.01
-85.65
-55.83
-26.32
-0.03
21.61
38.52
51.38
60.90
67.45
71.11
71.96
70.42
67.37
63.92
61.07
59.35
58.71
58.60
58.34
57.40
55.62
53.17
50.38
47.46
44.41
40.95
36.66
31.15
24.17
15.78
6.32
-3.62
-13.33
-22.20
-29.93
-36.62
-42.79
-49.21
-56.70
-65.89
-77.01
-89.61
-102.42
-113.36
-119.85
-119.43
-110.60
-93.42
-69.65
-42.29
-14.69
10.38
31.33
47.74
59.97
68.58
73.96
76.34
75.97
73.43
69.60
65.64
62.49
60.68
60.10
60.14
59.98
58.92
56.68
53.33
49.23
44.76
40.17
35.41
30.22
24.23
17.10
8.73
-0.71
-10.74
-20.76
-30.20
-38.76
-46.49
-53.75
-61.19
-69.53
-79.44
-91.29
-104.83
-118.85
-131.18
-138.98
-139.52
-131.12
-113.83
-89.49
-61.22
-32.39
-5.72
17.26
36.23
51.58
63.94
73.75
81.20
86.34
89.24
90.12
89.40
87.64
85.39
83.13
81.13
79.45
77.96
76.42
74.56
72.12
68.95
64.92
60.04
54.28
47.65
40.11
31.61
22.18
11.98
1.32
-9.38
-19.73
-29.46
-38.54
-47.13
-55.60
-64.38
-74.01
-84.95
-97.36
-110.71
-123.50
-133.25
-137.10
-132.70
-119.14
-97.42
-70.22
-41.00
-12.95
11.86
32.69
49.74
63.59
74.72
83.30
89.36
92.94
94.27
93.76
91.87
89.09
85.80
82.31
78.88
75.68
72.80
70.23
67.77
65.12
61.88
57.68
52.29
45.75
38.32
30.41
22.44
14.58
6.77
-1.22
-9.64
-18.54
-27.70
-36.66
-44.97
-52.36
-58.92
-65.25
-72.25
-80.92
-91.86
-104.80
-118.22
-129.44
-135.25
-132.92
-121.27
-101.13
-75.19
-47.03
-20.01
3.64
23.09
38.56
50.65
59.82
66.21
69.77
70.63
69.26
66.51
63.39
60.74
59.05
58.31
58.08
57.71
56.67
54.65
51.70
48.12
44.25
40.26
36.05
31.27
25.49
18.41
10.03
0.71
-8.95
-18.29
-26.81
-34.32
-41.00
-47.30
-53.82
-61.24
-70.17
-80.97
-93.53
-106.88
-119.07
-127.45
-129.26
-122.63
-107.29
-84.81
-58.12
-30.56
-4.89
17.28
35.50
50.02
61.28
69.55
74.96
77.68
78.11
76.92
74.84
72.52
70.31
68.34
66.55
64.91
63.44
62.16
61.00
59.64
57.51
54.03
48.78
41.81
33.60
24.92
16.46
8.56
1.13
-6.27
-14.12
-22.68
-31.80
-41.05
-49.88
-57.91
-65.16
-72.06
-79.40
-88.19
-99.18
-112.54
-127.31
-141.35
-151.58
-154.83
-148.83
-133.12
-109.25
-80.31
-49.91
-21.17
4.00
25.00
42.08
55.86
66.88
75.47
81.87
86.30
89.09
90.57
91.05
90.71
89.65
87.96
85.75
83.23
80.71
78.44
76.56
74.94
73.11
70.40
66.15
59.98
52.03
42.91
33.55
24.80
17.05
10.14
3.46
-3.75
-11.97
-21.19
-30.97
-40.62
-49.53
-57.39
-64.32
-70.87
-77.90
-86.38
-97.08
-110.12
-124.48
-137.92
-147.29
-149.40
-142.20
-125.54
-101.28
-72.69
-43.31
-15.94
7.92
27.91
44.30
57.48
67.71
75.09
79.86
82.45
83.46
83.50
82.99
82.09
80.83
79.17
77.19
75.13
73.27
71.82
70.73
69.61
67.83
64.69
59.76
53.04
45.01
36.46
28.21
20.79
14.29
8.35
2.37
-4.24
-11.76
-20.08
-28.71
-36.98
-44.34
-50.56
-55.87
-60.93
-66.69
-74.10
-83.72
-95.37
-107.84
-118.92
-125.74
-125.65
-117.04
-100.04
-76.54
-49.66
-22.70
1.73
22.27
38.65
51.24
60.52
66.74
70.07
70.75
69.31
66.59
63.49
60.72
58.63
57.18
56.12
55.22
54.34
53.48
52.64
51.62
50.03
47.33
43.12
37.34
30.39
22.94
15.64
8.81
2.30
-4.37
-11.73
-20.01
-28.99
-38.13
-46.78
-54.51
-61.29
-67.53
-74.01
-81.64
-91.19
-102.91
-116.04
-128.70
-138.09
-141.15
-135.62
-120.83
-98.06
-70.16
-40.63
-12.60
11.85
31.95
47.91
60.35
69.91
76.93
81.59
84.02
84.45
83.35
81.27
78.73
76.08
73.46
70.84
68.26
65.81
63.62
61.73
59.87
57.51
54.01
48.93
42.26
34.47
26.27
18.30
10.82
3.65
-3.68
-11.65
-20.45
-29.83
-39.21
-47.94
-55.59
-62.13
-68.01
-74.08
-81.32
-90.62
-102.31
-115.75
-129.15
-139.70
-144.20
-140.08
-126.33
-103.98
-75.85
-45.63
-16.78
8.40
29.05
45.40
58.17
68.00
75.28
80.15
82.83
83.70
83.30
82.14
80.56
78.67
76.44
73.88
71.17
68.65
66.60
65.09
63.79
62.03
59.05
54.31
47.71
39.71
31.10
22.70
15.02
8.07
1.43
-5.52
-13.27
-21.86
-30.93
-39.79
-47.82
-54.74
-60.78
-66.67
-73.41
-81.99
-92.93
-105.83
-119.20
-130.48
-136.65
-135.04
-124.36
-105.17
-79.84
-51.76
-24.29
0.09
20.26
36.15
48.29
57.20
63.18
66.34
66.89
65.33
62.46
59.27
56.60
54.93
54.23
54.10
53.90
53.13
51.52
49.11
46.16
42.89
39.37
35.43
30.68
24.79
17.50
8.89
-0.66
-10.55
-20.13
-28.89
-36.61
-43.48
-49.99
-56.88
-64.90
-74.62
-86.19
-98.95
-111.38
-121.09
-125.41
-122.09
-110.13
-90.29
-64.91
-37.23
-10.46
13.11
32.44
47.53
58.92
67.16
72.58
75.31
75.58
73.87
70.91
67.59
64.64
62.53
61.31
60.72
60.28
59.48
57.92
55.37
51.82
47.46
42.53
37.24
31.63
25.49
18.50
10.35
0.94
-9.45
-20.27
-30.88
-40.74
-49.64
-57.75
-65.57
-73.77
-83.10
-94.13
-107.03
-121.17
-134.90
-145.60
-150.25
-146.33
-132.77
-110.43
-81.93
-50.82
-20.47
6.72
29.73
48.57
63.77
75.87
85.18
91.85
96.03
98.01
98.26
97.33
95.72
93.79
91.78
89.81
87.91
86.06
84.11
81.81
78.80
74.78
69.57
63.19
55.89
47.94
39.59
30.91
21.89
12.49
2.78
-7.00
-16.54
-25.59
-34.03
-41.98
-49.76
-57.85
-66.82
-77.25
-89.45
-103.15
-117.07
-128.87
-135.55
-134.23
-123.28
-102.98
-75.66
-44.98
-14.82
11.85
33.58
50.32
62.89
72.24
79.07
83.69
86.20
86.85
86.05
84.40
82.44
80.50
78.64
76.79
74.86
72.84
70.80
68.71
66.39
63.44
59.44
54.05
47.26
39.37
30.91
22.38
14.07
5.98
-2.17
-10.64
-19.55
-28.71
-37.71
-46.11
-53.66
-60.46
-67.05
-74.22
-82.83
-93.43
-105.80
-118.63
-129.55
-135.56
-133.96
-123.26
-103.90
-78.20
-49.57
-21.53
3.37
23.91
40.04
52.33
61.38
67.55
71.01
71.94
70.72
68.02
64.59
61.23
58.48
56.64
55.68
55.33
55.17
54.69
53.47
51.18
47.68
42.99
37.26
30.72
23.58
16.01
8.07
-0.24
-8.97
-18.08
-27.42
-36.70
-45.57
-53.81
-61.39
-68.61
-76.10
-84.66
-95.00
-107.38
-121.17
-134.63
-145.10
-149.53
-145.49
-132.06
-110.19
-82.54
-52.54
-23.42
2.61
24.59
42.58
57.08
68.61
77.49
83.87
87.92
89.94
90.38
89.75
88.50
86.92
85.11
83.12
80.97
78.79
76.72
74.83
72.96
70.66
67.31
62.34
55.52
47.16
37.97
28.86
20.49
12.99
5.90
-1.59
-10.19
-20.13
-30.96
-41.80
-51.67
-60.05
-67.06
-73.50
-80.54
-89.36
-100.67
-114.39
-129.38
-143.40
-153.45
-156.50
-150.34
-134.40
-110.08
-80.35
-48.89
-18.96
7.38
29.41
47.45
62.19
74.21
83.72
90.71
95.17
97.36
97.86
97.36
96.45
95.43
94.30
92.87
90.96
88.63
86.14
83.76
81.57
79.27
76.22
71.70
65.29
57.08
47.75
38.29
29.63
22.22
15.90
9.95
3.40
-4.47
-13.90
-24.50
-35.41
-45.70
-54.74
-62.45
-69.28
-76.16
-84.11
-94.03
-106.31
-120.52
-135.15
-147.65
-154.90
-154.06
-143.58
-123.88
-97.32
-67.49
-38.07
-11.74
10.22
27.86
41.89
53.00
61.61
67.78
71.56
73.16
73.13
72.13
70.82
69.62
68.65
67.86
67.09
66.27
65.34
64.24
62.81
60.73
57.65
53.36
47.89
41.52
34.64
27.54
20.27
12.67
4.53
-4.23
-13.45
-22.74
-31.66
-39.85
-47.23
-54.01
-60.77
-68.29
-77.35
-88.37
-100.90
-113.42
-123.41
-127.99
-124.81
-112.87
-92.95
-67.39
-39.32
-11.81
12.87
33.48
49.69
61.78
70.26
75.69
78.60
79.52
79.02
77.62
75.79
73.91
72.19
70.73
69.51
68.50
67.60
66.68
65.49
63.69
60.83
56.54
50.66
43.35
35.02
26.25
17.47
8.85
0.26
-8.59
-17.95
-27.79
-37.74
-47.33
-56.13
-64.01
-71.22
-78.34
-86.22
-95.71
-107.42
-121.27
-136.09
-149.50
-158.28
-159.27
-150.47
-131.81
-105.37
-74.67
-43.51
-14.87
9.74
30.12
46.84
60.60
71.78
80.44
86.55
90.21
91.78
91.83
90.92
89.47
87.69
85.63
83.37
81.13
79.23
77.97
77.37
77.00
76.00
73.42
68.57
61.34
52.33
42.57
33.08
24.51
16.82
9.42
1.50
-7.57
-17.90
-29.04
-40.20
-50.61
-59.80
-67.87
-75.42
-83.39
-92.82
-104.43
-118.20
-133.06
-146.74
-156.18
-158.28
-150.91
-133.76
-108.52
-78.43
-47.20
-18.00
7.28
28.08
44.77
57.98
68.27
75.93
81.17
84.27
85.64
85.79
85.12
83.90
82.19
80.00
77.39
74.57
71.86
69.47
67.41
65.33
62.63
58.69
53.13
46.07
38.05
29.88
22.26
15.52
9.40
3.25
-3.62
-11.66
-20.75
-30.33
-39.60
-47.97
-55.18
-61.53
-67.71
-74.63
-83.21
-93.96
-106.64
-119.84
-131.09
-137.24
-135.46
-124.26
-104.15
-77.58
-48.15
-19.45
5.92
26.76
43.04
55.30
64.07
69.65
72.22
72.08
69.83
66.36
62.64
59.45
57.20
55.90
55.25
54.79
54.14
52.99
51.19
48.66
45.34
41.23
36.31
30.65
24.26
17.19
9.49
1.18
-7.61
-16.72
-25.82
-34.55
-42.65
-50.03
-56.87
-63.61
-70.96
-79.69
-90.45
-103.33
-117.57
-131.34
-141.91
-146.38
-142.48
-129.44
-108.31
-81.66
-52.80
-24.81
0.15
21.14
38.12
51.56
61.98
69.75
75.08
78.20
79.45
79.29
78.34
77.14
76.11
75.44
75.14
75.10
75.15
75.09
74.65
73.44
71.03
67.04
61.40
54.35
46.44
38.28
30.25
22.37
14.31
5.64
-3.88
-14.10
-24.54
-34.55
-43.63
-51.64
-58.90
-66.10
-74.20
-84.07
-96.14
-110.00
-124.08
-135.74
-141.88
-139.87
-128.53
-108.65
-82.79
-54.39
-26.62
-1.59
19.93
38.12
53.46
66.23
76.41
83.88
88.72
91.32
92.33
92.33
91.77
90.78
89.34
87.45
85.24
82.97
80.94
79.32
77.99
76.53
74.31
70.71
65.37
58.40
50.33
41.97
34.06
27.02
20.76
14.78
8.45
1.23
-6.96
-15.79
-24.63
-32.87
-40.25
-46.89
-53.41
-60.63
-69.39
-80.26
-93.14
-107.08
-120.07
-129.44
-132.45
-127.22
-113.37
-92.28
-66.62
-39.52
-13.66
9.29
28.67
44.49
57.00
66.40
72.86
76.64
78.24
78.36
77.79
77.10
76.60
76.30
76.02
75.60
75.00
74.30
73.61
72.92
72.00
70.39
67.60
63.28
57.45
50.43
42.83
35.28
28.19
21.65
15.39
8.97
2.04
-5.53
-13.51
-21.43
-28.78
-35.24
-40.84
-45.95
-51.24
-57.47
-65.31
-75.03
-86.21
-97.54
-106.89
-111.77
-110.02
-100.58
-83.94
-62.10
-37.91
-14.23
6.81
24.13
37.59
47.52
54.37
58.45
60.03
59.48
57.38
54.50
51.63
49.32
47.81
47.03
46.72
46.62
46.53
46.33
45.87
44.89
43.03
39.93
35.41
29.58
22.90
15.99
9.42
3.48
-2.02
-7.53
-13.58
-20.48
-28.09
-35.93
-43.41
-50.15
-56.22
-62.20
-69.00
-77.52
-88.23
-100.80
-113.83
-125.02
-131.59
-131.14
-122.36
-105.63
-82.86
-56.99
-31.01
-7.24
13.04
29.60
42.78
53.07
60.90
66.50
70.08
71.91
72.41
72.05
71.26
70.34
69.37
68.36
67.27
66.14
65.08
64.19
63.40
62.37
60.55
57.35
52.41
45.80
38.05
29.92
22.14
15.02
8.37
1.69
-5.63
-13.91
-23.04
-32.47
-41.50
-49.60
-56.61
-62.84
-68.97
-75.91
-84.50
-95.23
-107.83
-121.03
-132.53
-139.51
-139.38
-130.70
-113.76
-90.54
-64.09
-37.50
-13.12
7.92
25.53
40.17
52.32
62.22
69.84
75.13
78.26
79.67
79.99
79.78
79.34
78.68
77.59
75.91
73.67
71.21
68.93
67.11
65.68
64.16
61.83
58.02
52.45
45.36
37.42
29.49
22.21
15.78
9.87
3.82
-3.01
-10.96
-19.85
-29.10
-38.00
-45.97
-52.83
-58.88
-64.76
-71.29
-79.29
-89.33
-101.40
-114.66
-127.34
-136.88
-140.56
-136.28
-123.35
-102.84
-77.28
-49.88
-23.62
-0.53
18.55
33.72
45.57
54.72
61.58
66.41
69.41
70.82
71.04
70.53
69.71
68.88
68.15
67.48
66.78
66.04
65.27
64.51
63.70
62.55
60.62
57.47
52.81
46.75
39.74
32.43
25.35
18.73
12.39
5.92
-1.04
-8.62
-16.57
-24.44
-31.75
-38.29
-44.23
-50.10
-56.73
-64.90
-75.03
-86.80
-98.87
-109.00
-114.58
-113.36
-104.29
-87.93
-66.31
-42.24
-18.54
2.72
20.45
34.43
44.96
52.42
57.17
59.49
59.71
58.29
55.86
53.10
50.62
48.84
47.88
47.60
47.60
47.43
46.70
45.25
43.08
40.33
37.10
33.37
29.02
23.84
17.75
10.80
3.20
-4.79
-12.96
-21.20
-29.42
-37.53
-45.41
-53.00
-60.39
-67.97
-76.33
-86.02
-97.17
-109.03
-119.90
-127.35
-128.92
-122.94
-109.13
-88.80
-64.43
-38.92
-14.74
6.56
24.44
39.07
50.87
60.21
67.30
72.27
75.34
76.79
77.04
76.46
75.37
73.96
72.39
70.81
69.33
68.05
66.87
65.53
63.61
60.63
56.26
50.45
43.47
35.81
28.02
20.47
13.21
5.99
-1.62
-9.95
-19.03
-28.55
-38.01
-46.89
-54.93
-62.25
-69.36
-77.02
-86.07
-97.10
-109.98
-123.55
-135.58
-143.13
-143.45
-134.94
-117.78
-94.02
-66.88
-39.69
-14.99
6.05
23.39
37.69
49.67
59.77
68.11
74.64
79.41
82.59
84.51
85.49
85.77
85.41
84.41
82.81
80.75
78.51
76.39
74.57
72.97
71.22
68.75
65.00
59.63
52.70
44.69
36.35
28.47
21.52
15.48
9.84
3.84
-3.23
-11.59
-20.91
-30.42
-39.24
-46.79
-53.04
-58.57
-64.36
-71.45
-80.65
-92.14
-105.24
-118.33
-129.05
-134.77
-133.33
-123.73
-106.54
-83.76
-58.25
-32.83
-9.62
10.29
26.75
40.08
50.68
58.80
64.54
68.03
69.59
69.71
68.95
67.78
66.49
65.16
63.79
62.40
61.12
60.11
59.43
58.92
58.17
56.64
53.77
49.28
43.24
36.11
28.60
21.40
14.91
9.05
3.32
-2.94
-10.17
-18.36
-27.02
-35.38
-42.78
-48.99
-54.30
-59.46
-65.39
-72.97
-82.55
-93.78
-105.31
-114.96
-120.15
-118.60
-109.16
-92.28
-69.87
-44.74
-19.77
2.88
22.01
37.35
49.07
57.53
63.01
65.81
66.36
65.27
63.33
61.30
59.71
58.78
58.38
58.24
58.10
57.93
57.82
57.89
58.06
57.93
56.88
54.30
49.90
43.82
36.65
29.17
21.99
15.43
9.31
3.21
-3.40
-10.86
-19.16
-27.96
-36.69
-44.74
-51.77
-57.83
-63.42
-69.42
-76.81
-86.37
-98.23
-111.58
-124.58
-134.63
-138.99
-135.62
-123.85
-104.68
-80.43
-54.07
-28.26
-4.82
15.48
32.66
47.05
58.94
68.47
75.62
80.46
83.26
84.45
84.57
84.09
83.31
82.32
81.11
79.65
77.95
76.13
74.29
72.43
70.39
67.82
64.32
59.55
53.41
46.12
38.16
30.15
22.61
15.77
9.47
3.24
-3.49
-11.11
-19.67
-28.80
-37.88
-46.22
-53.37
-59.34
-64.59
-69.95
-76.46
-84.99
-95.91
-108.77
-122.05
-133.34
-139.76
-138.85
-129.30
-111.58
-87.79
-61.06
-34.55
-10.57
9.83
26.72
40.68
52.26
61.66
68.78
73.51
76.04
76.87
76.71
76.15
75.50
74.76
73.74
72.34
70.63
68.87
67.36
66.26
65.43
64.42
62.62
59.46
54.63
48.27
40.91
33.28
26.13
19.86
14.47
9.52
4.39
-1.50
-8.39
-16.13
-24.23
-32.08
-39.23
-45.51
-51.11
-56.51
-62.38
-69.37
-78.03
-88.42
-99.89
-110.87
-119.03
-121.82
-117.29
-104.89
-85.68
-62.11
-37.19
-13.58
6.93
23.64
36.59
46.12
52.57
56.21
57.41
56.72
54.87
52.70
50.85
49.62
48.96
48.58
48.18
47.67
47.18
46.95
47.05
47.22
46.87
45.27
41.91
36.69
30.05
22.74
15.57
9.09
3.38
-1.90
-7.30
-13.33
-20.20
-27.69
-35.29
-42.41
-48.68
-54.13
-59.28
-64.97
-72.17
-81.50
-92.95
-105.52
-117.21
-125.37
-127.35
-121.39
-107.22
-86.27
-61.23
-35.23
-10.92
10.09
27.26
40.85
51.36
59.23
64.71
68.00
69.41
69.44
68.76
67.95
67.33
66.87
66.29
65.26
63.61
61.48
59.23
57.25
55.61
53.98
51.72
48.11
42.77
35.80
27.82
19.69
12.14
5.50
-0.44
-6.27
-12.72
-20.26
-28.89
-38.14
-47.27
-55.61
-62.82
-69.06
-74.94
-81.34
-89.17
-98.99
-110.74
-123.41
-135.04
-142.98
-144.56
-137.90
-122.59
-99.98
-72.74
-44.09
-16.90
6.97
26.75
42.61
55.09
64.78
72.07
77.20
80.36
81.83
82.04
81.50
80.69
79.92
79.30
78.73
78.05
77.15
76.10
74.97
73.82
72.48
70.60
67.73
63.46
57.67
50.56
42.70
34.86
27.76
21.76
16.68
11.84
6.33
-0.60
-9.13
-18.77
-28.55
-37.50
-45.10
-51.43
-57.21
-63.43
-71.00
-80.52
-92.00
-104.80
-117.45
-127.76
-133.21
-131.53
-121.54
-103.60
-79.68
-52.80
-26.09
-1.99
18.20
34.23
46.47
55.50
61.74
65.52
67.19
67.22
66.20
64.75
63.35
62.27
61.59
61.26
61.17
61.24
61.28
61.11
60.46
59.05
56.60
52.97
48.16
42.36
35.87
29.02
21.99
14.84
7.50
-0.15
-8.11
-16.22
-24.16
-31.62
-38.41
-44.59
-50.51
-56.75
-64.01
-72.86
-83.42
-95.03
-106.09
-114.19
-116.76
-111.84
-98.91
-79.07
-54.85
-29.35
-5.36
15.25
31.76
44.26
53.27
59.30
62.75
63.95
63.32
61.42
58.91
56.39
54.26
52.64
51.48
50.65
50.06
49.61
49.19
48.52
47.22
44.89
41.29
36.44
30.62
24.25
17.67
11.04
4.25
-2.96
-10.82
-19.41
-28.56
-37.92
-47.04
-55.59
-63.43
-70.71
-77.96
-85.90
-95.32
-106.59
-119.25
-131.71
-141.40
-145.37
-141.27
-128.24
-107.27
-80.94
-52.57
-25.20
-0.88
19.53
36.09
49.31
59.71
67.68
73.47
77.31
79.54
80.57
80.81
80.53
79.90
78.91
77.59
76.03
74.46
73.10
71.99
70.88
69.24
66.41
61.92
55.72
48.19
39.98
31.76
23.95
16.60
9.42
1.97
-6.09
-14.81
-23.89
-32.83
-41.11
-48.44
-54.90
-61.03
-67.68
-75.77
-86.00
-98.39
-111.97
-124.63
-133.55
-135.86
-129.63
-114.54
-92.10
-65.21
-37.19
-10.86
12.10
31.14
46.51
58.72
68.15
75.01
79.45
81.76
82.37
81.91
80.89
79.68
78.37
76.88
75.10
73.02
70.84
68.85
67.27
66.05
64.78
62.83
59.52
54.45
47.66
39.68
31.33
23.42
16.47
10.47
4.94
-0.83
-7.48
-15.26
-23.92
-32.80
-41.15
-48.43
-54.58
-60.04
-65.65
-72.38
-81.04
-91.97
-104.69
-117.75
-128.82
-135.15
-134.31
-124.99
-107.52
-83.86
-57.01
-30.12
-5.67
14.97
31.49
44.22
53.73
60.52
64.92
67.19
67.67
66.85
65.36
63.85
62.77
62.33
62.43
62.77
63.03
62.97
62.47
61.46
59.85
57.46
54.09
49.60
43.99
37.37
29.98
22.00
13.63
5.06
-3.47
-11.68
-19.35
-26.39
-32.93
-39.30
-46.00
-53.64
-62.70
-73.36
-85.16
-96.79
-106.16
-110.84
-108.73
-98.88
-81.83
-59.61
-35.09
-11.17
9.96
27.20
40.46
50.26
57.24
61.86
64.37
64.93
63.85
61.69
59.18
57.04
55.67
55.09
54.96
54.87
54.45
53.55
52.14
50.20
47.60
44.15
39.72
34.29
28.03
21.12
13.73
5.93
-2.20
-10.59
-19.05
-27.35
-35.31
-42.83
-50.02
-57.15
-64.68
-73.19
-83.23
-94.97
-107.82
-120.21
-129.65
-133.41
-129.36
-116.79
-96.80
-71.95
-45.39
-19.94
2.59
21.59
37.26
50.15
60.74
69.24
75.69
80.08
82.51
83.20
82.51
80.86
78.64
76.26
74.00
72.11
70.66
69.57
68.52
67.06
64.70
61.02
55.93
49.59
42.44
34.97
27.54
20.24
12.85
5.07
-3.35
-12.37
-21.66
-30.70
-39.02
-46.43
-53.15
-59.81
-67.32
-76.53
-87.86
-100.88
-114.13
-125.18
-131.22
-129.86
-119.99
-102.20
-78.64
-52.35
-26.33
-2.77
17.23
33.58
46.70
57.11
65.20
71.19
75.26
77.65
78.67
78.69
78.03
76.87
75.34
73.49
71.47
69.49
67.83
66.63
65.78
64.81
63.02
59.72
54.55
47.65
39.69
31.56
24.01
17.35
11.39
5.52
-0.90
-8.29
-16.61
-25.41
-34.02
-41.84
-48.61
-54.55
-60.31
-66.80
-74.89
-85.04
-96.95
-109.29
-119.84
-125.93
-125.19
-116.40
-99.94
-77.75
-52.75
-27.96
-5.67
12.90
27.55
38.68
46.81
52.35
55.52
56.58
55.92
54.17
52.06
50.29
49.29
49.11
49.44
49.79
49.67
48.81
47.21
45.07
42.64
39.98
36.89
32.96
27.71
20.90
12.65
3.50
-5.79
-14.51
-22.23
-28.98
-35.17
-41.42
-48.39
-56.62
-66.44
-77.77
-89.86
-101.21
-109.63
-112.71
-108.59
-96.69
-77.96
-54.74
-30.04
-6.59
13.76
30.35
43.39
53.48
61.16
66.69
70.10
71.38
70.73
68.61
65.68
62.62
59.94
57.86
56.31
55.00
53.56
51.68
49.16
45.94
42.06
37.59
32.58
27.01
20.78
13.78
5.94
-2.67
-11.77
-21.02
-30.03
-38.57
-46.62
-54.36
-62.18
-70.57
-80.03
-90.96
-103.34
-116.50
-128.84
-138.02
-141.50
-137.32
-124.87
-105.15
-80.55
-54.02
-28.20
-4.83
15.36
32.47
46.85
58.85
68.62
76.23
81.80
85.53
87.76
88.82
88.95
88.27
86.79
84.56
81.77
78.77
75.97
73.64
71.70
69.68
66.85
62.51
56.35
48.59
39.92
31.21
23.09
15.74
8.81
1.65
-6.31
-15.30
-25.06
-35.00
-44.39
-52.76
-60.03
-66.64
-73.38
-81.21
-90.93
-102.83
-116.31
-129.74
-140.63
-146.18
-144.12
-133.42
-114.76
-90.32
-63.08
-36.00
-11.22
10.17
28.04
42.74
54.70
64.15
71.22
76.00
78.77
80.01
80.26
79.98
79.38
78.45
77.09
75.31
73.35
71.55
70.24
69.41
68.70
67.38
64.72
60.25
54.02
46.57
38.76
31.40
24.92
19.18
13.58
7.34
-0.07
-8.69
-17.98
-27.03
-35.03
-41.58
-46.85
-51.60
-56.87
-63.70
-72.73
-83.96
-96.46
-108.33
-117.05
-119.99
-115.27
-102.43
-82.68
-58.55
-33.16
-9.27
11.30
27.89
40.72
50.39
57.49
62.36
65.19
66.12
65.44
63.63
61.28
58.94
56.97
55.50
54.48
53.73
53.09
52.38
51.40
49.86
47.43
43.79
38.81
32.63
25.62
18.26
10.90
3.68
-3.55
-11.08
-19.12
-27.61
-36.20
-44.42
-51.90
-58.64
-65.09
-72.04
-80.39
-90.73
-102.95
-116.02
-127.90
-135.96
-137.59
-131.05
-116.08
-94.06
-67.66
-40.01
-13.81
9.21
28.48
44.21
57.00
67.33
75.45
81.44
85.35
87.34
87.76
87.01
85.51
83.52
81.22
78.74
76.24
73.94
71.96
70.27
68.50
66.04
62.22
56.65
49.41
41.08
32.54
24.53
17.42
10.99
4.62
-2.45
-10.72
-20.23
-30.50
-40.76
-50.23
-58.44
-65.41
-71.66
-78.11
-85.80
-95.58
-107.67
-121.24
-134.40
-144.36
-148.20
-143.73
-130.29
-109.07
-82.71
-54.51
-27.41
-3.29
17.16
34.15
48.19
59.69
68.75
75.35
79.53
81.62
82.20
81.92
81.30
80.54
79.61
78.37
76.79
74.99
73.28
71.91
70.88
69.89
68.30
65.44
60.79
54.33
46.50
38.11
30.02
22.79
16.48
10.68
4.71
-2.08
-9.95
-18.73
-27.84
-36.62
-44.53
-51.40
-57.50
-63.45
-70.09
-78.26
-88.48
-100.56
-113.35
-124.71
-131.87
-132.23
-124.17
-107.74
-84.66
-57.83
-30.43
-5.04
16.87
34.84
49.07
59.92
67.67
72.46
74.57
74.45
72.84
70.60
68.43
66.73
65.54
64.66
63.78
62.68
61.20
59.26
56.76
53.58
49.62
44.85
39.29
33.03
26.13
18.65
10.63
2.14
-6.68
-15.62
-24.51
-33.20
-41.64
-49.86
-58.04
-66.51
-75.75
-86.32
-98.47
-111.80
-124.87
-135.33
-140.35
-137.53
-125.78
-105.79
-79.90
-51.40
-23.54
1.23
21.70
37.76
49.92
58.87
65.15
69.07
70.86
70.79
69.25
66.84
64.12
61.58
59.45
57.80
56.53
55.50
54.52
53.45
52.03
50.01
47.07
43.02
37.80
31.57
24.61
17.20
9.47
1.43
-7.07
-16.12
-25.69
-35.56
-45.38
-54.74
-63.42
-71.49
-79.40
-87.98
-98.11
-110.30
-124.10
-137.80
-148.55
-153.10
-148.82
-134.75
-111.97
-83.30
-52.36
-22.51
3.98
26.18
44.15
58.42
69.61
78.11
84.19
88.08
90.00
90.26
89.22
87.26
84.80
82.27
80.07
78.50
77.69
77.52
77.62
77.36
76.04
73.05
68.02
61.00
52.41
42.84
32.92
23.04
13.31
3.63
-6.15
-16.10
-26.08
-35.86
-45.17
-53.85
-61.97
-69.88
-78.18
-87.57
-98.62
-111.25
-124.42
-135.95
-142.96
-142.61
-133.16
-114.65
-89.01
-59.50
-29.64
-2.30
20.90
39.58
54.16
65.32
73.58
79.23
82.47
83.54
82.88
81.10
78.86
76.72
75.02
73.84
73.02
72.29
71.35
69.95
67.91
65.16
61.67
57.41
52.35
46.42
39.64
32.04
23.74
14.93
5.85
-3.29
-12.27
-20.91
-29.07
-36.73
-43.94
-51.00
-58.43
-66.90
-76.97
-88.62
-100.89
-111.72
-118.32
-117.96
-108.95
-91.38
-67.19
-39.63
-12.20
12.39
32.71
48.52
60.24
68.40
73.29
75.06
73.98
70.68
66.12
61.41
57.48
54.79
53.33
52.76
52.59
52.36
51.73
50.46
48.36
45.29
41.15
35.98
29.86
22.94
15.29
6.96
-2.03
-11.61
-21.55
-31.51
-41.08
-49.98
-58.14
-65.82
-73.52
-81.92
-91.72
-103.32
-116.48
-130.04
-141.81
-148.97
-148.80
-139.58
-121.33
-95.89
-66.39
-36.32
-8.57
15.15
34.30
49.23
60.58
68.98
74.87
78.56
80.31
80.47
79.44
77.64
75.49
73.32
71.40
69.87
68.74
67.87
66.95
65.55
63.25
59.80
55.12
49.41
42.90
35.82
28.21
20.04
11.22
1.78
-8.10
-18.13
-27.97
-37.35
-46.18
-54.57
-62.88
-71.71
-81.76
-93.62
-107.23
-121.55
-134.38
-142.78
-143.83
-135.68
-118.26
-93.39
-64.20
-34.17
-6.16
18.13
38.20
54.28
66.85
76.31
82.92
86.93
88.73
88.89
88.02
86.62
84.96
83.10
80.99
78.64
76.18
73.80
71.56
69.35
66.76
63.26
58.39
51.96
44.15
35.43
26.45
17.69
9.42
1.52
-6.41
-14.76
-23.72
-33.12
-42.46
-51.17
-58.88
-65.64
-72.03
-78.98
-87.50
-98.28
-111.16
-124.84
-136.85
-144.07
-143.55
-133.59
-114.43
-88.24
-58.49
-28.79
-1.97
20.51
38.42
52.22
62.54
69.83
74.33
76.28
76.08
74.32
71.73
69.07
66.86
65.40
64.67
64.45
64.41
64.17
63.43
61.96
59.64
56.40
52.25
47.24
41.45
34.93
27.78
20.13
12.12
3.99
-4.10
-12.01
-19.73
-27.31
-34.82
-42.37
-50.15
-58.57
-68.15
-79.31
-91.90
-104.71
-115.50
-121.37
-119.71
-109.21
-90.39
-65.57
-38.07
-11.20
12.64
32.31
47.73
59.39
67.79
73.23
75.93
76.16
74.47
71.65
68.53
65.79
63.77
62.44
61.57
60.89
60.18
59.26
58.00
56.13
53.34
49.33
43.98
37.41
29.96
22.08
14.08
6.06
-2.10
-10.63
-19.66
-29.11
-38.73
-48.13
-57.03
-65.36
-73.36
-81.62
-90.96
-102.13
-115.36
-129.85
-143.58
-153.58
-156.70
-150.68
-134.99
-111.08
-81.91
-50.95
-21.25
5.25
27.78
46.39
61.53
73.62
82.96
89.74
94.17
96.47
97.01
96.17
94.37
91.95
89.20
86.38
83.69
81.30
79.31
77.59
75.75
73.21
69.31
63.65
56.28
47.67
38.60
29.73
21.39
13.40
5.24
-3.67
-13.62
-24.47
-35.62
-46.36
-56.10
-64.70
-72.54
-80.42
-89.37
-100.26
-113.44
-128.31
-143.14
-155.26
-161.65
-159.83
-148.72
-129.11
-103.38
-74.84
-46.62
-20.98
1.10
19.62
35.17
48.31
59.43
68.60
75.76
80.86
84.01
85.47
85.64
84.97
83.83
82.55
81.35
80.37
79.69
79.24
78.73
77.67
75.51
71.77
66.36
59.58
52.04
44.39
37.03
29.94
22.74
14.91
6.18
-3.40
-13.36
-23.08
-32.03
-40.00
-47.20
-54.23
-61.95
-71.15
-82.23
-94.83
-107.49
-117.84
-123.06
-120.72
-109.74
-90.77
-66.15
-39.15
-12.89
10.38
29.67
44.97
56.74
65.43
71.30
74.50
75.34
74.39
72.46
70.35
68.67
67.62
67.09
66.78
66.38
65.66
64.48
62.75
60.28
56.88
52.41
46.83
40.32
33.14
25.57
17.69
9.49
0.86
-8.24
-17.66
-27.11
-36.24
-44.83
-52.91
-60.80
-69.02
-78.22
-88.93
-101.27
-114.66
-127.55
-137.57
-142.01
-138.63
-126.49
-106.41
-80.76
-52.74
-25.45
-1.00
19.69
36.72
50.63
61.91
70.77
77.19
81.23
83.17
83.58
83.13
82.37
81.60
80.80
79.84
78.58
77.04
75.33
73.53
71.52
68.92
65.19
59.89
52.89
44.53
35.52
26.70
18.65
11.48
4.78
-2.09
-9.77
-18.50
-28.08
-37.92
-47.31
-55.72
-62.99
-69.51
-76.07
-83.76
-93.53
-105.71
-119.55
-133.01
-143.09
-146.68
-141.54
-127.19
-105.09
-78.13
-49.70
-22.64
1.31
21.58
38.35
52.07
63.12
71.68
77.89
81.97
84.26
85.20
85.21
84.66
83.75
82.59
81.17
79.54
77.72
75.85
74.05
72.37
70.67
68.64
65.82
61.79
56.32
49.50
41.76
33.75
26.11
19.23
13.07
7.22
1.05
-5.97
-14.02
-22.85
-31.87
-40.40
-48.01
-54.66
-60.73
-66.88
-73.87
-82.39
-92.84
-105.08
-118.20
-130.34
-138.94
-141.34
-135.61
-121.34
-99.89
-73.98
-46.84
-21.25
1.10
19.65
34.62
46.42
55.39
61.69
65.49
67.13
67.15
66.20
64.84
63.47
62.26
61.23
60.38
59.70
59.16
58.69
58.11
57.10
55.28
52.33
48.08
42.61
36.24
29.38
22.40
15.50
8.63
1.62
-5.71
-13.38
-21.20
-28.81
-35.90
-42.33
-48.18
-53.92
-60.24
-67.94
-77.54
-88.93
-100.98
-111.56
-117.91
-117.48
-108.83
-92.21
-69.60
-44.04
-18.69
4.08
23.02
37.99
49.42
57.80
63.50
66.72
67.69
66.84
64.77
62.17
59.56
57.25
55.27
53.61
52.21
51.11
50.29
49.57
48.59
46.82
43.77
39.21
33.28
26.40
19.16
12.00
5.10
-1.70
-8.76
-16.41
-24.77
-33.63
-42.56
-51.04
-58.76
-65.74
-72.46
-79.76
-88.54
-99.42
-112.26
-125.84
-137.92
-145.67
-146.43
-138.62
-122.25
-98.98
-71.61
-43.25
-16.57
6.79
26.17
41.73
54.00
63.54
70.79
76.00
79.28
80.77
80.70
79.39
77.33
74.92
72.52
70.34
68.46
66.87
65.44
63.91
61.89
58.97
54.80
49.33
42.79
35.61
28.24
20.94
13.65
6.10
-1.98
-10.68
-19.86
-29.15
-38.12
-46.52
-54.28
-61.69
-69.29
-77.82
-87.95
-99.88
-112.92
-125.24
-134.15
-136.72
-130.86
-116.13
-93.99
-67.40
-39.79
-14.07
8.02
26.05
40.42
51.81
60.75
67.47
71.98
74.36
74.82
73.84
71.97
69.80
67.72
65.93
64.41
62.99
61.49
59.70
57.53
54.86
51.60
47.67
42.99
37.54
31.33
24.42
16.90
8.91
0.65
-7.67
-15.80
-23.58
-30.91
-37.86
-44.68
-51.78
-59.71
-68.98
-79.81
-91.71
-103.30
-112.35
-116.31
-113.07
-101.78
-83.26
-59.79
-34.36
-9.87
11.67
29.35
43.13
53.36
60.41
64.52
65.90
64.97
62.48
59.42
56.79
55.31
55.15
55.95
56.97
57.41
56.72
54.79
51.92
48.57
45.09
41.52
37.48
32.41
25.79
17.47
7.79
-2.53
-12.68
-22.02
-30.33
-37.85
-45.12
-52.84
-61.64
-71.96
-83.87
-96.92
-109.90
-120.81
-127.20
-126.79
-118.19
-101.54
-78.58
-52.17
-25.46
-0.99
19.82
36.70
50.12
60.74
69.01
75.03
78.75
80.19
79.67
77.86
75.52
73.31
71.58
70.31
69.18
67.87
66.13
63.86
61.06
57.69
53.69
48.95
43.41
37.10
30.11
22.50
14.27
5.41
-4.07
-13.94
-23.84
-33.32
-42.04
-49.97
-57.38
-64.90
-73.34
-83.47
-95.65
-109.47
-123.46
-135.24
-141.90
-140.93
-131.05
-112.75
-88.19
-60.53
-32.95
-7.80
13.77
31.63
46.27
58.22
67.80
75.11
80.17
83.12
84.31
84.26
83.45
82.25
80.76
78.88
76.54
73.77
70.79
67.89
65.20
62.49
59.27
54.91
48.97
41.44
32.79
23.77
15.19
7.52
0.76
-5.53
-12.00
-19.17
-27.17
-35.66
-43.94
-51.34
-57.41
-62.26
-66.44
-70.94
-76.82
-84.98
-95.79
-108.67
-121.96
-133.00
-138.72
-136.53
-125.28
-105.64
-79.97
-51.55
-23.53
1.81
23.39
41.11
55.35
66.63
75.27
81.52
85.59
87.76
88.42
88.03
87.00
85.67
84.21
82.73
81.24
79.73
78.20
76.58
74.69
72.24
68.85
64.22
58.30
51.32
43.76
36.15
28.91
22.10
15.47
8.58
1.06
-7.18
-15.90
-24.57
-32.66
-39.80
-46.04
-51.85
-58.04
-65.56
-75.05
-86.46
-98.72
-109.73
-116.76
-117.25
-109.67
-94.12
-72.31
-47.09
-21.55
1.84
21.61
37.30
49.13
57.58
63.12
66.16
67.10
66.42
64.73
62.65
60.69
59.10
57.91
56.95
56.02
55.04
54.02
52.99
51.85
50.28
47.85
44.14
38.95
32.43
25.05
17.39
9.99
3.08
-3.41
-9.89
-16.81
-24.51
-32.95
-41.75
-50.31
-58.04
-64.77
-70.77
-76.76
-83.73
-92.56
-103.71
-116.82
-130.51
-142.43
-149.71
-149.72
-140.93
-123.51
-99.35
-71.53
-43.31
-17.24
5.38
24.37
40.27
53.71
64.99
74.09
80.84
85.20
87.42
88.08
87.88
87.37
86.85
86.30
85.53
84.37
82.86
81.21
79.72
78.49
77.31
75.64
72.83
68.36
62.13
54.49
46.19
38.07
30.74
24.42
18.82
13.31
7.24
0.15
-7.97
-16.66
-25.25
-33.05
-39.71
-45.32
-50.38
-55.70
-62.11
-70.34
-80.65
-92.60
-104.73
-114.74
-119.79
-117.34
-106.04
-86.19
-59.79
-29.86
0.46
28.79
53.79
75.06
92.68
106.72
117.07
123.52
125.96
124.64
120.20
113.55
105.69
97.47
89.40
81.77
74.68
68.21
62.52
57.88
54.47
52.23
50.77
49.41
47.40
44.13
39.37
33.31
26.44
19.36
12.58
6.33
0.50
-5.21
-11.24
-17.95
-25.51
-33.79
-42.44
-50.91
-58.68
-65.45
-71.20
-76.37
-81.69
-88.09
-96.43
-107.10
-119.70
-132.72
-143.77
-149.93
-148.66
-138.62
-120.14
-95.28
-67.20
-39.21
-13.92
7.20
23.83
36.38
45.49
51.74
55.52
57.18
57.14
55.97
54.22
52.36
50.55
48.79
46.97
45.08
43.28
41.76
40.58
39.47
37.84
34.98
30.33
23.74
15.57
6.52
-2.61
-11.27
-19.32
-27.03
-34.97
-43.65
-53.25
-63.46
-73.61
-82.91
-90.89
-97.60
-103.61
-109.95
-117.68
-127.47
-139.16
-151.46
-162.02
-167.87
-166.23
-155.49
-135.77
-109.10
-78.69
-48.01
-19.84
4.29
24.00
39.65
51.78
60.86
67.18
71.03
72.85
73.23
72.84
72.22
71.65
71.16
70.54
69.64
68.42
67.04
65.75
64.68
63.66
62.16
59.48
55.03
48.65
40.73
32.12
23.73
16.23
9.65
3.48
-3.10
-10.74
-19.65
-29.41
-39.19
-48.20
-55.97
-62.61
-68.80
-75.51
-83.82
-94.54
-107.88
-123.03
-138.00
-149.86
-155.30
-151.70
-138.06
-115.46
-86.75
-55.61
-25.41
1.63
24.72
44.12
60.50
74.39
85.95
95.06
101.56
105.49
107.19
107.17
106.03
104.25
102.18
100.01
97.87
95.85
93.99
92.25
90.47
88.35
85.57
81.77
76.72
70.26
62.46
53.57
44.11
34.73
26.06
18.46
11.82
5.55
-1.15
-8.96
-18.12
-28.28
-38.68
-48.52
-57.28
-65.00
-72.19
-79.68
-88.33
-98.87
-111.68
-126.54
-142.35
-157.02
-167.63
-171.07
-165.05
-148.94
-124.17
-93.81
-61.65
-31.03
-4.05
18.60
37.26
52.65
65.36
75.59
83.30
88.46
91.28
92.26
92.03
91.17
90.05
88.79
87.36
85.70
83.85
81.91
80.03
78.26
76.48
74.34
71.36
67.08
61.19
53.73
45.06
35.87
26.91
18.75
11.60
5.20
-1.00
-7.64
-15.11
-23.39
-32.06
-40.48
-48.09
-54.64
-60.25
-65.44
-70.97
-77.66
-86.22
-96.97
-109.49
-122.34
-133.07
-138.67
-136.43
-124.88
-104.31
-76.85
-45.71
-14.26
14.84
40.05
60.83
77.23
89.46
97.77
102.43
103.91
102.91
100.28
96.86
93.28
89.91
86.86
84.13
81.69
79.54
77.64
75.78
73.57
70.48
66.03
59.96
52.37
43.73
34.68
25.86
17.64
10.00
2.59
-5.13
-13.57
-22.85
-32.66
-42.40
-51.40
-59.30
-66.17
-72.64
-79.73
-88.54
-99.75
-113.14
-127.25
-139.49
-146.61
-145.71
-135.20
-115.43
-88.65
-58.26
-27.78
0.11
24.00
43.62
59.30
71.53
80.63
86.85
90.46
91.97
92.09
91.50
90.69
89.83
88.74
87.16
84.96
82.28
79.52
77.09
75.13
73.29
70.81
66.76
60.51
51.99
41.84
31.13
20.90
11.75
3.59
-4.22
-12.54
-22.01
-32.65
-43.91
-54.87
-64.72
-73.10
-80.23
-86.90
-94.08
-102.76
-113.65
-126.88
-141.72
-156.32
-167.84
-173.01
-169.03
-154.68
-130.80
-100.21
-66.78
-34.22
-5.08
19.56
39.84
56.43
69.94
80.66
88.66
94.04
97.08
98.26
98.15
97.25
95.81
93.93
91.60
88.90
86.05
83.39
81.25
79.72
78.52
77.02
74.36
69.85
63.18
54.60
44.87
34.98
25.78
17.69
10.55
3.75
-3.49
-11.73
-21.10
-31.20
-41.23
-50.37
-58.10
-64.46
-70.01
-75.66
-82.46
-91.28
-102.61
-116.21
-130.84
-144.22
-153.23
-154.76
-146.66
-128.65
-102.49
-71.55
-39.73
-10.28
14.82
35.01
50.65
62.45
71.02
76.81
80.14
81.40
81.06
79.66
77.74
75.71
73.83
72.27
71.02
70.04
69.15
68.14
66.68
64.49
61.31
56.97
51.52
45.10
37.98
30.37
22.40
14.02
5.12
-4.33
-14.29
-24.43
-34.36
-43.66
-52.12
-59.85
-67.34
-75.45
-85.09
-96.82
-110.27
-123.92
-135.07
-140.54
-137.61
-125.06
-103.64
-75.95
-45.54
-15.85
10.65
32.85
50.66
64.54
74.95
82.17
86.39
87.93
87.34
85.42
82.93
80.46
78.21
76.10
73.92
71.62
69.35
67.42
66.00
64.94
63.62
61.17
56.85
50.38
42.14
32.96
23.82
15.34
7.59
0.07
-7.98
-17.21
-27.78
-39.35
-51.11
-62.18
-71.93
-80.21
-87.50
-94.77
-103.22
-113.87
-127.09
-142.09
-156.76
-167.93
-172.11
-166.60
-150.45
-124.96
-93.22
-59.21
-26.53
2.40
26.65
46.41
62.36
75.17
85.21
92.68
97.74
100.63
101.72
101.45
100.29
98.63
96.75
94.82
92.91
91.05
89.25
87.56
85.94
84.20
81.91
78.48
73.33
66.16
57.19
47.13
36.97
27.59
19.43
12.23
5.24
-2.45
-11.45
-21.73
-32.68
-43.32
-52.79
-60.73
-67.45
-73.83
-81.05
-90.25
-102.17
-116.76
-132.93
-148.45
-160.18
-164.86
-159.97
-144.65
-120.14
-89.42
-56.32
-24.43
3.73
27.06
45.58
59.93
70.86
78.88
84.28
87.22
87.99
87.02
84.89
82.30
79.78
77.69
76.15
75.10
74.43
73.97
73.50
72.64
70.86
67.62
62.55
55.68
47.47
38.63
29.90
21.72
14.13
6.80
-0.69
-8.64
-17.04
-25.59
-33.84
-41.46
-48.41
-55.06
-62.16
-70.64
-81.18
-93.78
-107.31
-119.46
-127.19
-127.54
-118.71
-100.68
-75.42
-46.20
-16.63
10.37
33.16
51.28
65.07
75.11
81.86
85.64
86.77
85.71
83.15
79.88
76.54
73.52
70.89
68.51
66.18
63.76
61.26
58.65
55.83
52.48
48.21
42.68
35.84
27.99
19.65
11.40
3.52
-4.05
-11.67
-19.77
-28.55
-37.93
-47.49
-56.77
-65.41
-73.35
-80.91
-88.79
-97.88
-109.03
-122.57
-137.74
-152.48
-163.61
-167.67
-162.04
-145.93
-120.77
-89.71
-56.62
-24.92
3.18
26.84
46.17
61.72
74.02
83.43
90.19
94.55
96.83
97.40
96.64
94.90
92.45
89.57
86.51
83.59
81.09
79.12
77.53
75.81
73.26
69.22
63.33
55.73
47.00
37.89
29.03
20.64
12.50
4.13
-4.98
-14.95
-25.59
-36.31
-46.49
-55.68
-63.78
-71.15
-78.54
-86.95
-97.28
-109.93
-124.26
-138.38
-149.36
-153.92
-149.46
-135.04
-111.73
-82.32
-50.42
-19.43
8.28
31.61
50.49
65.39
76.87
85.35
91.12
94.46
95.77
95.51
94.21
92.32
90.12
87.78
85.39
83.03
80.78
78.65
76.53
74.06
70.78
66.24
60.17
52.66
44.12
35.10
26.15
17.56
9.32
1.16
-7.19
-15.87
-24.74
-33.45
-41.61
-48.99
-55.66
-62.08
-68.96
-77.18
-87.44
-99.80
-113.37
-126.04
-134.89
-136.89
-129.98
-113.88
-90.23
-62.15
-33.25
-6.58
16.00
33.90
47.39
57.07
63.46
66.87
67.54
65.91
62.67
58.84
55.44
53.22
52.36
52.52
52.97
52.96
52.02
50.08
47.43
44.40
41.22
37.79
33.73
28.59
21.95
13.72
4.16
-6.12
-16.37
-25.88
-34.30
-41.66
-48.43
-55.33
-63.14
-72.56
-84.01
-97.38
-111.75
-125.25
-135.19
-138.67
-133.48
-118.92
-96.23
-68.27
-38.63
-10.59
13.76
33.72
49.57
62.01
71.58
78.50
82.74
84.41
83.86
81.76
78.95
76.16
73.89
72.25
71.09
70.07
68.81
67.02
64.51
61.13
56.82
51.53
45.27
38.11
30.16
21.60
12.59
3.29
-6.19
-15.70
-25.11
-34.24
-42.97
-51.30
-59.36
-67.47
-76.17
-86.10
-97.78
-111.27
-125.69
-139.03
-148.37
-150.57
-143.35
-126.20
-100.68
-69.99
-37.92
-7.69
18.78
40.91
59.05
73.75
85.36
93.96
99.55
102.35
102.85
101.78
99.77
97.27
94.38
91.10
87.47
83.68
80.00
76.64
73.51
70.18
66.08
60.79
54.20
46.61
38.58
30.60
22.89
15.34
7.59
-0.70
-9.63
-19.02
-28.43
-37.38
-45.56
-52.91
-59.79
-66.81
-74.78
-84.46
-96.20
-109.47
-122.68
-133.16
-137.85
-134.23
-121.24
-99.84
-72.71
-43.38
-15.14
9.83
30.60
47.24
60.18
69.79
76.28
79.77
80.63
79.44
77.04
74.24
71.69
69.70
68.33
67.38
66.58
65.65
64.30
62.39
59.78
56.46
52.43
47.72
42.32
36.21
29.32
21.59
13.06
3.94
-5.45
-14.69
-23.38
-31.32
-38.51
-45.16
-51.71
-58.78
-67.04
-77.07
-88.93
-101.82
-113.83
-122.25
-124.20
-117.67
-102.28
-79.62
-52.70
-25.04
0.38
21.79
38.68
51.36
60.45
66.46
69.67
70.33
68.85
65.84
62.15
58.59
55.80
54.01
53.05
52.42
51.58
50.05
47.64
44.43
40.59
36.22
31.28
25.51
18.59
10.31
0.75
-9.73
-20.51
-30.95
-40.55
-49.16
-56.97
-64.43
-72.16
-80.75
-90.73
-102.37
-115.46
-129.01
-141.10
-149.11
-150.30
-142.72
-126.02
-101.73
-72.84
-42.90
-14.95
9.20
29.08
45.13
58.08
68.43
76.31
81.59
84.27
84.60
83.23
80.99
78.69
76.80
75.41
74.24
72.89
71.00
68.42
65.20
61.49
57.40
52.88
47.72
41.64
34.38
25.81
16.07
5.49
-5.41
-16.14
-26.28
-35.65
-44.30
-52.55
-60.89
-69.92
-80.30
-92.39
-105.99
-119.94
-132.03
-139.37
-139.18
-129.73
-111.14
-85.46
-56.02
-26.39
0.69
23.84
42.91
58.49
71.26
81.54
89.36
94.61
97.37
97.94
96.80
94.51
91.51
88.14
84.69
81.34
78.23
75.34
72.54
69.51
65.86
61.27
55.55
48.74
41.03
32.65
23.76
14.44
4.71
-5.34
-15.54
-25.58
-35.14
-44.01
-52.16
-59.83
-67.49
-75.80
-85.44
-96.86
-109.85
-123.20
-134.62
-141.11
-139.85
-129.27
-109.70
-83.43
-53.94
-24.81
1.32
23.18
40.66
54.26
64.44
71.41
75.22
76.09
74.62
71.76
68.51
65.59
63.24
61.20
59.01
56.31
53.05
49.48
46.05
43.02
40.26
37.26
33.19
27.29
19.14
8.96
-2.45
-13.95
-24.44
-33.34
-40.69
-47.20
-53.93
-61.94
-72.01
-84.31
-98.15
-111.95
-123.32
-129.55
-128.36
-118.63
-100.95
-77.44
-51.16
-25.15
-1.75
17.83
33.24
44.62
52.24
56.35
57.30
55.70
52.43
48.49
44.74
41.70
39.45
37.78
36.40
35.13
34.02
33.21
32.70
32.20
31.02
28.32
23.42
16.13
6.92
-3.25
-13.29
-22.46
-30.62
-38.30
-46.52
-56.38
-68.64
-83.21
-98.87
-113.25
-123.27
-125.91
-119.20
-102.97
-78.97
-50.42
-20.93
6.46
29.99
49.14
64.29
76.02
84.73
90.50
93.33
93.38
91.18
87.58
83.45
79.49
75.94
72.60
69.09
65.14
60.79
56.38
52.32
48.72
45.21
40.97
35.02
26.72
16.06
3.75
-9.09
-21.34
-32.34
-42.07
-51.09
-60.29
-70.62
-82.80
-97.15
-113.28
-129.89
-144.66
-154.61
-156.81
-149.29
-131.84
-106.21
-75.56
-43.56
-13.28
13.46
36.10
55.00
70.78
83.96
94.69
102.90
108.53
111.63
112.49
111.57
109.41
106.52
103.32
100.05
96.85
93.66
90.31
86.53
82.01
76.57
70.16
62.91
54.98
46.52
37.50
27.82
17.40
6.33
-5.08
-16.41
-27.25
-37.39
-46.91
-56.14
-65.60
-75.88
-87.61
-101.18
-116.37
-131.96
-145.63
-154.28
-154.95
-145.78
-126.81
-100.09
-69.02
-37.23
-7.66
18.10
39.63
57.28
71.57
82.91
91.47
97.39
100.88
102.35
102.33
101.33
99.72
97.65
95.08
91.97
88.42
84.81
81.58
79.10
77.29
75.59
73.03
68.69
62.06
53.36
43.50
33.63
24.66
16.86
9.81
2.62
-5.57
-15.19
-26.00
-37.22
-47.90
-57.27
-65.16
-72.00
-78.71
-86.48
-96.33
-108.71
-123.15
-137.98
-150.50
-157.53
-156.23
-145.10
-124.54
-96.84
-65.53
-34.33
-6.14
17.49
36.32
50.92
62.09
70.41
76.16
79.46
80.55
79.85
78.01
75.70
73.44
71.51
69.91
68.56
67.35
66.17
64.91
63.33
61.10
57.80
53.15
47.12
39.95
32.07
23.87
15.61
7.34
-1.02
-9.53
-18.10
-26.50
-34.44
-41.73
-48.33
-54.48
-60.74
-67.84
-76.56
-87.21
-99.32
-111.30
-120.58
-124.26
-120.06
-107.14
-86.55
-60.92
-33.58
-7.63
14.82
32.85
46.36
55.73
61.34
63.53
62.73
59.62
55.14
50.40
46.37
43.62
42.17
41.52
40.94
39.78
37.72
34.87
31.70
28.69
26.08
23.66
20.80
16.69
10.73
2.83
-6.51
-16.38
-25.79
-34.08
-41.16
-47.48
-53.85
-61.12
-70.03
-80.94
-93.63
-107.04
-119.19
-127.45
-129.09
-122.24
-106.58
-83.65
-56.41
-28.27
-2.15
20.24
38.41
52.64
63.42
71.07
75.64
77.26
76.31
73.54
69.99
66.61
63.93
61.98
60.37
58.52
56.06
52.90
49.26
45.49
41.80
38.16
34.24
29.50
23.42
15.69
6.37
-4.08
-14.94
-25.41
-34.90
-43.22
-50.71
-58.08
-66.24
-76.02
-87.91
-101.75
-116.47
-130.01
-139.61
-142.45
-136.49
-121.28
-98.18
-70.03
-40.21
-11.76
13.35
34.36
51.35
64.74
74.95
82.17
86.53
88.19
87.57
85.27
82.09
78.76
75.85
73.56
71.74
70.01
67.96
65.33
62.06
58.27
54.07
49.47
44.29
38.24
31.04
22.55
12.91
2.51
-8.08
-18.31
-27.82
-36.54
-44.75
-52.92
-61.64
-71.46
-82.81
-95.75
-109.66
-123.08
-133.66
-138.61
-135.57
-123.45
-102.98
-76.60
-47.67
-19.47
5.74
26.92
44.04
57.48
67.53
74.29
77.76
78.21
76.29
72.95
69.25
65.97
63.48
61.68
60.21
58.65
56.67
54.25
51.56
48.80
46.10
43.29
39.88
35.21
28.75
20.38
10.54
0.19
-9.67
-18.30
-25.62
-32.15
-38.78
-46.43
-55.69
-66.72
-79.12
-91.87
-103.28
-111.13
-113.12
-107.53
-93.90
-73.41
-48.55
-22.46
2.08
23.23
40.24
53.14
62.18
67.58
69.51
68.35
64.88
60.27
55.79
52.32
50.13
48.86
47.82
46.45
44.56
42.39
40.30
38.41
36.45
33.68
29.28
22.76
14.14
4.10
-6.39
-16.38
-25.35
-33.34
-40.92
-49.00
-58.50
-70.07
-83.70
-98.37
-111.99
-121.69
-124.49
-118.32
-102.80
-79.53
-51.63
-22.79
3.93
26.67
44.92
58.99
69.46
76.63
80.61
81.44
79.51
75.64
70.98
66.66
63.40
61.32
59.98
58.60
56.54
53.52
49.75
45.67
41.69
37.82
33.65
28.46
21.56
12.64
1.91
-9.90
-21.83
-33.00
-42.90
-51.57
-59.49
-67.42
-76.21
-86.61
-99.09
-113.47
-128.73
-142.83
-152.89
-155.93
-149.80
-134.06
-110.21
-81.30
-50.90
-22.08
3.37
24.94
42.98
58.03
70.37
79.94
86.53
90.12
91.02
89.93
87.79
85.41
83.35
81.70
80.16
78.25
75.58
72.02
67.73
63.07
58.27
53.36
48.07
41.94
34.61
25.92
16.08
5.58
-4.95
-14.99
-24.19
-32.57
-40.42
-48.28
-56.75
-66.47
-77.85
-90.95
-105.19
-119.02
-130.05
-135.44
-132.69
-120.56
-99.67
-72.43
-42.35
-12.99
13.05
34.57
51.59
64.79
74.88
82.22
86.88
88.88
88.52
86.46
83.64
81.00
79.13
78.10
77.53
76.73
75.13
72.44
68.79
64.49
59.94
55.25
50.24
44.53
37.69
29.51
20.10
9.92
-0.40
-10.25
-19.27
-27.38
-34.80
-41.91
-49.17
-57.04
-66.00
-76.40
-88.21
-100.69
-112.16
-120.10
-121.81
-115.25
-99.98
-77.42
-50.52
-22.80
2.78
24.39
41.53
54.50
63.79
69.73
72.41
72.02
69.08
64.64
59.95
56.14
53.82
52.88
52.66
52.27
50.98
48.58
45.33
41.75
38.26
34.92
31.28
26.63
20.31
12.03
2.08
-8.79
-19.63
-29.62
-38.37
-46.03
-53.13
-60.48
-68.90
-79.08
-91.27
-105.03
-118.95
-130.68
-137.34
-136.24
-125.93
-106.75
-80.94
-51.98
-23.45
1.98
23.08
39.91
53.21
63.66
71.58
76.87
79.40
79.39
77.49
74.64
71.79
69.53
67.93
66.66
65.21
63.13
60.28
56.77
52.88
48.85
44.68
40.12
34.73
28.09
19.93
10.37
-0.13
-10.88
-21.19
-30.58
-38.92
-46.48
-53.82
-61.61
-70.52
-81.07
-93.45
-107.21
-121.08
-132.80
-139.59
-138.76
-128.75
-109.72
-83.78
-54.25
-24.68
2.17
24.87
43.25
57.85
69.33
78.13
84.42
88.34
90.15
90.27
89.20
87.36
85.03
82.40
79.63
76.90
74.37
72.05
69.75
67.12
63.70
59.15
53.33
46.42
38.75
30.75
22.73
14.75
6.72
-1.56
-10.25
-19.35
-28.66
-37.83
-46.54
-54.58
-62.02
-69.23
-76.89
-85.86
-96.80
-109.74
-123.59
-135.98
-143.74
-143.77
-134.21
-115.23
-89.08
-59.33
-29.66
-2.85
19.76
38.06
52.56
63.81
72.08
77.49
80.21
80.65
79.46
77.34
74.93
72.62
70.58
68.80
67.22
65.73
64.19
62.46
60.34
57.58
53.94
49.27
43.57
36.98
29.75
22.13
14.23
6.05
-2.49
-11.38
-20.42
-29.20
-37.31
-44.43
-50.62
-56.37
-62.51
-69.97
-79.40
-90.77
-102.99
-113.93
-120.83
-121.02
-112.86
-96.29
-73.06
-46.10
-18.75
6.19
27.05
43.30
55.27
63.57
68.85
71.56
72.06
70.79
68.32
65.31
62.40
59.99
58.28
57.18
56.46
55.87
55.15
54.07
52.37
49.75
46.01
41.06
35.03
28.23
21.00
13.60
6.05
-1.77
-10.07
-18.94
-28.27
-37.78
-47.08
-55.88
-64.02
-71.66
-79.22
-87.41
-97.06
-108.70
-122.10
-135.81
-147.23
-153.13
-150.75
-138.76
-117.90
-90.75
-60.80
-31.37
-4.72
18.14
37.22
52.90
65.54
75.29
82.19
86.45
88.44
88.73
87.89
86.42
84.59
82.56
80.44
78.33
76.38
74.71
73.29
71.80
69.75
66.55
61.74
55.22
47.26
38.48
29.55
20.92
12.71
4.62
-3.83
-12.97
-22.80
-32.97
-42.85
-51.95
-60.06
-67.44
-74.77
-82.98
-92.95
-105.15
-119.24
-133.69
-145.87
-152.56
-150.89
-139.39
-118.62
-91.08
-60.33
-29.94
-2.45
20.95
40.20
55.79
68.17
77.59
84.09
87.81
89.15
88.75
87.35
85.62
83.93
82.33
80.68
78.84
76.79
74.76
73.02
71.72
70.71
69.52
67.51
64.18
59.37
53.33
46.62
39.90
33.62
27.90
22.52
17.10
11.34
5.12
-1.33
-7.60
-13.27
-18.10
-22.20
-25.98
-30.00
-34.76
-40.45
-46.91
-53.61
-59.95
-65.47
-70.09
-74.12
-78.20
-83.16
-89.79
-98.59
-109.38
-121.10
-131.63
-138.18
-137.91
-128.95
-111.16
-86.28
-57.49
-28.37
-1.84
20.53
38.44
52.41
63.16
71.08
76.34
78.98
79.30
77.92
75.75
73.66
72.23
71.58
71.38
71.05
70.03
68.04
65.08
61.47
57.60
53.66
49.56
44.89
39.11
31.79
22.87
12.74
2.11
-8.25
-17.78
-26.34
-34.19
-41.85
-49.92
-58.95
-69.39
-81.41
-94.70
-108.17
-119.83
-127.07
-127.29
-118.86
-101.76
-77.78
-49.98
-21.76
4.03
25.74
42.88
55.75
64.92
70.93
74.12
74.84
73.50
70.70
67.15
63.55
60.47
58.22
56.81
55.97
55.28
54.30
52.66
50.19
46.83
42.63
37.66
31.96
25.55
18.35
10.32
1.46
-8.07
-17.96
-27.81
-37.23
-46.02
-54.27
-62.28
-70.54
-79.56
-89.85
-101.74
-115.20
-129.49
-142.89
-152.81
-156.33
-151.10
-136.31
-113.08
-84.25
-53.44
-23.95
2.00
23.60
41.06
55.12
66.45
75.43
82.13
86.51
88.59
88.66
87.26
85.02
82.57
80.30
78.33
76.57
74.83
72.97
70.87
68.44
65.45
61.65
56.74
50.53
43.06
34.52
25.24
15.53
5.63
-4.31
-14.25
-24.12
-33.85
-43.34
-52.61
-61.81
-71.40
-82.06
-94.40
-108.55
-123.60
-137.44
-147.04
-149.30
-142.10
-125.20
-100.43
-71.06
-40.81
-12.71
11.52
31.44
47.44
60.13
69.99
77.28
82.20
85.08
86.32
86.40
85.71
84.52
82.94
81.12
79.17
77.30
75.59
74.02
72.40
70.37
67.51
63.48
58.17
51.68
44.29
36.36
28.16
19.78
11.18
2.29
-6.89
-16.19
-25.28
-33.86
-41.72
-48.93
-55.87
-63.20
-71.76
-82.16
-94.43
-107.67
-119.85
-128.16
-129.79
-122.80
-106.97
-83.93
-56.72
-28.82
-3.14
18.63
36.00
49.32
59.14
65.82
69.52
70.36
68.79
65.63
61.99
58.90
57.02
56.44
56.74
57.26
57.37
56.73
55.30
53.29
50.90
48.17
44.86
40.55
34.85
27.53
18.75
9.03
-0.91
-10.37
-18.91
-26.49
-33.44
-40.34
-47.90
-56.80
-67.58
-80.28
-94.21
-107.66
-118.11
-122.73
-119.34
-107.19
-87.36
-62.44
-35.72
-10.15
12.32
30.94
45.80
57.34
66.03
72.12
75.85
77.51
77.47
76.26
74.34
72.16
70.01
68.07
66.36
64.76
63.02
60.88
58.10
54.53
50.12
44.89
38.93
32.25
24.87
16.78
7.96
-1.52
-11.49
-21.68
-31.73
-41.25
-49.95
-57.72
-64.78
-71.62
-78.97
-87.65
-98.23
-110.68
-123.97
-136.08
-144.24
-145.72
-138.67
-122.79
-99.59
-71.86
-42.86
-15.41
8.77
29.07
45.70
59.12
69.70
77.62
82.97
85.99
87.19
87.21
86.66
85.87
84.86
83.44
81.47
79.02
76.42
74.05
72.08
70.30
68.17
65.03
60.43
54.32
47.08
39.30
31.59
24.28
17.33
10.37
2.94
-5.34
-14.49
-24.22
-33.98
-43.19
-51.55
-59.15
-66.58
-74.73
-84.57
-96.70
-110.84
-125.55
-138.28
-145.90
-145.63
-136.02
-117.54
-92.49
-64.26
-36.26
-10.98
10.38
27.74
41.62
52.56
60.87
66.67
70.10
71.53
71.53
70.79
69.83
68.94
68.16
67.42
66.68
66.06
65.71
65.70
65.83
65.62
64.42
61.64
57.04
50.86
43.73
36.45
29.58
23.26
17.13
10.62
3.23
-5.09
-14.00
-22.85
-31.02
-38.15
-44.31
-49.92
-55.71
-62.52
-71.08
-81.55
-93.21
-104.25
-112.01
-113.69
-107.36
-92.64
-71.00
-45.27
-18.75
5.72
26.36
42.53
54.37
62.37
67.06
68.89
68.26
65.70
61.84
57.41
53.09
49.42
46.66
44.78
43.56
42.65
41.67
40.35
38.47
35.86
32.46
28.25
23.29
17.73
11.72
5.38
-1.30
-8.41
-16.07
-24.29
-32.92
-41.71
-50.34
-58.63
-66.58
-74.43
-82.68
-91.94
-102.74
-115.19
-128.54
-141.00
-149.94
-152.59
-146.93
-132.51
-110.71
-84.30
-56.51
-30.07
-6.58
13.51
30.47
44.83
56.90
66.77
74.36
79.69
82.95
84.48
84.71
84.00
82.58
80.55
78.02
75.18
72.29
69.62
67.24
64.91
62.13
58.36
53.25
46.87
39.68
32.27
25.09
18.20
11.33
4.07
-3.81
-12.20
-20.73
-28.92
-36.49
-43.44
-50.14
-57.21
-65.42
-75.42
-87.44
-100.91
-114.22
-124.81
-129.79
-126.83
-115.00
-95.22
-69.95
-42.45
-15.70
8.23
28.47
44.99
58.18
68.45
76.08
81.31
84.45
85.97
86.41
86.22
85.70
84.95
83.91
82.57
81.04
79.51
78.16
76.93
75.45
73.14
69.39
63.88
56.77
48.59
40.07
31.75
23.77
15.85
7.57
-1.45
-11.21
-21.38
-31.42
-40.82
-49.27
-56.81
-63.84
-70.99
-79.07
-88.76
-100.28
-113.01
-125.28
-134.51
-137.84
-133.05
-119.36
-97.88
-71.24
-42.82
-15.70
8.12
27.87
43.70
56.13
65.61
72.33
76.39
78.07
77.91
76.65
75.01
73.44
72.08
70.84
69.59
68.30
67.05
65.91
64.84
63.57
61.67
58.75
54.62
49.39
43.41
37.12
30.80
24.50
18.01
11.03
3.38
-4.88
-13.43
-21.79
-29.52
-36.42
-42.58
-48.44
-54.72
-62.27
-71.63
-82.73
-94.43
-104.56
-110.37
-109.34
-100.15
-83.24
-60.70
-35.61
-11.04
10.80
28.83
42.90
53.34
60.48
64.56
65.83
64.72
61.98
58.51
55.21
52.69
51.13
50.33
49.80
49.03
47.66
45.59
42.97
40.05
37.00
33.77
30.08
25.47
19.56
12.22
3.65
-5.60
-14.84
-23.41
-30.92
-37.39
-43.21
-49.09
-55.81
-64.10
-74.29
-86.09
-98.40
-109.30
-116.35
-117.18
-110.29
-95.61
-74.67
-50.18
-25.20
-2.26
17.23
32.93
45.21
54.57
61.25
65.22
66.47
65.28
62.40
58.84
55.58
53.27
52.00
51.45
51.02
50.14
48.47
45.95
42.74
39.12
35.26
31.13
26.48
20.92
14.11
5.94
-3.41
-13.44
-23.55
-33.20
-42.10
-50.22
-57.84
-65.46
-73.70
-83.19
-94.40
-107.27
-120.97
-133.72
-142.97
-146.10
-141.14
-127.60
-106.71
-81.08
-53.94
-28.11
-5.34
13.83
29.78
43.14
54.39
63.60
70.58
75.14
77.39
77.74
76.92
75.62
74.34
73.25
72.19
70.88
69.04
66.57
63.54
60.11
56.42
52.39
47.76
42.18
35.38
27.27
18.08
8.21
-1.87
-11.75
-21.16
-30.04
-38.45
-46.64
-54.98
-64.04
-74.39
-86.36
-99.65
-113.00
-124.21
-130.57
-129.67
-120.28
-102.83
-79.33
-52.75
-26.09
-1.62
19.51
37.11
51.53
63.19
72.30
78.83
82.72
84.11
83.47
81.53
79.12
76.84
74.91
73.22
71.43
69.22
66.44
63.07
59.21
55.00
50.47
45.59
40.23
34.24
27.43
19.70
11.11
1.86
-7.64
-17.01
-25.90
-34.21
-42.00
-49.57
-57.33
-65.85
-75.70
-87.25
-100.33
-113.93
-126.08
-134.28
-136.12
-130.19
-116.60
-97.13
-74.55
-51.89
-31.45
-14.43
-1.03
9.20
16.76
22.04
25.27
26.86
27.49
28.14
29.84
33.32
38.75
45.73
53.47
61.12
68.08
74.03
78.97
82.90
85.70
86.96
86.14
82.69
76.37
67.40
56.44
44.50
32.59
21.43
11.31
1.99
-7.09
-16.63
-27.31
-39.54
-53.30
-67.89
-81.88
-93.16
-99.37
-98.59
-90.01
-74.29
-53.47
-30.34
-7.63
12.74
29.89
43.82
54.94
63.62
69.94
73.86
75.39
74.82
72.76
69.95
67.09
64.64
62.77
61.41
60.40
59.49
58.40
56.81
54.33
50.69
45.78
39.72
32.81
25.44
17.87
10.17
2.23
-6.12
-14.94
-24.12
-33.34
-42.28
-50.71
-58.65
-66.37
-74.40
-83.38
-93.87
-106.01
-119.11
-131.53
-140.82
-144.41
-140.41
-128.33
-109.37
-85.93
-60.86
-36.51
-14.22
5.60
23.11
38.49
51.72
62.49
70.57
75.97
79.05
80.41
80.68
80.31
79.50
78.27
76.60
74.57
72.34
70.15
68.11
66.13
63.85
60.73
56.29
50.28
42.88
34.60
26.15
18.15
10.75
3.70
-3.63
-11.88
-21.34
-31.81
-42.64
-52.97
-62.14
-69.92
-76.56
-82.78
-89.49
-97.57
-107.60
-119.53
-132.36
-144.18
-152.41
-154.49
-148.71
-134.84
-114.30
-89.66
-63.84
-39.24
-17.18
2.03
18.78
33.59
46.76
58.23
67.75
75.08
80.27
83.66
85.84
87.41
88.80
90.07
91.04
91.42
91.10
90.21
89.06
87.96
86.92
85.62
83.48
79.95
74.76
68.08
60.43
52.52
44.94
38.00
31.61
25.40
18.92
11.80
3.94
-4.44
-12.92
-21.00
-28.34
-34.84
-40.77
-46.61
-53.04
-60.71
-70.12
-81.31
-93.64
-105.65
-115.22
-120.01
-118.19
-109.01
-93.17
-72.55
-49.67
-26.96
-6.16
11.82
26.79
38.91
48.41
55.45
60.19
62.89
64.00
64.11
63.80
63.49
63.32
63.18
62.82
62.09
61.01
59.77
58.55
57.34
55.80
53.35
49.47
43.92
36.95
29.20
21.51
14.53
8.54
3.30
-1.76
-7.23
-13.54
-20.76
-28.60
-36.57
-44.22
-51.24
-57.68
-63.95
-70.76
-78.89
-88.90
-100.72
-113.35
-124.83
-132.66
-134.45
-128.75
-115.56
-96.36
-73.65
-50.09
-27.79
-7.88
9.35
24.13
36.72
47.20
55.48
61.47
65.31
67.37
68.23
68.48
68.58
68.75
69.04
69.31
69.47
69.43
69.22
68.90
68.45
67.73
66.45
64.22
60.76
55.99
50.15
43.75
37.35
31.38
25.96
20.79
15.36
9.13
1.75
-6.75
-15.96
-25.26
-34.00
-41.75
-48.40
-54.23
-59.83
-66.00
-73.56
-83.11
-94.69
-107.51
-119.82
-129.16
-132.98
-129.36
-117.81
-99.37
-76.37
-51.59
-27.49
-5.65
13.30
29.40
42.91
54.06
62.93
69.57
74.08
76.74
77.88
77.92
77.18
75.96
74.49
72.92
71.35
69.82
68.36
66.96
65.57
64.07
62.24
59.78
56.41
51.97
46.50
40.24
33.59
26.98
20.73
14.97
9.60
4.34
-1.19
-7.30
-14.11
-21.52
-29.19
-36.68
-43.62
-49.87
-55.54
-61.03
-66.87
-73.68
-81.96
-91.83
-102.79
-113.55
-122.12
-126.24
-124.00
-114.55
-98.37
-77.19
-53.44
-29.56
-7.46
11.82
27.91
40.94
51.17
58.84
64.16
67.34
68.75
68.84
68.18
67.21
66.23
65.32
64.44
63.52
62.59
61.75
61.12
60.67
60.17
59.16
57.16
53.81
49.06
43.23
36.88
30.64
24.94
19.86
15.13
10.27
4.88
-1.16
-7.66
-14.12
-20.04
-25.07
-29.22
-32.85
-36.67
-41.56
-48.23
-56.90
-66.93
-76.71
-84.00
-86.46
-82.53
-71.91
-55.76
-36.24
-15.87
3.24
19.73
33.06
43.21
50.40
54.89
56.93
56.90
55.27
52.68
49.72
46.89
44.50
42.64
41.29
40.35
39.79
39.54
39.44
39.21
38.39
36.54
33.37
28.91
23.46
17.51
11.48
5.51
-0.54
-6.98
-14.07
-21.87
-30.10
-38.30
-46.00
-52.89
-58.96
-64.51
-70.12
-76.53
-84.47
-94.27
-105.55
-116.90
-126.02
-130.25
-127.47
-116.89
-99.39
-77.28
-53.49
-30.61
-10.28
6.91
21.10
32.70
42.02
49.25
54.50
57.95
59.88
60.58
60.26
59.13
57.39
55.30
53.21
51.46
50.25
49.55
49.09
48.41
46.99
44.44
40.61
35.66
29.96
23.92
17.82
11.75
5.55
-0.97
-7.94
-15.31
-22.92
-30.49
-37.84
-44.92
-51.87
-58.95
-66.59
-75.27
-85.36
-96.80
-108.79
-119.63
-126.92
-128.26
-122.02
-108.07
-87.90
-64.18
-39.91
-17.50
1.78
17.75
30.92
41.90
51.01
58.24
63.46
66.62
67.92
67.81
66.82
65.37
63.76
62.17
60.73
59.58
58.80
58.31
57.80
56.72
54.50
50.78
45.59
39.35
32.72
26.25
20.15
14.25
8.08
1.18
-6.61
-15.09
-23.74
-31.98
-39.42
-46.04
-52.20
-58.60
-66.05
-75.19
-86.14
-98.14
-109.45
-117.54
-119.81
-114.45
-101.18
-81.47
-58.09
-34.17
-12.26
6.29
21.27
33.18
42.60
49.83
54.85
57.63
58.37
57.66
56.27
54.92
54.02
53.57
53.24
52.66
51.59
50.03
48.19
46.30
44.46
42.50
40.05
36.62
31.82
25.49
17.80
9.26
0.57
-7.60
-14.87
-21.24
-27.09
-32.98
-39.52
-47.17
-56.14
-66.26
-76.82
-86.48
-93.39
-95.64
-91.83
-81.57
-65.70
-46.07
-24.93
-4.37
14.12
29.70
42.02
51.03
56.85
59.76
60.30
59.16
57.08
54.67
52.29
50.07
47.99
45.96
43.97
42.03
40.18
38.36
36.38
33.91
30.52
25.83
19.69
12.22
3.91
-4.63
-12.83
-20.42
-27.57
-34.79
-42.83
-52.35
-63.67
-76.45
-89.52
-100.94
-108.36
-109.66
-103.63
-90.44
-71.66
-49.80
-27.47
-6.72
11.38
26.63
39.29
49.63
57.70
63.39
66.64
67.61
66.81
64.89
62.48
60.00
57.62
55.25
52.72
49.94
46.91
43.72
40.41
36.88
32.83
27.82
21.47
13.62
4.46
-5.47
-15.49
-25.00
-33.68
-41.67
-49.45
-57.80
-67.53
-79.16
-92.61
-106.90
-120.17
-129.93
-133.74
-129.93
-118.21
-99.78
-76.97
-52.48
-28.60
-6.77
12.52
29.40
44.16
56.94
67.58
75.79
81.36
84.39
85.31
84.81
83.59
82.15
80.68
79.12
77.24
74.88
71.95
68.51
64.66
60.41
55.72
50.39
44.21
37.03
28.82
19.76
10.18
0.50
-8.92
-17.88
-26.33
-34.41
-42.38
-50.59
-59.48
-69.51
-80.97
-93.66
-106.56
-117.82
-125.03
-125.94
-119.22
-105.05
-85.03
-61.62
-37.39
-14.27
6.66
25.09
41.01
54.41
65.19
73.27
78.73
81.87
83.19
83.22
82.38
80.95
79.15
77.14
75.12
73.24
71.52
69.81
67.78
65.06
61.26
56.25
50.15
43.32
36.23
29.21
22.39
15.57
8.43
0.72
-7.56
-16.12
-24.54
-32.43
-39.67
-46.40
-53.05
-60.09
-68.07
-77.32
-87.80
-98.86
-109.03
-116.18
-118.01
-112.80
-100.13
-81.10
-58.11
-33.99
-11.17
8.91
25.86
39.94
51.54
60.79
67.57
71.69
73.21
72.56
70.56
68.13
65.99
64.49
63.57
62.84
61.83
60.24
58.00
55.34
52.51
49.66
46.66
43.07
38.39
32.22
24.56
15.82
6.71
-2.00
-9.77
-16.44
-22.26
-27.84
-33.90
-41.13
-49.99
-60.54
-72.26
-83.99
-93.97
-100.17
-100.72
-94.53
-81.61
-63.22
-41.48
-18.83
2.60
21.45
37.15
49.75
59.56
66.85
71.78
74.45
75.07
74.02
71.87
69.18
66.46
63.96
61.76
59.79
57.96
56.18
54.33
52.21
49.51
45.88
41.09
35.08
28.07
20.41
12.50
4.62
-3.13
-10.82
-18.56
-26.43
-34.40
-42.26
-49.74
-56.65
-63.03
-69.27
-76.07
-84.28
-94.45
-106.40
-118.89
-129.77
-136.47
-136.78
-129.60
-115.27
-95.44
-72.49
-48.78
-26.05
-5.16
13.72
30.72
45.89
59.00
69.64
77.40
82.21
84.41
84.69
83.81
82.40
80.74
78.78
76.40
73.56
70.44
67.37
64.63
62.26
59.98
57.24
53.50
48.38
41.88
34.38
26.47
18.79
11.77
5.50
-0.28
-6.03
-12.21
-19.10
-26.65
-34.52
-42.25
-49.44
-55.93
-61.83
-67.53
-73.60
-80.63
-89.14
-99.26
-110.55
-121.81
-131.14
-136.31
-135.37
-127.29
-112.33
-91.99
-68.53
-44.26
-21.01
0.19
18.95
35.31
49.36
61.13
70.57
77.60
82.29
84.83
85.61
85.07
83.70
81.85
79.79
77.68
75.61
73.66
71.86
70.16
68.39
66.31
63.59
60.02
55.52
50.15
44.14
37.74
31.21
24.78
18.60
12.79
7.29
1.95
-3.48
-9.25
-15.46
-22.07
-28.87
-35.57
-41.91
-47.79
-53.28
-58.62
-64.22
-70.62
-78.30
-87.54
-98.00
-108.58
-117.41
-122.25
-121.19
-113.27
-98.83
-79.49
-57.53
-35.25
-14.40
4.07
19.87
33.10
43.92
52.45
58.69
62.69
64.67
65.04
64.32
63.04
61.57
60.08
58.62
57.20
55.91
54.86
54.09
53.45
52.58
51.01
48.31
44.31
39.08
32.99
26.50
20.00
13.73
7.65
1.54
-4.88
-11.77
-19.06
-26.47
-33.63
-40.27
-46.33
-52.07
-57.98
-64.66
-72.65
-82.10
-92.56
-102.79
-110.87
-114.67
-112.48
-103.65
-88.80
-69.71
-48.67
-27.83
-8.68
8.06
22.25
33.99
43.37
50.40
55.07
57.55
58.25
57.81
56.91
56.09
55.59
55.38
55.20
54.82
54.14
53.22
52.30
51.54
50.92
50.18
48.80
46.22
42.04
36.23
29.20
21.71
14.59
8.42
3.26
-1.32
-6.08
-11.69
-18.41
-25.98
-33.78
-41.11
-47.59
-53.28
-58.71
-64.62
-71.78
-80.70
-91.52
-103.82
-116.43
-127.52
-134.80
-136.10
-130.08
-116.74
-97.52
-74.87
-51.43
-29.28
-9.54
7.60
22.44
35.36
46.56
56.02
63.66
69.43
73.42
75.80
76.82
76.78
76.01
74.79
73.36
71.82
70.18
68.45
66.61
64.69
62.65
60.36
57.51
53.81
49.04
43.19
36.56
29.58
22.72
16.30
10.41
4.89
-0.58
-6.37
-12.78
-19.90
-27.57
-35.41
-43.01
-50.03
-56.39
-62.25
-68.00
-74.20
-81.40
-90.07
-100.35
-111.73
-122.94
-131.92
-136.29
-134.05
-124.27
-107.56
-85.84
-61.81
-38.04
-16.37
2.38
18.13
31.17
41.78
50.03
55.99
59.84
61.99
63.02
63.47
63.69
63.74
63.53
62.96
62.12
61.26
60.69
60.57
60.81
60.99
60.57
58.98
55.86
51.16
45.11
38.23
31.16
24.47
18.51
13.28
8.43
3.44
-2.17
-8.59
-15.68
-23.00
-30.06
-36.53
-42.34
-47.72
-53.07
-58.91
-65.76
-74.03
-83.81
-94.57
-104.97
-112.90
-116.02
-112.49
-101.64
-84.37
-62.82
-39.77
-17.75
1.56
17.48
30.14
39.96
47.37
52.58
55.70
56.90
56.50
55.03
53.08
51.14
49.53
48.37
47.61
47.09
46.67
46.18
45.45
44.24
42.25
39.28
35.20
30.12
24.27
17.98
11.50
4.99
-1.56
-8.23
-15.06
-22.01
-28.94
-35.64
-41.96
-47.96
-53.90
-60.32
-67.81
-76.76
-87.05
-97.72
-106.98
-112.55
-112.35
-105.14
-91.05
-71.50
-48.80
-25.40
-3.31
16.19
32.55
45.70
55.78
63.01
67.64
70.07
70.78
70.31
69.15
67.65
66.04
64.40
62.78
61.24
59.86
58.67
57.63
56.51
54.96
52.59
49.13
44.55
39.07
33.09
27.02
21.11
15.36
9.52
3.20
-3.90
-11.81
-20.26
-28.70
-36.56
-43.50
-49.58
-55.32
-61.55
-69.16
-78.75
-90.32
-103.05
-115.26
-124.60
-128.61
-125.42
-114.39
-96.36
-73.49
-48.52
-24.04
-1.81
17.42
33.66
47.26
58.49
67.41
73.96
78.17
80.35
81.06
80.96
80.61
80.27
79.96
79.49
78.74
77.70
76.50
75.28
74.06
72.58
70.40
67.00
62.05
55.58
48.06
40.22
32.76
26.07
20.03
14.13
7.72
0.35
-7.97
-16.79
-25.45
-33.40
-40.50
-47.04
-53.61
-60.87
-69.36
-79.34
-90.61
-102.31
-112.91
-120.31
-122.33
-117.38
-105.07
-86.39
-63.56
-39.23
-15.81
5.11
22.87
37.47
49.18
58.20
64.66
68.66
70.50
70.69
69.87
68.68
67.51
66.48
65.53
64.53
63.45
62.41
61.53
60.83
60.03
58.67
56.22
52.40
47.29
41.32
35.08
29.01
23.26
17.63
11.75
5.37
-1.56
-8.82
-16.02
-22.78
-28.86
-34.28
-39.30
-44.39
-50.19
-57.26
-65.87
-75.60
-85.22
-92.80
-96.15
-93.51
-84.17
-68.79
-49.16
-27.68
-6.66
12.22
28.08
40.68
50.13
56.61
60.25
61.24
59.98
57.15
53.65
50.39
48.02
46.76
46.37
46.31
45.98
44.95
43.17
40.81
38.18
35.46
32.55
29.12
24.70
18.96
11.85
3.73
-4.79
-13.03
-20.48
-26.98
-32.76
-38.36
-44.45
-51.64
-60.28
-70.25
-80.79
-90.43
-97.29
-99.40
-95.39
-84.90
-68.86
-49.18
-28.24
-8.21
9.43
24.07
35.76
44.79
51.45
55.85
58.05
58.23
56.82
54.50
52.03
50.00
48.64
47.81
47.09
46.07
44.47
42.24
39.53
36.51
33.27
29.74
25.76
21.05
15.40
8.72
1.11
-7.11
-15.52
-23.68
-31.28
-38.30
-44.93
-51.61
-58.90
-67.35
-77.29
-88.64
-100.63
-111.72
-119.79
-122.63
-118.61
-107.28
-89.61
-67.70
-44.13
-21.26
-0.64
17.07
31.93
44.29
54.46
62.53
68.45
72.16
73.78
73.66
72.36
70.52
68.68
67.16
66.01
65.02
63.89
62.29
60.02
56.97
53.15
48.63
43.51
37.89
31.83
25.37
18.48
11.14
3.34
-4.85
-13.25
-21.62
-29.70
-37.32
-44.50
-51.48
-58.72
-66.81
-76.23
-87.00
-98.41
-108.88
-116.23
-118.19
-113.21
-101.01
-82.74
-60.66
-37.39
-15.21
4.50
21.18
34.96
46.15
55.04
61.78
66.44
69.15
70.18
69.86
68.60
66.77
64.66
62.50
60.47
58.70
57.18
55.82
54.35
52.42
49.72
46.04
41.38
35.94
29.93
23.55
16.84
9.73
2.22
-5.64
-13.62
-21.40
-28.71
-35.42
-41.60
-47.53
-53.70
-60.65
-68.91
-78.66
-89.48
-100.09
-108.48
-112.33
-109.71
-99.84
-83.40
-62.43
-39.58
-17.38
2.41
19.05
32.59
43.41
51.85
58.03
61.89
63.48
63.07
61.25
58.82
56.53
54.82
53.75
52.99
52.11
50.79
48.94
46.74
44.41
42.01
39.33
35.95
31.40
25.41
18.03
9.67
0.96
-7.47
-15.13
-21.84
-27.76
-33.29
-39.00
-45.50
-53.31
-62.59
-72.95
-83.27
-91.74
-96.26
-95.00
-87.06
-72.82
-53.88
-32.56
-11.21
8.40
25.35
39.37
50.55
59.04
64.83
67.92
68.47
66.93
64.04
60.71
57.70
55.42
53.88
52.72
51.43
49.60
47.08
43.93
40.40
36.68
32.77
28.50
23.54
17.59
10.48
2.31
-6.62
-15.82
-24.79
-33.15
-40.77
-47.80
-54.58
-61.64
-69.57
-78.82
-89.50
-101.04
-112.06
-120.49
-124.06
-121.01
-110.72
-93.94
-72.61
-49.15
-25.80
-4.13
15.07
31.56
45.40
56.66
65.42
71.80
75.97
78.22
78.87
78.25
76.68
74.46
71.92
69.32
66.94
64.93
63.37
62.15
60.98
59.40
56.90
53.03
47.66
41.01
33.62
26.14
19.01
12.30
5.71
-1.24
-8.91
-17.35
-26.21
-34.98
-43.14
-50.45
-57.05
-63.41
-70.23
-78.22
-87.80
-98.81
-110.24
-120.28
-126.58
-126.94
-120.01
-105.82
-85.80
-62.36
-38.10
-15.13
5.37
23.10
38.29
51.29
62.20
70.95
77.39
81.53
83.63
84.18
83.70
82.60
81.14
79.43
77.56
75.63
73.78
72.08
70.49
68.87
67.00
64.63
61.55
57.60
52.68
46.85
40.32
33.47
26.71
20.40
14.65
9.28
3.95
-1.77
-8.17
-15.29
-22.95
-30.78
-38.38
-45.44
-51.87
-57.78
-63.47
-69.46
-76.30
-84.51
-94.31
-105.29
-116.19
-125.00
-129.37
-127.35
-118.05
-102.07
-81.27
-58.22
-35.34
-14.39
3.79
19.06
31.59
41.61
49.22
54.54
57.76
59.26
59.52
59.02
58.14
57.09
55.92
54.66
53.36
52.19
51.33
50.84
50.57
50.05
48.67
45.86
41.41
35.54
28.85
22.02
15.55
9.56
3.85
-1.92
-7.97
-14.25
-20.51
-26.42
-31.74
-36.44
-40.71
-44.97
-49.79
-55.83
-63.59
-73.12
-83.75
-93.91
-101.48
-104.30
-100.85
-90.82
-75.18
-55.86
-35.15
-14.98
3.35
19.29
32.80
43.97
52.88
59.52
63.87
66.06
66.45
65.57
63.99
62.17
60.36
58.59
56.79
54.89
52.98
51.18
49.60
48.17
46.58
44.31
40.87
36.02
29.87
22.92
15.87
9.32
3.53
-1.62
-6.58
-11.92
-18.03
-24.98
-32.53
-40.20
-47.50
-54.15
-60.13
-65.71
-71.42
-77.90
-85.70
-95.08
-105.70
-116.41
-125.34
-130.21
-129.04
-120.82
-105.90
-85.90
-63.16
-40.00
-18.14
1.53
18.78
33.69
46.33
56.74
64.89
70.88
74.90
77.33
78.55
78.98
78.93
78.62
78.10
77.32
76.18
74.64
72.73
70.60
68.42
66.24
63.92
61.19
57.69
53.17
47.62
41.30
34.61
28.02
21.78
15.93
10.20
4.23
-2.34
-9.63
-17.52
-25.60
-33.42
-40.63
-47.11
-53.04
-58.82
-64.95
-71.99
-80.37
-90.28
-101.38
-112.57
-121.94
-127.16
-126.10
-117.62
-102.08
-81.29
-57.93
-34.62
-13.25
5.33
21.09
34.32
45.25
53.88
60.15
64.13
66.15
66.75
66.55
65.99
65.30
64.48
63.44
62.10
60.52
58.88
57.41
56.21
55.23
54.16
52.56
49.98
46.18
41.13
35.14
28.64
22.13
15.97
10.29
5.01
-0.08
-5.25
-10.70
-16.49
-22.52
-28.60
-34.50
-40.06
-45.28
-50.32
-55.44
-61.03
-67.52
-75.32
-84.60
-94.96
-105.29
-113.65
-117.76
-115.62
-106.27
-90.22
-69.35
-46.36
-23.89
-3.81
13.02
26.56
37.21
45.37
51.29
55.08
56.91
57.09
56.16
54.72
53.36
52.41
51.99
52.02
52.35
52.79
53.20
53.43
53.25
52.40
50.58
47.64
43.58
38.66
33.25
27.72
22.30
16.98
11.60
5.92
-0.20
-6.71
-13.36
-19.78
-25.65
-30.95
-35.96
-41.33
-47.88
-56.15
-66.12
-76.90
-86.77
-93.48
-94.90
-89.68
-77.71
-60.23
-39.38
-17.73
2.48
19.71
33.27
43.17
49.81
53.74
55.49
55.48
54.19
52.05
49.55
47.12
45.08
43.54
42.45
41.63
40.89
40.03
38.93
37.44
35.38
32.55
28.82
24.19
18.83
13.04
7.07
1.04
-5.10
-11.57
-18.54
-26.02
-33.78
-41.43
-48.63
-55.16
-61.22
-67.26
-73.97
-81.96
-91.51
-102.23
-112.91
-121.63
-126.09
-124.30
-115.23
-99.18
-77.78
-53.49
-28.92
-6.15
13.54
29.77
42.69
52.72
60.29
65.83
69.65
72.06
73.31
73.54
72.90
71.49
69.49
67.18
64.87
62.84
61.25
60.02
58.85
57.31
54.91
51.30
46.39
40.33
33.49
26.28
19.01
11.80
4.55
-2.94
-10.80
-19.00
-27.29
-35.32
-42.81
-49.69
-56.18
-62.77
-70.10
-78.82
-89.31
-101.30
-113.67
-124.41
-130.95
-130.98
-123.16
-107.76
-86.62
-62.56
-38.54
-16.75
1.73
16.81
29.00
38.85
46.71
52.73
56.98
59.62
60.97
61.50
61.61
61.59
61.54
61.39
61.09
60.63
60.09
59.59
59.08
58.30
56.83
54.20
50.13
44.74
38.49
32.04
25.93
20.40
15.25
10.00
4.12
-2.67
-10.25
-18.18
-25.81
-32.64
-38.48
-43.59
-48.59
-54.31
-61.51
-70.57
-81.14
-92.00
-101.08
-105.93
-104.45
-95.59
-79.83
-59.02
-35.85
-12.97
7.62
24.88
38.61
49.03
56.48
61.24
63.53
63.72
62.31
60.01
57.59
55.69
54.68
54.57
54.99
55.43
55.37
54.51
52.83
50.52
47.83
44.82
41.37
37.17
31.91
25.42
17.79
9.40
0.76
-7.59
-15.27
-22.17
-28.46
-34.54
-40.97
-48.36
-57.19
-67.61
-79.15
-90.56
-99.87
-104.81
-103.44
-94.84
-79.51
-59.20
-36.37
-13.48
7.63
25.92
41.04
53.01
61.99
68.15
71.73
73.09
72.76
71.30
69.23
67.01
64.92
63.18
61.87
60.97
60.29
59.54
58.36
56.42
53.51
49.56
44.70
39.14
33.06
26.60
19.77
12.58
5.03
-2.80
-10.77
-18.72
-26.50
-34.00
-41.20
-48.18
-55.17
-62.62
-71.10
-81.06
-92.50
-104.60
-115.60
-123.12
-124.78
-119.05
-105.77
-86.25
-62.89
-38.38
-15.04
5.70
23.30
37.85
49.73
59.26
66.60
71.85
75.11
76.68
76.98
76.50
75.57
74.33
72.76
70.80
68.51
66.13
63.97
62.20
60.72
59.08
56.66
52.91
47.60
40.91
33.40
25.78
18.67
12.35
6.66
1.09
-5.00
-12.03
-20.03
-28.56
-36.94
-44.52
-51.00
-56.54
-61.77
-67.57
-74.80
-83.97
-94.92
-106.62
-117.23
-124.40
-125.83
-120.02
-106.70
-87.08
-63.46
-38.58
-14.86
6.14
23.78
38.19
49.78
58.96
65.94
70.83
73.77
75.06
75.20
74.67
73.86
72.89
71.68
70.09
68.10
65.89
63.78
62.09
60.87
59.81
58.31
55.70
51.48
45.57
38.39
30.68
23.28
16.77
11.33
6.64
2.09
-2.93
-8.84
-15.62
-22.91
-30.16
-36.88
-42.84
-48.18
-53.34
-58.94
-65.67
-73.97
-83.82
-94.54
-104.60
-111.90
-114.19
-109.78
-98.14
-80.13
-57.83
-33.87
-10.78
9.66
26.57
39.86
49.88
57.11
61.94
64.71
65.69
65.23
63.75
61.73
59.65
57.87
56.57
55.71
55.08
54.36
53.22
51.40
48.76
45.28
41.00
36.04
30.55
24.67
18.51
12.12
5.49
-1.39
-8.51
-15.73
-22.87
-29.72
-36.12
-42.05
-47.63
-53.19
-59.23
-66.35
-75.04
-85.27
-96.20
-106.12
-112.66
-113.51
-107.17
-93.57
-74.13
-51.31
-27.83
-5.93
13.08
28.78
41.31
51.00
58.11
62.84
65.42
66.23
65.78
64.63
63.18
61.64
60.00
58.22
56.29
54.37
52.64
51.23
50.04
48.70
46.67
43.43
38.70
32.61
25.63
18.40
11.43
4.92
-1.29
-7.64
-14.50
-22.05
-30.11
-38.24
-45.90
-52.76
-58.83
-64.47
-70.36
-77.31
-85.94
-96.44
-108.17
-119.65
-128.62
-132.62
-129.66
-118.95
-101.21
-78.47
-53.46
-28.85
-6.52
12.64
28.60
41.75
52.53
61.12
67.54
71.79
74.05
74.75
74.48
73.80
73.03
72.23
71.23
69.88
68.17
66.27
64.45
62.82
61.19
59.13
56.06
51.60
45.73
38.84
31.64
24.75
18.54
12.91
7.41
1.42
-5.43
-13.20
-21.47
-29.65
-37.18
-43.80
-49.69
-55.39
-61.61
-69.10
-78.30
-89.15
-100.89
-111.92
-120.01
-122.82
-118.53
-106.50
-87.66
-64.23
-39.13
-15.10
5.98
23.33
37.08
47.77
55.92
61.83
65.64
67.52
67.78
66.92
65.41
63.58
61.57
59.41
57.13
54.91
52.99
51.54
50.51
49.56
48.10
45.60
41.76
36.68
30.80
24.70
18.83
13.32
7.97
2.40
-3.70
-10.42
-17.54
-24.65
-31.29
-37.18
-42.30
-46.98
-51.81
-57.56
-64.88
-73.96
-84.19
-94.02
-101.20
-103.33
-98.66
-86.70
-68.49
-46.30
-22.92
-0.90
18.05
33.23
44.66
52.78
58.01
60.73
61.25
60.01
57.61
54.73
52.00
49.81
48.25
47.19
46.43
45.77
45.06
44.13
42.74
40.62
37.53
33.38
28.32
22.65
16.66
10.57
4.42
-1.87
-8.42
-15.29
-22.41
-29.65
-36.80
-43.69
-50.23
-56.52
-62.90
-69.91
-78.17
-88.06
-99.34
-110.79
-120.25
-125.12
-123.10
-113.11
-95.70
-72.94
-47.69
-22.75
-0.05
19.47
35.73
48.99
59.50
67.45
72.94
76.24
77.72
77.84
76.99
75.47
73.50
71.26
68.96
66.80
64.95
63.42
62.07
60.55
58.42
55.30
51.01
45.62
39.46
32.96
26.44
19.97
13.41
6.44
-1.18
-9.47
-18.23
-27.03
-35.43
-43.11
-50.03
-56.44
-62.92
-70.22
-78.99
-89.48
-101.13
-112.44
-121.12
-124.64
-121.02
-109.55
-91.11
-67.91
-42.80
-18.40
3.49
22.08
37.35
49.64
59.26
66.43
71.26
73.99
75.01
74.82
73.92
72.61
71.03
69.16
66.96
64.54
62.09
59.87
58.01
56.38
54.59
52.11
48.48
43.53
37.52
30.95
24.42
18.29
12.56
6.86
0.66
-6.40
-14.35
-22.84
-31.22
-38.91
-45.56
-51.26
-56.50
-62.08
-68.83
-77.38
-87.79
-99.27
-110.07
-117.74
-119.76
-114.35
-101.13
-81.35
-57.56
-32.75
-9.58
10.26
26.16
38.30
47.21
53.38
57.15
58.77
58.53
56.88
54.43
51.83
49.55
47.82
46.55
45.52
44.46
43.23
41.80
40.19
38.45
36.61
34.72
32.87
31.25
30.06
29.40
29.21
29.25
29.17
28.66
27.51
25.60
22.92
19.48
15.31
10.44
4.95
-1.02
-7.30
-13.67
-19.92
-25.85
-31.38
-36.53
-41.50
-46.70
-52.63
-59.77
-68.29
-77.71
-86.73
-93.42
-95.62
-91.64
-80.92
-64.27
-43.67
-21.71
-0.76
17.55
32.52
44.13
52.67
58.38
61.37
61.77
59.96
56.61
52.67
49.07
46.42
44.88
44.11
43.52
42.51
40.71
38.12
35.00
31.69
28.41
25.07
21.30
16.61
10.62
3.27
-5.12
-13.96
-22.59
-30.54
-37.65
-44.12
-50.37
-56.90
-64.22
-72.77
-82.81
-94.06
-105.51
-115.28
-120.93
-120.16
-111.68
-95.75
-74.23
-49.98
-25.88
-4.06
14.54
29.95
42.67
53.14
61.48
67.51
71.03
72.08
71.08
68.78
66.02
63.53
61.66
60.39
59.40
58.25
56.59
54.26
51.26
47.69
43.63
39.08
33.96
28.15
21.53
14.08
5.94
-2.63
-11.25
-19.57
-27.32
-34.45
-41.10
-47.60
-54.38
-61.98
-70.88
-81.31
-92.96
-104.71
-114.59
-120.21
-119.37
-110.91
-95.14
-73.82
-49.59
-25.18
-2.61
17.05
33.60
47.32
58.54
67.48
74.16
78.61
80.98
81.58
80.85
79.25
77.17
74.87
72.51
70.21
68.08
66.17
64.43
62.65
60.43
57.30
52.90
47.16
40.36
33.00
25.64
18.62
11.96
5.35
-1.59
-9.17
-17.33
-25.75
-33.91
-41.44
-48.27
-54.71
-61.43
-69.17
-78.50
-89.49
-101.46
-112.87
-121.51
-124.97
-121.35
-109.97
-91.59
-68.42
-43.32
-19.07
2.40
20.26
34.59
45.92
54.77
61.43
65.99
68.46
69.02
68.03
66.03
63.62
61.32
59.46
58.14
57.23
56.42
55.31
53.58
51.07
47.84
44.10
40.04
35.70
30.89
25.38
18.99
11.79
4.14
-3.46
-10.57
-17.00
-22.86
-28.43
-34.05
-40.02
-46.58
-54.02
-62.57
-72.18
-82.14
-90.97
-96.56
-96.75
-90.10
-76.54
-57.49
-35.45
-13.18
7.08
24.08
37.55
47.83
55.42
60.61
63.51
64.16
62.81
60.04
56.66
53.52
51.23
49.94
49.37
48.95
48.12
46.58
44.30
41.50
38.44
35.24
31.72
27.55
22.31
15.76
7.92
-0.83
-9.91
-18.74
-26.88
-34.17
-40.72
-46.84
-52.97
-59.61
-67.23
-76.20
-86.45
-97.20
-106.92
-113.39
-114.38
-108.31
-94.95
-75.58
-52.63
-28.92
-6.81
12.28
28.04
40.81
51.17
59.48
65.79
70.03
72.20
72.58
71.69
70.13
68.38
66.62
64.84
62.93
60.88
58.83
56.98
55.37
53.81
51.78
48.66
43.97
37.69
30.30
22.61
15.43
9.20
3.78
-1.47
-7.33
-14.34
-22.52
-31.35
-39.98
-47.68
-54.12
-59.54
-64.62
-70.30
-77.45
-86.60
-97.62
-109.50
-120.38
-127.78
-129.27
-123.21
-109.36
-89.09
-64.92
-39.76
-16.07
4.69
22.12
36.52
48.45
58.29
66.18
72.09
76.02
78.14
78.80
78.44
77.43
76.03
74.29
72.25
69.92
67.41
64.90
62.51
60.27
58.05
55.60
52.61
48.80
44.03
38.32
31.85
24.97
18.16
11.83
6.23
1.26
-3.49
-8.59
-14.55
-21.51
-29.19
-36.97
-44.19
-50.42
-55.70
-60.45
-65.35
-71.05
-78.04
-86.57
-96.56
-107.50
-118.17
-126.73
-130.90
-128.62
-118.76
-101.65
-79.07
-53.72
-28.43
-5.33
14.44
30.70
43.79
54.14
62.06
67.67
71.06
72.44
72.22
70.97
69.33
67.81
66.61
65.65
64.68
63.41
61.79
60.02
58.37
57.00
55.73
54.08
51.45
47.40
41.91
35.37
28.47
21.89
16.07
11.07
6.57
2.01
-3.14
-9.17
-15.97
-23.06
-29.79
-35.65
-40.48
-44.59
-48.61
-53.30
-59.30
-66.96
-76.17
-86.30
-96.01
-103.43
-106.42
-103.25
-93.14
-76.71
-55.83
-33.08
-11.00
8.56
24.68
37.26
46.62
53.18
57.29
59.22
59.33
58.14
56.27
54.38
52.93
52.09
51.70
51.45
51.00
50.20
49.13
47.96
46.78
45.45
43.59
40.72
36.50
30.91
24.37
17.51
10.92
4.92
-0.63
-6.17
-12.27
-19.22
-26.96
-34.99
-42.67
-49.47
-55.23
-60.29
-65.34
-71.25
-78.76
-88.18
-99.09
-110.23
-119.54
-124.60
-123.29
-114.51
-98.59
-77.23
-53.04
-28.72
-6.36
12.90
28.81
41.63
51.77
59.52
65.04
68.49
70.11
70.33
69.64
68.50
67.23
65.94
64.57
63.05
61.36
59.64
58.11
56.87
55.85
54.60
52.58
49.21
44.29
37.99
30.88
23.63
16.75
10.45
4.56
-1.27
-7.43
-14.16
-21.45
-29.11
-36.78
-44.10
-50.80
-56.87
-62.61
-68.61
-75.66
-84.40
-95.03
-106.91
-118.46
-127.33
-130.99
-127.50
-116.19
-97.94
-74.90
-49.86
-25.42
-3.35
15.57
31.32
44.27
54.74
62.87
68.75
72.50
74.46
75.12
74.99
74.46
73.68
72.62
71.19
69.39
67.36
65.40
63.76
62.49
61.36
59.86
57.42
53.60
48.29
41.77
34.59
27.41
20.71
14.66
9.08
3.54
-2.42
-9.07
-16.42
-24.18
-31.91
-39.21
-45.84
-51.82
-57.44
-63.18
-69.65
-77.43
-86.77
-97.28
-107.70
-115.97
-119.66
-116.74
-106.31
-89.03
-66.96
-42.86
-19.41
1.53
19.13
33.34
44.55
53.10
59.22
63.00
64.60
64.39
62.94
60.91
58.90
57.27
56.12
55.32
54.70
54.12
53.53
52.89
52.04
50.68
48.44
45.07
40.54
35.12
29.17
23.07
16.94
10.70
4.18
-2.68
-9.76
-16.78
-23.43
-29.52
-35.09
-40.40
-45.89
-52.10
-59.48
-68.16
-77.71
-86.89
-93.80
-96.33
-92.78
-82.55
-66.41
-46.25
-24.56
-3.64
14.86
30.17
42.12
50.87
56.67
59.78
60.49
59.31
56.88
53.90
50.98
48.55
46.75
45.54
44.68
43.88
42.89
41.52
39.70
37.43
34.72
31.56
27.80
23.24
17.72
11.19
3.81
-4.12
-12.23
-20.24
-27.95
-35.31
-42.30
-49.00
-55.60
-62.49
-70.20
-79.20
-89.57
-100.60
-110.71
-117.66
-119.21
-113.85
-101.32
-82.76
-60.28
-36.39
-13.32
7.40
24.99
39.25
50.35
58.60
64.34
67.96
69.84
70.39
70.00
69.02
67.72
66.28
64.77
63.23
61.65
60.03
58.28
56.28
53.81
50.61
46.51
41.47
35.64
29.25
22.52
15.56
8.39
0.95
-6.74
-14.55
-22.30
-29.76
-36.85
-43.68
-50.53
-57.82
-66.02
-75.53
-86.45
-98.34
-110.01
-119.53
-124.62
-123.31
-114.59
-98.88
-77.88
-54.10
-30.08
-7.73
11.88
28.49
42.25
53.45
62.31
68.98
73.61
76.36
77.52
77.40
76.37
74.78
72.93
71.03
69.21
67.54
66.02
64.64
63.28
61.73
59.62
56.52
52.10
46.31
39.43
31.99
24.64
17.79
11.48
5.36
-1.09
-8.29
-16.31
-24.79
-33.15
-40.81
-47.46
-53.26
-58.78
-64.87
-72.41
-81.96
-93.38
-105.57
-116.53
-123.75
-124.86
-118.47
-104.63
-84.86
-61.63
-37.64
-15.05
4.83
21.54
35.14
45.92
54.10
59.88
63.47
65.17
65.41
64.69
63.47
62.13
60.91
59.89
59.04
58.25
57.34
56.16
54.56
52.43
49.73
46.48
42.68
38.33
33.38
27.78
21.51
14.59
7.21
-0.40
-7.96
-15.24
-22.07
-28.45
-34.54
-40.68
-47.40
-55.18
-64.24
-74.22
-83.99
-91.75
-95.40
-93.25
-84.54
-69.77
-50.57
-29.19
-7.95
11.38
27.74
40.80
50.74
57.89
62.56
64.98
65.32
63.88
61.15
57.81
54.58
52.00
50.26
49.17
48.33
47.29
45.72
43.50
40.68
37.36
33.63
29.46
24.75
19.35
13.12
6.05
-1.75
-9.97
-18.19
-26.06
-33.37
-40.10
-46.48
-52.82
-59.58
-67.22
-76.17
-86.54
-97.90
-108.95
-117.65
-121.55
-118.65
-108.10
-90.59
-68.22
-43.81
-19.99
1.47
19.88
35.33
48.28
59.08
67.81
74.34
78.58
80.64
80.81
79.59
77.48
74.93
72.27
69.72
67.37
65.20
63.05
60.68
57.83
54.25
49.83
44.57
38.59
32.08
25.21
18.08
10.69
3.02
-4.97
-13.24
-21.67
-30.02
-38.02
-45.47
-52.33
-58.84
-65.54
-73.18
-82.36
-93.16
-104.72
-115.18
-122.04
-122.86
-116.17
-102.03
-82.04
-58.79
-35.05
-12.91
6.47
22.85
36.47
47.64
56.55
63.27
67.87
70.56
71.67
71.64
70.85
69.56
67.91
65.94
63.74
61.45
59.28
57.35
55.59
53.68
51.13
47.48
42.55
36.52
29.89
23.25
16.97
11.08
5.24
-1.01
-8.01
-15.71
-23.75
-31.58
-38.74
-45.08
-50.83
-56.60
-63.17
-71.21
-80.96
-91.86
-102.47
-110.61
-113.93
-110.64
-100.15
-83.36
-62.33
-39.68
-17.74
1.91
18.58
32.23
43.08
51.39
57.27
60.86
62.38
62.23
60.91
58.99
56.98
55.24
53.93
53.00
52.26
51.40
50.18
48.46
46.25
43.66
40.73
37.35
33.32
28.33
22.21
15.00
7.04
-1.15
-9.03
-16.24
-22.66
-28.47
-34.06
-39.94
-46.63
-54.57
-63.94
-74.44
-85.11
-94.30
-99.96
-100.16
-93.74
-80.73
-62.40
-40.96
-18.86
1.76
19.53
33.88
44.83
52.72
57.95
60.86
61.80
61.14
59.34
56.92
54.36
52.05
50.24
48.93
47.96
47.09
46.00
44.42
42.14
39.03
35.09
30.42
25.24
19.74
14.07
8.22
2.06
-4.59
-11.83
-19.61
-27.68
-35.67
-43.28
-50.33
-56.89
-63.30
-70.08
-77.88
-87.23
-98.22
-110.14
-121.30
-129.21
-131.30
-125.70
-112.05
-91.68
-67.23
-41.77
-17.83
3.06
20.55
34.92
46.72
56.33
63.90
69.49
73.19
75.24
75.96
75.72
74.80
73.43
71.77
69.95
68.12
66.39
64.78
63.16
61.26
58.67
55.03
50.13
44.06
37.19
30.02
23.03
16.38
9.95
3.35
-3.80
-11.67
-20.12
-28.73
-37.02
-44.69
-51.74
-58.55
-65.74
-74.08
-84.13
-95.90
-108.45
-119.86
-127.51
-128.84
-122.30
-107.91
-87.40
-63.56
-39.32
-16.86
2.73
19.28
33.06
44.34
53.20
59.63
63.81
66.20
67.44
68.13
68.64
68.97
68.86
68.08
66.54
64.51
62.44
60.73
59.56
58.69
57.53
55.41
51.87
46.86
40.73
34.16
27.74
21.86
16.50
11.33
5.85
-0.33
-7.32
-14.89
-22.61
-29.99
-36.62
-42.40
-47.46
-52.27
-57.52
-63.99
-72.24
-82.20
-92.90
-102.38
-108.16
-107.93
-100.45
-86.02
-66.38
-44.14
-21.90
-1.56
15.91
30.31
41.79
50.54
56.65
60.17
61.30
60.52
58.50
56.00
53.70
52.00
50.99
50.45
50.02
49.30
48.08
46.32
44.15
41.73
39.13
36.29
32.99
28.98
24.06
18.17
11.46
4.25
-3.05
-10.03
-16.46
-22.32
-27.79
-33.25
-39.15
-45.96
-54.02
-63.45
-73.85
-84.18
-92.70
-97.30
-96.05
-87.93
-73.23
-53.63
-31.62
-9.80
9.84
26.25
39.23
49.03
55.95
60.22
61.95
61.38
59.01
55.58
51.95
48.81
46.58
45.23
44.44
43.74
42.70
41.06
38.76
35.90
32.62
28.98
24.93
20.29
14.89
8.60
1.39
-6.59
-15.09
-23.79
-32.30
-40.35
-47.77
-54.63
-61.26
-68.24
-76.24
-85.79
-96.98
-109.13
-120.68
-129.38
-132.82
-129.13
-117.65
-99.23
-76.01
-50.84
-26.36
-4.44
14.14
29.44
41.95
52.14
60.27
66.38
70.47
72.67
73.25
72.63
71.26
69.55
67.75
66.02
64.35
62.65
60.77
58.55
55.84
52.53
48.57
43.94
38.66
32.77
26.34
19.41
12.04
4.24
-3.92
-12.30
-20.68
-28.81
-36.50
-43.77
-50.90
-58.47
-67.15
-77.41
-89.17
-101.49
-112.53
-119.93
-121.38
-115.48
-102.17
-82.85
-59.95
-36.16
-13.75
5.96
22.52
36.14
47.22
56.07
62.80
67.48
70.24
71.33
71.18
70.22
68.84
67.30
65.71
64.14
62.59
61.04
59.39
57.49
55.07
51.91
47.88
42.99
37.37
31.19
24.55
17.51
10.08
2.34
-5.55
-13.37
-20.88
-27.94
-34.54
-40.82
-47.08
-53.76
-61.36
-70.26
-80.40
-90.96
-100.30
-106.22
-106.60
-100.15
-86.92
-68.36
-46.82
-24.82
-4.36
13.48
28.40
40.52
49.98
56.80
60.90
62.41
61.81
59.90
57.69
55.93
55.01
54.79
54.77
54.42
53.39
51.68
49.51
47.25
45.04
42.77
40.02
36.26
31.03
24.21
16.05
7.13
-1.80
-10.17
-17.67
-24.42
-30.84
-37.55
-45.13
-54.04
-64.31
-75.38
-86.01
-94.36
-98.40
-96.42
-87.70
-72.77
-53.36
-31.87
-10.61
8.70
25.24
38.86
49.74
58.04
63.75
66.84
67.48
66.17
63.70
60.96
58.61
56.94
55.83
54.92
53.78
52.14
49.91
47.14
43.92
40.31
36.25
31.62
26.23
19.95
12.70
4.56
-4.19
-13.14
-21.78
-29.69
-36.70
-43.00
-49.12
-55.77
-63.70
-73.34
-84.64
-96.84
-108.46
-117.44
-121.65
-119.46
-110.25
-94.67
-74.46
-51.88
-29.07
-7.57
11.82
28.86
43.56
55.97
66.05
73.76
79.17
82.49
84.04
84.22
83.39
81.86
79.90
77.69
75.37
73.07
70.90
68.84
66.75
64.30
61.03
56.55
50.69
43.65
35.95
28.17
20.77
13.87
7.24
0.49
-6.75
-14.64
-23.02
-31.53
-39.78
-47.41
-54.37
-60.81
-67.21
-74.23
-82.61
-92.82
-104.72
-117.21
-128.20
-135.12
-135.61
-128.40
-113.75
-93.40
-69.89
-45.74
-22.78
-1.91
16.70
33.16
47.49
59.52
68.96
75.70
79.89
81.94
82.47
82.07
81.20
80.07
78.73
77.14
75.29
73.29
71.33
69.53
67.85
66.03
63.67
60.34
55.75
49.90
43.10
35.85
28.68
21.98
15.81
10.01
4.23
-1.88
-8.50
-15.57
-22.84
-29.97
-36.63
-42.67
-48.14
-53.31
-58.60
-64.54
-71.64
-80.25
-90.29
-100.99
-110.85
-117.85
-119.87
-115.46
-104.26
-87.25
-66.39
-44.07
-22.36
-2.61
14.62
29.30
41.56
51.47
58.93
63.88
66.40
66.88
65.87
64.03
61.94
59.98
58.40
57.28
56.65
56.40
56.32
56.02
55.03
52.90
49.40
44.56
38.68
32.19
25.50
18.82
12.16
5.37
-1.77
-9.35
-17.28
-25.31
-33.07
-40.26
-46.83
-53.06
-59.56
-67.05
-76.08
-86.67
-98.02
-108.52
-115.96
-118.20
-113.74
-102.31
-84.90
-63.51
-40.48
-17.90
2.82
20.97
36.34
48.92
58.74
65.85
70.44
72.88
73.77
73.68
73.14
72.40
71.54
70.45
69.03
67.27
65.24
63.12
61.01
58.88
56.52
53.57
49.68
44.64
38.49
31.55
24.31
17.21
10.50
4.13
-2.20
-8.88
-16.21
-24.20
-32.60
-40.91
-48.68
-55.61
-61.76
-67.51
-73.51
-80.54
-89.17
-99.56
-110.97
-121.84
-129.84
-132.59
-128.38
-116.76
-98.79
-76.61
-52.77
-29.39
-7.80
11.52
28.54
43.33
55.84
65.89
73.36
78.33
81.14
82.26
82.19
81.37
80.05
78.41
76.49
74.39
72.18
70.00
67.93
65.98
64.00
61.70
58.78
54.96
50.15
44.42
38.01
31.21
24.35
17.69
11.42
5.58
0.05
-5.43
-11.17
-17.39
-24.13
-31.24
-38.39
-45.28
-51.71
-57.70
-63.47
-69.42
-76.07
-83.89
-93.18
-103.72
-114.57
-124.02
-129.86
-130.00
-123.14
-109.34
-89.95
-67.25
-43.69
-21.25
-1.12
16.28
30.96
43.06
52.66
59.82
64.67
67.45
68.55
68.36
67.30
65.71
63.84
61.91
60.10
58.60
57.54
56.95
56.67
56.35
55.49
53.59
50.32
45.65
39.88
33.55
27.19
21.23
15.81
10.73
5.60
-0.00
-6.30
-13.19
-20.27
-27.01
-33.04
-38.34
-43.32
-48.76
-55.43
-63.88
-73.97
-84.78
-94.54
-100.98
-101.94
-96.07
-83.31
-65.02
-43.53
-21.45
-0.91
16.83
31.38
42.89
51.64
57.86
61.70
63.40
63.38
62.22
60.56
58.86
57.38
56.08
54.80
53.39
51.83
50.29
48.96
47.92
46.98
45.64
43.30
39.50
34.13
27.60
20.58
13.81
7.71
2.24
-3.05
-8.79
-15.44
-23.07
-31.31
-39.54
-47.16
-53.81
-59.51
-64.63
-69.79
-75.74
-83.17
-92.49
-103.55
-115.29
-125.77
-132.49
-133.10
-126.24
-112.03
-92.08
-68.92
-45.17
-22.87
-3.10
13.87
28.22
40.25
50.17
58.08
64.07
68.31
71.04
72.53
73.11
73.01
72.43
71.46
70.13
68.52
66.73
64.95
63.35
61.94
60.57
58.81
56.18
52.26
46.86
40.14
32.59
24.85
17.54
11.04
5.29
-0.10
-5.75
-12.18
-19.53
-27.54
-35.59
-43.03
-49.48
-55.02
-60.10
-65.44
-71.74
-79.55
-89.07
-99.91
-110.94
-120.24
-125.51
-124.61
-116.38
-101.10
-80.47
-57.08
-33.54
-11.80
7.18
23.25
36.67
47.74
56.61
63.33
68.05
71.02
72.67
73.39
73.52
73.18
72.43
71.26
69.77
68.13
66.63
65.48
64.70
64.06
63.09
61.20
57.86
52.86
46.35
38.92
31.34
24.33
18.23
12.88
7.78
2.25
-4.08
-11.23
-18.77
-26.08
-32.69
-38.41
-43.48
-48.42
-53.89
-60.54
-68.75
-78.45
-88.80
-98.19
-104.44
-105.37
-99.50
-86.66
-68.10
-46.15
-23.50
-2.46
15.50
29.82
40.60
48.25
53.26
56.08
57.11
56.77
55.51
53.70
51.72
49.81
48.16
46.88
45.95
45.30
44.77
44.16
43.24
41.75
39.45
36.15
31.81
26.57
20.75
14.72
8.74
2.85
-3.12
-9.44
-16.26
-23.58
-31.10
-38.43
-45.24
-51.40
-57.08
-62.72
-68.97
-76.52
-85.83
-96.74
-108.20
-118.21
-124.21
-123.81
-115.66
-100.03
-78.74
-54.60
-30.47
-8.48
10.37
25.99
38.71
48.87
56.60
61.95
65.06
66.35
66.39
65.76
64.84
63.70
62.25
60.43
58.36
56.36
54.80
53.81
53.17
52.24
50.26
46.63
41.22
34.47
27.12
19.97
13.45
7.54
1.78
-4.40
-11.38
-19.16
-27.37
-35.46
-42.93
-49.56
-55.49
-61.28
-67.72
-75.59
-85.37
-96.84
-108.88
-119.46
-126.13
-126.58
-119.48
-104.91
-84.43
-60.60
-36.20
-13.51
6.18
22.52
35.85
46.71
55.55
62.59
67.88
71.50
73.63
74.57
74.71
74.35
73.67
72.72
71.50
70.05
68.47
66.91
65.44
63.95
62.11
59.45
55.50
50.04
43.20
35.58
27.92
20.89
14.76
9.22
3.59
-2.88
-10.52
-19.13
-27.97
-36.21
-43.29
-49.22
-54.56
-60.21
-67.08
-75.80
-86.40
-98.13
-109.35
-117.81
-121.08
-117.35
-106.03
-88.06
-65.68
-41.67
-18.56
1.98
19.27
33.35
44.59
53.28
59.57
63.62
65.66
66.14
65.62
64.68
63.71
62.86
62.14
61.48
60.83
60.18
59.47
58.55
57.16
55.01
51.88
47.78
42.92
37.59
32.07
26.47
20.72
14.66
8.15
1.15
-6.22
-13.77
-21.23
-28.40
-35.19
-41.66
-48.16
-55.24
-63.46
-73.03
-83.31
-92.75
-99.01
-99.74
-93.40
-79.91
-60.77
-38.48
-15.86
4.92
22.61
36.84
47.74
55.54
60.35
62.27
61.59
58.94
55.25
51.57
48.72
47.06
46.43
46.31
46.05
45.19
43.54
41.21
38.45
35.46
32.28
28.73
24.52
19.36
13.10
5.85
-1.99
-9.89
-17.40
-24.28
-30.66
-36.93
-43.57
-51.02
-59.61
-69.45
-80.41
-91.87
-102.55
-110.56
-113.64
-109.93
-98.66
-80.56
-57.82
-33.37
-10.02
10.33
26.90
39.90
49.96
57.68
63.31
66.87
68.33
67.91
66.15
63.77
61.49
59.71
58.43
57.39
56.20
54.60
52.52
50.03
47.25
44.22
40.81
36.80
31.96
26.08
19.11
11.19
2.64
-6.11
-14.64
-22.65
-30.05
-36.99
-43.77
-50.78
-58.42
-67.17
-77.35
-88.98
-101.37
-112.95
-121.38
-124.14
-119.37
-106.63
-87.20
-63.64
-39.02
-15.90
4.24
21.07
34.99
46.59
56.18
63.75
69.09
72.13
73.08
72.47
70.99
69.26
67.69
66.37
65.19
63.93
62.41
60.54
58.27
55.54
52.20
48.15
43.30
37.70
31.48
24.74
17.51
9.74
1.38
-7.46
-16.50
-25.34
-33.63
-41.23
-48.25
-55.11
-62.38
-70.68
-80.43
-91.53
-103.05
-113.21
-119.63
-119.99
-112.91
-98.41
-78.10
-54.64
-30.86
-8.95
9.92
25.54
38.26
48.47
56.37
61.99
65.32
66.55
66.12
64.65
62.81
61.09
59.79
58.90
58.24
57.53
56.51
54.98
52.85
50.12
46.83
43.01
38.64
33.68
28.05
21.70
14.64
7.03
-0.86
-8.70
-16.19
-23.13
-29.49
-35.44
-41.32
-47.65
-54.95
-63.60
-73.51
-83.85
-93.03
-98.93
-99.49
-93.36
-80.51
-62.22
-40.77
-18.70
1.87
19.64
34.13
45.39
53.65
59.07
61.83
62.18
60.65
58.04
55.21
52.88
51.35
50.44
49.66
48.48
46.66
44.30
41.73
39.28
36.99
34.50
31.22
26.55
20.17
12.23
3.30
-5.85
-14.50
-22.22
-29.02
-35.25
-41.55
-48.67
-57.25
-67.60
-79.41
-91.52
-101.96
-108.29
-108.29
-100.74
-85.93
-65.70
-42.81
-20.06
0.49
17.95
32.35
44.15
53.72
61.05
65.92
68.18
68.08
66.33
63.89
61.61
59.97
58.92
58.05
56.83
54.86
52.02
48.51
44.64
40.66
36.65
32.43
27.64
21.93
15.07
7.12
-1.61
-10.61
-19.40
-27.66
-35.36
-42.67
-49.96
-57.63
-66.15
-75.89
-87.02
-99.16
-111.13
-120.96
-126.19
-124.70
-115.42
-98.85
-76.95
-52.48
-28.14
-5.83
13.62
30.20
44.29
56.21
66.03
73.62
78.88
81.87
82.91
82.50
81.17
79.40
77.49
75.57
73.65
71.66
69.51
67.02
63.99
60.22
55.52
49.90
43.47
36.51
29.28
21.99
14.65
7.16
-0.62
-8.75
-17.19
-25.75
-34.17
-42.19
-49.70
-56.82
-63.99
-71.84
-81.06
-91.92
-103.91
-115.51
-124.40
-127.99
-124.29
-112.66
-94.07
-70.86
-45.92
-21.84
-0.29
18.13
33.57
46.45
57.07
65.45
71.51
75.26
76.96
77.08
76.21
74.87
73.43
72.07
70.85
69.71
68.54
67.18
65.45
63.15
60.12
56.22
51.47
45.98
39.96
33.63
27.11
20.39
13.35
5.83
-2.15
-10.38
-18.48
-26.06
-32.93
-39.16
-45.17
-51.60
-59.12
-68.13
-78.50
-89.29
-98.77
-104.68
-104.89
-98.07
-84.25
-64.87
-42.39
-19.45
1.73
19.90
34.66
46.21
54.85
60.83
64.29
65.42
64.56
62.30
59.35
56.44
54.10
52.55
51.64
51.00
50.13
48.63
46.28
43.14
39.43
35.42
31.23
26.74
21.70
15.79
8.83
0.92
-7.63
-16.37
-24.90
-32.92
-40.36
-47.29
-53.93
-60.63
-67.86
-76.17
-85.94
-97.06
-108.63
-118.81
-125.24
-125.65
-118.72
-104.52
-84.59
-61.40
-37.55
-15.11
4.72
21.51
35.36
46.47
55.05
61.25
65.33
67.67
68.76
69.11
69.10
68.92
68.54
67.86
66.79
65.41
63.95
62.66
61.61
60.55
58.94
56.15
51.75
45.74
38.63
31.17
24.07
17.70
11.94
6.32
0.20
-6.84
-14.86
-23.53
-32.25
-40.41
-47.59
-53.81
-59.51
-65.53
-72.83
-82.16
-93.56
-106.06
-117.63
-125.60
-127.43
-121.53
-107.92
-88.14
-64.80
-40.63
-17.79
2.55
20.05
34.82
47.06
56.84
64.16
69.12
72.01
73.30
73.54
73.17
72.47
71.50
70.19
68.41
66.17
63.63
61.09
58.86
57.08
55.52
53.66
50.88
46.73
41.15
34.52
27.50
20.72
14.55
8.92
3.48
-2.25
-8.66
-15.80
-23.42
-31.05
-38.18
-44.46
-49.87
-54.72
-59.60
-65.25
-72.35
-81.23
-91.54
-102.11
-110.96
-115.72
-114.31
-105.63
-90.03
-69.26
-45.96
-22.82
-1.89
15.75
29.93
40.96
49.25
55.14
58.85
60.70
61.06
60.44
59.27
57.86
56.35
54.80
53.29
51.99
50.98
50.28
49.65
48.69
46.95
44.16
40.29
35.57
30.33
24.88
19.34
13.66
7.69
1.34
-5.36
-12.23
-19.01
-25.47
-31.48
-37.10
-42.55
-48.23
-54.63
-62.18
-71.02
-80.72
-90.02
-97.01
-99.49
-95.75
-85.16
-68.52
-47.89
-25.92
-5.06
13.03
27.64
38.78
46.84
52.21
55.21
56.15
55.44
53.62
51.27
48.89
46.82
45.17
43.93
42.99
42.23
41.46
40.44
38.87
36.50
33.22
29.07
24.32
19.26
14.11
8.89
3.42
-2.59
-9.35
-16.86
-24.84
-32.81
-40.32
-47.11
-53.21
-58.97
-64.97
-71.85
-80.17
-90.12
-101.25
-112.25
-121.06
-125.26
-122.80
-112.78
-95.80
-73.85
-49.64
-25.82
-4.26
14.14
29.33
41.64
51.50
59.20
64.92
68.79
71.02
71.85
71.62
70.66
69.29
67.77
66.28
64.90
63.63
62.37
60.92
59.00
56.27
52.49
47.57
41.71
35.28
28.73
22.40
16.33
10.27
3.77
-3.51
-11.67
-20.42
-29.22
-37.48
-44.85
-51.41
-57.66
-64.46
-72.66
-82.82
-94.77
-107.33
-118.42
-125.43
-126.01
-118.87
-104.25
-83.90
-60.50
-36.81
-14.95
3.98
19.78
32.78
43.37
51.83
58.24
62.66
65.30
66.53
66.82
66.54
65.92
64.95
63.51
61.56
59.24
56.92
54.97
53.56
52.44
51.05
48.65
44.78
39.42
33.08
26.56
20.59
15.55
11.24
7.06
2.30
-3.52
-10.47
-18.14
-25.84
-32.88
-38.88
-43.90
-48.50
-53.54
-59.95
-68.36
-78.73
-90.07
-100.47
-107.46
-108.68
-102.64
-89.27
-70.01
-47.33
-24.00
-2.26
16.58
32.18
44.76
54.61
61.82
66.35
68.16
67.58
65.33
62.37
59.64
57.74
56.80
56.56
56.52
56.27
55.54
54.31
52.62
50.55
48.07
45.03
41.21
36.39
30.46
23.49
15.78
7.79
0.01
-7.22
-13.75
-19.70
-25.34
-31.09
-37.36
-44.59
-53.12
-62.97
-73.54
-83.52
-90.91
-93.54
-89.81
-79.24
-62.77
-42.49
-20.92
-0.32
17.86
32.96
44.93
53.96
60.24
63.93
65.27
64.65
62.64
59.88
56.96
54.29
52.06
50.30
48.88
47.60
46.24
44.59
42.42
39.56
35.87
31.32
25.95
19.93
13.45
6.63
-0.47
-7.85
-15.51
-23.38
-31.27
-38.96
-46.26
-53.11
-59.67
-66.31
-73.50
-81.79
-91.56
-102.68
-114.25
-124.46
-130.90
-131.19
-123.88
-109.05
-88.38
-64.60
-40.53
-18.29
1.13
17.66
31.74
43.74
53.82
61.90
67.91
71.87
74.01
74.67
74.20
72.96
71.20
69.18
67.09
65.09
63.30
61.67
60.02
57.99
55.14
51.14
45.91
39.65
32.81
25.84
19.02
12.33
5.50
-1.79
-9.72
-18.18
-26.83
-35.18
-42.90
-49.93
-56.54
-63.36
-71.12
-80.44
-91.51
-103.70
-115.54
-124.74
-128.88
-126.04
-115.59
-98.40
-76.58
-52.83
-29.56
-8.39
10.00
25.60
38.67
49.40
57.89
64.16
68.35
70.70
71.58
71.39
70.48
69.15
67.66
66.23
65.00
64.01
63.14
62.17
60.78
58.62
55.43
51.10
45.70
39.52
32.94
26.30
19.79
13.36
6.77
-0.22
-7.74
-15.68
-23.72
-31.42
-38.45
-44.73
-50.50
-56.37
-63.06
-71.19
-80.81
-91.14
-100.49
-106.58
-107.19
-100.88
-87.62
-68.81
-46.86
-24.42
-3.60
14.40
29.29
41.30
50.74
57.81
62.51
64.95
65.36
64.30
62.46
60.54
59.03
58.10
57.67
57.42
56.99
56.11
54.60
52.48
49.78
46.55
42.77
38.32
33.06
26.92
19.96
12.37
4.43
-3.55
-11.30
-18.67
-25.65
-32.37
-39.08
-46.20
-54.18
-63.41
-73.93
-85.20
-95.91
-104.13
-107.76
-105.13
-95.62
-79.94
-59.91
-37.95
-16.31
3.43
20.53
34.89
46.70
56.14
63.25
68.07
70.73
71.59
71.19
70.07
68.60
66.96
65.15
63.12
60.94
58.73
56.71
54.97
53.39
51.62
49.16
45.55
40.58
34.43
27.57
20.58
13.92
7.64
1.47
-5.10
-12.45
-20.61
-29.21
-37.64
-45.35
-52.11
-58.12
-64.03
-70.65
-78.74
-88.66
-100.16
-112.18
-122.85
-129.87
-131.00
-124.85
-111.33
-91.80
-68.61
-44.44
-21.44
-0.85
16.99
32.29
45.34
56.27
65.00
71.43
75.62
77.86
78.66
78.56
78.00
77.16
76.07
74.65
72.85
70.81
68.79
67.07
65.68
64.39
62.62
59.74
55.28
49.16
41.75
33.74
25.86
18.66
12.33
6.66
1.20
-4.57
-11.03
-18.27
-26.09
-34.04
-41.68
-48.66
-54.96
-60.84
-66.83
-73.59
-81.78
-91.70
-103.05
-114.64
-124.48
-130.17
-129.57
-121.56
-106.43
-85.86
-62.37
-38.55
-16.40
2.98
19.33
32.88
44.00
52.96
59.88
64.84
67.99
69.63
70.16
69.99
69.43
68.62
67.56
66.22
64.62
62.92
61.36
60.10
59.04
57.80
55.80
52.50
47.66
41.49
34.60
27.74
21.54
16.17
11.37
6.52
1.03
-5.43
-12.76
-20.41
-27.70
-34.04
-39.25
-43.59
-47.65
-52.23
-58.05
-65.58
-74.78
-84.93
-94.58
-101.66
-103.99
-99.93
-88.99
-72.07
-51.30
-29.27
-8.30
10.06
25.23
37.30
46.62
53.47
58.02
60.37
60.78
59.69
57.69
55.46
53.49
52.07
51.24
50.82
50.52
50.04
49.18
47.82
45.87
43.26
39.88
35.64
30.49
24.52
17.92
10.91
3.67
-3.69
-11.14
-18.58
-25.84
-32.73
-39.10
-44.99
-50.65
-56.63
-63.58
-72.08
-82.30
-93.73
-104.95
-113.80
-117.86
-115.15
-104.91
-87.86
-66.12
-42.47
-19.47
1.10
18.53
32.86
44.47
53.65
60.52
65.12
67.64
68.50
68.27
67.48
66.45
65.24
63.79
62.06
60.17
58.37
56.90
55.79
54.78
53.37
51.03
47.33
42.20
35.88
28.90
21.84
15.09
8.78
2.70
-3.58
-10.47
-18.20
-26.68
-35.47
-43.98
-51.71
-58.46
-64.50
-70.54
-77.50
-86.16
-96.72
-108.47
-119.67
-127.91
-130.73
-126.39
-114.46
-96.00
-73.17
-48.60
-24.64
-2.87
16.00
31.92
45.12
55.83
64.17
70.17
73.98
75.89
76.41
76.14
75.56
74.91
74.15
73.04
71.40
69.25
66.87
64.67
62.87
61.30
59.47
56.65
52.32
46.38
39.23
31.65
24.35
17.71
11.61
5.57
-1.01
-8.48
-16.80
-25.58
-34.21
-42.20
-49.22
-55.36
-60.95
-66.56
-72.90
-80.67
-90.34
-101.76
-113.91
-124.80
-131.81
-132.47
-125.27
-110.26
-89.10
-64.53
-39.51
-16.35
3.70
20.34
33.89
44.74
53.17
59.26
63.09
64.96
65.32
64.78
63.88
62.94
62.04
61.04
59.81
58.33
56.80
55.52
54.66
54.15
53.52
52.13
49.41
45.12
39.47
33.04
26.53
20.45
14.89
9.60
4.07
-2.08
-8.97
-16.35
-23.69
-30.50
-36.45
-41.60
-46.32
-51.18
-56.85
-63.87
-72.45
-82.23
-92.03
-99.92
-103.58
-101.01
-91.30
-75.02
-54.16
-31.41
-9.41
10.02
26.02
38.54
47.94
54.56
58.64
60.34
59.92
57.81
54.68
51.31
48.44
46.57
45.86
46.05
46.63
47.00
46.70
45.55
43.62
41.03
37.89
34.15
29.74
24.55
18.55
11.79
4.42
-3.39
-11.38
-19.30
-26.92
-34.10
-40.88
-47.46
-54.19
-61.56
-69.94
-79.53
-90.00
-100.38
-108.95
-113.54
-112.15
-103.63
-88.24
-67.64
-44.42
-21.25
-0.15
17.82
32.51
44.18
53.13
59.51
63.40
64.99
64.73
63.26
61.28
59.33
57.73
56.57
55.79
55.24
54.70
53.90
52.57
50.47
47.49
43.61
38.87
33.39
27.21
20.38
12.98
5.10
-3.12
-11.53
-19.99
-28.42
-36.71
-44.75
-52.44
-59.78
-66.98
-74.51
-83.01
-93.00
-104.32
-115.87
-125.56
-130.78
-129.24
-119.84
-103.14
-81.11
-56.51
-31.96
-9.30
10.57
27.52
41.70
53.30
62.39
69.07
73.51
76.04
77.04
76.90
75.98
74.58
72.93
71.25
69.70
68.40
67.30
66.23
64.85
62.76
59.57
55.12
49.49
43.02
36.12
29.13
22.16
15.06
7.61
-0.41
-8.93
-17.70
-26.28
-34.31
-41.74
-48.81
-56.06
-64.19
-73.80
-85.15
-97.86
-110.69
-121.62
-128.17
-128.09
-120.09
-104.40
-82.77
-57.97
-32.92
-9.93
9.78
25.98
39.02
49.42
57.55
63.56
67.58
69.81
70.57
70.29
69.39
68.20
66.95
65.79
64.76
63.83
62.90
61.80
60.29
58.14
55.20
51.41
46.85
41.71
36.11
30.15
23.80
17.00
9.69
1.95
-6.01
-13.92
-21.48
-28.51
-35.01
-41.22
-47.58
-54.72
-63.19
-73.19
-84.20
-94.75
-102.66
-105.55
-101.65
-90.47
-72.96
-51.29
-28.14
-5.87
13.86
30.27
43.27
53.02
59.73
63.56
64.73
63.70
61.21
58.22
55.66
54.09
53.51
53.42
53.06
51.81
49.49
46.45
43.28
40.49
38.09
35.57
32.07
26.81
19.50
10.54
0.84
-8.51
-16.71
-23.56
-29.49
-35.30
-41.91
-50.03
-59.99
-71.51
-83.66
-94.79
-102.80
-105.53
-101.49
-90.36
-73.17
-52.06
-29.59
-8.04
11.11
27.28
40.56
51.24
59.57
65.55
69.11
70.28
69.36
66.96
63.91
60.98
58.70
57.16
56.08
54.95
53.32
50.91
47.75
44.08
40.17
36.11
31.71
26.59
20.32
12.69
3.85
-5.70
-15.28
-24.31
-32.47
-39.85
-46.82
-53.96
-61.85
-71.00
-81.67
-93.70
-106.25
-117.71
-125.91
-128.57
-124.04
-111.87
-93.06
-69.75
-44.60
-20.05
2.23
21.46
37.56
50.81
61.53
69.94
76.13
80.23
82.40
82.89
82.06
80.29
77.97
75.45
72.98
70.67
68.50
66.30
63.80
60.69
56.74
51.85
46.11
39.70
32.82
25.63
18.15
10.32
2.10
-6.45
-15.12
-23.63
-31.71
-39.27
-46.42
-53.51
-61.04
-69.55
-79.42
-90.65
-102.53
-113.53
-121.48
-124.05
-119.50
-107.31
-88.47
-65.24
-40.46
-16.73
4.25
21.80
36.10
47.64
56.87
64.01
69.03
71.98
73.00
72.51
71.05
69.15
67.17
65.26
63.37
61.40
59.28
56.98
54.54
51.94
49.05
45.70
41.70
36.95
31.43
25.23
18.47
11.28
3.79
-3.86
-11.49
-18.89
-25.92
-32.52
-38.78
-44.98
-51.57
-59.05
-67.83
-77.79
-88.07
-96.96
-102.22
-101.70
-94.15
-79.75
-60.10
-37.78
-15.41
4.95
22.28
36.41
47.61
56.18
62.21
65.67
66.64
65.48
62.86
59.62
56.49
53.94
52.00
50.40
48.78
46.84
44.52
41.95
39.30
36.68
33.92
30.68
26.50
21.01
14.11
6.01
-2.73
-11.44
-19.53
-26.71
-33.06
-39.02
-45.17
-52.11
-60.31
-69.92
-80.70
-91.78
-101.62
-108.16
-109.36
-103.76
-91.15
-72.71
-50.69
-27.77
-6.18
12.69
28.41
41.15
51.26
59.00
64.43
67.63
68.78
68.26
66.58
64.28
61.81
59.45
57.36
55.56
53.99
52.54
51.06
49.34
47.14
44.20
40.32
35.45
29.70
23.38
16.82
10.31
3.86
-2.73
-9.77
-17.47
-25.76
-34.26
-42.40
-49.78
-56.29
-62.30
-68.53
-75.87
-85.02
-96.15
-108.58
-120.66
-129.97
-133.87
-130.35
-118.68
-99.75
-75.84
-49.84
-24.43
-1.43
18.41
35.08
48.96
60.31
69.22
75.67
79.70
81.60
81.87
81.10
79.79
78.19
76.33
74.16
71.62
68.87
66.17
63.78
61.74
59.83
57.56
54.35
49.82
43.91
36.97
29.62
22.52
16.08
10.35
4.99
-0.62
-6.97
-14.35
-22.59
-31.23
-39.67
-47.43
-54.33
-60.52
-66.45
-72.80
-80.26
-89.33
-99.95
-111.22
-121.30
-127.77
-128.28
-121.36
-106.95
-86.50
-62.48
-37.62
-14.16
6.52
23.92
38.08
49.28
57.77
63.73
67.36
68.95
68.92
67.79
66.08
64.18
62.32
60.54
58.84
57.21
55.70
54.34
53.04
51.58
49.62
46.85
43.12
38.54
33.34
27.82
22.15
16.32
10.22
3.71
-3.20
-10.34
-17.43
-24.15
-30.31
-35.92
-41.18
-46.52
-52.52
-59.71
-68.39
-78.31
-88.46
-97.07
-101.94
-101.05
-93.28
-78.85
-59.30
-37.02
-14.55
6.10
23.71
37.85
48.57
56.16
60.92
63.23
63.50
62.21
59.87
56.92
53.76
50.66
47.84
45.48
43.63
42.26
41.19
40.12
38.68
36.52
33.39
29.25
24.27
18.70
12.86
6.91
0.87
-5.42
-12.14
-19.33
-26.87
-34.44
-41.74
-48.51
-54.74
-60.66
-66.70
-73.45
-81.45
-90.99
-101.71
-112.46
-121.23
-125.56
-123.34
-113.47
-96.42
-74.10
-49.27
-24.68
-2.36
16.70
32.42
45.12
55.24
63.01
68.55
71.96
73.51
73.60
72.73
71.35
69.76
68.06
66.26
64.34
62.39
60.57
59.02
57.68
56.21
54.03
50.56
45.53
39.11
31.88
24.59
17.76
11.48
5.41
-1.00
-8.21
-16.27
-24.85
-33.37
-41.28
-48.29
-54.50
-60.41
-66.78
-74.44
-83.94
-95.25
-107.35
-118.27
-125.37
-126.15
-119.05
-104.11
-83.00
-58.47
-33.49
-10.35
9.71
26.40
39.98
50.77
58.96
64.62
67.93
69.29
69.24
68.40
67.20
65.86
64.41
62.84
61.18
59.56
58.15
57.07
56.23
55.31
53.82
51.23
47.22
41.80
35.37
28.57
21.98
15.92
10.25
4.53
-1.74
-8.84
-16.63
-24.64
-32.27
-39.10
-45.02
-50.34
-55.65
-61.68
-69.10
-78.20
-88.64
-99.22
-107.91
-112.31
-110.29
-100.79
-84.26
-62.61
-38.61
-15.08
5.89
23.22
36.75
46.81
53.84
58.11
59.83
59.24
56.84
53.43
49.93
47.17
45.56
45.05
45.14
45.13
44.50
43.03
40.93
38.59
36.35
34.22
31.84
28.60
23.94
17.59
9.76
1.09
-7.59
-15.55
-22.46
-28.49
-34.15
-40.15
-47.16
-55.62
-65.60
-76.65
-87.66
-96.87
-102.15
-101.52
-93.79
-79.07
-58.88
-35.74
-12.41
8.85
26.69
40.76
51.33
58.86
63.67
65.95
65.87
63.77
60.31
56.31
52.63
49.83
48.05
47.02
46.22
45.18
43.62
41.56
39.18
36.63
33.88
30.68
26.66
21.46
14.92
7.10
-1.69
-10.99
-20.26
-29.04
-37.03
-44.21
-50.84
-57.42
-64.58
-72.97
-82.99
-94.59
-106.89
-118.14
-125.84
-127.43
-121.04
-106.32
-84.66
-58.89
-32.29
-7.67
13.36
30.44
44.01
54.77
63.17
69.37
73.35
75.19
75.20
73.90
71.91
69.76
67.79
66.16
64.82
63.62
62.33
60.77
58.74
56.10
52.75
48.66
43.89
38.55
32.75
26.57
19.97
12.84
5.11
-3.22
-11.93
-20.67
-29.03
-36.76
-43.84
-50.60
-57.66
-65.81
-75.68
-87.44
-100.31
-112.53
-121.44
-124.31
-119.12
-105.43
-84.62
-59.41
-33.06
-8.40
12.83
30.07
43.55
53.89
61.66
67.21
70.78
72.56
72.78
71.75
69.81
67.33
64.65
62.03
59.69
57.79
56.37
55.37
54.54
53.50
51.77
48.93
44.80
39.50
33.45
27.14
20.94
14.96
8.97
2.63
-4.33
-11.91
-19.78
-27.42
-34.39
-40.50
-45.99
-51.50
-57.87
-65.86
-75.78
-87.09
-98.32
-107.18
-111.12
-108.10
-97.33
-79.58
-57.04
-32.63
-9.20
11.24
27.77
40.38
49.57
55.88
59.66
61.10
60.40
58.04
54.77
51.50
49.04
47.74
47.45
47.56
47.37
46.38
44.53
42.11
39.53
36.98
34.33
31.12
26.80
21.03
13.83
5.63
-2.91
-11.13
-18.64
-25.36
-31.54
-37.62
-44.15
-51.68
-60.61
-71.02
-82.43
-93.60
-102.59
-107.08
-105.12
-95.78
-79.58
-58.39
-34.85
-11.58
9.46
27.24
41.53
52.54
60.53
65.72
68.25
68.40
66.67
63.77
60.49
57.55
55.34
53.92
53.06
52.40
51.56
50.26
48.36
45.75
42.44
38.39
33.66
28.28
22.27
15.61
8.24
0.16
-8.50
-17.46
-26.37
-34.89
-42.90
-50.48
-57.92
-65.63
-74.11
-83.83
-94.97
-107.20
-119.31
-129.22
-134.35
-132.40
-122.20
-104.23
-80.57
-54.20
-28.07
-4.30
16.13
33.15
47.13
58.47
67.40
73.98
78.32
80.59
81.07
80.15
78.20
75.65
72.87
70.16
67.73
65.62
63.75
61.91
59.83
57.19
53.73
49.27
43.86
37.67
30.98
24.00
16.79
9.27
1.26
-7.31
-16.35
-25.54
-34.48
-42.80
-50.40
-57.50
-64.67
-72.70
-82.26
-93.57
-105.96
-117.76
-126.45
-129.36
-124.46
-111.17
-90.58
-65.24
-38.30
-12.63
9.87
28.44
43.20
54.70
63.45
69.73
73.70
75.49
75.40
73.97
71.83
69.58
67.59
65.99
64.64
63.28
61.69
59.75
57.44
54.75
51.67
48.06
43.83
38.89
33.27
27.03
20.23
12.89
5.02
-3.24
-11.68
-19.92
-27.62
-34.56
-40.82
-46.75
-52.93
-60.05
-68.66
-78.88
-90.08
-100.72
-108.54
-111.07
-106.49
-94.22
-75.32
-52.18
-27.72
-4.61
15.44
31.77
44.51
54.05
60.69
64.57
65.80
64.73
62.08
58.81
55.83
53.72
52.52
51.88
51.20
50.05
48.30
46.13
43.88
41.74
39.61
37.05
33.48
28.44
21.79
13.82
5.16
-3.49
-11.56
-18.83
-25.47
-31.94
-38.79
-46.58
-55.73
-66.39
-78.21
-90.15
-100.36
-106.51
-106.40
-98.76
-83.84
-63.43
-40.34
-17.43
3.22
20.68
35.01
46.67
55.98
62.91
67.18
68.67
67.69
65.05
61.78
58.83
56.78
55.67
55.16
54.70
53.82
52.22
49.84
46.75
43.06
38.86
34.11
28.74
22.65
15.78
8.13
-0.19
-8.94
-17.81
-26.45
-34.59
-42.10
-49.06
-55.84
-62.99
-71.22
-81.09
-92.71
-105.39
-117.53
-126.76
-130.53
-126.94
-115.40
-96.93
-73.83
-48.89
-24.59
-2.51
16.74
33.15
46.95
58.27
67.16
73.71
78.11
80.71
81.88
81.90
80.95
79.20
76.87
74.29
71.83
69.75
68.13
66.75
65.17
62.89
59.48
54.75
48.82
42.01
34.76
27.42
20.14
12.81
5.20
-2.92
-11.57
-20.50
-29.31
-37.59
-45.13
-52.01
-58.64
-65.62
-73.69
-83.44
-94.95
-107.50
-119.39
-128.13
-131.08
-126.37
-113.53
-93.80
-69.64
-43.95
-19.19
3.11
22.38
38.62
51.99
62.62
70.57
75.96
79.08
80.40
80.41
79.59
78.26
76.59
74.64
72.43
70.01
67.53
65.21
63.25
61.70
60.30
58.53
55.74
51.43
45.50
38.35
30.70
23.38
16.88
11.23
5.98
0.45
-5.92
-13.28
-21.34
-29.44
-36.90
-43.32
-48.74
-53.65
-58.83
-65.09
-73.05
-82.79
-93.75
-104.50
-112.94
-116.71
-113.85
-103.47
-86.19
-64.02
-39.74
-16.08
5.00
22.56
36.57
47.40
55.43
60.85
63.81
64.56
63.59
61.64
59.41
57.46
56.05
55.18
54.75
54.61
54.62
54.62
54.36
53.48
51.62
48.55
44.26
38.97
33.05
26.88
20.65
14.36
7.81
0.82
-6.70
-14.60
-22.53
-30.09
-37.00
-43.22
-49.04
-55.01
-61.82
-70.10
-80.10
-91.30
-102.24
-110.58
-113.75
-109.73
-97.89
-79.34
-56.58
-32.67
-10.27
9.02
24.76
37.24
46.97
54.25
59.15
61.75
62.35
61.53
60.03
58.45
57.11
56.01
54.97
53.82
52.58
51.42
50.57
50.09
49.71
48.84
46.78
43.00
37.39
30.41
22.84
15.55
9.11
3.49
-1.81
-7.60
-14.52
-22.74
-31.84
-41.04
-49.51
-56.80
-62.97
-68.64
-74.71
-82.13
-91.53
-102.84
-115.06
-126.23
-133.77
-135.16
-128.79
-114.54
-93.85
-69.29
-43.72
-19.51
1.88
19.95
34.79
46.74
56.12
63.18
68.15
71.28
72.88
73.30
72.90
71.96
70.70
69.24
67.62
65.93
64.34
63.00
61.99
61.15
60.04
58.03
54.59
49.48
42.97
35.73
28.51
21.86
15.86
10.13
4.10
-2.74
-10.51
-18.91
-27.39
-35.36
-42.48
-48.76
-54.53
-60.40
-67.04
-75.10
-84.94
-96.37
-108.26
-118.60
-124.77
-124.37
-116.03
-100.10
-78.50
-54.18
-30.09
-8.31
10.25
25.62
38.22
48.37
56.11
61.38
64.29
65.24
64.88
63.85
62.63
61.45
60.30
59.19
58.15
57.31
56.75
56.42
56.02
55.08
53.09
49.74
45.00
39.20
32.85
26.41
20.13
13.93
7.54
0.73
-6.57
-14.12
-21.49
-28.28
-34.28
-39.62
-44.86
-50.77
-58.14
-67.40
-78.24
-89.47
-99.04
-104.51
-103.80
-95.88
-81.17
-61.46
-39.40
-17.61
1.92
18.15
30.93
40.59
47.57
52.17
54.55
54.91
53.61
51.26
48.60
46.26
44.63
43.74
43.31
42.96
42.30
41.12
39.36
37.03
34.18
30.84
26.98
22.51
17.30
11.24
4.27
-3.50
-11.81
-20.23
-28.33
-35.79
-42.54
-48.82
-55.09
-61.97
-70.07
-79.84
-91.27
-103.69
-115.58
-124.66
-128.43
-124.94
-113.50
-95.05
-71.85
-46.82
-22.59
-0.94
17.43
32.61
45.06
55.18
63.19
69.12
72.99
74.91
75.13
74.05
72.15
69.91
67.72
65.82
64.23
62.81
61.26
59.23
56.43
52.69
48.01
42.54
36.54
30.22
23.67
16.82
9.50
1.59
-6.84
-15.52
-24.08
-32.21
-39.86
-47.26
-54.85
-63.21
-72.81
-83.87
-96.08
-108.43
-119.13
-125.89
-126.49
-119.51
-104.90
-84.11
-59.65
-34.34
-10.53
10.40
28.01
42.44
54.06
63.16
69.92
74.48
77.10
78.16
78.09
77.34
76.19
74.85
73.43
72.00
70.61
69.31
68.03
66.60
64.80
62.33
58.99
54.75
49.69
44.01
37.82
31.13
23.89
16.05
7.68
-1.01
-9.74
-18.26
-26.40
-34.11
-41.51
-48.85
-56.58
-65.24
-75.24
-86.48
-97.98
-107.79
-113.42
-112.58
-104.03
-88.16
-66.86
-42.96
-19.28
2.12
20.20
34.87
46.51
55.52
62.06
66.16
67.87
67.50
65.69
63.31
61.17
59.80
59.24
59.13
58.90
58.04
56.35
53.87
50.79
47.22
42.99
37.70
30.88
22.34
12.31
1.46
-9.26
-19.00
-27.24
-34.03
-39.85
-45.49
-51.73
-59.24
-68.38
-79.08
-90.69
-101.80
-110.36
-114.06
-111.04
-100.51
-83.22
-61.27
-37.48
-14.59
5.56
22.23
35.55
46.07
54.17
59.96
63.31
64.20
62.97
60.40
57.50
55.17
53.82
53.29
52.98
52.15
50.33
47.42
43.73
39.67
35.53
31.31
26.71
21.34
14.85
7.13
-1.66
-11.13
-20.71
-29.92
-38.37
-45.98
-52.95
-59.66
-66.64
-74.43
-83.53
-94.24
-106.37
-118.91
-129.97
-137.00
-137.48
-129.85
-114.15
-92.12
-66.63
-40.70
-16.55
4.74
23.12
38.99
52.64
64.09
73.12
79.57
83.57
85.52
85.96
85.37
84.08
82.26
80.04
77.61
75.26
73.24
71.66
70.28
68.62
66.05
62.08
56.54
49.69
42.08
34.27
26.62
19.16
11.63
3.67
-4.95
-14.21
-23.80
-33.26
-42.11
-50.06
-57.17
-63.87
-70.96
-79.36
-89.77
-102.16
-115.45
-127.49
-135.48
-136.79
-129.87
-114.78
-93.20
-67.86
-41.64
-16.81
5.41
24.72
41.32
55.48
67.25
76.55
83.28
87.58
89.86
90.67
90.56
89.93
88.98
87.76
86.29
84.62
82.89
81.20
79.61
77.99
76.08
73.53
69.99
65.23
59.22
52.14
44.39
36.44
28.76
21.69
15.28
9.32
3.38
-3.03
-10.20
-18.15
-26.52
-34.78
-42.41
-49.17
-55.16
-60.80
-66.68
-73.48
-81.80
-91.97
-103.78
-116.16
-127.05
-133.76
-133.66
-125.11
-108.20
-84.81
-57.98
-30.95
-6.15
15.15
32.72
46.83
57.81
65.78
70.83
73.23
73.59
72.73
71.43
70.15
68.99
67.74
66.23
64.44
62.61
61.09
60.04
59.31
58.37
56.51
53.17
48.19
41.91
35.00
28.14
21.75
15.80
10.00
3.91
-2.74
-9.94
-17.45
-24.89
-31.93
-38.39
-44.30
-49.98
-56.03
-63.24
-72.32
-83.41
-95.66
-107.03
-114.68
-115.76
-108.46
-92.75
-70.38
-44.34
-17.81
6.68
27.69
44.77
58.04
67.78
74.30
77.96
79.26
78.94
77.76
76.34
75.02
73.84
72.67
71.38
69.96
68.54
67.28
66.21
65.21
63.90
61.82
58.57
53.98
48.25
41.91
35.61
29.87
24.78
20.00
14.83
8.62
1.11
-7.33
-15.80
-23.24
-28.88
-32.62
-35.10
-37.52
-41.24
-47.30
-55.97
-66.48
-76.87
-84.23
-85.43
-78.00
-61.22
-36.52
-7.30
22.10
47.86
67.84
82.06
92.06
99.81
106.40
111.48
113.44
110.34
100.87
85.10
64.56
41.73
19.26
-0.81
-17.41
-30.43
-40.28
-47.39
-51.96
-53.98
-53.61
-51.48
-48.82
-47.12
-47.61
-50.65
-55.55
-60.91
-65.25
-67.78
-68.67
-68.96
-70.01
-72.89
-77.92
-84.63
-92.08
-99.31
-105.78
-111.51
-117.04
-123.16
-130.62
-139.97
-151.42
-164.56
-178.24
-190.40
-198.30
-199.14
-190.89
-173.04
-146.89
-115.25
-81.53
-48.80
-19.10
6.76
28.86
47.65
63.54
76.73
87.32
95.41
101.27
105.20
107.55
108.56
108.37
107.13
105.01
102.28
99.26
96.20
93.26
90.41
87.42
83.88
79.38
73.57
66.40
58.19
49.59
41.39
34.14
27.91
22.23
16.30
9.28
0.71
-9.28
-20.05
-30.65
-40.29
-48.52
-55.56
-62.11
-69.28
-78.16
-89.46
-103.12
-117.95
-131.69
-141.34
-143.92
-137.41
-121.47
-97.63
-68.91
-38.87
-10.60
13.98
34.29
50.63
63.69
73.94
81.48
86.19
88.03
87.29
84.63
80.96
77.10
73.65
70.83
68.58
66.71
65.04
63.41
61.65
59.58
56.95
53.52
49.03
43.32
36.30
28.00
18.65
8.68
-1.28
-10.62
-18.91
-26.11
-32.59
-38.99
-46.01
-54.24
-64.06
-75.45
-87.90
-100.13
-110.16
-115.59
-114.17
-104.63
-87.18
-63.60
-36.72
-9.63
15.14
36.08
52.73
65.25
74.05
79.47
81.72
81.08
78.09
73.64
68.82
64.66
61.80
60.25
59.49
58.70
57.21
54.71
51.38
47.63
43.85
40.12
36.09
31.12
24.62
16.28
6.27
-4.72
-15.78
-26.04
-35.04
-42.87
-50.15
-57.84
-66.98
-78.40
-92.40
-108.47
-125.11
-139.79
-149.35
-150.75
-142.05
-123.16
-95.96
-63.88
-30.78
0.07
26.71
48.56
65.99
79.66
90.11
97.54
102.00
103.64
102.90
100.49
97.21
93.70
90.28
86.95
83.45
79.55
75.23
70.68
66.23
62.13
58.31
54.35
49.58
43.28
34.97
24.64
12.74
0.16
-12.11
-23.27
-32.97
-41.40
-49.21
-57.28
-66.52
-77.58
-90.61
-104.92
-118.85
-129.88
-135.13
-132.17
-119.86
-98.84
-71.42
-40.93
-10.68
16.74
39.95
58.62
73.04
83.72
91.08
95.41
97.01
96.28
93.77
90.20
86.30
82.63
79.48
76.84
74.42
71.87
68.93
65.52
61.67
57.47
52.93
47.86
41.96
34.94
26.60
17.08
6.76
-3.78
-13.93
-23.27
-31.61
-39.04
-45.84
-52.41
-59.16
-66.65
-75.34
-85.45
-96.55
-107.26
-115.32
-118.06
-113.36
-100.36
-80.01
-54.70
-27.61
-1.68
21.07
39.67
54.01
64.35
70.99
74.20
74.32
71.92
67.82
62.99
58.29
54.29
51.15
48.68
46.52
44.33
42.01
39.65
37.46
35.48
33.46
30.79
26.75
20.78
12.82
3.33
-6.72
-16.35
-24.84
-32.01
-38.31
-44.58
-51.80
-60.77
-71.70
-83.98
-95.97
-105.30
-109.34
-106.07
-94.76
-76.40
-53.34
-28.66
-5.12
15.42
32.19
45.21
54.77
61.11
64.28
64.41
61.89
57.47
52.18
47.03
42.80
39.79
37.84
36.50
35.23
33.60
31.47
28.91
26.12
23.19
20.02
16.29
11.55
5.46
-2.08
-10.79
-20.11
-29.34
-37.91
-45.52
-52.26
-58.55
-65.01
-72.35
-81.14
-91.54
-103.06
-114.33
-123.17
-127.09
-123.94
-112.72
-93.98
-69.70
-42.74
-15.97
8.39
29.13
45.92
59.02
68.86
75.80
80.11
82.01
81.78
79.80
76.60
72.73
68.71
64.94
61.62
58.78
56.35
54.16
52.00
49.65
46.83
43.34
39.07
34.04
28.37
22.18
15.57
8.53
0.99
-7.04
-15.48
-24.12
-32.67
-40.88
-48.62
-55.96
-63.23
-70.95
-79.71
-89.85
-101.02
-111.86
-120.11
-123.18
-118.98
-106.77
-87.48
-63.55
-38.02
-13.65
7.74
25.44
39.54
50.39
58.26
63.25
65.48
65.28
63.32
60.46
57.52
55.06
53.20
51.73
50.24
48.40
46.10
43.44
40.70
38.09
35.64
33.06
29.92
25.72
20.11
13.05
4.82
-4.04
-12.86
-21.09
-28.38
-34.75
-40.51
-46.24
-52.65
-60.33
-69.57
-79.97
-90.36
-98.76
-102.86
-100.65
-91.12
-74.67
-53.12
-29.09
-5.32
16.07
33.86
47.67
57.66
64.12
67.34
67.63
65.48
61.60
56.92
52.35
48.54
45.73
43.72
42.08
40.36
38.29
35.87
33.23
30.49
27.66
24.57
20.95
16.55
11.13
4.61
-2.98
-11.38
-20.19
-28.91
-37.13
-44.67
-51.68
-58.60
-66.07
-74.67
-84.86
-96.71
-109.67
-122.39
-132.70
-137.99
-135.90
-125.17
-106.20
-81.06
-52.86
-24.84
0.53
21.99
39.39
53.16
63.82
71.77
77.17
80.21
81.20
80.66
79.13
77.09
74.90
72.74
70.73
68.92
67.34
65.91
64.41
62.54
59.96
56.42
51.85
46.37
40.20
33.56
26.53
19.07
11.05
2.35
-7.02
-16.83
-26.72
-36.24
-45.07
-53.10
-60.57
-68.07
-76.42
-86.41
-98.32
-111.52
-124.18
-133.56
-136.67
-131.25
-116.67
-94.23
-66.79
-37.85
-10.50
13.23
32.59
47.79
59.42
68.03
73.91
77.21
78.14
77.07
74.59
71.43
68.22
65.40
63.19
61.60
60.50
59.72
59.06
58.24
56.94
54.79
51.54
47.13
41.70
35.56
28.97
22.06
14.77
7.00
-1.26
-9.80
-18.22
-26.09
-33.14
-39.40
-45.26
-51.37
-58.48
-67.23
-77.74
-89.30
-100.23
-108.05
-110.10
-104.39
-90.34
-69.07
-43.13
-15.72
10.18
32.48
50.16
63.10
71.69
76.51
78.09
77.00
73.88
69.44
64.51
59.88
56.11
53.47
51.87
50.94
50.14
49.03
47.31
44.88
41.86
38.39
34.57
30.29
25.29
19.24
11.89
3.31
-6.12
-15.74
-24.90
-33.16
-40.40
-46.91
-53.14
-59.69
-67.15
-76.03
-86.62
-98.65
-111.01
-121.64
-127.85
-127.03
-117.58
-99.54
-74.79
-46.38
-17.77
8.23
29.97
46.95
59.57
68.48
74.33
77.56
78.49
77.49
75.02
71.72
68.23
65.08
62.51
60.56
59.08
57.83
56.61
55.23
53.44
50.96
47.47
42.81
37.03
30.45
23.56
16.79
10.31
3.96
-2.71
-10.12
-18.47
-27.57
-36.86
-45.70
-53.61
-60.50
-66.79
-73.23
-80.79
-90.29
-102.02
-115.37
-128.57
-138.86
-143.08
-138.66
-124.51
-101.59
-72.61
-41.27
-11.10
15.42
37.16
54.12
66.90
76.16
82.42
86.08
87.57
87.43
86.23
84.45
82.40
80.17
77.77
75.24
72.77
70.64
69.06
68.03
67.14
65.74
63.08
58.64
52.35
44.65
36.27
27.92
20.01
12.51
4.98
-3.10
-12.05
-21.80
-31.83
-41.42
-49.92
-57.09
-63.17
-68.90
-75.32
-83.46
-93.87
-106.24
-119.13
-130.07
-136.09
-134.54
-123.98
-104.78
-79.06
-50.09
-21.24
4.81
26.58
43.75
56.63
65.68
71.29
73.71
73.29
70.65
66.69
62.43
58.74
56.14
54.70
54.13
53.95
53.70
53.06
51.94
50.40
48.53
46.27
43.34
39.30
33.70
26.28
17.24
7.20
-2.98
-12.47
-20.80
-27.96
-34.44
-40.98
-48.38
-57.27
-67.95
-80.18
-93.02
-104.77
-113.13
-115.69
-110.64
-97.43
-77.08
-51.97
-25.16
0.46
22.82
40.91
54.56
64.06
69.72
71.81
70.66
66.85
61.31
55.27
49.94
46.22
44.36
43.95
44.14
43.99
42.85
40.57
37.48
34.07
30.69
27.34
23.65
19.03
13.03
5.51
-3.26
-12.65
-21.95
-30.54
-38.16
-44.95
-51.46
-58.53
-67.03
-77.67
-90.57
-104.97
-119.02
-130.01
-134.95
-131.47
-118.63
-97.34
-70.15
-40.46
-11.55
14.17
35.57
52.51
65.49
75.08
81.74
85.73
87.26
86.68
84.49
81.36
77.98
74.90
72.37
70.32
68.45
66.39
63.88
60.91
57.61
54.15
50.49
46.27
40.94
33.91
24.88
14.04
2.04
-10.18
-21.80
-32.34
-41.77
-50.43
-58.82
-67.49
-76.95
-87.71
-100.11
-113.97
-128.24
-140.85
-148.91
-149.58
-141.02
-123.13
-97.74
-68.09
-37.77
-9.75
14.24
33.79
49.33
61.58
71.20
78.50
83.71
86.99
88.64
89.06
88.63
87.71
86.53
85.29
84.08
82.99
81.94
80.73
78.99
76.34
72.53
67.49
61.38
54.39
46.72
38.42
29.47
19.87
9.78
-0.47
-10.47
-19.82
-28.33
-36.11
-43.53
-51.19
-59.73
-69.72
-81.33
-94.07
-106.54
-116.46
-121.16
-118.30
-106.78
-87.25
-62.08
-34.56
-7.95
15.43
34.60
49.66
61.20
69.77
75.57
78.57
78.85
76.90
73.63
70.21
67.64
66.46
66.59
67.47
68.35
68.67
68.19
67.08
65.67
64.20
62.66
60.71
57.81
53.50
47.55
40.18
31.95
23.63
15.93
9.29
3.79
-0.83
-5.07
-9.51
-14.66
-20.93
-28.36
-36.40
-43.68
-48.10
-47.19
-38.85
-22.15
2.19
31.87
63.64
94.18
120.89
142.37
158.36
169.44
176.46
180.11
180.57
177.49
170.19
158.04
140.89
119.29
94.47
68.08
41.66
16.30
-7.76
-30.98
-54.45
-79.65
-108.18
-141.41
-179.95
-222.91
-267.40
-308.60
-340.78
-358.96
-360.74
-347.32
-323.04
-293.74
-264.47
-237.93
-214.28
-192.26
-170.82
-150.37
-132.82
-120.62
-115.54
-117.57
-124.84
-134.09
-141.65
-144.26
-139.76
-127.28
-107.29
-81.30
-51.50
-20.25
10.33
38.63
63.67
84.98
102.41
116.02
126.01
132.77
136.87
139.03
139.95
140.09
139.55
138.13
135.60
131.92
127.48
122.97
119.10
116.20
113.99
111.62
108.04
102.41
94.48
84.64
73.73
62.76
52.54
43.42
35.24
27.44
19.30
10.26
0.14
-10.73
-21.68
-31.92
-40.90
-48.58
-55.46
-62.44
-70.58
-80.84
-93.71
-108.89
-125.06
-139.70
-149.57
-151.46
-143.22
-124.66
-97.73
-65.97
-33.41
-3.44
21.98
42.33
58.07
70.01
78.80
84.79
88.22
89.39
88.78
87.02
84.71
82.32
80.12
78.23
76.68
75.48
74.59
73.88
73.10
71.85
69.71
66.34
61.62
55.72
48.97
41.77
34.36
26.76
18.88
10.60
2.02
-6.54
-14.60
-21.71
-27.73
-32.98
-38.17
-44.25
-52.12
-62.23
-74.18
-86.53
-96.80
-102.00
-99.41
-87.47
-66.43
-38.25
-6.05
26.90
58.02
85.79
109.65
129.44
145.08
156.42
163.46
166.77
167.52
167.41
168.04
170.39
174.41
178.97
182.18
182.00
176.93
166.61
151.97
134.97
117.75
101.70
86.80
71.64
54.11
32.43
6.07
-24.02
-55.98
-87.82
-118.20
-146.72
-173.73
-200.01
-226.49
-254.00
-282.82
-312.05
-339.19
-360.63
-372.99
-374.80
-367.39
-354.32
-339.41
-324.51
-308.49
-288.01
-259.59
-221.64
-175.31
-123.77
-70.71
-19.10
29.11
72.52
109.74
139.26
159.94
171.63
175.37
173.20
167.63
160.98
155.01
150.73
148.23
146.90
145.76
143.86
140.73
136.46
131.56
126.45
121.22
115.50
108.65
100.19
90.05
78.71
66.93
55.49
44.79
34.74
24.88
14.59
3.51
-8.39
-20.73
-32.89
-44.29
-54.55
-63.70
-72.26
-81.14
-91.49
-104.22
-119.40
-135.78
-150.66
-160.45
-161.66
-152.22
-132.23
-103.98
-71.19
-37.74
-6.66
20.37
42.88
61.08
75.35
85.97
93.19
97.37
99.03
98.84
97.44
95.34
92.87
90.22
87.50
84.88
82.53
80.64
79.29
78.31
77.22
75.28
71.70
66.01
58.32
49.34
40.13
31.64
24.29
17.78
11.28
3.91
-4.78
-14.60
-24.76
-34.28
-42.43
-49.06
-54.66
-60.26
-67.04
-75.97
-87.41
-100.61
-113.64
-123.52
-126.96
-121.40
-105.91
-81.77
-52.05
-20.73
8.56
33.46
53.11
67.81
78.29
85.15
88.65
88.91
86.28
81.54
75.83
70.35
66.05
63.26
61.75
60.91
60.03
58.58
56.36
53.41
49.95
46.15
42.02
37.41
31.95
25.26
17.07
7.41
-3.30
-14.38
-25.05
-34.77
-43.36
-51.05
-58.39
-66.08
-74.83
-85.28
-97.74
-111.78
-125.94
-137.63
-143.60
-140.91
-127.98
-105.42
-75.89
-43.31
-11.64
16.22
38.88
56.35
69.33
78.75
85.22
89.11
90.63
90.07
87.85
84.56
80.79
77.04
73.63
70.69
68.16
65.89
63.64
61.12
58.02
54.07
49.06
42.97
35.93
28.21
20.07
11.70
3.10
-5.81
-15.07
-24.63
-34.22
-43.43
-51.93
-59.58
-66.60
-73.53
-81.16
-90.34
-101.61
-114.83
-128.81
-141.23
-148.99
-148.99
-139.14
-119.30
-91.38
-58.89
-25.82
4.50
30.14
50.62
66.41
78.32
86.99
92.82
96.07
97.06
96.24
94.15
91.27
87.97
84.45
80.85
77.30
73.92
70.81
67.96
65.19
62.14
58.40
53.61
47.65
40.62
32.82
24.63
16.35
8.05
-0.31
-8.88
-17.74
-26.77
-35.66
-44.04
-51.63
-58.43
-64.81
-71.49
-79.33
-88.98
-100.41
-112.53
-123.08
-129.09
-127.70
-117.17
-97.70
-71.46
-42.00
-13.03
12.55
33.30
49.10
60.55
68.32
72.82
74.19
72.68
68.86
63.74
58.53
54.20
51.24
49.44
48.16
46.64
44.37
41.32
37.87
34.54
31.61
28.94
25.92
21.76
15.78
7.77
-1.93
-12.46
-22.78
-32.03
-39.83
-46.36
-52.32
-58.65
-66.28
-75.89
-87.60
-100.73
-113.64
-123.85
-128.40
-124.79
-111.82
-90.20
-62.54
-32.56
-3.99
20.50
39.76
53.97
64.01
70.76
74.77
76.27
75.44
72.66
68.58
64.00
59.60
55.81
52.73
50.28
48.25
46.41
44.56
42.47
39.87
36.54
32.32
27.23
21.41
15.02
8.19
0.85
-7.10
-15.73
-24.89
-34.21
-43.18
-51.37
-58.65
-65.27
-71.81
-79.07
-87.89
-98.84
-111.92
-126.15
-139.43
-148.77
-150.96
-143.63
-126.16
-100.07
-68.63
-35.86
-5.33
20.68
41.38
57.07
68.61
76.82
82.30
85.44
86.63
86.23
84.68
82.38
79.62
76.60
73.45
70.34
67.45
64.95
62.87
61.01
58.98
56.27
52.42
47.24
40.85
33.65
26.10
18.50
10.89
3.02
-5.41
-14.51
-24.08
-33.57
-42.39
-50.12
-56.72
-62.62
-68.56
-75.50
-84.31
-95.39
-108.33
-121.51
-132.28
-137.39
-133.98
-120.66
-98.11
-69.06
-37.41
-7.08
19.16
40.15
56.10
67.90
76.38
81.93
84.60
84.43
81.83
77.67
73.07
69.02
65.99
63.86
62.06
60.00
57.30
54.04
50.62
47.43
44.57
41.71
38.13
33.04
25.87
16.60
5.79
-5.54
-16.34
-25.79
-33.67
-40.35
-46.70
-53.73
-62.34
-73.03
-85.61
-99.15
-111.86
-121.29
-124.78
-120.23
-106.76
-85.19
-57.91
-28.31
0.22
25.10
44.98
59.72
69.86
76.20
79.37
79.81
77.89
74.09
69.09
63.74
58.86
55.04
52.48
50.99
50.04
49.04
47.43
44.89
41.34
36.92
31.85
26.35
20.44
13.99
6.70
-1.65
-11.02
-21.01
-31.02
