-48.82
-47.12
-47.61
-50.65
-55.55
-60.91
-65.25
-67.78
-68.67
-68.96
-70.01
-72.89
-77.92
-84.63
-92.08
-99.31
-105.78
-111.51
-117.04
-123.16
-130.62
-139.97
-151.42
-164.56
-178.24
-190.4
-198.3
-199.14
-190.89
-173.04
-146.89
-115.25
-81.53
-48.8
-19.1
6.76
28.86
47.65
63.54
76.73
87.32
95.41
101.27
105.2
107.55
108.56
108.37
107.13
105.01
102.28
99.26
96.2
93.26
90.41
87.42
83.88
79.38
73.57
66.4
58.19
49.59
41.39
34.14
27.91
22.23
16.3
9.28
0.71
-9.28
-20.05
-30.65
-40.29
-48.52
-55.56
-62.11
-69.28
-78.16
-89.46
-103.12
-117.95
-131.69
-141.34
-143.92
-137.41
-121.47
-97.63
-68.91
-38.87
-10.6
13.98
34.29
50.63
63.69
73.94
81.48
86.19
88.03
87.29
84.63
80.96
77.1
73.65
70.83
68.58
66.71
65.04
63.41
61.65
59.58
56.95
53.52
49.03
43.32
36.3
28
18.65
8.68
-1.28
-10.62
-18.91
-26.11
-32.59
-38.99
-46.01
-54.24
-64.06
-75.45
-87.9
-100.13
-110.16
-115.59
-114.17
-104.63
-87.18
-63.6
-36.72
-9.63
15.14
36.08
52.73
65.25
74.05
79.47
81.72
81.08
78.09
73.64
68.82
64.66
61.8
60.25
59.49
58.7
57.21
54.71
51.38
47.63
43.85
40.12
36.09
31.12
24.62
16.28
6.27
-4.72
-15.78
-26.04
-35.04
-42.87
-50.15
-57.84
-66.98
-78.4
-92.4
-108.47
-125.11
-139.79
-149.35
-150.75
-142.05
-123.16
-95.96
-63.88
-30.78
0.07
26.71
48.56
65.99
79.66
90.11
97.54
102
103.64
102.9
100.49
97.21
93.7
90.28
86.95
83.45
79.55
75.23
70.68
66.23
62.13
58.31
54.35
49.58
43.28
34.97
24.64
12.74
0.16
-12.11
-23.27
-32.97
-41.4
-49.21
-57.28
-66.52
-77.58
-90.61
-104.92
-118.85
-129.88
-135.13
-132.17
-119.86
-98.84
-71.42
-40.93
-10.68
16.74
39.95
58.62
73.04
83.72
91.08
95.41
97.01
96.28
93.77
90.2
86.3
82.63
79.48
76.84
74.42
71.87
68.93
65.52
61.67
57.47
52.93
47.86
41.96
34.94
26.6
17.08
6.76
-3.78
-13.93
-23.27
-31.61
-39.04
-45.84
-52.41
-59.16
-66.65
-75.34
-85.45
-96.55
-107.26
-115.32
-118.06
-113.36
-100.36
-80.01
-54.7
-27.61
-1.68
21.07
39.67
54.01
64.35
70.99
74.2
74.32
71.92
67.82
62.99
58.29
54.29
51.15
48.68
46.52
44.33
42.01
39.65
37.46
35.48
33.46
30.79
26.75
20.78
12.82
3.33
-6.72
-16.35
-24.84
-32.01
-38.31
-44.58
-51.8
-60.77
-71.7
-83.98
-95.97
-105.3
-109.34
-106.07
-94.76
-76.4
-53.34
-28.66
-5.12
15.42
32.19
45.21
54.77
61.11
64.28
64.41
61.89
57.47
52.18
47.03
42.8
39.79
37.84
36.5
35.23
33.6
31.47
28.91
26.12
23.19
20.02
16.29
11.55
5.46
-2.08
-10.79
-20.11
-29.34
-37.91
-45.52
-52.26
-58.55
-65.01
-72.35
-81.14
-91.54
-103.06
-114.33
-123.17
-127.09
-123.94
-112.72
-93.98
-69.7
-42.74
-15.97
8.39
29.13
45.92
59.02
68.86
75.8
80.11
82.01
81.78
79.8
76.6
72.73
68.71
64.94
61.62
58.78
56.35
54.16
52
49.65
46.83
43.34
39.07
34.04
28.37
22.18
15.57
8.53
0.99
-7.04
-15.48
-24.12
-32.67
-40.88
-48.62
-55.96
-63.23
-70.95
-79.71
-89.85
-101.02
-111.86
-120.11
-123.18
-118.98
-106.77
-87.48
-63.55
-38.02
-13.65
7.74
25.44
39.54
50.39
58.26
63.25
65.48
65.28
63.32
60.46
57.52
55.06
53.2
51.73
50.24
48.4
46.1
43.44
40.7
38.09
35.64
33.06
29.92
25.72
20.11
13.05
4.82
-4.04
-12.86
-21.09
-28.38
-34.75
-40.51
-46.24
-52.65
-60.33
-69.57
-79.97
-90.36
-98.76
-102.86
-100.65
-91.12
-74.67
-53.12
-29.09
-5.32
16.07
33.86
47.67
57.66
64.12
67.34
67.63
65.48
61.6
56.92
52.35
48.54
45.73
43.72
42.08
40.36
38.29
35.87
33.23
30.49
27.66
24.57
20.95
16.55
11.13
4.61
-2.98
-11.38
-20.19
-28.91
-37.13
-44.67
-51.68
-58.6
-66.07
-74.67
-84.86
-96.71
-109.67
-122.39
-132.7
-137.99
-135.9
-125.17
-106.2
-81.06
-52.86
-24.84
0.53
21.99
39.39
53.16
63.82
71.77
77.17
80.21
81.2
80.66
79.13
77.09
74.9
72.74
70.73
68.92
67.34
65.91
64.41
62.54
59.96
56.42
51.85
46.37
40.2
33.56
26.53
19.07
11.05
2.35
-7.02
-16.83
-26.72
-36.24
-45.07
-53.1
-60.57
-68.07
-76.42
-86.41
-98.32
-111.52
-124.18
-133.56
-136.67
-131.25
-116.67
-94.23
-66.79
-37.85
-10.5
13.23
32.59
47.79
59.42
68.03
73.91
77.21
78.14
77.07
74.59
71.43
68.22
65.4
63.19
61.6
60.5
59.72
59.06
58.24
56.94
54.79
51.54
47.13
41.7
35.56
28.97
22.06
14.77
7
-1.26
-9.8
-18.22
-26.09
-33.14
-39.4
-45.26
-51.37
-58.48
-67.23
-77.74
-89.3
-100.23
-108.05
-110.1
-104.39
-90.34
-69.07
-43.13
-15.72
10.18
32.48
50.16
63.1
71.69
76.51
78.09
77
73.88
69.44
64.51
59.88
56.11
53.47
51.87
50.94
50.14
49.03
47.31
44.88
41.86
38.39
34.57
30.29
25.29
19.24
11.89
3.31
-6.12
-15.74
-24.9
-33.16
-40.4
-46.91
-53.14
-59.69
-67.15
-76.03
-86.62
-98.65
-111.01
-121.64
-127.85
-127.03
-117.58
-99.54
-74.79
-46.38
-17.77
8.23
29.97
46.95
59.57
68.48
74.33
77.56
78.49
77.49
75.02
71.72
68.23
65.08
62.51
60.56
59.08
57.83
56.61
55.23
53.44
50.96
47.47
42.81
37.03
30.45
23.56
16.79
10.31
3.96
-2.71
-10.12
-18.47
-27.57
-36.86
-45.7
-53.61
-60.5
-66.79
-73.23
-80.79
-90.29
-102.02
-115.37
-128.57
-138.86
-143.08
-138.66
-124.51
-101.59
-72.61
-41.27
-11.1
15.42
37.16
54.12
66.9
76.16
82.42
86.08
87.57
87.43
86.23
84.45
82.4
80.17
77.77
75.24
72.77
70.64
69.06
68.03
67.14
65.74
63.08
58.64
52.35
44.65
36.27
27.92
20.01
12.51
4.98
-3.1
-12.05
-21.8
-31.83
-41.42
-49.92
-57.09
-63.17
-68.9
-75.32
-83.46
-93.87
-106.24
-119.13
-130.07
-136.09
-134.54
-123.98
-104.78
-79.06
-50.09
-21.24
4.81
26.58
43.75
56.63
65.68
71.29
73.71
73.29
70.65
66.69
62.43
58.74
56.14
54.7
54.13
53.95
53.7
53.06
51.94
50.4
48.53
46.27
43.34
39.3
33.7
26.28
17.24
7.2
-2.98
-12.47
-20.8
-27.96
-34.44
-40.98
-48.38
-57.27
-67.95
-80.18
-93.02
-104.77
-113.13
-115.69
-110.64
-97.43
-77.08
-51.97
-25.16
0.46
22.82
40.91
54.56
64.06
69.72
71.81
70.66
66.85
61.31
55.27
49.94
46.22
44.36
43.95
44.14
43.99
42.85
40.57
37.48
34.07
30.69
27.34
23.65
19.03
13.03
5.51
-3.26
-12.65
-21.95
-30.54
-38.16
-44.95
-51.46
-58.53
-67.03
-77.67
-90.57
-104.97
-119.02
-130.01
-134.95
-131.47
-118.63
-97.34
-70.15
-40.46
-11.55
14.17
35.57
52.51
65.49
75.08
81.74
85.73
87.26
86.68
84.49
81.36
77.98
74.9
72.37
70.32
68.45
66.39
63.88
60.91
57.61
54.15
50.49
46.27
40.94
33.91
24.88
14.04
2.04
-10.18
-21.8
-32.34
-41.77
-50.43
-58.82
-67.49
-76.95
-87.71
-100.11
-113.97
-128.24
-140.85
-148.91
-149.58
-141.02
-123.13
-97.74
-68.09
-37.77
-9.75
14.24
33.79
49.33
61.58
71.2
78.5
83.71
86.99
88.64
89.06
88.63
87.71
86.53
85.29
84.08
82.99
81.94
80.73
78.99
76.34
72.53
67.49
61.38
54.39
46.72
38.42
29.47
19.87
9.78
-0.47
-10.47
-19.82
-28.33
-36.11
-43.53
-51.19
-59.73
-69.72
-81.33
-94.07
-106.54
-116.46
-121.16
-118.3
-106.78
-87.25
-62.08
-34.56
-7.95
15.43
34.6
49.66
61.2
69.77
75.57
78.57
78.85
76.9
73.63
70.21
67.64
66.46
66.59
67.47
68.35
68.67
68.19
67.08
65.67
64.2
62.66
60.71
57.81
53.5
47.55
40.18
31.95
23.63
15.93
9.29
3.79
-0.83
-5.07
-9.51
-14.66
-20.93
-28.36
-36.4
-43.68
-48.1
-47.19
-38.85
-22.15
2.19
31.87
63.64
94.18
120.89
142.37
158.36
169.44
176.46
180.11
180.57
177.49
170.19
158.04
140.89
119.29
94.47
68.08
41.66
16.3
-7.76
-30.98
-54.45
-79.65
-108.18
-141.41
-179.95
-222.91
-267.4
-308.6
-340.78
-358.96
-360.74
-347.32
-323.04
-293.74
-264.47
-237.93
-214.28
-192.26
-170.82
-150.37
-132.82
-120.62
-115.54
-117.57
-124.84
-134.09
-141.65
-144.26
-139.76
-127.28
-107.29
-81.3
-51.5
-20.25
10.33
38.63
63.67
84.98
102.41
116.02
126.01
132.77
136.87
139.03
139.95
140.09
139.55
138.13
135.6
131.92
127.48
122.97
119.1
116.2
113.99
111.62
108.04
102.41
94.48
84.64
73.73
62.76
52.54
43.42
35.24
27.44
19.3
10.26
0.14
-10.73
-21.68
-31.92
-40.9
-48.58
-55.46
-62.44
-70.58
-80.84
-93.71
-108.89
-125.06
-139.7
-149.57
-151.46
-143.22
-124.66
-97.73
-65.97
-33.41
-3.44
21.98
42.33
58.07
70.01
78.8
84.79
88.22
89.39
88.78
87.02
84.71
82.32
80.12
78.23
76.68
75.48
74.59
73.88
73.1
71.85
69.71
66.34
61.62
55.72
48.97
41.77
34.36
26.76
18.88
10.6
2.02
-6.54
-14.6
-21.71
-27.73
-32.98
-38.17
-44.25
-52.12
-62.23
-74.18
-86.53
-96.8
-102
-99.41
-87.47
-66.43
-38.25
-6.05
26.9
58.02
85.79
109.65
129.44
145.08
156.42
163.46
166.77
167.52
167.41
168.04
170.39
174.41
178.97
182.18
182
176.93
166.61
151.97
134.97
117.75
101.7
86.8
71.64
54.11
32.43
6.07
-24.02
-55.98
-87.82
-118.2
-146.72
-173.73
-200.01
-226.49
-254
-282.82
-312.05
-339.19
-360.63
-372.99
-374.8
-367.39
-354.32
-339.41
-324.51
-308.49
-288.01
-259.59
-221.64
-175.31
-123.77
-70.71
-19.1
29.11
72.52
109.74
139.26
159.94
171.63
175.37
173.2
167.63
160.98
155.01
150.73
148.23
146.9
145.76
143.86
140.73
136.46
131.56
126.45
121.22
115.5
108.65
100.19
90.05
78.71
66.93
55.49
44.79
34.74
24.88
14.59
3.51
-8.39
-20.73
-32.89
-44.29
-54.55
-63.7
-72.26
-81.14
-91.49
-104.22
-119.4
-135.78
-150.66
-160.45
-161.66
-152.22
-132.23
-103.98
-71.19
-37.74
-6.66
20.37
42.88
61.08
75.35
85.97
93.19
97.37
99.03
98.84
97.44
95.34
92.87
90.22
87.5
84.88
82.53
80.64
79.29
78.31
77.22
75.28
71.7
66.01
58.32
49.34
40.13
31.64
24.29
17.78
11.28
3.91
-4.78
-14.6
-24.76
-34.28
-42.43
-49.06
-54.66
-60.26
-67.04
-75.97
-87.41
-100.61
-113.64
-123.52
-126.96
-121.4
-105.91
-81.77
-52.05
-20.73
8.56
33.46
53.11
67.81
78.29
85.15
88.65
88.91
86.28
81.54
75.83
70.35
66.05
63.26
61.75
60.91
60.03
58.58
56.36
53.41
49.95
46.15
42.02
37.41
31.95
25.26
17.07
7.41
-3.3
-14.38
-25.05
-34.77
-43.36
-51.05
-58.39
-66.08
-74.83
-85.28
-97.74
-111.78
-125.94
-137.63
-143.6
-140.91
-127.98
-105.42
-75.89
-43.31
-11.64
16.22
38.88
56.35
69.33
78.75
85.22
89.11
90.63
90.07
87.85
84.56
80.79
77.04
73.63
70.69
68.16
65.89
63.64
61.12
58.02
54.07
49.06
42.97
35.93
28.21
20.07
11.7
3.1
-5.81
-15.07
-24.63
-34.22
-43.43
-51.93
-59.58
-66.6
-73.53
-81.16
-90.34
-101.61
-114.83
-128.81
-141.23
-148.99
-148.99
-139.14
-119.3
-91.38
-58.89
-25.82
4.5
30.14
50.62
66.41
78.32
86.99
92.82
96.07
97.06
96.24
94.15
91.27
87.97
84.45
80.85
77.3
73.92
70.81
67.96
65.19
62.14
58.4
53.61
47.65
40.62
32.82
24.63
16.35
8.05
-0.31
-8.88
-17.74
-26.77
-35.66
-44.04
-51.63
-58.43
-64.81
-71.49
-79.33
-88.98
-100.41
-112.53
-123.08
-129.09
-127.7
-117.17
-97.7
-71.46
-42
-13.03
12.55
33.3
49.1
60.55
68.32
72.82
74.19
72.68
68.86
63.74
58.53
54.2
51.24
49.44
48.16
46.64
44.37
41.32
37.87
34.54
31.61
28.94
25.92
21.76
15.78
7.77
-1.93
-12.46
-22.78
-32.03
-39.83
-46.36
-52.32
-58.65
-66.28
-75.89
-87.6
-100.73
-113.64
-123.85
-128.4
-124.79
-111.82
-90.2
-62.54
-32.56
-3.99
20.5
39.76
53.97
64.01
70.76
74.77
76.27
75.44
72.66
68.58
64
59.6
55.81
52.73
50.28
48.25
46.41
44.56
42.47
39.87
36.54
32.32
27.23
21.41
15.02
8.19
0.85
-7.1
-15.73
-24.89
-34.21
-43.18
-51.37
-58.65
-65.27
-71.81
-79.07
-87.89
-98.84
-111.92
-126.15
-139.43
-148.77
-150.96
-143.63
-126.16
-100.07
-68.63
-35.86
-5.33
20.68
41.38
57.07
68.61
76.82
82.3
85.44
86.63
86.23
84.68
82.38
79.62
76.6
73.45
70.34
67.45
64.95
62.87
61.01
58.98
56.27
52.42
47.24
40.85
33.65
26.1
18.5
10.89
3.02
-5.41
-14.51
-24.08
-33.57
-42.39
-50.12
-56.72
-62.62
-68.56
-75.5
-84.31
-95.39
-108.33
-121.51
-132.28
-137.39
-133.98
-120.66
-98.11
-69.06
-37.41
-7.08
19.16
40.15
56.1
67.9
76.38
81.93
84.6
84.43
81.83
77.67
73.07
69.02
65.99
63.86
62.06
60
57.3
54.04
50.62
47.43
44.57
41.71
38.13
33.04
25.87
16.6
5.79
-5.54
-16.34
-25.79
-33.67
-40.35
-46.7
-53.73
-62.34
-73.03
-85.61
-99.15
-111.86
-121.29
-124.78
-120.23
-106.76
-85.19
-57.91
-28.31
0.22
25.1
44.98
59.72
69.86
76.2
79.37
79.81
77.89
74.09
69.09
63.74
58.86
55.04
52.48
50.99
50.04
49.04
47.43
44.89
41.34
36.92
31.85
26.35
20.44
13.99
6.7
-1.65
-11.02
-21.01
-31.02
-40.43
-48.92
-56.58
-63.85
-71.39
-79.83
-89.72
-101.4
-114.81
-129.1
-142.4
-151.78
-153.96
-146.33
-128.07
-100.64
-67.47
-32.88
-0.71
26.64
48.46
65.26
78.08
87.76
94.74
99.16
101.13
100.93
99.04
96.07
92.54
88.84
85.16
81.56
78.07
74.65
71.27
67.79
64.05
59.79
54.77
48.86
42.06
34.5
26.36
17.77
8.76
-0.68
-10.61
-20.95
-31.46
-41.81
-51.61
-60.66
-69.08
-77.34
-86.25
-96.68
-109.07
-122.96
-136.62
-147.13
-151.09
-145.67
-129.73
-104.35
-72.61
-38.62
-6.3
21.68
44.2
61.43
74.17
83.23
89.19
92.38
93.12
91.89
89.31
86.02
82.51
79.05
75.72
72.51
69.48
66.75
64.4
62.35
60.26
57.61
53.87
48.75
42.33
35.03
27.4
19.81
12.35
4.78
-3.24
-11.88
-21.04
-30.33
-39.25
-47.41
-54.74
-61.55
-68.53
-76.54
-86.34
-98.09
-111
-123.02
-131.16
-132.26
-124.09
-106.3
-80.64
-50.54
-19.91
7.98
31.21
49.27
62.54
71.64
77.03
79
77.9
74.39
69.53
64.53
60.42
57.7
56.2
55.28
54.15
52.28
49.65
46.68
43.87
41.39
38.92
35.67
30.75
23.66
14.47
3.9
-7
-17.24
-26.21
-33.81
-40.46
-46.91
-54.08
-62.87
-73.84
-86.91
-101
-113.9
-122.61
-124.11
-116.34
-99.08
-74.14
-44.83
-14.96
12.32
35.19
53.2
66.74
76.43
82.64
85.49
85.13
81.99
76.99
71.31
66.14
62.24
59.76
58.29
57.04
55.31
52.66
49.11
45.02
40.82
36.77
32.71
28.16
22.43
15.03
5.84
-4.71
-15.82
-26.59
-36.33
-44.83
-52.3
-59.35
-66.72
-75.22
-85.49
-97.86
-112.02
-126.68
-139.46
-147.23
-146.92
-136.59
-116.21
-87.86
-55.2
-22.21
7.81
33.09
53.25
68.85
80.71
89.42
95.24
98.28
98.75
97.13
94.1
90.38
86.54
82.92
79.61
76.56
73.66
70.86
68.09
65.22
62
58.13
53.27
47.29
40.27
32.49
24.31
15.93
7.4
-1.43
-10.71
-20.42
-30.27
-39.85
-48.78
-56.94
-64.6
-72.42
-81.29
-92.04
-105.01
-119.55
-133.73
-144.44
-148.2
-142.18
-125.45
-99.43
-67.55
-34.13
-3.03
23.37
44.38
60.47
72.5
81.09
86.53
88.99
88.91
87.01
84.25
81.41
78.85
76.52
74.12
71.4
68.39
65.36
62.7
60.57
58.76
56.63
53.4
48.45
41.61
33.31
24.32
15.5
7.41
0.09
-6.91
-14.26
-22.5
-31.7
-41.43
-50.92
-59.41
-66.5
-72.34
-77.59
-83.24
-90.35
-99.68
-111.37
-124.5
-136.95
-145.59
-147.05
-138.82
-120.24
-93.01
-60.7
-27.67
2.36
27.18
46.27
60.22
69.99
76.25
79.34
79.47
77.11
73.08
68.5
64.41
61.51
59.97
59.52
59.56
59.48
58.76
57.13
54.6
51.3
47.4
43.04
38.16
32.6
26.12
18.6
10.11
1.01
-8.19
-16.94
-24.88
-31.99
-38.52
-44.89
-51.57
-59.02
-67.67
-77.81
-89.36
-101.46
-112.23
-118.97
-118.81
-109.78
-91.61
-66.09
-36.53
-6.74
20.12
42.24
59.17
71.29
79.21
83.31
83.74
80.78
75.1
67.94
60.8
55.06
51.47
50.03
50
50.36
50.18
48.9
46.44
43.05
39.09
34.79
30.14
24.87
18.6
10.97
1.89
-8.39
-19.28
-30
-39.86
-48.56
-56.25
-63.56
-71.35
-80.53
-91.75
-105.21
-120.31
-135.42
-147.92
-154.62
-152.58
-140.2
-117.92
-88.26
-55.1
-22.49
6.57
30.62
49.66
64.46
75.88
84.4
90.12
93.03
93.32
91.48
88.25
84.42
80.62
77.18
74.16
71.37
68.59
65.62
62.36
58.75
54.77
50.33
45.26
39.38
32.48
24.46
15.32
5.23
-5.52
-16.51
-27.26
-37.39
-46.63
-55.02
-62.83
-70.61
-79.08
-88.99
-100.91
-114.78
-129.55
-142.93
-151.72
-152.61
-143.27
-123.31
-94.59
-60.69
-25.81
6.46
33.98
56.13
73.37
86.55
96.38
103.28
107.43
109.11
108.77
107.02
104.53
101.87
99.35
97.1
95.12
93.36
91.7
89.86
87.36
83.61
78.07
70.54
61.3
51.04
40.57
30.46
20.8
11.3
1.52
-8.72
-19.17
-29.24
-38.27
-45.96
-52.5
-58.59
-65.15
-73.03
-82.78
-94.43
-107.21
-119.44
-128.52
-131.41
-125.51
-109.57
-84.36
-52.52
-17.81
16.14
46.74
72.81
94.22
111.24
123.92
132.1
135.72
135.43
132.84
130.36
130.49
134.82
143.19
153.44
161.89
164.52
158.6
143.86
122.77
99.59
78.49
61.64
48.24
34.82
16.72
-10.14
-47.9
-96.13
-151.99
-210.68
-266.17
-312.25
-343.78
-358.25
-356.72
-343.7
-325.6
-308.23
-294.57
-283.78
-272.05
-254.59
-227.82
-190.79
-145.3
-95.02
-44.23
3.23
44.52
77.98
102.85
119.12
127.39
128.86
125.24
118.63
111.18
104.7
100.23
97.86
96.8
95.84
93.89
90.46
85.85
80.87
76.43
72.96
70.16
66.99
62.12
54.43
43.59
30.18
15.57
1.32
-11.38
-22.13
-31.39
-40.23
-49.93
-61.63
-76.01
-93.01
-111.62
-129.68
-144.04
-151.19
-148.2
-133.86
-109.19
-77.35
-42.61
-9.09
20.32
44.38
63.24
77.8
88.94
97.25
102.96
106.17
107.11
106.24
104.11
101.3
98.28
95.46
93.18
91.74
91.29
91.65
92.26
92.23
90.67
87
81.18
73.63
65.01
55.83
46.21
35.98
24.84
12.74
-0.01
-12.79
-24.86
-35.69
-45.14
-53.6
-61.87
-71.08
-82.33
-96.28
-112.57
-129.47
-143.82
-151.68
-149.47
-135.26
-109.55
-75.35
-37.12
0.61
34.64
63.67
88.06
108.89
127.03
142.54
154.85
163.25
167.53
168.43
167.52
166.78
167.88
171.62
177.53
183.9
188.2
187.85
181.12
167.78
149.2
127.71
105.64
84.28
63.47
41.92
17.75
-10.75
-44.78
-84.91
-130.66
-180.11
-229.4
-273.04
-305.2
-321.7
-321.8
-308.66
-288.14
-266.54
-248.45
-235.87
-228.57
-225.17
-224
-223.13
-219.89
-210.88
-192.63
-163.16
-123.24
-76.67
-29.29
13.24
47.3
72.3
90.19
103.83
115.48
125.71
133.66
137.96
137.85
133.87
127.72
121.55
117
114.6
113.78
113.34
112.12
109.46
105.4
100.37
94.83
88.94
82.44
74.75
65.3
53.85
40.65
26.44
12.2
-1.18
-13.2
-23.88
-33.69
-43.38
-53.79
-65.66
-79.51
-95.37
-112.44
-128.87
-141.81
-147.95
-144.55
-130.38
-106.37
-75.39
-41.35
-8.05
21.83
46.98
67.28
83.22
95.27
103.71
108.64
110.26
109.04
105.78
101.47
97.1
93.36
90.52
88.43
86.63
84.61
81.98
78.52
74.19
68.96
62.8
55.65
47.51
38.44
28.56
18.03
6.96
-4.51
-16.28
-28.16
-39.96
-51.44
-62.43
-72.94
-83.22
-93.91
-105.84
-119.79
-135.87
-152.95
-168.4
-178.5
-179.5
-168.97
-146.8
-115.41
-78.88
-41.69
-7.31
22.43
47.22
67.64
84.37
97.83
108.1
115.19
119.28
120.8
120.3
118.29
115.13
111.07
106.33
101.27
96.32
91.9
88.24
85.18
82.23
78.68
73.91
67.61
59.89
51.2
42.1
32.99
23.89
14.53
4.54
-6.29
-17.79
-29.47
-40.67
-50.85
-59.85
-68.02
-76.21
-85.55
-97.13
-111.46
-127.92
-144.4
-157.5
-163.28
-158.6
-142.26
-115.59
-82.1
-46.22
-12.01
17.91
42.57
62.23
77.6
89.2
97.21
101.65
102.68
100.82
96.99
92.25
87.56
83.55
80.39
77.86
75.54
73
69.97
66.44
62.52
58.39
54.1
49.47
44.12
37.58
29.48
19.73
8.65
-3.14
-14.87
-25.95
-36.11
-45.45
-54.41
-63.56
-73.55
-84.9
-97.82
-111.82
-125.47
-136.34
-141.43
-138.06
-124.79
-102.11
-72.42
-39.39
-6.85
22.21
46.15
64.69
78.39
88.12
94.53
98.01
98.76
97.02
93.22
88.03
82.31
76.83
72.15
68.52
65.85
63.85
62.12
60.24
57.86
54.66
50.43
45.06
38.56
31
22.51
13.18
3.11
-7.61
-18.82
-30.27
-41.65
-52.6
-62.9
-72.44
-81.4
-90.22
-99.66
-110.56
-123.48
-138.15
-152.99
-165.16
-171.11
-167.73
-153.51
-129.18
-97.64
-62.93
-29.02
1.31
26.82
47.58
64.24
77.5
87.75
95.17
99.92
102.26
102.63
101.44
99.09
95.84
91.95
87.71
83.49
79.71
76.64
74.3
72.3
70.02
66.72
61.92
55.54
47.91
39.63
31.21
22.85
14.4
5.47
-4.2
-14.59
-25.25
-35.53
-44.84
-52.96
-60.13
-66.96
-74.34
-83.17
-94.17
-107.45
-122.11
-136.05
-146.14
-149
-142.12
-124.87
-98.93
-67.77
-35.53
-5.75
19.53
39.78
55.52
67.57
76.49
82.46
85.48
85.65
83.34
79.25
74.23
69.16
64.7
61.2
58.67
56.85
55.34
53.74
51.76
49.22
46.01
42
37.04
30.98
23.72
15.27
5.84
-4.23
-14.49
-24.5
-33.87
-42.41
-50.11
-57.13
-63.84
-70.76
-78.54
-87.81
-98.77
-110.85
-122.35
-130.66
-132.88
-126.77
-111.67
-88.84
-61.15
-32.15
-5.08
17.87
35.79
48.79
57.51
62.7
64.94
64.68
62.34
58.44
53.69
48.95
44.94
42.06
40.27
39.11
37.94
36.26
33.91
31.03
27.85
24.53
20.92
16.72
11.53
5.07
-2.67
-11.52
-21.08
-30.86
-40.32
-49.05
-56.83
-63.7
-70.02
-76.38
-83.56
-92.37
-103.38
-116.54
-130.73
-143.51
-151.47
-151.06
-139.88
-117.64
-86.55
-50.59
-14.26
18.73
46.32
68
84.27
95.86
103.28
106.86
106.89
103.95
98.92
92.78
86.44
80.51
75.3
70.89
67.23
64.23
61.73
59.45
56.99
53.91
49.84
44.61
38.25
31
23.1
14.77
6.09
-2.92
-12.26
-21.79
-31.29
-40.51
-49.24
-57.38
-65.04
-72.55
-80.51
-89.67
-100.73
-113.89
-128.37
-142.1
-151.95
-154.49
-147.15
-129.23
-102.28
-69.66
-35.52
-3.49
24.08
46.36
63.64
76.67
86.14
92.52
96.03
96.97
95.75
93.01
89.44
85.68
82.17
79.09
76.41
73.96
71.58
69.11
66.41
63.35
59.74
55.38
50.15
44.05
37.19
29.73
21.83
13.57
4.97
-3.93
-12.97
-21.92
-30.43
-38.25
-45.29
-51.79
-58.32
-65.66
-74.64
-85.66
-98.28
-110.94
-121
-125.35
-121.36
-107.82
-85.5
-56.98
-25.85
4.42
31.3
53.53
70.79
83.16
90.66
93.19
90.89
84.4
75.1
64.82
55.45
48.29
43.76
41.38
40.11
38.86
36.94
34.21
30.99
27.7
24.49
21.11
16.94
11.31
3.83
-5.38
-15.63
-25.99
-35.58
-43.91
-51.05
-57.53
-64.18
-71.88
-81.36
-92.93
-106.21
-119.88
-131.58
-138.27
-137.05
-126.09
-105.5
-77.42
-45.47
-13.59
15.08
38.85
57.42
71.37
81.41
88
91.34
91.58
89.13
84.8
79.66
74.69
70.62
67.67
65.64
64.05
62.41
60.34
57.64
54.27
50.26
45.62
40.37
34.43
27.7
20.01
11.26
1.44
-9.31
-20.6
-31.88
-42.62
-52.42
-61.15
-69.04
-76.59
-84.53
-93.75
-104.95
-118.27
-132.75
-146.11
-155.02
-155.95
-146.44
-126.13
-97.09
-63.17
-28.81
2.38
28.33
48.66
64.03
75.31
83.2
87.95
89.74
88.84
85.92
81.86
77.58
73.82
70.92
68.85
67.28
65.78
63.95
61.58
58.56
54.94
50.77
46.17
41.14
35.6
29.37
22.2
13.94
4.66
-5.29
-15.34
-24.91
-33.61
-41.38
-48.51
-55.49
-62.94
-71.48
-81.61
-93.48
-106.55
-119.24
-128.91
-132.45
-127.23
-112.17
-88.32
-58.63
-27.03
2.87
28.67
49.45
65.36
76.88
84.36
87.92
87.77
84.52
79.27
73.43
68.25
64.5
62.22
60.9
59.79
58.23
55.93
53
49.83
46.75
43.81
40.67
36.59
30.78
22.74
12.5
0.69
-11.65
-23.45
-33.96
-43.05
-51.14
-59.12
-68.05
-78.87
-92.07
-107.27
-122.95
-136.41
-144.26
-143.41
-132.11
-110.76
-81.9
-49.46
-17.47
11.02
34.5
52.88
66.86
77.24
84.57
89.12
91.09
90.79
88.69
85.4
81.52
77.59
74.01
70.96
68.45
66.27
64.07
61.53
58.4
54.6
50.17
45.23
39.81
33.86
27.19
19.6
10.96
1.33
-9.01
-19.64
-30.08
-39.99
-49.27
-58.06
-66.73
-75.81
-85.99
-97.84
-111.56
-126.45
-140.65
-151.17
-154.63
-148.33
-131.34
-105.03
-72.7
-38.48
-6.12
21.98
44.98
63.11
77.02
87.25
94.07
97.72
98.59
97.37
94.92
92.02
89.19
86.59
84.17
81.83
79.58
77.52
75.73
74.11
72.24
69.48
65.21
59.08
51.24
42.28
33
24.05
15.66
7.56
-0.82
-9.99
-20.06
-30.66
-41.05
-50.51
-58.69
-65.78
-72.54
-80.04
-89.41
-101.33
-115.62
-130.89
-144.47
-152.89
-152.76
-142.01
-120.69
-91.2
-57.55
-24.14
5.59
29.85
48.48
62.29
72.27
79.03
82.77
83.53
81.65
77.85
73.22
68.82
65.42
63.28
62.14
61.44
60.61
59.21
57.13
54.5
51.53
48.31
44.76
40.49
35.05
28.04
19.38
9.35
-1.38
-12.02
-21.87
-30.61
-38.35
-45.58
-53.02
-61.39
-71.28
-83.01
-96.34
-110.26
-122.78
-131.14
-132.42
-124.54
-107.08
-81.67
-51.6
-20.79
7.39
30.89
49.16
62.72
72.37
78.72
82.04
82.41
80.13
75.88
70.66
65.59
61.53
58.82
57.3
56.42
55.52
53.99
51.51
47.98
43.51
38.31
32.59
26.46
19.87
12.68
4.62
-4.49
-14.65
-25.6
-36.85
-47.82
-57.99
-67.1
-75.22
-82.8
-90.61
-99.66
-110.79
-124.3
-139.38
-153.88
-164.54
-167.79
-160.98
-143.33
-116.37
-83.49
-48.81
-15.98
12.69
36.36
55.23
69.98
81.24
89.41
94.85
97.95
99.29
99.47
99.03
98.28
97.36
96.27
95.05
93.87
92.98
92.58
92.65
92.8
92.39
90.68
87.16
81.81
75.06
67.72
60.59
54.17
48.44
42.93
37.03
30.29
22.81
15.13
8.05
2.2
-2.27
-5.82
-9.45
-14.42
-21.79
-31.97
-44.17
-56.25
-64.89
-66.49
-58.31
-39.54
-11.76
21.46
55.75
87.21
113.4
133.42
147.5
156.18
159.71
157.96
150.82
138.67
122.67
104.75
87.16
71.82
59.76
50.72
43.25
35.03
23.56
6.68
-16.93
-47.53
-84.08
-124.12
-163.76
-198.26
-223.1
-235.36
-234.76
-223.78
-206.65
-187.85
-170.54
-156.01
-143.98
-133.6
-124.26
-115.89
-108.64
-102.5
-97.25
-92.75
-89.44
-88.58
-91.67
-99.49
-111.2
-123.91
-133.14
-134.25
-124.02
-101.99
-70.66
-34.72
0.7
31.54
55.92
73.94
86.88
96.09
102.28
105.51
105.61
102.83
97.99
92.43
87.5
84.07
82.22
81.34
80.53
78.96
76.25
72.55
68.37
64.22
60.33
56.44
51.94
46.06
38.31
28.74
17.92
6.78
-3.84
-13.41
-21.9
-29.68
-37.32
-45.49
-54.81
-65.8
-78.55
-92.4
-105.69
-115.68
-119.31
-114.11
-99.23
-75.86
-46.88
-15.88
13.96
40.58
63.07
81.25
95.09
104.48
109.28
109.61
106.08
99.7
91.73
83.34
75.47
68.7
63.27
59.08
55.78
52.83
49.68
45.9
41.3
35.93
29.98
23.62
16.87
9.5
1.21
-8.23
-18.78
-30.01
-41.28
-51.95
-61.67
-70.5
-78.93
-87.66
-97.44
-108.93
-122.48
-137.88
-153.89
-168.11
-177.16
-177.46
-166.46
-143.71
-111.17
-72.74
-33.01
4.15
36.42
63.11
84.64
101.8
115.25
125.36
132.46
136.94
139.41
140.55
140.99
141.17
141.42
142.06
143.4
145.71
149.05
153.15
157.48
161.33
164.13
165.49
165.34
163.73
160.76
156.59
151.5
145.84
139.96
133.91
127.21
118.9
107.94
93.56
75.65
54.68
31.32
6.12
-20.64
-48.72
-77.54
-105.92
-132.39
-155.72
-175.65
-193.31
-211.01
-231.56
-257.2
-288.55
-324.03
-359.82
-390.67
-411.24
-417.49
-407.85
-383.33
-346.85
-301.96
-251.7
-198.19
-142.93
-87.71
-35.1
11.68
49.68
77.22
94.66
104.06
108.29
109.8
109.84
108.33
104.44
97.39
87.12
74.43
60.7
47.38
35.47
25.2
16.16
7.53
-1.54
-11.68
-23.29
-36.57
-51.42
-67.13
-82.09
-93.64
-98.65
-94.46
-80.06
-56.69
-27.53
3.42
32.64
58.08
79.16
96.14
109.35
118.61
123.48
123.77
120.04
113.72
106.61
100.26
95.39
91.8
88.72
85.3
81.16
76.5
71.84
67.7
64.13
60.56
55.95
49.21
39.68
27.45
13.41
-1.09
-14.65
-26.4
-36.21
-44.71
-53.05
-62.56
-74.37
-89.04
-106.16
-124.1
-139.96
-150.09
-151.01
-140.58
-118.9
-88.39
-53.13
-17.53
14.92
42.36
64.49
81.91
95.34
105.14
111.3
113.79
112.92
109.48
104.69
99.74
95.46
92.1
89.34
86.58
83.27
79.19
74.43
69.34
64.17
58.91
53.18
46.38
37.91
27.44
15.06
1.33
-12.86
-26.55
-39.03
-50
-59.72
-68.92
-78.58
-89.75
-103.26
-119.35
-137.3
-155.11
-169.53
-176.7
-173.26
-157.54
-130.36
-94.87
-55.58
-16.97
17.77
47.19
71.28
90.69
106.03
117.51
125.14
129.01
129.58
127.66
124.11
119.7
114.89
109.94
105.01
100.26
95.85
91.8
87.93
83.82
78.99
73.03
65.81
57.46
48.31
38.71
28.86
18.77
8.29
-2.65
-14.04
-25.63
-37.03
-47.89
-58.05
-67.67
-77.23
-87.49
-99.3
-113.33
-129.58
-146.92
-162.84
-173.68
-175.62
-165.9
-144.01
-112.04
-74.12
-35.13
0.75
31.01
54.92
73.01
86.21
95.28
100.57
102.28
100.83
97.02
91.97
86.89
82.66
79.59
77.38
75.39
73.01
69.93
66.35
62.68
59.27
56.06
52.5
47.69
40.8
31.44
19.9
7.03
-6
-18.18
-28.9
-38.15
-46.44
-54.61
-63.67
-74.47
-87.52
-102.62
-118.69
-133.55
-144.22
-147.63
-141.42
-124.88
-99.29
-67.58
-33.47
-0.52
28.74
53.07
72.24
86.59
96.63
102.73
105.21
104.51
101.22
96.17
90.28
84.37
79.12
74.88
71.71
69.39
67.49
65.52
63
59.61
55.13
49.54
42.88
35.27
26.81
17.58
7.66
-2.86
-13.77
-24.85
-35.81
-46.43
-56.57
-66.19
-75.38
-84.39
-93.64
-103.77
-115.52
-129.27
-144.56
-159.58
-171.2
-175.65
-169.76
-152.16
-124.02
-88.76
-50.96
-14.9
16.59
42.46
63.06
79.33
92.1
101.75
108.36
111.99
112.97
111.87
109.37
106.04
102.28
98.27
94.13
90.02
86.2
82.83
79.96
77.31
74.32
70.32
64.79
57.58
49
39.66
30.2
21.02
12.09
3.05
-6.53
-16.84
-27.7
-38.59
-48.89
-58.15
-66.34
-73.82
-81.35
-89.87
-100.24
-112.84
-127.12
-141.29
-152.39
-156.95
-152.09
-136.65
-111.75
-80.61
-47.44
-16.15
10.79
32.55
49.62
62.91
73.06
80.22
84.16
84.79
82.5
78.18
73.1
68.42
64.83
62.39
60.65
58.98
56.93
54.45
51.82
49.34
47.1
44.69
41.41
36.48
29.43
20.32
9.72
-1.5
-12.42
-22.36
-31.03
-38.55
-45.41
-52.3
-60
-69.18
-80.23
-92.92
-106.08
-117.57
-124.58
-124.38
-115.29
-97.32
-72.37
-43.67
-14.79
11.4
33.26
50.43
63.31
72.5
78.37
81.02
80.56
77.37
72.27
66.38
60.86
56.48
53.48
51.49
49.84
47.87
45.18
41.75
37.85
33.74
29.57
25.16
20.16
14.16
6.85
-1.85
-11.72
-22.32
-33.04
-43.29
-52.69
-61.18
-69.06
-76.98
-85.74
-96.11
-108.54
-122.82
-137.77
-151.13
-159.9
-161.03
-152.46
-133.89
-107.08
-75.34
-42.51
-11.88
14.59
36.28
53.51
66.95
77.13
84.38
88.93
91.04
91.16
89.78
87.36
84.3
80.91
77.43
74.05
70.92
68.07
65.39
62.59
59.29
55.2
50.13
44.13
37.39
30.1
22.28
13.85
4.66
-5.35
-15.97
-26.78
-37.27
-47
-55.81
-63.85
-71.59
-79.76
-89.17
-100.47
-113.77
-128.14
-141.54
-150.98
-153.35
-146.39
-129.57
-104.39
-73.97
-42.03
-11.92
14.23
35.58
52.29
64.97
74.12
80.04
82.88
82.88
80.62
76.99
73.02
69.57
67.03
65.26
63.72
61.83
59.29
56.24
53.11
50.38
48.15
46.01
43.18
38.74
32.15
23.47
13.42
3.09
-6.46
-14.57
-21.22
-26.92
-32.58
-39.24
-47.8
-58.79
-72
-86.22
-99.15
-107.77
-109.15
-101.4
-84.44
-60.13
-31.71
-2.78
23.74
46.14
63.9
77.24
86.51
91.99
93.79
92.17
87.74
81.5
74.65
68.27
63.04
59.06
55.99
53.24
50.31
46.98
43.36
39.74
36.27
32.81
28.8
23.49
16.19
6.61
-4.9
-17.43
-29.75
-40.82
-50.14
-57.91
-64.91
-72.16
-80.61
-90.97
-103.5
-117.77
-132.44
-145.16
-152.78
-152.23
-141.49
-120.55
-91.57
-58.32
-24.95
5.21
30.34
50.09
64.99
75.83
83.15
87.24
88.35
86.87
83.45
78.94
74.25
70.04
66.68
64.14
62.08
60.06
57.7
54.87
51.62
48.1
44.37
40.33
35.7
30.07
23.11
14.66
4.89
-5.77
-16.64
-27.12
-36.75
-45.48
-53.6
-61.66
-70.3
-80.18
-91.77
-105.08
-119.34
-132.75
-142.55
-145.68
-139.64
-123.62
-98.91
-68.64
-36.76
-6.81
18.92
39.69
55.79
67.93
76.61
82.01
84.2
83.43
80.37
76.06
71.63
67.97
65.45
63.87
62.63
61.09
58.86
55.92
52.59
49.2
45.88
42.37
38.08
32.37
24.81
15.45
4.86
-6.02
-16.16
-24.86
-31.89
-37.69
-43.09
-49.12
-56.7
-66.42
-78.39
-91.99
-105.73
-117.24
-123.67
-122.37
-111.81
-92.28
-65.88
-36.03
-6.34
20.32
42.33
59.22
71.16
78.45
81.35
80.21
75.77
69.25
62.17
55.93
51.3
48.28
46.27
44.46
42.37
40.04
37.89
36.3
35.17
33.77
30.95
25.68
17.57
7.05
-4.72
-16.4
-26.98
-36.1
-44.07
-51.68
-59.9
-69.63
-81.46
-95.31
-110.1
-123.61
-132.68
-134.06
-125.49
-106.68
-79.61
-47.97
-16.01
12.75
36.3
54.23
67.12
75.8
80.83
82.51
81.1
77.22
71.92
66.46
61.9
58.68
56.51
54.6
52.07
48.43
43.82
38.92
34.5
30.96
27.99
24.64
19.65
12.09
1.8
-10.5
-23.45
-35.55
-45.79
-53.99
-60.87
-67.74
-76.11
-87.15
-101.19
-117.43
-133.76
-147.03
-153.72
-150.94
-137.38
-113.82
-82.98
-48.71
-14.85
15.67
41.33
61.81
77.49
88.88
96.33
100.09
100.49
98.15
94.02
89.17
84.57
80.8
77.9
75.52
73.14
70.36
67.07
63.53
60.07
56.86
53.7
50.01
45.02
38.06
28.87
17.78
5.55
-6.77
-18.25
-28.41
-37.35
-45.72
-54.5
-64.66
-76.89
-91.3
-107.24
-123.1
-136.38
-144.09
-143.5
-133.03
-112.95
-85.49
-54.2
-22.88
5.45
29.11
47.69
61.45
70.76
75.84
76.91
74.51
69.7
63.93
58.61
54.64
52.2
50.8
49.68
48.25
46.3
44.07
41.92
40.03
38.14
35.59
31.5
25.2
16.49
5.82
-5.86
-17.37
-27.76
-36.61
-44.17
-51.25
-59.01
-68.53
-80.37
-94.2
-108.48
-120.58
-127.24
-125.5
-113.75
-92.35
-63.75
-31.7
-0.14
27.95
51.02
68.86
81.92
90.67
95.28
95.83
92.63
86.66
79.43
72.64
67.57
64.61
63.19
62.16
60.39
57.34
53.22
48.8
44.8
41.46
38.28
34.26
28.33
19.93
9.25
-2.85
-15.12
-26.48
-36.35
-44.82
-52.58
-60.65
-70.14
-81.95
-96.4
-112.81
-129.27
-142.7
-149.51
-146.61
-132.58
-108.26
-76.67
-42.03
-8.47
21.12
45.52
64.91
80.08
91.71
100.06
105.09
106.84
105.76
102.76
98.93
95.21
92.09
89.5
87.06
84.3
81
77.22
73.28
69.52
66.03
62.59
58.59
53.3
46.08
36.66
25.33
12.92
0.51
-10.83
-20.55
-28.72
-36.02
-43.57
-52.51
-63.76
-77.64
-93.59
-109.93
-123.93
-132.24
-131.72
-120.51
-98.78
-68.87
-34.65
-0.29
30.85
56.95
77.71
93.72
105.77
114.36
119.66
121.79
121.14
118.56
115.14
111.96
109.73
108.56
108.05
107.52
106.36
104.34
101.59
98.53
95.53
92.65
89.62
85.88
80.87
74.27
66.21
57.23
48.15
39.78
32.65
26.81
21.75
16.59
10.27
1.86
-9.09
-22.33
-36.8
-50.68
-61.77
-67.93
-67.68
-60.6
-47.45
-29.97
-10.5
8.54
25.02
37.36
44.48
45.85
41.35
31.46
17.11
-0.26
-19.1
-38.09
-56.6
-74.85
-93.9
-115.36
-140.88
-171.74
-208.24
-249.32
-292.18
-332.29
-364.17
-382.62
-384.37
-369.21
-340.12
-302.21
-261
-220.96
-184.71
-153.38
-127.47
-107.64
-94.75
-89.26
-90.39
-95.46
-100.23
-99.94
-90.79
-71.24
-42.46
-7.9
28.03
61.48
90.15
113.53
132.3
147.31
158.84
166.41
169.26
167.13
160.78
151.96
142.93
135.51
130.48
127.34
124.72
121.1
115.53
108.08
99.61
91.28
83.85
77.29
70.74
62.91
52.75
39.94
25
9.19
-6.09
-19.79
-31.57
-41.84
-51.6
-62.06
-74.36
-89.26
-106.79
-125.83
-143.97
-157.7
-163.21
-157.58
-139.84
-111.51
-76.21
-38.57
-2.83
28.08
52.98
72.07
86.25
96.48
103.47
107.62
109.23
108.69
106.52
103.38
99.93
96.65
93.74
91.08
88.42
85.47
82.04
78.1
73.71
68.89
63.57
57.55
50.57
42.44
33.07
22.56
11.22
-0.49
-12.08
-23.17
-33.56
-43.32
-52.71
-62.16
-72.14
-83.3
-96.21
-111.16
-127.57
-143.66
-156.38
-162.03
-157.38
-140.89
-113.47
-78.35
-40.12
-3.31
28.77
54.61
74.31
88.82
99.18
106.04
109.54
109.73
106.87
101.77
95.66
89.87
85.37
82.49
80.94
80.01
79.04
77.48
75.11
71.88
67.79
62.87
57.16
50.67
43.49
35.67
27.2
18.06
8.33
-1.83
-12.12
-22.17
-31.67
-40.47
-48.61
-56.38
-64.35
-73.32
-84.13
-97.2
-111.95
-126.37
-137.17
-140.52
-133.4
-114.88
-86.61
-52.51
-17.35
14.67
41.06
61.21
75.7
85.47
91.14
92.9
90.97
85.97
79.17
72.17
66.42
62.72
60.95
60.29
59.66
58.23
55.77
52.66
49.59
47.06
45.03
42.73
39
32.72
23.38
11.41
-1.97
-15.22
-27.05
-36.9
-45.07
-52.51
-60.4
-69.86
-81.61
-95.74
-111.53
-127.1
-139.51
-145.24
-141.22
-125.97
-100.31
-67.36
-31.58
2.65
32.19
55.68
73.24
85.77
94.11
98.73
99.81
97.63
92.84
86.58
80.2
74.9
71.32
69.41
68.48
67.55
65.77
62.73
58.53
53.66
48.6
43.58
38.36
32.38
25.04
15.98
5.25
-6.65
-18.99
-31.05
-42.32
-52.71
-62.43
-71.98
-81.96
-92.99
-105.61
-120.04
-135.84
-151.51
-164.33
-170.8
-167.59
-152.73
-126.66
-92.23
-53.96
-16.6
16.3
43.08
63.81
79.54
91.37
99.95
105.49
108.08
108.01
105.91
102.56
98.72
94.9
91.35
88.07
84.97
81.96
78.91
75.66
72.01
67.66
62.37
55.99
48.52
40.12
30.99
21.29
11.05
0.23
-11.17
-22.97
-34.78
-46.1
-56.58
-66.17
-75.19
-84.32
-94.42
-106.27
-120.3
-136.09
-152.05
-165.28
-172.14
-169.29
-154.92
-129.65
-96.58
-60.26
-25.24
5.25
29.99
49.35
64.5
76.4
85.4
91.34
94.04
93.72
91.14
87.41
83.61
80.44
78.11
76.45
75.12
73.85
72.48
70.96
69.24
67.13
64.34
60.49
55.17
48.11
39.24
28.79
17.35
5.73
-5.25
-14.99
-23.36
-30.69
-37.65
-45.03
-53.57
-63.81
-75.93
-89.49
-103.17
-114.73
-121.34
-120.37
-110.3
-91.37
-65.7
-36.65
-7.72
18.32
39.98
56.86
69.2
77.29
81.27
81.31
77.86
71.89
64.65
57.44
51.06
45.76
41.18
36.87
32.57
28.43
24.87
22.22
20.34
18.46
15.48
10.33
2.57
-7.44
-18.69
-29.89
-40.07
-48.85
-56.55
-64.03
-72.36
-82.49
-94.91
-109.25
-124.04
-136.69
-143.94
-142.79
-131.57
-110.65
-82.55
-51.1
-20.35
6.68
28.48
44.95
56.77
64.72
69.31
70.77
69.34
65.55
60.22
54.39
49.02
44.74
41.83
40.17
39.41
39.01
38.38
36.93
34.14
29.72
23.62
16.09
7.58
-1.39
-10.44
-19.45
-28.63
-38.56
-50.03
-63.69
-79.51
-96.29
-111.48
-121.6
-123.28
-114.46
-95.32
-68.34
-37.54
-7.17
19.59
41.19
57.64
69.75
78.35
83.82
86.09
85.01
80.73
73.96
65.85
57.74
50.7
45.24
41.23
37.99
34.67
30.53
25.23
18.77
11.42
3.46
-4.95
-13.84
-23.4
-33.94
-45.84
-59.49
-75.22
-92.92
-111.68
-129.48
-143.34
-149.95
-146.67
-132.5
-108.58
-77.88
-44.34
-11.72
17.22
41.07
59.53
72.98
82.08
87.53
90.05
90.3
88.87
86.15
82.34
77.58
72.07
66.14
60.28
54.95
50.4
46.55
42.94
38.84
33.41
26
16.35
4.72
-8.13
-21.21
-33.68
-45.14
-55.88
-66.82
-79.26
-94.28
-112.08
-131.36
-149.22
-161.64
-164.63
-155.61
-134.4
-103.48
-67.13
-30.02
4.13
33.35
57.3
76.6
92.01
103.93
112.4
117.38
119.07
118.07
115.21
111.35
107.03
102.36
97.18
91.27
84.65
77.71
71.14
65.57
61.2
57.66
53.98
48.94
41.59
31.56
19.3
5.85
-7.48
-19.67
-30.27
-39.58
-48.49
-58.19
-69.79
-84.04
-100.8
-118.83
-135.63
-147.74
-151.56
-144.5
-125.93
-97.62
-63.25
-27.3
6.35
35.34
58.99
77.79
92.64
104.16
112.52
117.66
119.61
118.79
115.97
112.08
107.91
103.91
100.16
96.44
92.52
88.29
83.79
79.18
74.55
69.8
64.64
58.67
51.49
42.93
33.02
22.08
10.57
-0.98
-12.14
-22.65
-32.37
-41.4
-49.95
-58.48
-67.6
-78.04
-90.32
-104.27
-118.68
-131.16
-138.58
-138.02
-127.73
-107.9
-80.64
-49.36
-17.74
11.25
35.81
55.32
69.95
80.16
86.48
89.38
89.4
87.18
83.48
79.06
74.57
70.48
66.95
63.98
61.42
59.04
56.66
54.07
51.17
47.89
44.2
40.07
35.44
30.21
24.26
17.47
9.83
1.5
-7.2
-15.84
-24.03
-31.48
-38.13
-44.12
-49.8
-55.71
-62.46
-70.62
-80.37
-91.18
-101.53
-109.08
-111.17
-105.71
-91.96
-70.97
-45.25
-18.14
7.32
29.02
46.01
58.26
66.21
70.32
70.95
68.5
63.65
57.38
50.88
45.25
41.13
38.59
37.16
36.11
34.85
33.06
30.85
28.54
26.44
24.57
22.64
20.09
16.37
11.15
4.54
-2.95
-10.56
-17.56
-23.53
-28.47
-32.73
-36.86
-41.43
-46.9
-53.52
-61.23
-69.5
-77.19
-82.54
-83.56
-78.62
-67.12
-49.82
-28.81
-6.86
13.39
30.03
42.17
49.71
53.11
52.96
49.98
45
38.97
32.88
27.56
23.44
20.56
18.62
17.2
15.96
14.7
13.39
12
10.43
8.48
5.88
2.48
-1.75
-6.59
-11.74
-16.9
-21.84
-26.55
-31.22
-36.21
-41.99
-48.97
-57.17
-66.05
-74.3
-80.07
-81.43
-77.07
-66.84
-51.99
-34.77
-17.68
-2.75
8.99
17.36
22.69
25.31
25.31
22.69
17.67
10.92
3.58
-3.04
-7.89
-10.47
-10.97
-10.02
-8.49
-7.17
-6.58
-6.92
-8.15
-10.07
-12.45
-15.14
-18.11
-21.49
-25.52
-30.53
-36.86
-44.56
-53.25
-61.92
-68.91
-72.25
-70.27
-62.16
-48.39
-30.63
-11.26
7.33
23.26
35.52
43.78
48.12
48.82
46.2
40.79
33.39
25.12
17.17
10.52
5.72
2.71
0.99
-0.21
-1.56
-3.52
-6.22
-9.44
-12.86
-16.2
-19.36
-22.5
-26.02
-30.31
-35.77
-42.64
-50.94
-60.35
-70.07
-78.72
-84.42
-85.24
-79.79
-67.81
-50.4
-29.78
-8.69
10.49
26.15
37.65
45.08
48.76
49.11
46.52
41.47
34.76
27.41
20.56
15.07
11.34
9.19
7.99
6.92
5.34
2.96
-0.13
-3.59
-7.01
-10.23
-13.31
-16.62
-20.63
-25.83
-32.55
-40.95
-50.8
-61.38
-71.34
-78.79
-81.66
-78.33
-68.22
-52.07
-31.89
-10.34
10.03
27.31
40.53
49.48
54.44
55.85
54.2
50.04
44.09
37.22
30.43
24.58
20.32
17.83
16.88
16.8
16.78
16.13
14.48
11.88
8.65
5.17
1.6
-2.19
-6.54
-11.89
-18.59
-26.84
-36.63
-47.52
-58.59
-68.25
-74.47
-75.21
-69.13
-56.12
-37.52
-15.78
6.22
25.97
41.76
52.95
59.58
62.07
60.95
56.75
50.14
42
33.52
25.88
20.04
16.35
14.5
13.62
12.66
10.77
7.62
3.34
-1.59
-6.66
-11.57
-16.28
-20.93
-25.79
-31.15
-37.31
-44.56
-53
-62.24
-71.12
-77.73
-79.74
-75.19
-63.2
-44.48
-21.26
3.39
26.4
45.49
59.54
68.47
72.83
73.35
70.71
65.48
58.31
50.01
41.56
34.02
28.14
24.27
22.17
21.18
20.43
19.14
16.81
13.32
8.85
3.73
-1.73
-7.31
-12.99
-18.88
-25.2
-32.34
-40.77
-50.89
-62.78
-75.74
-88.06
-97.14
-100.01
-94.4
-79.51
-56.61
-28.7
0.31
26.77
48.13
63.31
72.5
76.54
76.44
73.07
67.2
59.62
51.27
43.2
36.38
31.45
28.47
26.98
26.16
25.07
23.01
19.61
14.83
8.86
1.99
-5.52
-13.4
-21.47
-29.61
-37.88
-46.58
-56.21
-67.34
-80.08
-93.74
-106.46
-115.4
-117.45
-110.23
-92.98
-67.06
-35.59
-2.6
28.18
54.12
74.06
88.04
96.74
101.07
101.83
99.75
95.59
90.16
84.35
78.94
74.4
70.89
68.12
65.61
62.76
59.07
54.26
48.28
41.24
33.29
24.55
15.08
4.98
-5.6
-16.42
-27.34
-38.43
-50.05
-62.63
-76.25
-90.1
-102.25
-109.89
-110.2
-101.35
-83.38
-58.41
-30.08
-2.33
21.63
40.03
52.5
59.52
61.85
60.1
54.86
46.88
37.34
27.75
19.59
13.92
11.03
10.39
10.92
11.39
10.84
8.82
5.42
1.17
-3.3
-7.55
-11.55
-15.71
-20.73
-27.41
-36.3
-47.64
-61.08
-75.6
-89.35
-99.82
-104.26
-100.41
-87.37
-66.01
-38.92
-9.7
18.12
41.89
60.31
73.13
80.71
83.48
81.83
76.27
67.68
57.46
47.24
38.51
32.07
27.83
24.87
21.93
17.98
12.67
6.34
-0.14
-6.03
-11.1
-15.82
-21.31
-28.87
-39.52
-53.6
-70.43
-88.23
-104.23
-115.15
-117.95
-110.72
-93.42
-67.99
-37.87
-6.99
21.42
45.48
64.73
79.64
90.86
98.71
103.13
103.98
101.52
96.63
90.68
85.13
80.9
78.13
76.17
73.92
70.33
64.83
57.46
48.72
39.28
29.64
19.95
10
-0.67
-12.68
-26.73
-43.38
-62.81
-84.29
-105.8
-123.98
-134.75
-134.47
-121.3
-96.12
-62.44
-25.39
9.91
39.72
62.4
78.15
88.18
93.84
96.04
95.28
91.87
86.26
79.16
71.47
64.07
57.58
52.31
48.14
44.63
41.11
36.94
31.63
25.03
17.32
8.86
0.01
-9.05
-18.4
-28.24
-38.83
-50.45
-63.35
-77.66
-93.06
-108.43
-121.54
-129.36
-128.88
-118.22
-97.63
-69.65
-38.43
-8.37
17.27
37.17
51.77
62.48
70.58
76.63
80.35
81.12
78.57
73.04
65.51
57.28
49.49
42.76
37.16
32.32
27.79
23.24
18.41
13.22
7.5
1.09
-6.18
-14.39
-23.48
-33.26
-43.54
-54.36
-66.08
-79.26
-94.16
-110.16
-125.25
-136.21
-139.41
-132.14
-113.78
-86.23
-53.41
-19.9
10.45
35.43
54.62
68.72
78.78
85.54
89.38
90.37
88.66
84.6
78.81
72
64.91
58.17
52.2
47.15
42.89
38.91
34.57
29.19
22.36
14
4.39
-5.99
-16.69
-27.42
-38.11
-49
-60.58
-73.44
-88.11
-104.43
-121.2
-135.89
-145.06
-145.31
-134.55
-112.9
-82.88
-48.54
-14.17
16.96
43.26
64.63
81.73
95.25
105.46
112.35
115.91
116.48
114.79
111.71
107.97
103.89
99.39
94.2
88.2
81.56
74.85
68.76
63.74
59.7
55.9
51.17
44.38
34.97
23.18
10.03
-3.07
-14.88
-24.76
-32.96
-40.4
-48.41
-58.29
-70.92
-86.34
-103.48
-120.07
-132.89
-138.53
-134.37
-119.5
-95.22
-64.67
-31.88
-0.6
26.64
48.8
65.96
78.77
87.92
93.82
96.79
97.18
95.55
92.5
88.6
84.12
79.02
73.09
66.21
58.57
50.7
43.35
37.12
32.13
27.91
23.46
17.67
9.78
-0.34
-12.05
-24.25
-35.75
-45.73
-54.09
-61.49
-69.16
-78.48
-90.4
-104.92
-120.72
-135.19
-144.9
-146.53
-137.9
-118.75
-90.98
-58.12
-24.2
7.25
34.03
55.38
71.55
83.25
91.14
95.7
97.33
96.43
93.54
89.29
84.28
79.02
73.89
69.11
64.78
60.88
57.26
53.66
49.72
45.07
39.42
32.59
24.63
15.76
6.35
-3.21
-12.77
-22.48
-32.87
-44.68
-58.39
-73.74
-89.3
-102.42
-109.82
-108.62
-97.42
-76.95
-50.04
-20.68
7.18
30.75
48.88
61.74
70.23
75.15
76.93
75.7
71.64
65.32
57.73
50.11
43.46
38.34
34.69
31.97
29.45
26.46
22.62
17.88
12.41
6.46
0.23
-6.25
-13.07
-20.42
-28.57
-37.79
-48.39
-60.56
-74.09
-88.03
-100.46
-108.7
-109.97
-102.36
-85.62
-61.47
-33.18
-4.52
21.19
41.89
56.81
66.16
70.66
71.17
68.55
63.69
57.54
51.01
44.78
39.24
34.43
30.21
26.38
22.86
19.6
16.5
13.3
9.55
4.72
-1.59
-9.46
-18.55
-28.21
-37.74
-46.61
-54.75
-62.61
-70.99
-80.87
-92.92
-106.97
-121.69
-134.43
-141.77
-140.46
-128.62
-106.49
-76.62
-43.02
-9.98
19.18
42.72
60.33
72.6
80.29
84.04
84.36
81.94
77.72
72.82
68.2
64.37
61.26
58.4
55.27
51.6
47.57
43.61
40.12
37.19
34.33
30.67
25.27
17.54
7.64
-3.59
-14.89
-25.12
-33.7
-40.82
-47.4
-54.73
-64.06
-76.12
-90.66
-106.16
-119.89
-128.39
-128.4
-118.01
-97.4
-69.01
-36.75
-4.87
23.29
45.95
62.8
74.41
81.52
84.74
84.47
81.31
76.17
70.27
64.78
60.43
57.25
54.69
51.98
48.55
44.35
39.85
35.71
32.36
29.67
26.91
23.01
17.05
8.72
-1.52
-12.57
-23.12
-32.22
-39.54
-45.55
-51.24
-57.84
-66.38
-77.37
-90.47
-104.34
-116.6
-124.18
-124.1
-114.43
-95.07
-67.99
-36.78
-5.52
22.3
44.57
60.66
70.99
76.39
77.68
75.6
70.84
64.27
56.88
49.63
43.29
38.22
34.48
31.85
29.99
28.54
27.13
25.4
22.97
19.47
14.65
8.41
0.89
-7.52
-16.25
-24.73
-32.63
-40
-47.46
-55.96
-66.43
-79.2
-93.35
-106.6
-115.6
-116.95
-108.41
-89.82
-63.38
-32.91
-2.78
23.46
43.75
57.6
65.66
68.97
68.48
64.9
58.83
50.98
42.34
34
27
21.99
19.03
17.63
16.85
15.72
13.46
9.71
4.54
-1.68
-8.48
-15.5
-22.55
-29.64
-36.87
-44.5
-52.84
-62.38
-73.61
-86.66
-100.93
-114.62
-124.79
-128.05
-121.63
-104.53
-78.07
-45.71
-11.92
19.05
44.36
62.9
75
81.74
84.25
83.48
80.1
74.81
68.37
61.56
55.06
49.24
44.2
39.86
36.07
32.68
29.51
26.31
22.65
18.09
12.27
5.1
-3.2
-12.2
-21.44
-30.53
-39.39
-48.2
-57.55
-68.21
-80.84
-95.46
-110.86
-124.44
-132.62
-131.94
-120.31
-97.96
-67.53
-33.24
0.46
30.14
53.92
71.43
83.15
89.79
92.1
90.83
86.93
81.54
75.76
70.42
65.83
61.91
58.27
54.63
50.93
47.35
44.12
41.3
38.6
35.39
30.87
24.39
15.82
5.59
-5.39
-16.05
-25.64
-34.02
-41.79
-50.12
-60.28
-73.09
-88.28
-104.13
-117.59
-124.9
-122.74
-109.39
-85.52
-54.08
-19.44
13.93
42.73
65.31
81.57
92.18
97.99
99.6
97.54
92.52
85.69
78.47
72.17
67.5
64.41
62.16
59.83
56.79
53.03
49.05
45.49
42.65
40.16
37.07
32.29
25.04
15.34
3.99
-7.67
-18.38
-27.41
-34.79
-41.28
-48.01
-56.09
-66.31
-78.93
-93.39
-108.19
-120.75
-127.87
-126.47
-114.72
-92.83
-63.25
-30.01
2.54
30.97
53.46
69.65
80.02
85.23
85.81
82.34
75.79
67.7
59.88
53.91
50.57
49.62
50.06
50.62
50.4
49.11
47.13
45.04
43.29
41.8
39.97
36.94
32.02
25.02
16.35
6.9
-2.42
-11.02
-18.89
-26.63
-35.16
-45.44
-58.03
-72.73
-88.33
-102.51
-112.21
-114.31
-106.62
-88.82
-62.75
-32.08
-1.22
25.95
46.93
60.94
68.49
70.71
68.8
63.79
56.61
48.26
39.79
32.23
26.24
22.11
19.67
18.52
18.14
18.03
17.74
16.83
14.91
11.66
6.91
0.76
-6.51
-14.46
-22.69
-30.9
-39.1
-47.56
-56.85
-67.65
-80.36
-94.65
-108.99
-120.6
-126
-122.09
-107.33
-82.63
-51.18
-17.56
13.63
39.1
57.39
68.71
74.25
75.36
73.11
68.26
61.42
53.31
44.83
36.92
30.35
25.53
22.42
20.58
19.36
18.01
15.88
12.48
7.53
1.01
-6.89
-15.78
-25.13
-34.46
-43.44
-52.11
-60.91
-70.66
-82.35
-96.61
-113.08
-130.01
-144.19
-151.66
-148.96
-134.37
-108.7
-75.15
-38.27
-2.58
28.6
53.6
72.19
84.9
92.48
95.66
95.16
91.9
86.99
81.6
76.61
72.46
69.05
65.88
62.45
58.49
54.18
50.05
46.61
43.97
41.61
38.42
33.12
24.84
13.54
0.11
-13.98
-27.21
-38.66
-48.33
-57.05
-66.23
-77.33
-91.37
-108.36
-126.95
-144.31
-156.61
-159.92
-151.52
-130.92
-100.19
-63.44
-25.54
9.33
38.6
61.56
78.83
91.52
100.51
106.23
108.83
108.54
105.91
101.83
97.3
93.16
89.82
87.19
84.84
82.27
79.1
75.2
70.65
65.65
60.36
54.79
48.8
42.1
34.37
25.4
15.19
4.03
-7.54
-18.93
-29.63
-39.42
-48.42
-57
-65.74
-75.3
-86.39
-99.57
-114.85
-131.18
-146.19
-156.37
-157.95
-148.2
-126.54
-95.03
-57.75
-19.56
15.38
44.51
67.05
83.48
94.75
101.76
105.15
105.49
103.48
100
95.98
92.18
89.03
86.53
84.44
82.46
80.43
78.37
76.38
74.43
72.16
69
64.33
57.88
49.86
40.9
31.75
22.88
14.31
5.6
-3.72
-13.91
-24.78
-35.74
-46.12
-55.44
-63.65
-71.16
-78.81
-87.63
-98.53
-111.83
-126.73
-141
-151.19
-153.43
-144.77
-124.33
-93.92
-57.54
-20.19
13.7
41.33
61.88
75.93
84.7
89.22
90.18
88.04
83.42
77.37
71.17
66.11
63
61.98
62.46
63.49
64.07
63.47
61.45
58.14
53.92
49.13
43.99
38.51
32.48
25.59
17.58
8.4
-1.77
-12.41
-22.91
-32.69
-41.44
-49.2
-56.35
-63.5
-71.36
-80.62
-91.71
-104.49
-117.84
-129.51
-136.35
-135.12
-123.65
-101.85
-72.01
-38.16
-4.82
24.32
47.28
63.73
74.36
80.06
81.45
78.97
73.25
65.49
57.4
50.74
46.7
45.44
46.06
47.13
47.34
46.04
43.45
40.32
37.43
35.03
32.72
29.51
24.33
16.54
6.19
-5.86
-18.35
-30.01
-40.11
-48.6
-56.13
-63.82
-72.83
-84.1
-97.92
-113.66
-129.44
-142.24
-148.4
-144.65
-129.33
-103.23
-69.57
-33.02
1.7
31.22
54.1
70.56
81.7
88.63
92.02
92.21
89.56
84.76
78.89
73.18
68.66
65.83
64.46
63.83
62.97
61.09
57.92
53.68
48.97
44.3
39.86
35.29
29.86
22.8
13.65
2.51
-9.93
-22.7
-34.82
-45.69
-55.22
-63.82
-72.27
-81.49
-92.33
-105.44
-120.89
-137.83
-154.18
-166.68
-171.54
-165.5
-147.16
-117.71
-80.77
-41.33
-4.24
27.17
51.65
69.71
82.72
91.99
98.32
101.93
102.91
101.55
98.5
94.68
90.95
87.84
85.46
83.55
81.69
79.46
76.58
72.94
68.54
63.48
57.84
51.69
45.04
37.77
29.69
20.6
10.41
-0.74
-12.42
-24.03
-35.02
-45.03
-54.08
-62.5
-70.95
-80.22
-91.17
-104.39
-119.75
-135.94
-150.23
-158.87
-158.1
-145.52
-121.17
-87.79
-50.01
-12.85
19.77
45.87
65.38
79.32
88.94
95.11
98.27
98.74
96.98
93.71
89.74
85.8
82.27
79.25
76.62
74.18
71.73
69.12
66.2
62.83
58.84
54.09
48.49
42.05
34.87
27.05
18.65
9.66
0.05
-10.09
-20.53
-30.88
-40.73
-49.79
-58.12
-66.09
-74.4
-83.89
-95.34
-109.11
-124.64
-140.09
-152.35
-157.63
-152.61
-135.77
-108.14
-73.25
-35.99
-1.08
28.27
50.85
67.09
78.1
84.94
88.11
87.86
84.57
79.1
72.78
67.04
62.98
60.99
60.66
61.04
61.09
60.12
57.94
54.91
51.51
48.09
44.65
40.75
35.79
29.23
20.88
10.93
0
-11.11
-21.66
-31.15
-39.47
-46.92
-54.09
-61.71
-70.57
-81.23
-93.86
-107.85
-121.49
-132.06
-136.27
-131.3
-115.86
-90.88
-59.4
-25.65
6.23
33.32
54.23
68.91
77.89
81.77
81.06
76.47
69.11
60.58
52.58
46.44
42.68
40.94
40.28
39.72
38.66
37.04
35.22
33.54
32
30.07
26.85
21.45
13.43
3.06
-8.7
-20.57
-31.41
-40.64
-48.4
-55.54
-63.28
-72.84
-85.04
-99.8
-115.8
-130.42
-140.15
-141.46
-132.06
-111.78
-82.85
-49.31
-15.65
14.41
38.78
56.98
69.53
77.21
80.55
79.93
75.84
69.31
61.79
54.8
49.47
46.1
44.17
42.69
40.71
37.78
34.08
30.2
26.7
23.62
20.36
15.87
9.13
-0.32
-12.11
-25.04
-37.62
-48.59
-57.43
-64.55
-71.06
-78.47
-88.08
-100.66
-115.94
-132.37
-147.06
-156.24
-156.21
-144.54
-121.15
-88.5
-50.96
-13.4
20.23
47.84
69.2
85.23
97.11
105.59
110.95
113.22
112.61
109.72
105.49
100.92
96.8
93.46
90.75
88.2
85.31
81.75
77.6
73.17
68.86
64.83
60.84
56.28
50.37
42.46
32.33
20.32
7.2
-6.02
-18.5
-29.74
-39.76
-49.01
-58.25
-68.28
-79.88
-93.57
-109.42
-126.61
-143.12
-155.81
-161.02
-155.68
-138.52
-110.75
-75.85
-38.45
-2.93
27.75
52.49
71.63
86.17
97.01
104.68
109.42
111.48
111.34
109.62
107.02
104.04
100.97
97.9
94.8
91.71
88.76
86.08
83.69
81.37
78.61
74.71
69.09
61.55
52.45
42.56
32.77
23.61
15.02
6.41
-2.96
-13.49
-25.02
-36.8
-47.96
-57.82
-66.35
-74.1
-82.1
-91.54
-103.41
-118.02
-134.51
-150.63
-162.85
-167.21
-160.59
-141.96
-112.95
-77.47
-40.47
-6.32
22.27
44.54
61.09
72.98
81.05
85.69
87.2
86.08
83.26
79.88
76.9
74.79
73.47
72.51
71.45
70.19
68.89
67.9
67.35
66.94
65.96
63.57
59.18
52.74
44.88
36.57
28.72
21.79
15.54
9.23
1.99
-6.72
-16.85
-27.69
-38.24
-47.55
-55.16
-61.29
-66.78
-72.89
-80.89
-91.62
-104.96
-119.53
-132.6
-140.59
-140.07
-128.89
-107.08
-77.06
-42.91
-9.15
20.57
44.21
61.41
72.83
79.53
82.36
81.98
78.94
74.06
68.31
62.73
58.15
55
53.27
52.61
52.49
52.36
51.76
50.36
48.01
44.75
40.76
36.28
31.44
26.19
20.26
13.35
5.26
-3.88
-13.58
-23.21
-32.21
-40.28
-47.5
-54.25
-61.08
-68.61
-77.43
-88
-100.34
-113.52
-125.49
-133.18
-133.28
-123.45
-103.34
-74.98
-42.23
-9.56
19.28
42.22
58.89
70.09
76.94
80.32
80.75
78.55
74.21
68.56
62.6
57.34
53.44
51.06
49.84
49.1
48.11
46.32
43.59
40.1
36.24
32.29
28.22
23.67
18.04
10.86
1.96
-8.31
-19.23
-29.99
-39.96
-48.93
-57.12
-64.96
-73.07
-82
-92.31
-104.47
-118.46
-133.42
-147.26
-156.78
-158.46
-149.57
-129.45
-99.93
-64.87
-28.96
3.74
30.82
51.69
67.08
78.15
85.89
90.79
93.09
92.98
90.85
87.34
83.2
79.09
75.42
72.32
69.64
67.14
64.56
61.72
58.55
54.97
50.86
46.08
40.43
33.83
26.23
17.63
8.09
-2.26
-13.22
-24.51
-35.73
-46.53
-56.63
-65.98
-74.79
-83.5
-92.81
-103.51
-116.25
-130.97
-146.47
-160.11
-168.26
-167.26
-154.83
-131.08
-98.66
-62.01
-25.84
6.24
32.44
52.71
67.96
79.24
87.24
92.31
94.71
94.85
93.37
90.97
88.23
85.44
82.67
79.93
77.24
74.73
72.5
70.5
68.47
65.9
62.28
57.28
50.89
43.43
35.36
27.11
18.83
10.39
1.45
-8.24
-18.69
-29.6
-40.43
-50.65
-59.96
-68.47
-76.71
-85.61
-96.23
-109.24
-124.39
-140.04
-153.09
-159.67
-156.34
-141.35
-115.51
-82.01
-45.45
-10.38
19.94
44.04
61.99
74.69
83.17
88.24
90.5
90.48
88.81
86.15
83.14
80.21
77.61
75.39
73.48
71.77
70.12
68.34
66.18
63.34
59.57
54.68
48.7
41.78
34.16
26.02
17.43
8.36
-1.17
-11.04
-20.96
-30.54
-39.47
-47.56
-54.93
-61.92
-69.08
-77.1
-86.71
-98.31
-111.53
-124.78
-135.24
-139.41
-134.26
-118.4
-92.84
-60.76
-26.53
5.73
33.22
54.86
70.84
81.9
88.66
91.44
90.49
86.48
80.62
74.52
69.74
67.2
66.92
68.01
69.19
69.29
67.69
64.61
60.75
56.91
53.43
50.01
45.75
39.61
30.94
19.81
7.11
-5.85
-17.81
-28.04
-36.61
-44.22
-51.95
-60.89
-71.87
-85.28
-100.74
-116.88
-131.23
-140.47
-141.32
-131.58
-111.13
-82.16
-48.63
-15.06
14.89
39.21
57.55
70.59
79.3
84.32
85.94
84.47
80.51
75.06
69.36
64.46
60.96
58.81
57.44
56.06
53.94
50.73
46.46
41.54
36.47
31.65
27.07
22.36
16.84
9.84
1.05
-9.4
-20.86
-32.46
-43.39
-53.23
-62.01
-70.2
-78.53
-87.78
-98.7
-111.72
-126.69
-142.44
-156.6
-165.85
-166.73
-156.77
-135.5
-104.9
-68.78
-31.73
2.26
30.74
52.91
69.23
80.7
88.23
92.46
93.81
92.73
89.83
85.86
81.58
77.62
74.29
71.62
69.41
67.36
65.19
62.67
59.76
56.46
52.86
48.98
44.66
39.57
33.3
25.46
15.97
5.07
-6.65
-18.41
-29.51
-39.59
-48.63
-57.01
-65.38
-74.52
-85.22
-98.06
-113.04
-129.13
-144.01
-154.35
-156.5
-147.81
-127.66
-97.97
-62.67
-26.5
6.43
33.67
54.61
69.94
80.83
88.26
92.75
94.55
93.94
91.46
87.91
84.15
80.86
78.37
76.61
75.29
74.03
72.53
70.59
68.09
64.9
60.93
56.08
50.35
43.78
36.38
28.18
19.11
9.2
-1.35
-12.2
-22.87
-32.9
-42.05
-50.31
-58.03
-65.77
-74.33
-84.52
-96.81
-110.86
-125.11
-136.74
-142.26
-138.61
-124.29
-100.1
-69.09
-35.55
-3.69
23.51
44.8
60.33
70.95
77.44
80.28
79.7
76.18
70.63
64.43
59.01
55.37
53.73
53.56
53.81
53.47
51.98
49.38
46.12
42.76
39.57
36.34
32.45
27.09
19.7
10.19
-0.94
-12.81
-24.4
-34.95
-44.2
-52.38
-60.12
-68.29
-77.75
-89.24
-103.01
-118.49
-133.97
-146.57
-152.85
-149.78
-135.86
-111.81
-80.53
-46.2
-13.02
15.93
39.23
56.87
69.69
78.57
84.14
86.74
86.64
84.39
80.78
76.84
73.48
71.28
70.33
70.27
70.49
70.33
69.29
67.18
63.98
59.83
54.88
49.16
42.62
35.18
26.78
17.47
7.42
-3.06
-13.63
-23.95
-33.83
-43.23
-52.29
-61.3
-70.66
-80.89
-92.55
-106.02
-121.13
-136.66
-150.17
-158.32
-157.85
-146.76
-125.23
-95.7
-62.08
-28.47
2.09
28.08
49.34
66.35
79.65
89.52
96.1
99.69
100.8
100.15
98.42
96.13
93.56
90.89
88.3
85.92
83.9
82.23
80.72
78.98
76.49
72.78
67.63
61.09
53.53
45.46
37.32
29.31
21.31
12.99
4.04
-5.65
-15.85
-26.05
-35.66
-44.3
-51.96
-59.16
-66.86
-76.2
-88.01
-102.21
-117.43
-130.92
-139.12
-138.73
-127.82
-106.7
-77.86
-45.24
-12.99
15.7
39.15
57.09
70.12
79.04
84.52
87.09
87.28
85.77
83.34
80.68
78.2
75.98
73.9
71.77
69.59
67.49
65.63
64.03
62.42
60.28
57.05
52.38
46.23
38.94
31.07
23.09
15.26
7.54
-0.34
-8.62
-17.34
-26.27
-35
-43.07
-50.28
-56.81
-63.22
-70.36
-79.08
-89.84
-102.29
-115.04
-125.66
-131.15
-128.82
-117.18
-96.58
-69.32
-38.93
-9.18
17.02
38.13
53.93
65.01
72.09
75.69
76.12
73.74
69.25
63.73
58.42
54.33
51.91
51
50.94
50.95
50.39
48.96
46.69
43.74
40.34
36.58
32.39
27.52
21.68
14.63
6.34
-2.91
-12.58
-22.01
-30.65
-38.33
-45.29
-52.14
-59.66
-68.61
-79.54
-92.62
-107.3
-122.2
-134.93
-142.54
-142.24
-132.29
-112.81
-85.88
-54.99
-24.02
3.9
27.02
45
58.37
67.92
74.27
77.75
78.63
77.31
74.5
71.1
67.93
65.61
64.26
63.64
63.25
62.56
61.21
59.11
56.35
53.08
49.37
45.13
40.15
34.17
26.99
18.6
9.17
-0.96
-11.35
-21.54
-31.17
-40.08
-48.33
-56.2
-64.21
-72.93
-83.01
-94.94
-108.76
-123.64
-137.67
-147.99
-151.45
-145.64
-129.87
-105.53
-75.79
-44.52
-15.15
10.12
30.58
46.49
58.55
67.36
73.28
76.59
77.69
77.18
75.8
74.18
72.72
71.51
70.47
69.47
68.5
67.62
66.86
66.07
64.89
62.8
59.4
54.52
48.39
41.45
34.22
26.99
19.76
12.29
4.26
-4.49
-13.81
-23.32
-32.47
-40.88
-48.39
-55.25
-62.1
-69.84
-79.4
-91.21
-104.84
-118.64
-129.86
-135.32
-132.33
-119.79
-98.59
-71.45
-42.02
-13.77
10.85
30.78
45.99
57.04
64.55
68.99
70.8
70.53
68.94
66.86
64.97
63.65
62.91
62.46
61.98
61.23
60.12
58.71
57.06
55.12
52.74
49.69
45.82
41.07
35.53
29.32
22.54
15.2
7.32
-1.01
-9.6
-18.11
-26.2
-33.66
-40.48
-46.92
-53.51
-60.89
-69.69
-80.16
-91.76
-102.96
-111.37
-114.28
-109.53
-96.31
-75.56
-49.78
-22.2
4.12
27.01
45.48
59.41
69.15
75.13
77.7
77.2
74.22
69.59
64.4
59.69
56.23
54.25
53.52
53.42
53.23
52.4
50.65
47.96
44.5
40.51
36.13
31.41
26.25
20.46
13.81
6.16
-2.45
-11.74
-21.26
-30.48
-39.01
-46.77
-54.03
-61.4
-69.62
-79.41
-91.09
-104.34
-117.91
-129.6
-136.68
-136.49
-127.41
-109.45
-84.46
-55.6
-26.4
0.24
22.67
40.54
54.32
64.7
72.18
76.97
79.22
79.2
77.45
74.72
71.72
68.94
66.61
64.69
63.02
61.41
59.71
57.78
55.51
52.77
49.44
45.49
40.85
35.52
29.48
22.7
15.19
7.04
-1.56
-10.35
-19.04
-27.47
-35.56
-43.45
-51.39
-59.81
-69.17
-79.91
-92.08
-105.07
-117.33
-126.42
-129.62
-124.73
-110.99
-89.37
-62.47
-33.62
-5.96
18.28
38.08
53.35
64.54
72.23
76.96
79.26
79.65
78.73
77.04
75.05
73.04
71.16
69.46
67.88
66.36
64.79
63.08
61.1
58.73
55.82
52.24
47.88
42.75
36.91
30.49
23.59
16.23
8.38
-0.01
-8.87
-17.95
-26.88
-35.26
-42.88
-49.81
-56.5
-63.64
-72
-82.15
-94.04
-106.73
-118.24
-125.92
-127.02
-119.65
-103.5
-80.16
-52.59
-24.28
1.84
24
41.69
55.22
65.13
71.82
75.52
76.54
75.47
73.21
70.75
68.81
67.64
67.08
66.67
66.07
65.11
63.82
62.25
60.36
57.94
54.72
50.5
45.29
39.26
32.65
25.64
18.26
10.43
2.08
-6.73
-15.76
-24.63
-32.91
-40.35
-46.94
-52.99
-59.08
-65.94
-74.24
-84.2
-95.36
-106.31
-114.81
-118.29
-114.63
-102.92
-83.9
-59.82
-33.78
-8.78
12.99
30.52
43.73
53
58.75
61.23
60.71
57.67
53
47.9
43.53
40.66
39.39
39.21
39.29
38.88
37.64
35.69
33.43
31.18
28.92
26.25
22.54
17.24
10.2
1.78
-7.28
-16.1
-24.07
-31
-37.2
-43.28
-50.01
-58.07
-67.91
-79.58
-92.47
-105.17
-115.42
-120.58
-118.36
-107.7
-89.22
-65.2
-38.85
-13.32
9.12
27.43
41.61
52.15
59.51
63.91
65.44
64.35
61.25
57.1
53.05
50
48.36
47.89
47.9
47.58
46.42
44.33
41.69
38.97
36.46
34.04
31.18
27.15
21.41
13.81
4.75
-5.05
-14.72
-23.67
-31.61
-38.73
-45.51
-52.6
-60.71
-70.41
-81.97
-95.01
-108.29
-119.66
-126.37
-125.86
-116.63
-98.85
-74.45
-46.58
-18.58
6.87
28.32
45.48
58.75
68.71
75.71
79.88
81.31
80.33
77.59
74.03
70.57
67.85
65.99
64.64
63.17
61.05
58.08
54.47
50.68
47.1
43.77
40.33
36.1
30.41
22.9
13.71
3.47
-6.96
-16.77
-25.49
-33.08
-39.94
-46.66
-53.94
-62.42
-72.51
-84.19
-96.75
-108.62
-117.47
-120.71
-116.31
-103.59
-83.59
-58.86
-32.63
-7.91
13.31
30.22
42.91
51.9
57.73
60.75
61.37
60.1
57.74
55.11
52.89
51.38
50.41
49.54
48.28
46.42
44.07
41.58
39.33
37.39
35.4
32.69
28.56
22.6
14.99
6.38
-2.28
-10.16
-16.88
-22.65
-28.17
-34.43
-42.32
-52.28
-64.01
-76.21
-86.7
-92.88
-92.4
-84.05
-68.21
-46.86
-22.98
0.43
21.1
37.91
50.75
60
66.05
69.14
69.44
67.33
63.6
59.31
55.48
52.63
50.71
49.12
47.17
44.43
40.92
37.09
33.47
30.35
27.58
24.64
20.81
15.52
8.56
0.16
-9.04
-18.3
-26.94
-34.68
-41.7
-48.58
-56.13
-65.08
-75.84
-88.14
-100.88
-112.15
-119.46
-120.41
-113.44
-98.43
-76.93
-51.71
-25.93
-2.23
17.87
34.02
46.64
56.34
63.51
68.28
70.68
70.89
69.39
66.9
64.16
61.7
59.69
57.96
56.17
54.03
51.42
48.42
45.2
41.94
38.6
34.97
30.71
25.44
18.87
10.98
1.99
-7.6
-17.16
-26.16
-34.31
-41.72
-48.79
-56.07
-64.12
-73.36
-84.04
-96.05
-108.77
-120.8
-130.03
-133.98
-130.55
-118.86
-99.68
-75.32
-48.9
-23.33
-0.59
18.55
34.23
46.94
57.06
64.7
69.84
72.6
73.33
72.65
71.18
69.36
67.35
65.13
62.67
60.08
57.59
55.46
53.76
52.27
50.48
47.86
44
38.9
32.89
26.51
20.21
14.17
8.24
2.05
-4.71
-12.1
-19.83
-27.39
-34.26
-40.19
-45.29
-50.04
-55.2
-61.54
-69.61
-79.49
-90.38
-100.59
-107.7
-109.12
-102.99
-88.89
-68.07
-43.18
-17.45
6.33
26.39
42.23
54.18
62.92
69.04
72.82
74.42
73.99
71.89
68.7
65.11
61.76
59.02
56.99
55.49
54.19
52.77
51
48.79
46.16
43.11
39.56
35.36
30.36
24.45
17.67
10.21
2.31
-5.77
-13.82
-21.64
-29.11
-36.14
-42.7
-48.92
-55.14
-61.86
-69.64
-78.73
-88.81
-98.68
-106.36
-109.48
-106.03
-95.1
-77.3
-54.69
-30.13
-6.48
14.18
30.84
43.45
52.5
58.61
62.23
63.65
63.19
61.25
58.46
55.44
52.74
50.57
48.86
47.38
45.88
44.27
42.55
40.69
38.55
35.81
32.12
27.3
21.48
15.09
8.63
2.43
-3.47
-9.36
-15.62
-22.43
-29.68
-36.93
-43.68
-49.57
-54.59
-59.13
-63.89
-69.68
-77.15
-86.46
-97
-107.23
-114.83
-117.29
-112.59
-99.99
-80.4
-56.1
-30.11
-5.2
16.76
35.05
49.85
61.73
71.17
78.35
83.26
85.87
86.39
85.29
83.2
80.69
78.13
75.64
73.22
70.82
68.51
66.41
64.65
63.2
61.81
59.99
57.19
53
47.35
40.56
33.23
26.06
19.57
13.92
8.85
3.82
-1.75
-8.3
-15.88
-24.16
-32.56
-40.43
-47.32
-53.16
-58.32
-63.55
-69.77
-77.77
-87.83
-99.37
-110.81
-119.74
-123.47
-119.84
-108.03
-88.91
-64.85
-38.95
-14.11
7.67
25.58
39.76
50.72
58.99
64.88
68.56
70.27
70.42
69.59
68.35
67.07
65.86
64.54
62.91
60.87
58.53
56.21
54.26
52.81
51.67
50.29
48.01
44.32
39.12
32.73
25.83
19.1
13
7.62
2.69
-2.27
-7.67
-13.73
-20.37
-27.25
-33.91
-39.89
-44.99
-49.32
-53.35
-57.8
-63.43
-70.69
-79.49
-88.92
-97.29
-102.41
-102.2
-95.3
-81.63
-62.41
-39.94
-16.83
4.61
22.86
37.27
47.82
54.84
58.74
59.94
58.95
56.44
53.17
49.88
47.09
45.04
43.66
42.71
41.93
41.12
40.25
39.29
38.2
36.78
34.72
31.73
27.66
22.68
17.17
11.61
6.3
1.25
-3.88
-9.55
-16.09
-23.49
-31.36
-39.09
-46.09
-52.1
-57.23
-61.99
-67.12
-73.37
-81.25
-90.71
-100.87
-110.02
-115.87
-116.13
-109.27
-95.13
-75.03
-51.44
-27.17
-4.68
14.58
30.11
42.15
51.21
57.75
62.03
64.24
64.64
63.65
61.83
59.69
57.59
55.63
53.76
51.88
50.02
48.31
46.94
45.97
45.15
44
41.94
38.55
33.76
27.95
21.73
15.71
10.17
5.03
-0.13
-5.78
-12.22
-19.4
-26.97
-34.44
-41.39
-47.64
-53.33
-58.85
-64.76
-71.69
-80.05
-89.79
-100.09
-109.23
-114.87
-114.69
-107.18
-92.25
-71.43
-47.34
-22.91
-0.53
18.45
33.65
45.39
54.14
60.35
64.31
66.29
66.63
65.79
64.25
62.4
60.48
58.56
56.62
54.66
52.74
50.98
49.49
48.22
46.89
45.06
42.26
38.19
32.93
26.9
20.72
14.91
9.68
4.84
-0.08
-5.58
-11.92
-19.02
-26.44
-33.61
-40.12
-45.85
-51.08
-56.4
-62.52
-70.08
-79.29
-89.67
-99.89
-107.89
-111.28
-108.07
-97.4
-79.91
-57.66
-33.52
-10.3
9.97
26.32
38.75
47.77
53.97
57.75
59.35
58.99
57.05
54.1
50.92
48.19
46.38
45.57
45.45
45.52
45.26
44.33
42.68
40.44
37.79
34.89
31.74
28.2
24.06
19.14
13.34
6.72
-0.46
-7.83
-15
-21.69
-27.81
-33.49
-39.02
-44.8
-51.21
-58.52
-66.72
-75.28
-83.03
-88.22
-88.94
-83.69
-72.01
-54.74
-33.9
-12.07
8.33
25.62
39.07
48.72
54.94
58.2
58.82
57.14
53.66
49.14
44.48
40.55
37.84
36.38
35.77
35.39
34.7
33.42
31.55
29.27
26.77
24.16
21.32
17.94
13.64
8.11
1.3
-6.5
-14.69
-22.61
-29.77
-36.07
-41.76
-47.42
-53.65
-60.98
-69.69
-79.74
-90.58
-101.01
-109.17
-112.83
-109.99
-99.67
-82.33
-59.92
-35.31
-11.38
9.72
26.99
40.44
50.6
58.06
63.11
65.87
66.45
65.2
62.76
59.92
57.33
55.36
53.95
52.8
51.52
49.85
47.73
45.22
42.45
39.45
36.15
32.4
28.03
22.88
16.9
10.13
2.71
-5.11
-13.03
-20.74
-28.01
-34.78
-41.19
-47.61
-54.56
-62.63
-72.21
-83.18
-94.68
-104.96
-111.66
-112.38
-105.53
-90.91
-69.95
-45.3
-20.01
3.36
23.27
39.24
51.52
60.64
67.05
71.02
72.79
72.67
71.1
68.62
65.76
62.94
60.45
58.42
56.87
55.67
54.59
53.37
51.7
49.37
46.28
42.43
37.92
32.87
27.38
21.48
15.15
8.36
1.09
-6.54
-14.32
-21.94
-29.05
-35.46
-41.19
-46.58
-52.21
-58.81
-66.95
-76.7
-87.38
-97.37
-104.4
-106.11
-100.76
-87.88
-68.58
-45.23
-20.78
2.04
21.4
36.57
47.75
55.58
60.71
63.56
64.37
63.32
60.78
57.35
53.79
50.76
48.62
47.36
46.65
46.03
45.15
43.84
42.16
40.22
38.08
35.66
32.72
28.94
24.04
17.93
10.74
2.88
-5.09
-12.58
-19.19
-24.77
-29.53
-33.95
-38.64
-44.21
-51.1
-59.42
-68.78
-78.13
-85.78
-89.64
-87.81
-79.17
-63.92
-43.62
-20.85
1.59
21.45
37.44
49.29
57.39
62.31
64.53
64.39
62.27
58.7
54.38
50.06
46.34
43.54
41.69
40.6
39.95
39.4
38.58
37.2
35.09
32.2
28.65
24.63
20.31
15.7
10.7
5.19
-0.95
-7.63
-14.63
-21.63
-28.38
-34.7
-40.62
-46.26
-51.91
-57.94
-64.81
-72.92
-82.35
-92.53
-102.04
-108.72
-110.22
-104.76
-91.81
-72.43
-48.94
-24.25
-1.01
19.05
35.18
47.49
56.5
62.76
66.76
68.86
69.42
68.78
67.34
65.43
63.35
61.27
59.23
57.24
55.26
53.25
51.22
49.13
46.91
44.36
41.22
37.25
32.36
26.67
20.45
13.98
7.44
0.81
-6.03
-13.19
-20.6
-28.01
-35.08
-41.56
-47.41
-52.91
-58.61
-65.19
-73.17
-82.6
-92.7
-101.86
-107.84
-108.34
-101.83
-88.06
-68.31
-44.97
-20.9
1.4
20.32
35.24
46.35
54.26
59.65
63.08
64.97
65.63
65.36
64.4
62.97
61.24
59.28
57.16
54.93
52.7
50.61
48.76
47.13
45.49
43.49
40.72
36.89
32
26.33
20.34
14.43
8.83
3.43
-2.07
-7.94
-14.3
-20.95
-27.49
-33.51
-38.82
-43.57
-48.21
-53.36
-59.66
-67.43
-76.48
-85.86
-93.86
-98.29
-97.12
-89.15
-74.52
-54.82
-32.6
-10.63
8.9
24.76
36.71
45.13
50.63
53.69
54.7
53.95
51.86
48.95
45.85
43.16
41.27
40.28
39.94
39.79
39.3
38.06
36.01
33.36
30.48
27.64
24.86
21.85
18.12
13.28
7.2
0.17
-7.25
-14.4
-20.87
-26.55
-31.72
-36.81
-42.28
-48.49
-55.68
-63.93
-73.01
-82.19
-90.09
-94.81
-94.38
-87.43
-73.85
-54.98
-33.26
-11.51
7.96
23.85
35.93
44.66
50.64
54.29
55.8
55.28
53.06
49.73
46.1
42.95
40.78
39.64
39.2
38.94
38.31
37.01
34.99
32.4
29.47
26.37
23.08
19.46
15.26
10.27
4.44
-2.13
-9.16
-16.32
-23.31
-29.94
-36.22
-42.25
-48.26
-54.57
-61.59
-69.7
-79.12
-89.56
-99.92
-108.33
-112.42
-110.15
-100.47
-83.88
-62.26
-38.38
-14.97
5.94
23.36
37.21
47.9
55.97
61.86
65.87
68.17
68.91
68.31
66.66
64.32
61.7
59.14
56.87
54.91
53.13
51.27
49.1
46.44
43.24
39.55
35.47
31.05
26.24
20.92
14.95
8.28
0.98
-6.73
-14.49
-21.99
-29.01
-35.51
-41.66
-47.74
-54.13
-61.24
-69.45
-78.91
-89.24
-99.32
-107.22
-110.59
-107.38
-96.67
-79.1
-56.84
-32.85
-9.97
9.86
25.92
38.4
47.88
54.79
59.33
61.52
61.51
59.79
57.1
54.29
51.97
50.39
49.33
48.35
47.01
45.06
42.55
39.73
36.92
34.19
31.4
28.15
23.95
18.5
11.75
4.06
-3.98
-11.7
-18.56
-24.39
-29.36
-33.97
-38.88
-44.72
-51.89
-60.49
-70.1
-79.7
-87.65
-91.96
-90.72
-82.85
-68.48
-49.11
-27.26
-5.62
13.64
29.33
41.26
49.81
55.45
58.44
58.91
57.11
53.64
49.39
45.37
42.25
40.2
38.84
37.51
35.72
33.32
30.58
27.98
25.83
24.05
22.09
19.18
14.63
8.25
0.39
-8.13
-16.39
-23.73
-29.95
-35.42
-40.82
-47.01
-54.71
-64.26
-75.4
-87
-97.13
-103.36
-103.43
-96.02
-81.32
-61.04
-37.9
-14.76
6.19
23.79
37.88
48.81
57.02
62.77
66.16
67.3
66.49
64.3
61.42
58.53
56.06
54.07
52.36
50.52
48.23
45.33
41.93
38.31
34.71
31.25
27.74
23.81
19
12.99
5.74
-2.42
-10.93
-19.14
-26.63
-33.3
-39.4
-45.49
-52.24
-60.22
-69.76
-80.67
-92.12
-102.5
-109.71
-111.52
-106.32
-93.66
-74.56
-51.22
-26.43
-2.74
18.05
35.16
48.61
58.84
66.4
71.68
74.97
76.47
76.42
75.14
73.01
70.46
67.84
65.43
63.35
61.55
59.85
57.97
55.64
52.62
48.82
44.29
39.21
33.8
28.19
22.41
16.35
9.84
2.75
-4.89
-12.9
-20.98
-28.77
-35.99
-42.52
-48.47
-54.22
-60.38
-67.62
-76.41
-86.56
-97.01
-105.71
-110.15
-108.1
-98.4
-81.58
-59.64
-35.54
-12.22
8.23
24.88
37.84
47.73
55.17
60.51
63.83
65.16
64.69
62.88
60.32
57.64
55.29
53.46
52.12
51.1
50.13
48.99
47.49
45.48
42.84
39.51
35.49
30.85
25.72
20.23
14.48
8.51
2.29
-4.16
-10.72
-17.18
-23.3
-28.9
-33.99
-38.81
-43.78
-49.42
-56.15
-64.13
-72.97
-81.58
-88.24
-90.86
-87.68
-77.9
-62.08
-42.07
-20.46
0.27
18.32
32.93
44.09
52.15
57.44
60.15
60.44
58.64
55.36
51.41
47.59
44.46
42.22
40.73
39.61
38.48
37.04
35.19
33.01
30.63
28.1
25.35
22.14
18.16
13.13
6.97
-0.13
-7.75
-15.33
-22.42
-28.75
-34.37
-39.54
-44.73
-50.51
-57.43
-65.81
-75.5
-85.65
-94.58
-100.11
-100.06
-93.1
-79.25
-60.03
-37.98
-15.86
4.14
20.87
34.17
44.43
52.17
57.76
61.38
63.14
63.29
62.15
60.18
57.76
55.19
52.69
50.36
48.27
46.45
44.83
43.27
41.56
39.41
36.61
33.04
28.7
23.73
18.32
12.62
6.66
0.39
-6.25
-13.25
-20.42
-27.48
-34.13
-40.18
-45.68
-50.95
-56.53
-63.05
-70.99
-80.42
-90.72
-100.4
-107.31
-109.14
-104.14
-91.82
-73.22
-50.63
-26.93
-4.66
14.54
30.12
42.3
51.66
58.68
63.65
66.72
68.13
68.21
67.42
66.17
64.65
62.89
60.85
58.5
55.99
53.57
51.51
49.94
48.69
47.34
45.32
42.13
37.53
31.66
25.06
18.39
12.29
7.06
2.58
-1.64
-6.28
-11.82
-18.37
-25.61
-32.89
-39.57
-45.28
-50.07
-54.38
-58.94
-64.48
-71.57
-80.39
-90.47
-100.52
-108.52
-112.14
-109.41
-99.39
-82.67
-61.19
-37.75
-15.12
4.7
20.8
33.19
42.43
49.13
53.74
56.49
57.54
57.15
55.69
53.67
51.59
49.81
48.45
47.42
46.54
45.65
44.68
43.6
42.34
40.72
38.46
35.27
31.07
26.04
20.56
15.04
9.68
4.44
-0.94
-6.71
-12.94
-19.42
-25.76
-31.59
-36.72
-41.22
-45.48
-50.08
-55.62
-62.53
-70.73
-79.41
-86.96
-91.28
-90.4
-83.13
-69.57
-51.17
-30.21
-9.19
9.86
25.76
38.12
47.06
52.95
56.16
57.06
56.07
53.71
50.54
47.18
44.12
41.68
39.96
38.82
38
37.19
36.19
34.86
33.18
31.13
28.64
25.63
22
17.7
12.71
7.09
0.89
-5.8
-12.85
-20.07
-27.2
-33.98
-40.2
-45.82
-51.02
-56.25
-62.11
-69.18
-77.73
-87.39
-96.94
-104.41
-107.52
-104.38
-94.19
-77.58
-56.49
-33.57
-11.39
8.19
24.27
36.77
46.11
52.82
57.4
60.24
61.67
62.02
61.54
60.46
58.91
57.04
54.96
52.87
50.94
49.32
48.01
46.84
45.49
43.58
40.77
36.92
32.07
26.48
20.47
14.32
8.16
1.99
-4.34
-10.91
-17.75
-24.74
-31.66
-38.28
-44.43
-50.16
-55.78
-61.89
-69.21
-78.25
-88.82
-99.74
-108.93
-113.82
-112.24
-103.13
-87.02
-65.84
-42.33
-19.11
1.87
19.64
34.05
45.41
54.1
60.43
64.63
66.95
67.71
67.29
66.1
64.46
62.6
60.61
58.56
56.53
54.67
53.13
51.97
51.05
49.94
48.11
45.05
40.59
34.94
28.61
22.2
16.1
10.36
4.67
-1.37
-8.08
-15.48
-23.27
-31
-38.13
-44.37
-49.73
-54.61
-59.7
-65.85
-73.6
-82.92
-92.84
-101.5
-106.56
-105.82
-98.01
-83.26
-63.14
-40.17
-17.1
3.83
21.33
35.05
45.31
52.62
57.44
60.05
60.64
59.52
57.13
54.1
51.08
48.57
46.81
45.75
45.13
44.56
43.72
42.42
40.6
38.32
35.7
32.81
29.6
25.95
21.62
16.45
10.45
3.84
-2.98
-9.54
-15.51
-20.8
-25.62
-30.34
-35.44
-41.37
-48.44
-56.68
-65.68
-74.43
-81.33
-84.45
-82.11
-73.44
-58.84
-39.93
-19.14
1.05
18.77
33.05
43.78
51.3
56.06
58.38
58.54
56.87
53.84
50.13
46.45
43.37
41.21
39.98
39.42
39.15
38.74
37.82
36.19
33.8
30.76
27.27
23.49
19.47
15.09
10.12
4.32
-2.36
-9.77
-17.47
-24.99
-31.96
-38.25
-44.04
-49.69
-55.71
-62.57
-70.63
-79.92
-89.95
-99.48
-106.62
-109.2
-105.39
-94.45
-77.06
-55.22
-31.61
-8.84
11.26
27.78
40.67
50.33
57.28
61.96
64.75
65.97
65.97
65.05
63.49
61.49
59.23
56.83
54.45
52.27
50.43
49.01
47.89
46.82
45.36
43.08
39.68
35.16
29.8
24.03
18.24
12.53
6.78
0.7
-5.96
-13.21
-20.75
-28.14
-34.98
-41.1
-46.65
-52.08
-58.02
-65.08
-73.65
-83.61
-94.11
-103.5
-109.53
-109.97
-103.31
-89.41
-69.7
-46.75
-23.43
-2.1
16
30.68
42.38
51.65
58.77
63.74
66.59
67.56
67.13
65.93
64.45
62.89
61.21
59.28
57.04
54.64
52.32
50.32
48.71
47.31
45.68
43.32
39.83
35.06
29.26
22.97
16.84
11.38
6.68
2.43
-2
-7.2
-13.43
-20.47
-27.72
-34.5
-40.33
-45.22
-49.59
-54.14
-59.65
-66.68
-75.36
-85.18
-94.85
-102.41
-105.63
-102.61
-92.49
-75.86
-54.7
-31.82
-9.97
8.86
23.84
35.09
43.27
49.05
52.79
54.66
54.76
53.37
51.03
48.43
46.13
44.47
43.44
42.79
42.24
41.54
40.6
39.43
38.1
36.56
34.69
32.3
29.18
25.21
20.39
14.81
8.7
2.3
-4.13
-10.36
-16.26
-21.76
-26.89
-31.85
-36.97
-42.7
-49.49
-57.5
-66.35
-74.91
-81.35
-83.62
-80.06
-70.08
-54.45
-35.14
-14.67
4.58
21.06
34.1
43.75
50.38
54.36
55.95
55.43
53.25
50.02
46.48
43.29
40.84
39.23
38.26
37.58
36.85
35.8
34.27
32.22
29.68
26.71
23.36
19.67
15.59
11.03
5.85
-0.05
-6.66
-13.8
-21.13
-28.29
-34.98
-41.13
-46.86
-52.52
-58.59
-65.57
-73.85
-83.41
-93.59
-102.94
-109.37
-110.66
-105.2
-92.61
-73.98
-51.62
-28.34
-6.57
12.12
27.26
39.07
48.12
54.85
59.47
62.07
62.78
61.94
60.08
57.8
55.6
53.73
52.16
50.69
49.04
47.08
44.75
42.12
39.29
36.27
33
29.36
25.22
20.43
14.89
8.56
1.49
-6.12
-13.96
-21.65
-28.86
-35.46
-41.55
-47.5
-53.86
-61.2
-69.88
-79.83
-90.3
-99.78
-106.17
-107.28
-101.55
-88.66
-69.75
-47.18
-23.8
-2.11
16.33
31.1
42.54
51.28
57.83
62.41
65.05
65.85
65.06
63.17
60.73
58.18
55.8
53.66
51.73
49.91
48.13
46.32
44.36
42.13
39.49
36.33
32.66
28.48
23.81
18.62
12.83
6.39
-0.63
-8
-15.36
-22.36
-28.77
-34.57
-39.99
-45.45
-51.5
-58.63
-67.11
-76.65
-86.19
-93.93
-97.7
-95.57
-86.59
-71.19
-51.17
-29.09
-7.52
11.63
27.41
39.68
48.7
54.8
58.21
59.11
57.91
55.25
51.97
48.91
46.59
45.11
44.14
43.2
41.87
39.98
37.68
35.27
33.01
30.94
28.79
26.07
22.27
17.05
10.48
2.99
-4.74
-12.02
-18.41
-23.89
-28.81
-33.81
-39.6
-46.8
-55.61
-65.67
-75.84
-84.28
-88.78
-87.42
-79.22
-64.57
-45.24
-23.76
-2.72
15.98
31.41
43.47
52.48
58.73
62.32
63.31
61.93
58.8
54.86
51.13
48.34
46.72
45.96
45.4
44.4
42.54
39.79
36.43
32.85
29.35
25.92
22.31
18.05
12.74
6.17
-1.52
-9.85
-18.23
-26.13
-33.26
-39.63
-45.57
-51.57
-58.23
-66.12
-75.53
-86.24
-97.17
-106.46
-111.72
-110.73
-102.26
-86.58
-65.51
-41.82
-18.39
2.62
20.19
34.31
45.57
54.57
61.68
66.92
70.22
71.6
71.31
69.84
67.71
65.38
63.1
60.9
58.65
56.22
53.56
50.7
47.74
44.69
41.5
37.96
33.88
29.07
23.47
17.12
10.12
2.66
-5.05
-12.76
-20.22
-27.24
-33.74
-39.83
-45.86
-52.39
-60.01
-69.11
-79.55
-90.37
-99.8
-105.56
-105.52
-98.42
-84.37
-64.88
-42.4
-19.55
1.54
19.64
34.33
45.78
54.36
60.39
64.16
65.98
66.2
65.24
63.53
61.44
59.25
57.13
55.2
53.52
52.06
50.72
49.36
47.75
45.67
42.94
39.45
35.23
30.43
25.26
19.94
14.54
9
3.12
-3.24
-10.08
-17.16
-24.06
-30.37
-35.91
-40.78
-45.45
-50.58
-56.84
-64.62
-73.69
-83.01
-90.8
-94.91
-93.38
-85.18
-70.6
-51.29
-29.73
-8.53
10.31
25.72
37.53
46.1
51.91
55.3
56.5
55.71
53.34
50.04
46.59
43.69
41.72
40.61
39.93
39.15
37.86
35.96
33.63
31.18
28.79
26.42
23.78
20.44
16.06
10.5
3.93
-3.25
-10.56
-17.54
-23.9
-29.64
-35.01
-40.44
-46.49
-53.65
-62.16
-71.78
-81.59
-90
-95
-94.67
-87.85
-74.57
-56.19
-34.99
-13.53
6.09
22.61
35.67
45.49
52.55
57.25
59.91
60.76
60.11
58.37
55.96
53.32
50.74
48.45
46.49
44.89
43.58
42.4
41.11
39.41
36.99
33.71
29.58
24.8
19.63
14.28
8.81
3.12
-2.91
-9.38
-16.25
-23.31
-30.29
-36.92
-43.05
-48.73
-54.21
-60
-66.7
-74.8
-84.38
-94.73
-104.32
-110.94
-112.29
-106.75
-93.99
-75.17
-52.57
-28.96
-6.72
12.59
28.38
40.77
50.2
57.13
61.94
64.91
66.32
66.51
65.78
64.43
62.67
60.65
58.48
56.25
54.13
52.27
50.77
49.57
48.41
46.82
44.32
40.57
35.53
29.5
22.99
16.54
10.47
4.79
-0.77
-6.57
-12.86
-19.6
-26.52
-33.2
-39.29
-44.66
-49.51
-54.32
-59.78
-66.6
-75.17
-85.24
-95.71
-104.55
-109.32
-107.85
-99.04
-83.32
-62.6
-39.65
-17.19
2.79
19.36
32.47
42.56
50.14
55.52
58.88
60.41
60.41
59.33
57.65
55.76
53.88
52.08
50.35
48.68
47.1
45.67
44.34
42.97
41.28
38.97
35.83
31.87
27.32
22.5
17.67
12.9
8
2.68
-3.3
-9.9
-16.81
-23.57
-29.72
-35.1
-39.89
-44.54
-49.64
-55.7
-62.96
-71.15
-79.41
-86.2
-89.61
-87.85
-79.87
-65.83
-47.21
-26.4
-5.93
12.18
26.89
38.07
46.12
51.58
54.79
55.96
55.24
53
49.84
46.48
43.53
41.37
39.97
39.07
38.27
37.28
35.94
34.26
32.29
30.05
27.47
24.41
20.7
16.24
11.01
5.04
-1.53
-8.49
-15.6
-22.58
-29.17
-35.2
-40.65
-45.66
-50.58
-55.92
-62.24
-69.98
-79.19
-89.27
-98.77
-105.61
-107.51
-102.78
-90.91
-72.91
-50.96
-27.83
-5.96
13.02
28.48
40.57
49.72
56.38
60.86
63.37
64.21
63.78
62.59
61.1
59.61
58.19
56.74
55.11
53.28
51.33
49.49
47.89
46.46
44.89
42.64
39.29
34.62
28.81
22.36
15.84
9.68
3.99
-1.46
-7.11
-13.35
-20.37
-28
-35.81
-43.27
-49.97
-55.84
-61.22
-66.85
-73.63
-82.24
-92.65
-103.81
-113.63
-119.45
-118.84
-110.47
-94.63
-73.15
-48.82
-24.45
-2.18
16.82
32.31
44.5
53.8
60.53
65.03
67.66
68.89
69.16
68.86
68.2
67.18
65.71
63.7
61.15
58.27
55.39
52.91
51.02
49.63
48.31
46.4
43.31
38.71
32.79
26.1
19.37
13.16
7.65
2.58
-2.56
-8.29
-14.85
-22.1
-29.59
-36.71
-43.02
-48.36
-52.97
-57.48
-62.65
-69.26
-77.67
-87.57
-97.77
-106.23
-110.58
-108.68
-99.49
-83.43
-62.34
-38.94
-15.98
4.45
21.32
34.5
44.4
51.51
56.22
58.7
59.17
57.98
55.68
52.94
50.36
48.35
47.04
46.28
45.78
45.24
44.47
43.35
41.87
40
37.7
34.87
31.47
27.43
22.8
17.58
11.81
5.55
-1.16
-8.15
-15.2
-22.03
-28.4
-34.23
-39.68
-45.17
-51.3
-58.62
-67.28
-76.66
-85.25
-90.93
-91.5
-85.47
-72.67
-54.33
-32.75
-10.59
9.93
27.38
41.23
51.56
58.69
62.93
64.61
64.08
61.92
58.83
55.54
52.63
50.39
48.81
47.66
46.66
45.57
44.28
42.69
40.71
38.2
35.05
31.25
26.88
22.13
17.13
11.89
6.32
0.27
-6.34
-13.43
-20.81
-28.19
-35.28
-41.91
-48.03
-53.82
-59.62
-66.02
-73.59
-82.75
-93.29
-104.12
-113.23
-118.12
-116.54
-107.29
-90.74
-68.74
-44.05
-19.48
2.81
21.65
36.77
48.44
57.07
63.07
66.79
68.59
68.9
68.2
66.97
65.58
64.22
62.92
61.56
60.01
58.26
56.4
54.62
52.94
51.19
48.99
45.88
41.6
36.18
30.01
23.58
17.3
11.27
5.3
-0.99
-7.87
-15.39
-23.26
-31
-38.15
-44.45
-50.02
-55.33
-61.15
-68.21
-76.98
-87.26
-97.96
-107.15
-112.43
-111.58
-103.34
-87.91
-66.95
-43.09
-19.13
2.76
21.39
36.49
48.35
57.33
63.73
67.71
69.49
69.48
68.23
66.3
64.12
61.91
59.7
57.49
55.37
53.51
52.05
51.04
50.26
49.31
47.67
44.95
40.95
35.83
30
23.97
18.21
12.89
7.85
2.72
-2.92
-9.29
-16.29
-23.52
-30.43
-36.63
-41.98
-46.63
-51.04
-55.83
-61.68
-69.05
-77.92
-87.45
-95.86
-100.75
-99.8
-91.6
-76.3
-55.64
-32.45
-9.71
10.29
26.39
38.46
47.01
52.65
55.83
56.84
55.95
53.61
50.48
47.28
44.63
42.87
41.96
41.57
41.27
40.71
39.74
38.37
36.71
34.83
32.7
30.19
27.14
23.39
18.85
13.46
7.28
0.47
-6.7
-13.85
-20.62
-26.79
-32.41
-37.77
-43.33
-49.56
-56.86
-65.3
-74.49
-83.36
-90.23
-93.07
-90.07
-80.36
-64.42
-44.1
-22.05
-0.92
17.4
32.09
43.21
51.22
56.58
59.53
60.21
58.94
56.29
53.03
49.89
47.32
45.42
44.03
42.87
41.74
40.57
39.32
37.91
36.12
33.68
30.41
26.32
21.66
16.78
11.89
6.99
1.8
-4
-10.62
-17.94
-25.56
-32.96
-39.75
-45.83
-51.43
-57.07
-63.39
-70.94
-79.94
-90.01
-100.01
-108
-111.65
-108.88
-98.69
-81.55
-59.46
-35.24
-11.75
8.91
25.78
38.83
48.59
55.71
60.69
63.88
65.53
65.92
65.3
63.96
62.09
59.9
57.55
55.23
53.12
51.32
49.86
48.57
47.15
45.21
42.4
38.53
33.67
28.09
22.17
16.21
10.27
4.22
-2.18
-9.08
-16.39
-23.8
-30.88
-37.32
-43.03
-48.28
-53.57
-59.59
-66.9
-75.72
-85.67
-95.54
-103.38
-106.93
-104.25
-94.42
-77.94
-56.65
-33.21
-10.32
9.95
26.49
39.13
48.26
54.54
58.54
60.73
61.45
61.01
59.71
57.88
55.83
53.83
52.07
50.65
49.55
48.62
47.67
46.44
44.71
42.31
39.17
35.31
30.85
25.93
20.7
15.28
9.71
4
-1.87
-7.93
-14.14
-20.36
-26.41
-32.08
-37.27
-42.08
-46.86
-52.21
-58.74
-66.72
-75.68
-84.25
-90.27
-91.4
-85.94
-73.55
-55.46
-34.08
-12.22
7.76
24.44
37.42
46.91
53.36
57.14
58.49
57.7
55.2
51.65
47.76
44.22
41.48
39.69
38.7
38.16
37.7
37
35.85
34.2
32.06
29.47
26.4
22.78
18.51
13.51
7.76
1.33
-5.57
-12.66
-19.62
-26.21
-32.31
-38.02
-43.57
-49.33
-55.72
-63.11
-71.68
-81.16
-90.63
-98.45
-102.55
-100.97
-92.58
-77.58
-57.53
-34.92
-12.44
7.84
24.77
38.11
48.19
55.44
60.23
62.83
63.52
62.73
61
58.89
56.8
54.88
53.12
51.39
49.6
47.81
46.13
44.59
43.06
41.19
38.55
34.86
30.15
24.71
19.02
13.4
7.95
2.48
-3.31
-9.63
-16.51
-23.72
-30.93
-37.81
-44.17
-50
-55.57
-61.38
-68.08
-76.25
-85.91
-96.26
-105.56
-111.45
-111.61
-104.59
-90.35
-70.32
-46.97
-23.02
-0.76
18.38
33.88
45.88
54.81
61.17
65.38
67.82
68.86
68.83
68.04
66.71
64.98
62.9
60.55
58.06
55.64
53.51
51.82
50.48
49.19
47.49
44.88
41.06
36.05
30.16
23.93
17.87
12.23
6.96
1.69
-4.02
-10.45
-17.59
-25.12
-32.55
-39.46
-45.66
-51.26
-56.67
-62.48
-69.34
-77.62
-87.13
-96.79
-104.7
-108.49
-106.06
-96.33
-79.8
-58.45
-35.11
-12.58
7.16
23.22
35.7
45.17
52.21
57.21
60.3
61.63
61.43
60.15
58.3
56.34
54.56
53.02
51.6
50.15
48.58
46.86
45.04
43.15
41.07
38.61
35.55
31.72
27.2
22.16
16.91
11.65
6.45
1.2
-4.26
-10.01
-15.97
-21.91
-27.59
-32.84
-37.75
-42.63
-47.98
-54.33
-61.93
-70.5
-78.98
-85.62
-88.32
-85.31
-75.77
-60.23
-40.5
-19.13
1.34
19.03
33.02
43.23
50.04
53.98
55.48
54.95
52.82
49.67
46.17
42.97
40.51
38.92
37.99
37.35
36.62
35.5
33.9
31.85
29.44
26.76
23.84
20.62
16.97
12.69
7.59
1.59
-5.19
-12.45
-19.69
-26.45
-32.46
-37.77
-42.76
-47.99
-54.09
-61.5
-70.32
-80.14
-89.86
-97.73
-101.69
-99.93
-91.46
-76.58
-56.85
-34.7
-12.68
7.16
23.68
36.61
46.28
53.24
57.97
60.77
61.86
61.45
59.89
57.65
55.28
53.2
51.64
50.55
49.66
48.61
47.1
45
42.3
39.1
35.47
31.51
27.2
22.53
17.43
11.81
5.65
-1.04
-8.1
-15.3
-22.39
-29.15
-35.45
-41.32
-46.99
-52.83
-59.39
-67.14
-76.31
-86.49
-96.43
-104.15
-107.36
-104.19
-93.86
-77.1
-55.94
-33.09
-11.15
8.09
23.87
36.28
45.84
53.09
58.35
61.76
63.4
63.48
62.36
60.47
58.25
56.04
54.03
52.27
50.72
49.27
47.77
46.03
43.85
41.12
37.77
33.85
29.43
24.6
19.38
13.76
7.7
1.21
-5.6
-12.54
-19.35
-25.81
-31.83
-37.51
-43.07
-48.82
-55.13
-62.33
-70.58
-79.66
-88.71
-96.15
-99.87
-97.89
-89.05
-73.66
-53.49
-31.31
-9.96
8.52
23.29
34.56
43.07
49.47
54.03
56.72
57.49
56.53
54.33
51.58
48.89
46.59
44.73
43.13
41.55
39.83
37.92
35.86
33.7
31.44
28.98
26.1
22.55
18.09
12.65
6.35
-0.45
-7.27
-13.65
-19.3
-24.23
-28.67
-33.06
-37.9
-43.65
-50.64
-58.89
-67.94
-76.71
-83.5
-86.38
-83.68
-74.66
-59.83
-40.92
-20.36
-0.54
16.81
30.87
41.65
49.54
54.97
58.16
59.22
58.31
55.82
52.38
48.74
45.58
43.2
41.53
40.18
38.66
36.67
34.19
31.48
28.87
26.5
24.2
21.45
17.67
12.4
5.62
-2.28
-10.59
-18.57
-25.7
-31.88
-37.39
-42.77
-48.7
-55.75
-64.29
-74.26
-84.95
-94.93
-102.18
-104.51
-100.27
-88.93
-71.42
-49.89
-27.09
-5.54
13.09
28.2
40.03
49.24
56.43
61.92
65.76
67.85
68.22
67.14
65.07
62.58
60.12
57.89
55.84
53.77
51.47
48.86
45.95
42.83
39.53
36.01
32.12
27.67
22.49
16.47
9.68
2.3
-5.35
-12.9
-20.03
-26.59
-32.65
-38.44
-44.36
-50.86
-58.39
-67.22
-77.25
-87.79
-97.37
-103.97
-105.42
-100.18
-87.9
-69.67
-47.76
-24.88
-3.4
15.17
30.35
42.38
51.76
58.96
64.2
67.59
69.26
69.44
68.51
66.88
64.85
62.58
60.14
57.57
54.99
52.57
50.44
48.56
46.68
44.36
41.15
36.82
31.46
25.46
19.3
13.35
7.71
2.23
-3.41
-9.46
-15.96
-22.74
-29.44
-35.68
-41.23
-46.15
-50.82
-55.96
-62.34
-70.47
-80.17
-90.29
-98.79
-103.21
-101.48
-92.61
-77.18
-57.11
-35.01
-13.47
5.69
21.55
34.01
43.41
50.17
54.67
57.16
57.89
57.15
55.31
52.83
50.17
47.75
45.79
44.32
43.16
42.06
40.78
39.19
37.29
35.1
32.61
29.73
26.3
22.16
17.28
11.69
5.57
-0.9
-7.49
-14.01
-20.26
-26.09
-31.39
-36.21
-40.8
-45.61
-51.18
-57.94
-65.82
-74.06
-81.11
-84.95
-83.71
-76.34
-63.03
-45.28
-25.38
-5.72
11.84
26.34
37.59
45.93
51.73
55.29
56.78
56.34
54.29
51.13
47.54
44.19
41.58
39.87
38.86
38.09
37.07
35.48
33.3
30.77
28.14
25.51
22.71
19.3
14.84
9.09
2.14
-5.57
-13.41
-20.8
-27.35
-33.05
-38.16
-43.21
-48.79
-55.47
-63.61
-73.15
-83.47
-93.23
-100.51
-103.24
-99.78
-89.58
-73.41
-53.2
-31.46
-10.52
8
23.38
35.64
45.2
52.5
57.87
61.54
63.66
64.41
63.96
62.5
60.23
57.41
54.38
51.49
49.03
47.09
45.5
43.89
41.8
38.92
35.16
30.68
25.74
20.58
15.28
9.77
3.88
-2.49
-9.29
-16.34
-23.38
-30.18
-36.62
-42.76
-48.78
-54.97
-61.69
-69.31
-78.02
-87.56
-97
-104.67
-108.42
-106.26
-97.11
-81.26
-60.48
-37.42
-14.82
5.27
21.91
35.1
45.39
53.39
59.45
63.74
66.3
67.28
66.98
65.75
63.94
61.79
59.38
56.78
54.1
51.53
49.35
47.7
46.52
45.41
43.76
40.96
36.67
31.02
24.55
17.97
11.85
6.34
1.16
-4.24
-10.3
-17.14
-24.44
-31.67
-38.3
-44.08
-49.13
-53.94
-59.17
-65.51
-73.4
-82.82
-92.97
-102.21
-108.3
-108.93
-102.54
-88.95
-69.53
-46.8
-23.61
-2.34
15.64
29.92
40.78
48.71
54.16
57.48
58.98
58.99
57.95
56.26
54.28
52.23
50.24
48.37
46.64
45.05
43.56
42.1
40.53
38.67
36.33
33.4
29.82
25.63
20.9
15.67
10.02
3.99
-2.27
-8.57
-14.69
-20.46
-25.79
-30.74
-35.5
-40.36
-45.69
-51.92
-59.32
-67.82
-76.71
-84.51
-89.2
-88.83
-82.14
-69.15
-51.2
-30.57
-9.74
9.22
25.1
37.47
46.43
52.25
55.22
55.68
54.08
51.08
47.41
43.83
40.87
38.77
37.47
36.66
35.96
35.01
33.63
31.82
29.69
27.38
24.92
22.12
18.67
14.22
8.59
1.88
-5.46
-12.85
-19.69
-25.71
-30.98
-35.91
-41.15
-47.33
-54.93
-64
-73.99
-83.58
-90.89
-93.77
-90.51
-80.43
-64.21
-43.8
-21.78
-0.7
17.68
32.52
43.8
51.96
57.49
60.77
62.06
61.62
59.82
57.13
54.1
51.21
48.76
46.83
45.24
43.67
41.8
39.44
36.59
33.44
30.2
27
23.76
20.19
15.9
10.58
4.1
-3.33
-11.3
-19.25
-26.7
-33.4
-39.34
-44.81
-50.26
-56.27
-63.41
-72.07
-82.26
-93.25
-103.46
-110.64
-112.4
-107.01
-94.1
-74.9
-51.85
-27.86
-5.42
13.96
29.81
42.34
52.02
59.26
64.31
67.4
68.78
68.81
67.88
66.3
64.28
61.97
59.49
57
54.7
52.7
51
49.4
47.55
45.08
41.72
37.43
32.4
26.95
21.31
15.6
9.71
3.46
-3.25
-10.4
-17.74
-24.97
-31.84
-38.23
-44.22
-50.11
-56.33
-63.4
-71.73
-81.32
-91.5
-100.69
-106.66
-107.12
-100.47
-86.52
-66.62
-43.3
-19.46
2.44
20.95
35.63
46.74
54.84
60.44
63.95
65.73
66.16
65.67
64.62
63.25
61.63
59.75
57.6
55.28
52.95
50.79
48.89
47.12
45.18
42.69
39.37
35.15
30.25
25.01
19.75
14.62
9.54
4.26
-1.45
-7.71
-14.44
-21.39
-28.25
-34.75
-40.74
-46.21
-51.35
-56.52
-62.25
-69.05
-77.06
-85.71
-93.55
-98.41
-98.04
-90.94
-77
-57.69
-35.6
-13.61
6.02
22.09
34.48
43.69
50.28
54.57
56.63
56.56
54.72
51.79
48.63
45.93
44.06
42.92
42.16
41.36
40.27
38.81
37.08
35.16
33.07
30.7
27.95
24.74
21.04
16.87
12.2
7.01
1.3
-4.9
-11.38
-17.88
-24.09
-29.76
-34.81
-39.41
-43.95
-49
-55.08
-62.44
-70.76
-78.88
-85
-86.98
-83.12
-72.73
-56.58
-36.66
-15.62
4.05
20.66
33.51
42.71
48.74
52.07
53.05
51.93
49.14
45.28
41.14
37.5
34.86
33.37
32.73
32.44
31.96
30.97
29.44
27.59
25.68
23.81
21.82
19.32
15.86
11.16
5.3
-1.36
-8.27
-14.94
-21.1
-26.75
-32.06
-37.32
-42.86
-49
-56.11
-64.37
-73.56
-82.73
-90.17
-93.77
-91.6
-82.68
-67.45
-47.7
-26.04
-5.09
13.27
28.16
39.59
48.03
53.99
57.78
59.54
59.44
57.8
55.16
52.17
49.35
47.05
45.27
43.84
42.46
40.88
38.97
36.71
34.14
31.31
28.23
24.84
21.01
16.6
11.44
5.47
-1.21
-8.4
-15.77
-22.95
-29.67
-35.8
-41.44
-46.87
-52.57
-59.08
-66.9
-76.21
-86.55
-96.66
-104.5
-107.77
-104.57
-94.09
-77.05
-55.46
-32.06
-9.51
10.33
26.59
39.29
48.9
55.99
61.02
64.24
65.86
66.1
65.24
63.62
61.57
59.37
57.24
55.3
53.58
52.03
50.53
48.91
46.95
44.49
41.4
37.66
33.29
28.33
22.84
16.85
10.41
3.59
-3.5
-10.66
-17.69
-24.43
-30.78
-36.74
-42.48
-48.3
-54.63
-61.97
-70.63
-80.47
-90.56
-99.13
-103.89
-102.73
-94.4
-79.15
-58.68
-35.66
-12.89
7.52
24.5
37.91
48.12
55.57
60.56
63.29
64.05
63.35
61.85
60.15
58.61
57.26
55.93
54.42
52.69
50.91
49.29
47.95
46.71
45.21
42.98
39.71
35.38
30.23
24.68
19.13
13.84
8.82
3.84
-1.4
-7.14
-13.45
-20.17
-26.9
-33.27
-38.97
-43.99
-48.57
-53.23
-58.6
-65.25
-73.41
-82.68
-91.84
-98.94
-101.74
-98.37
-88.03
-71.4
-50.43
-27.82
-6.14
12.76
28
39.54
47.74
53.08
55.95
56.71
55.75
53.57
50.73
47.8
45.28
43.45
42.42
42
41.87
41.64
40.98
39.74
37.95
35.71
33.13
30.21
26.89
23.09
18.76
13.9
8.57
2.85
-3.19
-9.4
-15.6
-21.54
-27
-31.86
-36.24
-40.52
-45.24
-51
-58.08
-66.1
-73.91
-79.64
-81.2
-77.01
-66.55
-50.69
-31.41
-11.22
7.61
23.56
36.05
45.13
51.17
54.5
55.37
54.03
50.96
46.92
42.8
39.45
37.3
36.32
36.06
35.88
35.24
33.92
31.97
29.64
27.18
24.66
21.97
18.87
15.12
10.51
5.03
-1.17
-7.82
-14.59
-21.18
-27.39
-33.21
-38.74
-44.21
-49.95
-56.38
-63.89
-72.64
-82.23
-91.45
-98.35
-100.62
-96.39
-84.99
-67.32
-45.68
-23
-1.93
15.92
30.06
40.87
48.98
54.89
58.76
60.63
60.61
59.08
56.62
53.93
51.53
49.69
48.39
47.41
46.44
45.25
43.67
41.64
39.13
36.16
32.72
28.79
24.39
19.51
14.13
8.22
1.77
-5.15
-12.38
-19.62
-26.57
-33
-38.88
-44.43
-50.07
-56.36
-63.84
-72.77
-82.86
-93.11
-101.73
-106.55
-105.51
-97.43
-82.49
-62.28
-39.33
-16.42
4.29
21.61
35.37
45.96
53.97
59.73
63.38
65
64.81
63.29
61.06
58.72
56.61
54.85
53.34
51.89
50.35
48.63
46.65
44.32
41.55
38.28
34.48
30.17
25.42
20.3
14.85
9.07
2.96
-3.5
-10.3
-17.33
-24.41
-31.27
-37.69
-43.61
-49.27
-55.22
-62.14
-70.54
-80.36
-90.66
-99.62
-104.95
-104.48
-96.98
-82.6
-62.94
-40.55
-18.17
2.03
18.87
32.13
42.14
49.42
54.28
56.9
57.44
56.27
54.04
51.51
49.34
47.85
46.92
46.09
44.84
42.85
40.17
37.2
34.44
32.18
30.34
28.39
25.6
21.4
15.62
8.62
1.09
-6.22
-12.82
-18.6
-23.78
-28.8
-34.15
-40.24
-47.41
-55.78
-65.1
-74.52
-82.56
-87.29
-86.89
-80.24
-67.39
-49.67
-29.3
-8.73
9.99
25.6
37.6
46.06
51.22
53.42
53.03
50.62
46.97
42.99
39.5
36.99
35.47
34.58
33.82
32.77
31.33
29.64
27.94
26.34
24.62
22.34
18.93
14.07
7.78
0.52
-6.99
-14.07
-20.36
-25.93
-31.29
-37.17
-44.27
-53.01
-63.16
-73.76
-83.06
-88.87
-89.17
-82.74
-69.68
-51.44
-30.41
-9.2
10.1
26.29
39
48.43
54.89
58.67
60
59.25
56.96
53.86
50.64
47.79
45.44
43.43
41.43
39.14
36.49
33.6
30.74
28.15
25.85
23.55
20.66
16.55
10.79
3.38
-5.14
-13.93
-22.1
-29.13
-35.01
-40.29
-45.84
-52.57
-61.14
-71.68
-83.55
-95.25
-104.58
-109.06
-106.7
-96.7
-79.81
-58.17
-34.67
-12.03
7.93
24.48
37.85
48.63
57.32
64.07
68.74
71.2
71.55
70.25
68
65.51
63.26
61.33
59.53
57.49
54.93
51.79
48.26
44.62
41.08
37.61
33.91
29.51
23.97
17.1
9.08
0.47
-8.05
-15.86
-22.7
-28.75
-34.49
-40.6
-47.68
-56.18
-66.2
-77.34
-88.56
-98.12
-103.88
-103.79
-96.62
-82.42
-62.68
-39.9
-16.81
4.36
22.38
36.94
48.35
57.05
63.37
67.46
69.43
69.54
68.23
66.03
63.45
60.85
58.42
56.18
54.1
52.13
50.2
48.21
46.03
43.5
40.47
36.85
32.65
27.99
22.96
17.56
11.68
5.17
-1.99
-9.63
-17.36
-24.68
-31.21
-36.84
-41.82
-46.69
-52.12
-58.76
-66.88
-76.23
-85.78
-93.79
-98.08
-96.68
-88.48
-73.72
-54.07
-32.09
-10.5
8.58
24.12
36.01
44.76
50.99
55.12
57.32
57.63
56.24
53.62
50.45
47.44
45.14
43.69
42.83
42.09
40.98
39.27
37.04
34.59
32.24
30.08
27.86
25.08
21.2
15.9
9.26
1.77
-5.87
-13.02
-19.31
-24.74
-29.64
-34.55
-40.08
-46.77
-54.9
-64.25
-73.95
-82.42
-87.64
-87.7
-81.38
-68.69
-50.94
-30.35
-9.43
9.76
25.92
38.63
48.1
54.72
58.87
60.77
60.62
58.73
55.63
52
48.5
45.58
43.43
41.9
40.73
39.63
38.41
36.93
35.09
32.77
29.87
26.32
22.15
17.45
12.27
6.6
0.38
-6.4
-13.6
-20.91
-27.94
-34.37
-40.15
-45.44
-50.7
-56.51
-63.42
-71.77
-81.43
-91.53
-100.49
-106.15
-106.4
-99.87
-86.48
-67.55
-45.46
-22.86
-1.96
15.93
30.46
41.91
50.82
57.63
62.59
65.83
67.45
67.62
66.61
64.72
62.26
59.47
56.56
53.7
51.02
48.64
46.56
44.69
42.75
40.42
37.34
33.36
28.51
23.02
17.21
11.35
5.53
-0.33
-6.43
-12.92
-19.8
-26.83
-33.66
-39.94
-45.55
-50.69
-55.91
-61.94
-69.42
-78.49
-88.51
-97.94
-104.56
-106.08
-100.85
-88.55
-70.36
-48.68
-26.37
-5.88
11.32
24.87
35.23
43.18
49.31
53.87
56.88
58.28
58.22
57.02
55.1
52.9
50.68
48.57
46.6
44.81
43.25
41.91
40.65
39.2
37.24
34.49
30.87
26.5
21.63
16.46
11.1
5.57
-0.19
-6.13
-12.1
-17.89
-23.34
-28.37
-33.11
-37.78
-42.7
-48.28
-54.85
-62.56
-71.06
-79.26
-85.45
-87.55
-83.89
-73.84
-58.15
-38.81
-18.41
0.69
16.92
29.69
39.16
45.81
50.05
52.13
52.21
50.52
47.55
44
40.6
37.94
36.25
35.36
34.79
34.01
32.66
30.65
28.18
25.56
23
20.49
17.77
14.46
10.23
5.01
-1.04
-7.51
-13.94
-19.98
-25.5
-30.61
-35.64
-40.95
-46.92
-53.84
-61.86
-70.82
-80.06
-88.23
-93.47
-93.77
-87.75
-75.18
-57.28
-36.32
-15.01
4.42
20.64
33.3
42.75
49.5
53.98
56.44
57.07
56.16
54.15
51.55
48.82
46.29
44.13
42.33
40.85
39.59
38.42
37.23
35.81
33.95
31.46
28.19
24.14
19.43
14.3
8.95
3.51
-2.05
-7.88
-14.11
-20.78
-27.71
-34.57
-41
-46.86
-52.29
-57.78
-64.02
-71.59
-80.69
-90.77
-100.41
-107.52
-109.83
-105.63
-94.38
-76.99
-55.53
-32.63
-10.66
8.72
24.82
37.61
47.42
54.62
59.53
62.48
63.82
63.95
63.2
61.84
60.02
57.87
55.52
53.16
50.99
49.15
47.66
46.38
45.02
43.25
40.74
37.27
32.83
27.58
21.86
16.02
10.34
4.87
-0.56
-6.28
-12.57
-19.5
-26.87
-34.23
-41.11
-47.19
-52.55
-57.68
-63.35
-70.4
-79.21
-89.34
-99.33
-106.87
-109.4
-104.98
-93.02
-74.56
-52.01
-28.35
-6.21
12.73
27.94
39.65
48.39
54.58
58.4
59.98
59.64
57.94
55.61
53.32
51.44
50.01
48.81
47.55
46.11
44.52
42.93
41.43
39.95
38.24
36.01
33.02
29.24
24.78
19.81
14.48
8.79
2.71
-3.77
-10.53
-17.28
-23.69
-29.49
-34.66
-39.46
-44.36
-49.96
-56.72
-64.74
-73.46
-81.56
-87.12
-88.07
-82.85
-71.03
-53.6
-32.7
-11.04
8.98
25.79
38.85
48.31
54.6
58.09
58.99
57.54
54.22
49.83
45.33
41.57
39.02
37.64
36.97
36.41
35.45
33.88
31.8
29.46
27.12
24.86
22.5
19.66
15.89
10.85
4.51
-2.82
-10.56
-18.08
-24.92
-30.95
-36.4
-41.77
-47.69
-54.77
-63.35
-73.38
-84.13
-94.13
-101.31
-103.5
-99.07
-87.54
-69.85
-48.18
-25.28
-3.65
15.04
30.11
41.69
50.24
56.17
59.78
61.22
60.73
58.75
55.92
52.9
50.25
48.24
46.82
45.68
44.44
42.85
40.82
38.46
35.97
33.45
30.81
27.75
23.86
18.78
12.42
5.01
-2.96
-10.88
-18.28
-24.94
-30.95
-36.64
-42.49
-49.02
-56.65
-65.66
-75.96
-86.87
-97
-104.36
-106.78
-102.58
-91.19
-73.5
-51.61
-28.23
-5.87
13.75
29.91
42.67
52.45
59.66
64.56
67.31
68.11
67.31
65.43
63.01
60.51
58.23
56.28
54.64
53.17
51.7
50
47.89
45.22
41.93
38.08
33.76
29.08
24.11
18.81
13.11
6.91
0.22
-6.83
-13.98
-20.95
-27.55
-33.71
-39.53
-45.26
-51.27
-58
-65.85
-74.87
-84.53
-93.45
-99.53
-100.53
-94.81
-81.99
-63.26
-41.07
-18.29
2.58
20.05
33.7
43.89
51.23
56.19
59.02
59.84
58.87
56.59
53.67
50.82
48.55
47.04
46.13
45.44
44.61
43.39
41.73
39.74
37.54
35.2
32.65
29.68
26.03
21.46
15.92
9.57
2.78
-3.99
-10.37
-16.21
-21.58
-26.68
-31.79
-37.11
-42.9
-49.43
-56.93
-65.29
-73.81
-81.01
-84.94
-83.67
-76.06
-62.24
-43.69
-22.79
-2.11
16.28
31.24
42.51
50.38
55.34
57.81
58.12
56.64
53.88
50.52
47.24
44.59
42.84
41.91
41.48
41.08
40.31
38.91
36.81
34.11
31.02
27.72
24.33
20.78
16.86
12.27
6.78
0.38
-6.71
-14.08
-21.27
-27.94
-33.97
-39.46
-44.68
-50.09
-56.21
-63.5
-72.17
-81.86
-91.47
-99.09
-102.43
-99.55
-89.54
-73
-51.96
-29.21
-7.39
11.65
27.16
39.26
48.49
55.33
60.09
62.92
63.96
63.54
62.07
59.99
57.68
55.37
53.18
51.19
49.43
47.88
46.46
45
43.28
41.04
38.07
34.33
29.87
24.89
19.63
14.23
8.67
2.82
-3.49
-10.35
-17.62
-25
-32.07
-38.52
-44.28
-49.58
-54.96
-61.11
-68.64
-77.72
-87.81
-97.47
-104.57
-106.81
-102.46
-91
-73.4
-51.79
-28.85
-6.99
12.19
28.01
40.53
50.12
57.19
62.05
64.97
66.27
66.37
65.7
64.59
63.18
61.48
59.42
57.03
54.48
52.08
50.16
48.85
47.98
47.06
45.46
42.62
38.33
32.74
26.42
20.02
14.08
8.8
3.97
-0.89
-6.27
-12.47
-19.43
-26.82
-34.11
-40.84
-46.77
-51.94
-56.74
-61.79
-67.81
-75.35
-84.42
-94.21
-102.99
-108.41
-108.16
-100.82
-86.4
-66.51
-43.82
-21.21
-0.93
15.87
29.08
39.23
46.95
52.62
56.39
58.33
58.66
57.79
56.26
54.52
52.79
51.08
49.34
47.57
45.94
44.66
43.83
43.28
42.62
41.26
38.79
35.06
30.33
25.09
19.89
15.05
10.56
6.1
1.24
-4.37
-10.73
-17.56
-24.31
-30.43
-35.62
-39.93
-43.77
-47.85
-52.93
-59.55
-67.73
-76.64
-84.64
-89.59
-89.4
-82.77
-69.67
-51.41
-30.3
-8.92
10.54
26.71
39.13
47.93
53.58
56.57
57.36
56.42
54.25
51.37
48.27
45.33
42.79
40.72
39.11
37.9
36.98
36.22
35.39
34.21
32.41
29.81
26.41
22.34
17.84
13.08
8.15
2.99
-2.47
-8.31
-14.49
-20.87
-27.28
-33.57
-39.64
-45.46
-51.11
-56.78
-62.87
-69.87
-78.12
-87.36
-96.45
-103.38
-105.71
-101.49
-89.96
-72.03
-49.96
-26.6
-4.51
14.66
30.26
42.36
51.33
57.55
61.32
62.99
63.05
62.01
60.42
58.64
56.83
54.99
53.06
51.03
49.01
47.18
45.69
44.56
43.54
42.18
39.98
36.62
32.07
26.64
20.86
15.17
9.81
4.66
-0.68
-6.62
-13.37
-20.77
-28.35
-35.53
-41.84
-47.19
-51.91
-56.69
-62.37
-69.68
-78.95
-89.78
-100.92
-110.32
-115.56
-114.5
-106.02
-90.43
-69.43
-45.63
-21.73
0.18
18.93
34.22
46.26
55.43
62.03
66.34
68.66
69.39
69.07
68.23
67.25
66.29
65.26
63.96
62.21
60
57.54
55.16
53.13
51.48
49.92
47.94
44.97
40.68
35.09
28.62
21.88
15.52
9.88
4.92
0.19
-4.95
-11.03
-18.22
-26.16
-34.15
-41.42
-47.45
-52.28
-56.43
-60.76
-66.19
-73.37
-82.44
-92.8
-103.05
-111.1
-114.62
-111.67
-101.35
-84.27
-62.38
-38.43
-15.14
5.46
22.4
35.57
45.38
52.34
56.88
59.37
60.23
59.96
59.11
58.1
57.13
56.16
54.99
53.47
51.63
49.71
48.04
46.86
46.13
45.54
44.53
42.55
39.29
34.75
29.32
23.53
17.91
12.73
7.93
3.13
-2.13
-8.17
-14.98
-22.22
-29.31
-35.71
-41.14
-45.69
-49.89
-54.5
-60.3
-67.78
-76.8
-86.34
-94.5
-98.9
-97.32
-88.58
-72.96
-52.28
-29.33
-6.97
12.61
28.35
40.14
48.48
53.92
56.88
57.57
56.27
53.43
49.76
46.09
43.12
41.19
40.23
39.84
39.47
38.72
37.41
35.65
33.63
31.52
29.34
26.89
23.87
19.94
14.9
8.77
1.76
-5.75
-13.31
-20.55
-27.3
-33.56
-39.49
-45.35
-51.52
-58.41
-66.36
-75.38
-84.84
-93.29
-98.66
-98.77
-92.15
-78.6
-59.44
-37.08
-14.33
6.46
23.91
37.66
47.99
55.39
60.27
62.82
63.23
61.82
59.16
55.96
52.85
50.27
48.3
46.75
45.31
43.69
41.72
39.36
36.67
33.72
30.53
27.05
23.12
18.51
13.04
6.62
-0.62
-8.35
-16.19
-23.76
-30.87
-37.48
-43.73
-49.88
-56.31
-63.5
-71.92
-81.8
-92.79
-103.64
-112.28
-116.25
-113.49
-103.09
-85.7
-63.34
-38.82
-14.85
6.59
24.56
38.98
50.21
58.66
64.65
68.31
69.81
69.49
67.87
65.62
63.31
61.28
59.59
58.04
56.35
54.29
51.8
48.92
45.77
42.45
38.94
35.11
30.73
25.55
19.42
12.32
4.47
-3.74
-11.85
-19.46
-26.37
-32.67
-38.68
-44.87
-51.78
-59.87
-69.34
-79.94
-90.74
-100.06
-105.77
-105.86
-99.09
-85.53
-66.63
-44.77
-22.5
-1.88
15.93
30.56
42.08
50.7
56.52
59.69
60.54
59.64
57.79
55.75
54.03
52.77
51.78
50.65
49.03
46.83
44.2
41.49
38.99
36.76
34.5
31.65
27.63
22.1
15.16
7.3
-0.69
-8.1
-14.52
-20
-25
-30.22
-36.35
-43.88
-52.87
-62.84
-72.63
-80.54
-84.61
-83.14
-75.28
-61.4
-43.06
-22.59
-2.41
15.6
30.45
41.96
50.39
56.08
59.27
60.08
58.8
55.95
52.3
48.65
45.56
43.16
41.19
39.22
36.96
34.39
31.79
29.47
27.48
25.54
23.04
19.35
14.07
7.29
-0.45
-8.35
-15.64
-21.93
-27.31
-32.34
-37.87
-44.72
-53.38
-63.66
-74.53
-84.15
-90.29
-90.84
-84.6
-71.7
-53.59
-32.68
-11.55
7.77
24.15
37.34
47.67
55.56
61.27
64.88
66.45
66.17
64.45
61.9
59.13
56.59
54.4
52.42
50.32
47.8
44.73
41.26
37.69
34.28
31.1
27.95
24.36
19.82
14.01
6.97
-0.92
-9.04
-16.77
-23.72
-29.85
-35.45
-40.99
-47.01
-54.01
-62.32
-71.99
-82.53
-92.77
-100.88
-104.68
-102.32
-92.96
-77.15
-56.75
-34.35
-12.44
7.24
23.94
37.69
48.88
57.85
64.74
69.6
72.46
73.55
73.23
71.87
69.81
67.26
64.38
61.33
58.35
55.69
53.57
52
50.7
49.21
46.96
43.52
38.8
33.03
26.72
20.43
14.53
9.08
3.84
-1.59
-7.59
-14.31
-21.6
-29.03
-36.07
-42.24
-47.42
-51.83
-56.13
-61.2
-67.85
-76.46
-86.64
-97.06
-105.61
-109.9
-107.97
-98.97
-83.49
-63.43
-41.39
-19.85
-0.57
15.69
28.96
39.67
48.19
54.71
59.26
61.92
62.92
62.69
61.7
60.3
58.67
56.85
54.84
52.73
50.72
49.02
47.69
46.56
45.25
43.3
40.33
36.26
31.27
25.78
20.29
15.14
10.41
5.89
1.24
-3.92
-9.75
-16.1
-22.58
-28.68
-34.05
-38.59
-42.6
-46.61
-51.29
-57.18
-64.54
-72.99
-81.44
-88.14
-91.03
-88.41
-79.5
-64.85
-46.17
-25.88
-6.29
10.96
25.08
36.03
44.16
49.83
53.3
54.81
54.64
53.21
51.09
48.84
46.88
45.39
44.29
43.37
42.41
41.35
40.21
39.07
37.88
36.36
34.08
30.64
25.92
20.18
14.03
8.11
2.82
-1.86
-6.31
-11.09
-16.52
-22.62
-29
-35.12
-40.53
-45.09
-49.06
-53.02
-57.73
-63.87
-71.77
-81.1
-90.69
-98.61
-102.59
-100.75
-92.21
-77.52
-58.47
-37.54
-17.09
1.23
16.75
29.52
39.93
48.29
54.72
59.2
61.77
62.68
62.35
61.29
59.92
58.48
57
55.41
53.63
51.65
49.56
47.51
45.6
43.79
41.87
39.49
36.25
31.92
26.52
20.42
14.17
8.34
3.29
-0.98
-4.85
-8.9
-13.68
-19.49
-26.18
-33.25
-40.05
-46.05
-51.08
-55.35
-59.42
-64.03
-69.85
-77.31
-86.34
-96.14
-105.14
-111.22
-112.23
-106.7
-94.42
-76.62
-55.57
-33.88
-13.67
3.9
18.58
30.75
40.88
49.27
55.97
60.88
63.99
65.47
65.66
64.97
63.77
62.27
60.59
58.81
56.99
55.2
53.5
51.88
50.27
48.55
46.56
44.15
41.18
37.5
33.05
27.86
22.17
16.37
10.91
6.08
1.85
-2.11
-6.33
-11.23
-16.96
-23.28
-29.68
-35.67
-40.93
-45.49
-49.62
-53.75
-58.32
-63.74
-70.31
-78.16
-87.02
-96
-103.52
-107.54
-106.13
-98.14
-83.76
-64.51
-42.86
-21.39
-2.09
14.03
26.87
36.88
44.56
50.23
54
55.94
56.28
55.45
53.98
52.37
50.87
49.5
48.15
46.73
45.33
44.13
43.33
42.93
42.65
41.98
40.36
37.44
33.21
28.04
22.54
17.26
12.55
8.41
4.5
0.35
-4.48
-10.13
-16.45
-22.97
-29.15
-34.56
-39.12
-43.06
-46.93
-51.41
-57.13
-64.39
-72.95
-81.85
-89.39
-93.49
-92.27
-84.7
-71.04
-52.81
-32.36
-12.07
6.23
21.59
33.83
43.16
49.89
54.27
56.48
56.82
55.77
53.95
51.97
50.27
48.98
47.99
47.01
45.82
44.37
42.8
41.38
40.26
39.37
38.37
36.75
34.04
30.04
24.92
19.12
13.25
7.79
2.93
-1.5
-5.96
-10.96
-16.83
-23.54
-30.67
-37.64
-43.91
-49.24
-53.83
-58.23
-63.15
-69.32
-77.18
-86.67
-97.05
-106.77
-113.74
-115.76
-111.19
-99.57
-81.87
-60.24
-37.31
-15.47
3.75
19.79
32.83
43.33
51.65
58
62.46
65.17
66.46
66.75
66.47
65.85
64.89
63.5
61.59
59.27
56.83
54.66
53
51.77
50.61
48.94
46.2
42.14
36.88
30.81
24.49
18.37
12.69
7.4
2.2
-3.28
-9.34
-16.08
-23.31
-30.64
-37.58
-43.77
-49.14
-53.94
-58.76
-64.35
-71.38
-80.13
-90.17
-100.23
-108.27
-111.97
-109.43
-99.8
-83.7
-63
-40.29
-18.09
1.78
18.41
31.68
41.93
49.6
55.06
58.61
60.48
60.96
60.36
58.99
57.2
55.23
53.31
51.52
49.86
48.29
46.69
45.01
43.18
41.14
38.83
36.11
32.9
29.1
24.68
19.62
13.97
7.81
1.27
-5.43
-12.01
-18.22
-23.87
-28.94
-33.63
-38.26
-43.32
-49.3
-56.48
-64.72
-73.24
-80.6
-84.87
-84.25
-77.61
-64.98
-47.67
-27.84
-7.91
10.15
25.18
36.86
45.37
51.05
54.17
54.87
53.38
50.2
46.09
42.01
38.75
36.72
35.78
35.42
35.02
34.11
32.6
30.68
28.62
26.63
24.62
22.28
19.16
14.91
9.41
2.85
-4.34
-11.63
-18.56
-24.86
-30.55
-35.88
-41.35
-47.51
-54.87
-63.65
-73.53
-83.51
-91.84
-96.39
-95.24
-87.32
-72.93
-53.68
-32.05
-10.6
8.72
24.92
37.87
47.91
55.47
60.77
63.81
64.64
63.48
60.86
57.52
54.18
51.36
49.24
47.68
46.35
44.91
43.15
40.99
38.44
35.54
32.31
28.74
24.77
20.34
15.34
9.67
3.26
-3.83
-11.35
-18.92
-26.13
-32.72
-38.69
-44.36
-50.29
-57.11
-65.3
-74.93
-85.41
-95.42
-103.02
-106.05
-102.78
-92.52
-75.91
-54.86
-31.88
-9.44
10.67
27.59
41.23
51.91
59.99
65.76
69.44
71.29
71.63
70.79
69.08
66.71
63.86
60.74
57.63
54.79
52.39
50.39
48.53
46.45
43.83
40.51
36.54
32.06
27.2
21.98
16.36
10.28
3.76
-3.06
-10
-16.88
-23.59
-30.04
-36.18
-41.98
-47.49
-52.99
-59.01
-66.16
-74.79
-84.44
-93.68
-100.24
-101.66
-96.18
-83.49
-64.88
-42.85
-20.3
0.36
17.74
31.5
41.99
49.76
55.23
58.54
59.81
59.24
57.3
54.67
52.08
50
48.59
47.62
46.67
45.34
43.45
41.12
38.62
36.24
34.02
31.72
28.91
25.11
20.05
13.72
6.51
-1.02
-8.26
-14.76
-20.37
-25.23
-29.71
-34.26
-39.39
-45.54
-52.94
-61.46
-70.32
-78.12
-82.93
-82.86
-76.67
-64.26
-46.87
-26.7
-6.21
12.51
28.22
40.48
49.45
55.51
59
60.23
59.51
57.25
54.02
50.46
47.15
44.5
42.65
41.49
40.67
39.81
38.53
36.66
34.2
31.28
28.06
24.63
20.93
16.72
11.79
5.95
-0.74
-8.02
-15.51
-22.8
-29.64
-35.93
-41.8
-47.47
-53.3
-59.68
-67.02
-75.55
-85.13
-94.9
-103.28
-108.17
-107.48
-99.93
-85.51
-65.62
-42.68
-19.39
2.04
20.31
35.08
46.61
55.37
61.72
65.86
67.92
68.14
66.93
64.82
62.34
59.85
57.53
55.38
53.36
51.47
49.77
48.28
46.9
45.35
43.22
40.15
36
30.91
25.23
19.35
13.54
7.79
1.89
-4.4
-11.22
-18.47
-25.81
-32.81
-39.14
-44.71
-49.84
-55.18
-61.54
-69.58
-79.39
-90.23
-100.41
-107.62
-109.56
-104.63
-92.53
-74.39
-52.42
-29.25
-7.18
12.25
28.4
41.3
51.32
58.84
64.12
67.34
68.71
68.55
67.32
65.48
63.43
61.32
59.15
56.83
54.32
51.77
49.47
47.7
46.55
45.75
44.73
42.79
39.43
34.57
28.6
22.22
16.17
10.9
6.44
2.42
-1.77
-6.71
-12.66
-19.51
-26.78
-33.8
-40.01
-45.14
-49.38
-53.29
-57.68
-63.34
-70.73
-79.72
-89.36
-97.93
-103.2
-103.02
-96.03
-82.19
-62.89
-40.57
-18.02
2.45
19.48
32.68
42.36
49.08
53.37
55.64
56.21
55.46
53.83
51.77
49.62
47.6
45.77
44.14
42.74
41.58
40.68
39.93
39.11
37.91
36.04
33.34
29.81
25.63
21
16.06
10.8
5.18
-0.82
-7.09
-13.38
-19.42
-25.01
-30.16
-35.02
-39.91
-45.23
-51.35
-58.57
-66.92
-75.88
-84.27
-90.29
-91.93
-87.58
-76.69
-60.03
-39.59
-17.91
2.62
20.32
34.44
45.01
52.47
57.34
60.1
61.08
60.6
59.03
56.76
54.19
51.66
49.37
47.34
45.48
43.68
41.93
40.31
38.9
37.69
36.4
34.52
31.52
27.13
21.5
15.2
8.96
3.33
-1.53
-5.93
-10.47
-15.72
-21.91
-28.84
-35.95
-42.62
-48.42
-53.32
-57.74
-62.41
-68.15
-75.57
-84.72
-94.84
-104.34
-111.01
-112.62
-107.56
-95.48
-77.41
-55.54
-32.49
-10.58
8.67
24.66
37.5
47.57
55.26
60.81
64.38
66.2
66.59
66.01
64.87
63.48
61.99
60.41
58.71
56.9
55.08
53.39
51.92
50.6
49.22
47.44
44.92
41.42
36.91
31.58
25.8
19.99
14.55
9.64
5.17
0.77
