32.59
46.38
57.46
66.2
72.79
77.32
80.04
81.35
81.7
81.46
80.79
79.59
77.69
75.02
71.74
68.28
65.22
62.94
61.44
60.23
58.48
55.39
50.48
43.87
36.18
28.31
21.05
14.76
9.27
3.95
-1.92
-8.85
-16.84
-25.45
-33.93
-41.59
-48.09
-53.6
-58.72
-64.35
-71.38
-80.45
-91.62
-104.04
-115.9
-124.56
-127.25
-121.94
-108.06
-86.92
-61.28
-34.51
-9.57
11.73
28.86
42.15
52.31
59.9
65.27
68.59
70.15
70.34
69.68
68.58
67.28
65.83
64.14
62.17
60.04
57.97
56.22
54.84
53.6
52.01
49.49
45.64
40.45
34.26
27.66
21.16
15.07
9.33
3.63
-2.42
-9.05
-16.23
-23.7
-31
-37.76
-43.77
-49.11
-54.25
-59.92
-66.89
-75.66
-85.93
-96.44
-104.96
-108.82
-105.76
-94.83
-76.79
-53.96
-29.47
-6.28
13.63
29.46
41.39
50.02
55.84
59.14
60.02
58.7
55.71
51.86
48.13
45.26
43.6
42.96
42.81
42.49
41.51
39.8
37.55
35.11
32.71
30.29
27.52
23.96
19.24
13.27
6.25
-1.41
-9.22
-16.72
-23.61
-29.77
-35.23
-40.21
-45.09
-50.41
-56.81
-64.79
-74.42
-84.9
-94.51
-100.8
-101.31
-94.46
-80.2
-60.14
-37.05
-13.98
6.65
23.58
36.64
46.32
53.24
57.79
60.08
60.18
58.33
55.11
51.34
47.88
45.32
43.83
43.11
42.58
41.68
40.04
37.64
34.73
31.59
28.41
25.07
21.23
16.45
10.42
3.07
-5.32
-14.2
-22.95
-31.06
-38.27
-44.65
-50.59
-56.64
-63.45
-71.68
-81.73
-93.45
-105.77
-116.67
-123.43
-123.42
-115.04
-98.4
-75.42
-49.3
-23.4
-0.28
18.84
34.03
46.05
55.73
63.56
69.59
73.71
75.87
76.28
75.37
73.62
71.47
69.2
66.97
64.82
62.77
60.77
58.75
56.51
53.8
50.35
46
40.69
34.56
27.82
20.71
13.37
5.84
-1.92
-9.91
-18.04
-26.09
-33.81
-41
-47.7
-54.17
-60.94
-68.72
-78.15
-89.44
-102.01
-114.17
-123.41
-126.87
-122.42
-109.38
-88.97
-63.9
-37.48
-12.56
9.16
27.22
41.95
53.93
63.57
71.08
76.55
80.2
82.34
83.35
83.5
82.92
81.61
79.57
76.87
73.75
70.59
67.82
65.71
64.2
62.85
60.87
57.48
52.18
45.05
36.77
28.26
20.37
13.43
7.23
1.16
-5.43
-12.89
-21.1
-29.58
-37.7
-44.95
-51.16
-56.53
-61.67
-67.39
-74.57
-83.8
-95.01
-107.12
-118.05
-125.01
-125.31
-117.34
-101.16
-78.57
-52.6
-26.44
-2.58
17.67
34.15
47.29
57.65
65.54
71.04
74.24
75.42
75.1
73.95
72.52
71.12
69.74
68.22
66.41
64.33
62.26
60.52
59.28
58.37
57.2
54.94
50.94
44.98
37.46
29.3
21.51
14.78
9.24
4.37
-0.62
-6.44
-13.33
-21.04
-28.89
-36.18
-42.47
-47.73
-52.34
-56.95
-62.3
-69.09
-77.73
-88.02
-98.89
-108.3
-113.62
-112.37
-103.12
-86.18
-63.6
-38.57
-14.35
6.66
23.38
35.93
45.05
51.57
55.97
58.39
58.86
57.56
54.96
51.75
48.7
46.38
45.09
44.7
44.78
44.78
44.27
42.99
40.95
38.31
35.23
31.81
28.02
23.69
18.64
12.75
6.03
-1.31
-8.89
-16.27
-23.09
-29.17
-34.59
-39.68
-44.88
-50.65
-57.44
-65.5
-74.74
-84.46
-93.18
-98.81
-99.08
-92.42
-78.58
-58.93
-36.09
-13.12
7.4
24.05
36.62
45.71
52.15
56.58
59.27
60.26
59.61
57.64
54.86
51.92
49.31
47.25
45.64
44.19
42.57
40.62
38.35
35.86
33.25
30.46
27.26
23.36
18.47
12.42
5.28
-2.71
-11.12
-19.46
-27.33
-34.51
-40.97
-46.93
-52.76
-58.93
-66.02
-74.54
-84.71
-96.14
-107.47
-116.51
-120.61
-117.53
-106.32
-87.76
-64.23
-38.9
-14.78
6.11
23.06
36.35
46.81
55.2
61.98
67.25
70.97
73.07
73.6
72.75
70.89
68.41
65.7
63.08
60.69
58.56
56.57
54.52
52.14
49.2
45.48
40.89
35.45
29.3
22.63
15.57
8.15
0.35
-7.82
-16.23
-24.59
-32.56
-39.86
-46.47
-52.67
-58.95
-65.96
-74.27
-84.19
-95.43
-106.85
-116.45
-121.72
-120.36
-111.11
-94.33
-72.02
-47.13
-22.68
-0.86
17.39
32.19
44.25
54.3
62.74
69.63
74.86
78.31
80.08
80.44
79.76
78.39
76.54
74.3
71.69
68.8
65.82
62.98
60.39
57.97
55.3
51.82
47.03
40.81
33.48
25.81
18.59
12.37
7.12
2.24
-3.13
-9.66
-17.54
-26.32
-35.14
-43.17
-49.91
-55.47
-60.42
-65.69
-72.18
-80.61
-91.15
-103.17
-115.09
-124.46
-128.51
-125.01
-113.09
-93.68
-69.29
-43.21
-18.47
2.9
20.19
33.72
44.29
52.67
59.3
64.32
67.77
69.72
70.38
70.06
69.02
67.48
65.56
63.4
61.23
59.28
57.75
56.59
55.44
53.72
50.83
46.49
40.81
34.32
27.65
21.25
15.23
9.38
3.32
-3.2
-10.23
-17.56
-24.84
-31.73
-38
-43.68
-48.98
-54.4
-60.61
-68.28
-77.72
-88.43
-98.86
-106.61
-109.03
-104.17
-91.49
-72.29
-49.21
-25.44
-3.69
14.47
28.77
39.8
48.42
55.16
60.11
63.05
63.76
62.4
59.52
56.01
52.74
50.27
48.72
47.8
47.04
46.01
44.46
42.34
39.74
36.73
33.3
29.35
24.7
19.2
12.79
5.59
-2.15
-10.04
-17.77
-25.07
-31.89
-38.3
-44.5
-50.74
-57.38
-64.85
-73.53
-83.52
-94.26
-104.33
-111.51
-113.44
-108.31
-95.68
-76.7
-53.77
-29.77
-7.19
12.47
28.69
41.68
51.93
59.82
65.6
69.39
71.39
71.92
71.35
70.04
68.25
66.13
63.78
61.36
59.1
57.2
55.71
54.4
52.78
50.28
46.42
41.04
34.36
26.88
19.16
11.64
4.51
-2.35
-9.22
-16.4
-24.06
-32.11
-40.28
-48.2
-55.56
-62.34
-68.89
-75.93
-84.34
-94.77
-107.11
-120.1
-131.32
-137.73
-136.63
-126.66
-108.32
-83.89
-56.6
-29.61
-5.12
15.83
33.23
47.54
59.27
68.76
76.15
81.61
85.33
87.6
88.69
88.8
88.05
86.47
84.15
81.25
78.09
75.08
72.58
70.67
69.11
67.25
64.3
59.62
53.02
44.85
35.94
27.27
19.56
13.03
7.3
1.58
-4.95
-12.75
-21.75
-31.35
-40.68
-49
-55.99
-61.88
-67.37
-73.47
-81.15
-90.98
-102.78
-115.37
-126.51
-133.36
-133.26
-124.59
-107.51
-83.96
-57.01
-29.96
-5.34
15.59
32.73
46.66
58.05
67.34
74.64
79.94
83.31
84.97
85.29
84.68
83.41
81.6
79.26
76.46
73.38
70.39
67.83
65.88
64.39
62.83
60.48
56.67
51.1
43.99
36.02
28.11
21.05
15.13
10.07
5.1
-0.64
-7.72
-16.1
-25.19
-34.05
-41.87
-48.3
-53.55
-58.28
-63.31
-69.43
-77.24
-86.89
-97.91
-108.97
-117.86
-121.96
-118.97
-107.85
-89.31
-65.72
-40.32
-16.14
4.83
21.92
35.46
46.15
54.52
60.72
64.66
66.3
65.87
63.9
61.07
58.08
55.41
53.31
51.78
50.67
49.72
48.63
47.08
44.78
41.56
37.42
32.59
27.41
22.16
16.92
11.51
5.63
-0.96
-8.22
-15.81
-23.24
-30.07
-36.16
-41.63
-46.86
-52.3
-58.49
-65.9
-74.75
-84.78
-94.86
-103.01
-106.77
-103.96
-93.53
-76.13
-53.96
-30.08
-7.41
12.12
27.84
40.08
49.57
56.93
62.4
65.86
67.19
66.46
64.1
60.79
57.33
54.34
52.11
50.56
49.39
48.17
46.59
44.48
41.77
38.47
34.51
29.81
24.32
18.06
11.21
3.97
-3.45
-11
-18.66
-26.46
-34.3
-41.96
-49.17
-55.81
-62.03
-68.33
-75.49
-84.28
-95.07
-107.27
-119.21
-128.25
-131.51
-126.83
-113.6
-93.11
-68.1
-41.91
-17.39
3.77
21.13
35.13
46.56
56.06
63.95
70.31
75.13
78.35
80
80.12
78.89
76.55
73.47
70.1
66.93
64.29
62.29
60.71
59.04
56.64
52.94
47.71
41.09
33.55
25.67
17.93
10.56
3.42
-3.77
-11.34
-19.4
-27.81
-36.22
-44.22
-51.58
-58.36
-65.01
-72.28
-80.93
-91.46
-103.66
-116.4
-127.52
-134.33
-134.33
-126.07
-109.76
-87.28
-61.57
-35.67
-11.84
8.84
26.29
41
53.41
63.74
71.96
78.07
82.19
84.65
85.83
86.03
85.4
83.98
81.82
79.09
76.11
73.29
70.95
69.14
67.58
65.67
62.74
58.3
52.23
44.87
36.91
29.07
21.83
15.27
9.06
2.64
-4.54
-12.71
-21.71
-31.02
-39.98
-48.02
-54.9
-60.81
-66.34
-72.42
-80.04
-89.91
-101.95
-114.96
-126.59
-133.77
-133.72
-124.89
-107.61
-84.04
-57.39
-30.85
-6.74
13.86
30.91
44.85
56.16
65.13
71.9
76.61
79.5
80.88
81.07
80.35
78.91
76.89
74.42
71.66
68.88
66.37
64.38
62.88
61.54
59.73
56.73
52.11
45.9
38.62
31.07
23.92
17.48
11.5
5.45
-1.24
-8.8
-17.04
-25.36
-33.1
-39.73
-45.15
-49.72
-54.21
-59.6
-66.84
-76.46
-88.15
-100.53
-111.15
-117.1
-115.8
-106.05
-88.48
-65.45
-40.26
-16.06
5.01
22.12
35.48
45.76
53.56
59.15
62.53
63.69
62.82
60.45
57.29
54.1
51.5
49.82
49.05
48.87
48.8
48.27
46.86
44.35
40.78
36.37
31.44
26.18
20.59
14.52
7.77
0.31
-7.69
-15.81
-23.68
-30.96
-37.57
-43.66
-49.53
-55.63
-62.51
-70.7
-80.51
-91.64
-102.89
-112.12
-116.77
-114.55
-104.39
-86.87
-64.16
-39.27
-15.11
6.31
24.13
38.45
49.76
58.57
65.13
69.54
71.96
72.69
72.1
70.6
68.5
66.01
63.3
60.63
58.23
56.29
54.82
53.58
52.11
49.88
46.47
41.71
35.77
29.04
21.98
14.98
8.14
1.36
-5.64
-13.11
-21.12
-29.52
-37.94
-45.99
-53.4
-60.2
-66.73
-73.67
-81.8
-91.77
-103.6
-116.37
-128.06
-135.89
-137.1
-129.87
-114.08
-91.4
-64.86
-37.79
-12.85
8.53
26.17
40.66
52.76
62.97
71.42
78.02
82.68
85.51
86.75
86.75
85.8
84.1
81.78
78.99
75.95
72.95
70.26
67.98
66.04
64.02
61.31
57.3
51.57
44.23
35.85
27.37
19.65
13.12
7.56
2.18
-3.92
-11.39
-20.2
-29.74
-39.03
-47.25
-54.01
-59.51
-64.49
-69.9
-76.8
-85.94
-97.49
-110.69
-123.64
-133.56
-137.45
-133.04
-119.67
-98.62
-72.67
-45.21
-19.14
3.78
22.99
38.82
51.8
62.34
70.64
76.76
80.85
83.18
84.15
84.12
83.37
82.02
80.14
77.74
74.94
71.99
69.24
66.97
65.24
63.7
61.7
58.44
53.37
46.41
38.08
29.31
21.06
13.97
8.19
3.26
-1.58
-7.12
-13.84
-21.68
-30.15
-38.43
-45.78
-51.81
-56.65
-60.97
-65.71
-71.93
-80.36
-91.2
-103.68
-116
-125.47
-129.15
-124.79
-111.6
-90.72
-64.88
-37.6
-12.03
9.79
27.17
40.46
50.43
57.74
62.81
65.85
67.08
66.85
65.65
63.92
62.01
60.04
58.08
56.13
54.34
52.84
51.7
50.83
49.87
48.31
45.61
41.48
35.95
29.42
22.5
15.72
9.38
3.38
-2.61
-9.01
-16.02
-23.51
-31.05
-38.14
-44.4
-49.87
-55.02
-60.66
-67.66
-76.62
-87.42
-98.95
-109.12
-115.25
-114.83
-106.4
-90.08
-67.73
-42.3
-17
5.65
24.24
38.53
49.02
56.46
61.52
64.65
66.14
66.25
65.29
63.6
61.48
59.19
56.93
54.86
53.11
51.73
50.67
49.7
48.4
46.31
42.99
38.27
32.26
25.35
18.08
10.9
4.04
-2.54
-9.13
-16.09
-23.63
-31.73
-40.09
-48.31
-56.01
-63.07
-69.71
-76.54
-84.38
-93.98
-105.62
-118.59
-130.98
-139.93
-142.37
-136.02
-120.36
-96.96
-68.96
-40.09
-13.49
9.06
27.2
41.62
53.28
62.89
70.77
76.91
81.24
83.86
84.97
84.9
83.9
82.18
79.86
77.08
74.12
71.3
68.93
67.09
65.48
63.5
60.35
55.47
48.74
40.56
31.75
23.12
15.14
7.77
0.51
-7.23
-15.8
-25.09
-34.61
-43.67
-51.82
-58.99
-65.62
-72.52
-80.63
-90.68
-102.86
-116.39
-129.37
-139.05
-142.48
-137.43
-123.31
-101.38
-74.49
-46.04
-19.01
4.78
24.72
41.11
54.53
65.46
74.19
80.88
85.72
88.92
90.7
91.22
90.56
88.81
86.15
82.88
79.44
76.26
73.61
71.52
69.67
67.49
64.34
59.72
53.52
46.05
37.99
30.03
22.59
15.67
8.87
1.64
-6.43
-15.34
-24.71
-33.93
-42.43
-49.96
-56.66
-63.07
-70
-78.29
-88.51
-100.56
-113.28
-124.49
-131.28
-130.88
-121.65
-103.76
-79.27
-51.55
-24.16
0.22
20.31
36.15
48.55
58.34
65.99
71.5
74.73
75.69
74.72
72.48
69.71
67.07
64.9
63.28
62.05
60.96
59.71
58.07
55.84
52.9
49.23
44.84
39.8
34.19
28.07
21.39
14.15
6.35
-1.84
-10.16
-18.24
-25.75
-32.54
-38.72
-44.64
-50.87
-58.07
-66.83
-77.34
-89.13
-100.8
-110.04
-114.11
-110.68
-98.72
-79.01
-54.08
-27.37
-2.17
19.29
36.19
48.83
58.05
64.6
68.85
70.89
70.82
68.95
65.89
62.41
59.21
56.7
54.89
53.56
52.29
50.73
48.68
46.13
43.12
39.72
35.91
31.53
26.44
20.47
13.57
5.79
-2.65
-11.45
-20.17
-28.44
-35.98
-42.78
-49.1
-55.48
-62.62
-71.22
-81.74
-94.18
-107.7
-120.53
-130.06
-133.47
-128.6
-114.76
-93.19
-66.7
-38.82
-12.69
9.76
28.02
42.64
54.47
64.19
72.01
77.87
81.68
83.57
83.91
83.15
81.68
79.65
77.12
74.17
71.02
68.06
65.62
63.75
62.09
59.91
56.48
51.35
44.57
36.7
28.52
20.68
13.42
6.55
-0.4
-7.91
-16.2
-25.1
-34.14
-42.72
-50.4
-57.1
-63.2
-69.47
-76.91
-86.34
-98.02
-111.26
-124.24
-134.24
-138.28
-134.07
-120.85
-99.74
-73.42
-45.27
-18.4
5.17
24.68
40.37
53
63.31
71.78
78.58
83.71
87.13
88.86
89.04
87.9
85.73
82.85
79.55
76.17
73
70.27
68.02
66.02
63.77
60.6
55.97
49.71
42.15
34.01
26.1
18.98
12.71
6.89
0.82
-6.11
-14.11
-22.93
-31.91
-40.31
-47.61
-53.75
-59.16
-64.69
-71.34
-79.93
-90.78
-103.26
-115.68
-125.41
-129.55
-125.81
-113.36
-93.28
-68.24
-41.69
-16.71
4.69
21.92
35.43
46.08
54.56
61.19
65.94
68.69
69.51
68.67
66.67
64.07
61.36
58.88
56.76
55
53.49
52.08
50.6
48.78
46.37
43.1
38.83
33.57
27.54
21.01
14.21
7.28
0.21
-6.97
-14.19
-21.24
-27.93
-34.13
-39.97
-45.75
-51.95
-59.13
-67.76
-78
-89.46
-100.9
-110.27
-115.03
-112.95
-102.86
-85.25
-62.24
-36.92
-12.38
9.08
26.45
39.84
50
57.68
63.39
67.27
69.27
69.47
68.17
65.87
63.19
60.65
58.52
56.81
55.37
53.95
52.35
50.43
48.04
45.03
41.21
36.45
30.73
24.22
17.18
9.85
2.32
-5.45
-13.59
-22.12
-30.85
-39.42
-47.42
-54.61
-61.04
-67.18
-73.75
-81.57
-91.23
-102.69
-114.97
-126.09
-133.35
-134.17
-126.86
-111.32
-89.16
-63.16
-36.41
-11.45
10.2
28.12
42.56
54.06
63.09
69.99
74.98
78.29
80.12
80.71
80.29
78.99
77
74.46
71.62
68.73
66.06
63.74
61.61
59.3
56.23
51.89
46.07
38.92
30.99
22.88
15.1
7.74
0.53
-6.98
-15.23
-24.38
-34.21
-44.29
-54.06
-63.17
-71.54
-79.51
-87.73
-97.03
-108.11
-121.16
-135.43
-149.15
-159.71
-164.34
-161.01
-149.21
-130.26
-106.87
-82.25
-59.06
-38.81
-21.71
-7.07
6.1
18.64
31.04
43.5
55.97
68.3
80.24
91.43
101.41
109.76
116.16
120.48
122.83
123.58
123.12
121.76
119.55
116.19
111.25
104.41
95.69
85.63
75.03
64.72
55.19
46.43
38.03
29.36
19.95
9.7
-1.12
-11.92
-22.09
-31.14
-38.93
-45.76
-52.3
-59.46
-68.09
-78.59
-90.45
-102.1
-111.06
-114.59
-110.6
-98.46
-79.34
-55.86
-31.24
-8.25
11.43
27.38
40
49.9
57.46
62.73
65.62
66.18
64.8
62.18
59.16
56.44
54.41
53.05
52.09
51.09
49.7
47.71
45.05
41.81
38.04
33.82
29.11
23.86
17.96
11.35
4.05
-3.78
-11.8
-19.6
-26.81
-33.25
-39.03
-44.53
-50.28
-56.86
-64.75
-74.11
-84.54
-94.92
-103.34
-107.48
-105.23
-95.55
-78.9
-57.28
-33.59
-10.69
9.43
25.96
39.05
49.26
57.03
62.51
65.65
66.43
65.16
62.46
59.13
55.88
53.14
50.98
49.17
47.36
45.25
42.71
39.81
36.67
33.37
29.82
25.73
20.73
14.49
6.91
-1.84
-11.28
-20.75
-29.6
-37.41
-44.13
-50.1
-56.01
-62.75
-71.11
-81.55
-93.77
-106.53
-117.64
-124.35
-124.16
-115.61
-98.98
-76.25
-50.56
-25.19
-2.56
16.21
31.27
43.44
53.6
62.21
69.22
74.34
77.34
78.25
77.45
75.46
72.83
69.95
67.04
64.17
61.35
58.51
55.54
52.29
48.65
44.54
39.97
34.92
29.34
23.09
15.97
7.89
-1.06
-10.51
-19.93
-28.82
-36.92
-44.25
-51.15
-58.11
-65.66
-74.32
-84.43
-95.96
-108.22
-119.62
-127.83
-130.22
-124.79
-110.96
-89.9
-64.26
-37.29
-11.83
10.4
28.87
43.93
56.17
66.11
73.92
79.63
83.25
84.92
84.93
83.64
81.47
78.79
75.93
73.16
70.61
68.35
66.27
64.13
61.58
58.23
53.76
48.09
41.36
33.92
26.16
18.34
10.49
2.46
-5.99
-14.91
-24.13
-33.26
-41.85
-49.57
-56.43
-62.77
-69.29
-76.8
-85.98
-96.97
-108.96
-120.1
-127.7
-128.99
-122.04
-106.6
-84.28
-58.1
-31.49
-7.25
13.13
29.45
42.34
52.61
60.73
66.76
70.54
72.01
71.44
69.42
66.77
64.19
62.13
60.66
59.57
58.5
57.06
55.03
52.3
48.97
45.15
40.97
36.41
31.34
25.5
18.7
10.92
2.42
-6.3
-14.7
-22.35
-29.1
-35.1
-40.7
-46.37
-52.65
-60.09
-69.04
-79.41
-90.29
-99.87
-105.72
-105.47
-97.69
-82.52
-61.76
-38.27
-15.05
5.66
22.76
36.23
46.58
54.32
59.67
62.56
62.96
61.14
57.81
53.92
50.41
47.8
46.05
44.69
43.09
40.84
37.99
34.94
32.18
29.87
27.68
24.79
20.32
13.72
5.07
-4.86
-14.95
-24.16
-31.9
-38.28
-43.93
-49.84
-56.97
-66.05
-77.21
-89.8
-102.23
-112.12
-116.8
-114.07
-103.08
-84.67
-61.2
-35.83
-11.51
9.79
27.3
41.24
52.19
60.66
66.84
70.69
72.27
71.83
69.98
67.48
65.03
63.04
61.54
60.22
58.64
56.42
53.42
49.74
45.63
41.34
36.97
32.36
27.18
21.04
13.66
5.03
-4.56
-14.54
-24.25
-33.18
-41.1
-48.1
-54.62
-61.28
-68.85
-77.99
-89.02
-101.56
-114.19
-124.56
-129.87
-127.66
-116.79
-97.86
-73.17
-45.91
-19.23
4.61
24.61
40.78
53.69
63.94
71.95
77.87
81.83
83.99
84.64
84.13
82.81
80.95
78.73
76.29
73.77
71.31
68.98
66.75
64.4
61.57
57.9
53.11
47.18
40.32
32.92
25.35
17.8
10.25
2.54
-5.51
-13.94
-22.52
-30.92
-38.79
-45.93
-52.44
-58.72
-65.43
-73.3
-82.91
-94.2
-106.18
-116.81
-123.3
-122.94
-114.03
-96.66
-72.72
-45.38
-17.95
6.98
28.1
45.23
58.8
69.36
77.26
82.76
86.09
87.7
88.18
88.12
87.96
87.88
87.8
87.51
86.86
85.9
84.8
83.85
83.14
82.46
81.32
79.15
75.57
70.52
64.31
57.32
49.84
41.87
33.15
23.4
12.48
0.62
-11.67
-23.73
-34.92
-44.81
-53.33
-60.74
-67.69
-75.07
-83.8
-94.35
-106.26
-117.91
-126.65
-129.61
-124.64
-111.24
-90.88
-66.46
-41.41
-18.51
0.71
16
27.91
37.08
43.85
48.18
49.98
49.36
46.92
43.56
40.28
37.84
36.56
36.2
36.17
35.78
34.51
32.22
29.11
25.64
22.11
18.55
14.61
9.69
3.35
-4.46
-13.2
-21.98
-29.91
-36.48
-41.84
-46.62
-51.67
-57.78
-65.43
-74.83
-85.81
-97.67
-108.97
-117.57
-120.91
-116.92
-104.73
-85.26
-60.97
-35.16
-10.88
9.84
26.21
38.5
47.38
53.47
57.08
58.21
56.88
53.33
48.24
42.65
37.74
34.44
33.15
33.63
35.22
37.14
38.89
40.29
41.41
42.29
42.72
42.19
40.08
35.92
29.53
21.18
11.48
1.18
-9
-18.56
-27.33
-35.42
-43.24
-51.33
-60.32
-70.77
-82.93
-96.43
-109.98
-121.37
-127.87
-127.1
-117.82
-100.58
-77.58
-52
-26.93
-4.59
14.07
29.13
41.22
51.03
59.02
65.43
70.4
74.02
76.44
77.84
78.49
78.68
78.72
78.8
78.9
78.84
78.22
76.7
74.03
70.22
65.43
59.92
53.87
47.31
40.11
32.07
23.11
13.3
2.9
-7.78
-18.45
-28.97
-39.33
-49.65
-60.11
-71.03
-82.8
-95.78
-109.87
-124.12
-136.43
-143.9
-143.62
-133.79
-114.62
-88.43
-58.96
-30.1
-4.71
15.95
32.05
44.52
54.27
61.79
67.18
70.47
71.85
71.72
70.58
68.79
66.52
63.76
60.51
56.93
53.4
50.33
47.98
46.27
44.7
42.47
38.84
33.37
26.21
18.05
9.79
2.18
-4.51
-10.6
-16.73
-23.53
-31.24
-39.58
-47.92
-55.58
-62.21
-67.95
-73.43
-79.61
-87.46
-97.57
-109.72
-122.59
-133.75
-140.16
-139
-128.69
-109.57
-83.86
-55.05
-26.72
-1.57
19.12
35.36
47.92
57.61
64.92
69.94
72.6
73.02
71.61
69.16
66.52
64.35
62.9
61.99
61.22
60.15
58.54
56.38
53.77
50.78
47.36
43.29
38.32
32.28
25.12
16.91
7.88
-1.65
-11.28
-20.61
-29.32
-37.34
-44.88
-52.4
-60.48
-69.78
-80.73
-93.46
-107.42
-121.18
-132.44
-138.37
-136.44
-125.32
-105.59
-79.69
-51.18
-23.61
0.55
20.29
35.89
48.17
57.89
65.41
70.75
73.9
75.06
74.69
73.37
71.6
69.71
67.87
66.17
64.67
63.41
62.38
61.36
59.97
57.72
54.19
49.18
42.87
35.63
27.9
19.97
11.84
3.34
-5.72
-15.31
-25.17
-34.82
-43.81
-51.98
-59.56
-67.12
-75.52
-85.59
-97.94
-112.5
-128.16
-142.63
-152.79
-155.42
-148.36
-131.36
-106.25
-76.41
-45.57
-16.73
8.49
29.8
47.68
62.73
75.34
85.63
93.67
99.64
103.86
106.66
108.23
108.61
107.77
105.74
102.75
99.26
95.82
92.87
90.5
88.37
85.75
81.81
75.97
68.17
58.92
49.14
39.75
31.31
23.79
16.6
8.93
0.13
-9.94
-20.88
-31.86
-42
-50.71
-57.9
-64.07
-70.22
-77.56
-87.17
-99.52
-113.9
-128.24
-139.29
-143.51
-138.2
-122.56
-98.15
-68.31
-37.1
-7.97
17.07
37.58
54.16
67.64
78.59
87.14
93.23
96.89
98.44
98.36
97.15
95.17
92.56
89.4
85.81
82.09
78.62
75.73
73.46
71.48
69.1
65.5
60.11
52.79
44.03
34.66
25.59
17.41
10.09
3.13
-4.24
-12.54
-21.85
-31.6
-40.95
-49.17
-55.99
-61.78
-67.43
-74.07
-82.63
-93.48
-106.01
-118.53
-128.4
-132.65
-128.83
-115.9
-94.75
-67.95
-39.04
-11.4
12.57
31.86
46.6
57.49
65.26
70.36
73.06
73.58
72.35
70.01
67.31
64.89
63.12
62.09
61.6
61.31
60.88
60.01
58.51
56.28
53.22
49.34
44.67
39.31
33.36
26.84
19.69
11.83
3.22
-6.06
-15.84
-25.87
-36.01
-46.27
-56.78
-67.77
-79.51
-92.32
-106.44
-121.83
-137.74
-152.4
-163.07
-166.62
-160.57
-144.21
-119
-88.28
-56.16
-26.21
-0.56
20.24
36.78
50
60.64
69.04
75.28
79.44
81.69
82.36
81.77
80.22
77.97
75.24
72.33
69.55
67.19
65.38
63.96
62.5
60.37
56.98
51.97
45.4
37.67
29.44
21.23
13.34
5.67
-2.1
-10.3
-19.05
-28.15
-37.18
-45.71
-53.47
-60.55
-67.41
-74.82
-83.72
-94.83
-108.17
-122.56
-135.52
-143.64
-143.64
-133.57
-113.69
-86.5
-55.94
-26
0.45
22.21
39.43
52.97
63.65
71.91
77.96
81.99
84.36
85.56
85.98
85.82
84.99
83.32
80.74
77.5
74.05
70.94
68.54
66.87
65.51
63.76
60.84
56.2
49.78
42.01
33.68
25.64
18.43
12.07
6.04
-0.4
-7.91
-16.63
-26.18
-35.72
-44.41
-51.73
-57.69
-62.92
-68.39
-75.3
-84.59
-96.67
-110.88
-125.31
-136.92
-142.27
-138.56
-124.73
-101.99
-73.45
-43.24
-15.04
8.77
27.47
41.6
52.18
60.11
65.82
69.41
70.95
70.64
68.97
66.54
63.93
61.58
59.67
58.21
57.09
56.11
55.01
53.54
51.42
48.44
44.51
39.67
34.07
27.89
21.21
14.04
6.35
-1.81
-10.25
-18.63
-26.59
-33.92
-40.66
-47.13
-53.81
-61.34
-70.29
-81.03
-93.35
-106.2
-117.56
-124.7
-124.99
-116.73
-99.91
-76.34
-49.17
-21.82
2.86
23.29
39.15
50.93
59.41
65.23
68.75
70.17
69.75
67.91
65.24
62.4
59.89
57.95
56.53
55.38
54.2
52.78
50.94
48.55
45.43
41.43
36.48
30.65
24.16
17.23
10.01
2.41
-5.69
-14.4
-23.59
-32.98
-42.16
-50.79
-58.82
-66.45
-74.19
-82.74
-92.85
-105.04
-119.15
-133.96
-147
-155.03
-154.92
-144.81
-124.95
-97.74
-66.96
-36.6
-9.55
12.84
30.72
45.08
56.94
66.96
75.34
82
86.83
89.82
91.13
91.02
89.85
88
85.83
83.68
81.75
80.11
78.61
76.92
74.53
70.98
65.94
59.43
51.81
43.6
35.33
27.26
19.25
10.94
1.93
-7.92
-18.36
-28.83
-38.74
-47.72
-55.83
-63.59
-71.85
-81.6
-93.56
-107.77
-123.15
-137.41
-147.33
-149.65
-142.25
-124.99
-99.87
-70.45
-40.6
-13.35
9.8
28.76
44.29
57.19
67.92
76.49
82.78
86.77
88.73
89.16
88.56
87.31
85.53
83.24
80.49
77.53
74.7
72.39
70.66
69.12
67.02
63.44
57.82
50.14
41.1
31.73
22.93
15.11
7.95
0.71
-7.45
-16.96
-27.58
-38.55
-48.9
-57.91
-65.41
-71.87
-78.21
-85.59
-94.99
-106.9
-120.91
-135.48
-148.04
-155.45
-154.95
-145.13
-126.51
-101.46
-73.41
-45.74
-20.82
0.37
18.02
32.81
45.32
55.69
63.76
69.35
72.57
73.89
74.01
73.63
73.26
73.06
72.92
72.58
71.74
70.24
68.1
65.47
62.48
59.18
55.39
50.79
45.02
37.86
29.37
19.9
9.98
0.18
-9.07
-17.56
-25.38
-32.86
-40.49
-48.89
-58.66
-70.17
-83.3
-97.11
-109.7
-118.47
-120.72
-114.49
-99.36
-76.7
-49.34
-20.72
6.08
29.07
47.59
61.95
72.92
81.22
87.23
91.06
92.7
92.28
90.15
86.9
83.25
79.81
77
74.87
73.19
71.53
69.48
66.68
63.02
58.48
53.16
47.16
40.54
33.29
25.4
16.86
7.75
-1.75
-11.35
-20.76
-29.7
-38.05
-45.83
-53.3
-60.9
-69.22
-78.91
-90.31
-103.1
-115.92
-126.38
-131.56
-128.87
-116.98
-96.49
-69.75
-40.13
-10.95
15.36
37.6
55.67
70.03
81.35
90.22
97.1
102.37
106.25
108.79
109.85
109.25
106.9
102.97
97.92
92.45
87.24
82.8
79.33
76.6
74.09
71.06
66.82
60.85
53.07
43.8
33.77
23.82
14.61
6.41
-1.04
-8.4
-16.35
-25.33
-35.23
-45.48
-55.25
-63.88
-71.17
-77.51
-83.79
-91.19
-100.81
-113.12
-127.54
-142.16
-153.94
-159.44
-155.93
-142.44
-120.13
-92.02
-61.86
-32.98
-7.41
14.21
32.23
47.26
59.71
69.69
77.22
82.46
85.78
87.65
88.47
88.42
87.49
85.62
82.83
79.37
75.67
72.28
69.56
67.6
66.09
64.38
61.71
57.46
51.39
43.72
35.11
26.44
18.46
11.6
5.74
0.27
-5.62
-12.66
-21.06
-30.44
-39.97
-48.69
-55.99
-61.79
-66.69
-71.63
-77.72
-85.86
-96.43
-109.07
-122.35
-133.9
-140.73
-140.05
-130.22
-111.43
-85.84
-56.89
-28.28
-2.86
17.89
33.9
45.89
54.83
61.44
66.08
68.94
70.15
70.02
68.93
67.28
65.35
63.31
61.19
59.05
57.03
55.27
53.85
52.64
51.24
49.08
45.66
40.82
34.77
28.05
21.23
14.63
8.15
1.37
-6.17
-14.66
-23.87
-33.16
-41.79
-49.26
-55.55
-61.1
-66.79
-73.61
-82.38
-93.35
-105.88
-118.2
-127.58
-131.03
-126.22
-112.39
-90.75
-64.17
-36.21
-10.05
12.34
30.32
44.26
54.86
62.7
68.1
71.26
72.41
72.03
70.65
68.8
66.77
64.63
62.32
59.81
57.23
54.85
52.96
51.58
50.37
48.64
45.61
40.76
34.11
26.25
18.09
10.46
3.75
-2.28
-8.35
-15.25
-23.44
-32.79
-42.64
-52.12
-60.47
-67.48
-73.44
-79.2
-85.86
-94.56
-105.97
-119.88
-134.76
-147.79
-155.45
-154.54
-143.39
-122.55
-94.75
-63.9
-33.84
-7.21
14.99
33.05
47.83
60.07
70.11
77.94
83.53
87.08
89.03
89.92
90.11
89.71
88.56
86.5
83.55
80.08
76.68
73.9
71.97
70.58
68.96
66.16
61.45
54.68
46.29
37.23
28.47
20.68
13.89
7.56
0.82
-7.09
-16.45
-26.94
-37.73
-47.83
-56.54
-63.66
-69.64
-75.39
-82.11
-90.92
-102.52
-116.73
-132.17
-146.21
-155.45
-156.66
-147.88
-129.21
-102.82
-72.32
-41.5
-13.32
10.72
30.43
46.36
59.24
69.52
77.41
83.03
86.63
88.63
89.51
89.66
89.28
88.34
86.73
84.4
81.49
78.37
75.51
73.21
71.45
69.76
67.43
63.72
58.2
51
42.71
34.24
26.39
19.59
13.64
7.92
1.58
-6.04
-15.1
-25.21
-35.51
-45.01
-53.03
-59.42
-64.71
-69.93
-76.33
-85.01
-96.55
-110.58
-125.56
-138.82
-147.09
-147.34
-137.86
-118.86
-92.6
-62.64
-32.75
-5.82
16.65
34.52
48.4
59.06
67.02
72.53
75.79
77.11
77.03
76.13
74.88
73.49
71.95
70.19
68.22
66.29
64.73
63.81
63.46
63.19
62.24
59.79
55.43
49.24
41.87
34.18
26.89
20.26
14.09
7.77
0.71
-7.37
-16.28
-25.47
-34.21
-42
-48.72
-54.69
-60.62
-67.42
-75.96
-86.76
-99.46
-112.58
-123.5
-129.01
-126.3
-114.04
-93.03
-66.08
-37.06
-9.69
13.5
31.59
44.94
54.5
61.16
65.41
67.44
67.38
65.57
62.6
59.28
56.33
54.25
53.14
52.77
52.71
52.5
51.76
50.31
48.07
45.07
41.32
36.82
31.48
25.2
17.89
9.55
0.4
-9.18
-18.69
-27.66
-35.81
-43.17
-49.99
-56.72
-63.82
-71.83
-81.24
-92.38
-105.01
-117.97
-128.96
-134.93
-133
-121.54
-100.98
-73.88
-44.1
-15.52
9.12
28.69
43.52
54.63
63.04
69.34
73.7
76.14
76.83
76.12
74.53
72.53
70.48
68.55
66.83
65.33
64.03
62.81
61.38
59.36
56.34
52.11
46.67
40.31
33.37
26.13
18.61
10.67
2.08
-7.21
-17.03
-26.99
-36.64
-45.68
-54.05
-61.98
-69.94
-78.6
-88.69
-100.76
-114.74
-129.52
-142.75
-151.2
-151.69
-142.24
-122.93
-96.06
-65.36
-34.76
-7.19
16.05
35.05
50.68
63.75
74.69
83.49
90.02
94.3
96.6
97.3
96.84
95.5
93.43
90.82
87.92
85.1
82.68
80.84
79.45
78
75.78
72.08
66.51
59.14
50.49
41.32
32.25
23.55
15
6.06
-3.77
-14.67
-26.31
-37.96
-48.83
-58.4
-66.65
-74.13
-81.84
-90.96
-102.41
-116.34
-131.67
-145.95
-155.74
-157.59
-149.24
-130.55
-103.63
-72.23
-40.43
-11.43
13.1
32.94
48.77
61.42
71.49
79.25
84.85
88.51
90.5
91.17
90.74
89.39
87.21
84.39
81.22
78.11
75.46
73.49
72.09
70.78
68.84
65.51
60.34
53.36
45.1
36.37
27.9
20.02
12.54
4.95
-3.27
-12.3
-21.88
-31.41
-40.26
-48.06
-54.87
-61.23
-68.03
-76.24
-86.64
-99.3
-113.23
-126.2
-135.09
-136.78
-129.21
-112.26
-87.91
-59.59
-31.05
-5.23
16.4
33.72
47.35
57.96
65.83
70.9
73.08
72.58
70.11
66.71
63.45
61.09
59.84
59.4
59.12
58.37
56.77
54.32
51.32
48.12
44.9
41.49
37.43
32.2
25.35
16.83
6.98
-3.5
-13.84
-23.43
-31.93
-39.42
-46.24
-53.01
-60.46
-69.38
-80.27
-93.01
-106.46
-118.33
-125.65
-125.59
-116.51
-98.68
-74.26
-46.69
-19.46
4.79
24.8
40.57
52.72
61.96
68.72
73.11
75.15
75.05
73.29
70.59
67.74
65.37
63.77
62.8
62.02
60.9
59.04
56.27
52.73
48.65
44.21
39.44
34.1
27.84
20.32
11.48
1.5
-9.08
-19.64
-29.63
-38.76
-47.1
-54.99
-62.96
-71.63
-81.62
-93.43
-107.11
-121.94
-136.12
-146.85
-151.07
-146.36
-131.97
-109.24
-81.14
-51.38
-23.15
1.61
22.36
39.51
53.81
65.82
75.76
83.61
89.37
93.09
94.97
95.24
94.22
92.2
89.54
86.56
83.52
80.61
77.82
74.99
71.82
68.01
63.3
57.55
50.81
43.18
34.77
25.68
15.98
5.76
-4.75
-15.24
-25.38
-34.93
-43.87
-52.43
-61.01
-70.14
-80.41
-92.3
-105.84
-120.28
-133.74
-143.44
-146.3
-140.05
-124.16
-100.15
-71.22
-41.15
-13.08
11.14
31.12
47.42
60.82
71.86
80.73
87.36
91.75
94.05
94.61
93.83
92.07
89.59
86.6
83.33
80.06
77.1
74.59
72.44
70.22
67.31
63.13
57.4
50.27
42.22
33.87
25.68
17.77
9.95
1.87
-6.8
-16.12
-25.86
-35.58
-44.77
-53.08
-60.45
-67.2
-74.07
-82.04
-92.04
-104.42
-118.4
-131.83
-141.47
-143.94
-136.84
-119.83
-94.81
-65.35
-35.49
-8.48
13.97
31.65
45.31
55.89
64.04
69.99
73.73
75.32
75.01
73.34
70.97
68.54
66.46
64.85
63.51
62.09
60.24
57.76
54.66
51.1
47.27
43.19
38.7
33.46
27.14
19.59
10.95
1.65
-7.71
-16.58
-24.64
-31.87
-38.54
-45.08
-51.99
-59.8
-68.99
-79.86
-92.17
-104.82
-115.7
-122.02
-121.1
-111.46
-93.38
-69.09
-41.96
-15.44
7.99
27.23
42.32
53.84
62.26
67.76
70.31
70.06
67.59
63.86
59.95
56.69
54.4
52.84
51.47
49.69
47.19
44.02
40.54
37.15
34.03
30.92
27.18
21.99
14.77
5.45
-5.41
-16.75
-27.43
-36.7
-44.45
-51.22
-57.95
-65.69
-75.23
-86.94
-100.53
-114.83
-127.77
-136.58
-138.43
-131.33
-114.95
-90.93
-62.42
-33.18
-6.34
16.3
34.38
48.57
59.82
68.8
75.71
80.44
82.82
82.96
81.31
78.61
75.65
73
70.89
69.13
67.36
65.16
62.35
58.93
55.07
50.9
46.37
41.25
35.13
27.67
18.7
8.42
-2.62
-13.67
-24.03
-33.28
-41.48
-49.09
-56.84
-65.49
-75.68
-87.8
-101.78
-116.79
-131.08
-142.03
-146.64
-142.46
-128.54
-105.9
-77.4
-46.8
-17.61
7.85
28.77
45.51
58.96
69.88
78.65
85.28
89.68
91.91
92.29
91.3
89.46
87.18
84.69
82.09
79.42
76.72
73.99
71.12
67.94
64.16
59.52
53.9
47.36
40.06
32.14
23.72
14.79
5.36
-4.5
-14.6
-24.64
-34.29
-43.31
-51.64
-59.48
-67.32
-75.95
-86.23
-98.63
-112.73
-126.81
-137.99
-142.9
-138.86
-124.9
-102.26
-74
-44.05
-15.89
8.3
27.84
43.14
55.06
64.28
71.11
75.56
77.67
77.67
76.11
73.72
71.2
69
67.26
65.73
64.04
61.83
58.94
55.46
51.61
47.6
43.44
38.91
33.59
27.11
19.32
10.45
1.07
-8.11
-16.46
-23.64
-29.75
-35.22
-40.69
-46.85
-54.31
-63.46
-74.4
-86.57
-98.65
-108.41
-113.2
-110.62
-99.4
-80.05
-54.81
-27
0.03
23.75
43.01
57.73
68.46
75.75
79.91
81.11
79.64
76.16
71.65
67.18
63.59
61.18
59.72
58.63
57.36
55.62
53.51
51.33
49.22
46.95
43.81
38.9
31.52
21.64
9.96
-2.25
-13.7
-23.53
-31.67
-38.84
-46.2
-54.99
-66.09
-79.79
-95.55
-111.83
-126.17
-135.54
-137.1
-129.13
-111.76
-87.1
-58.67
-30.3
-4.98
15.77
31.83
44
53.21
59.96
64.34
66.17
65.43
62.51
58.24
53.65
49.64
46.64
44.51
42.7
40.56
37.72
34.25
30.55
27.01
23.69
20.18
15.77
9.77
1.84
-7.8
-18.41
-29.01
-38.71
-46.96
-53.78
-59.66
-65.43
-72.08
-80.47
-91.16
-104
-117.93
-130.81
-139.76
-141.86
-135.11
-119.18
-95.7
-67.74
-38.89
-12.16
10.74
29.44
44.52
56.85
67.15
75.74
82.61
87.65
90.77
92.04
91.68
90.05
87.53
84.49
81.2
77.88
74.65
71.56
68.52
65.27
61.48
56.83
51.12
44.41
36.96
29.01
20.68
11.9
2.47
-7.65
-18.29
-28.97
-39.15
-48.43
-56.81
-64.68
-72.76
-81.89
-92.84
-105.93
-120.73
-135.68
-148.09
-154.68
-152.46
-139.9
-117.59
-88.26
-55.9
-24.47
3.2
25.96
44.07
58.54
70.41
80.26
88.25
94.27
98.24
100.24
100.53
99.43
97.26
94.28
90.72
86.91
83.15
79.68
76.52
73.37
69.76
65.17
59.37
52.42
44.73
36.75
28.78
20.82
12.6
3.81
-5.68
-15.72
-25.91
-35.75
-44.85
-53.07
-60.65
-68.14
-76.35
-86.1
-97.79
-110.97
-123.99
-134.11
-138.15
-133.49
-119.15
-96.28
-67.92
-37.99
-9.99
13.83
32.83
47.5
58.72
67.13
72.89
75.89
76.15
74.11
70.66
66.88
63.68
61.51
60.28
59.47
58.44
56.72
54.17
51
47.56
44.05
40.44
36.34
31.18
24.48
16.05
6.22
-4.35
-14.71
-24.12
-32.16
-38.92
-44.87
-50.77
-57.42
-65.55
-75.61
-87.5
-100.25
-111.92
-119.78
-121.07
-113.87
-97.91
-74.84
-47.73
-20.04
5.35
26.89
44.22
57.71
67.8
74.64
78.18
78.46
75.97
71.63
66.61
61.9
58.01
54.84
51.95
48.86
45.37
41.7
38.27
35.35
32.82
29.99
25.88
19.69
11.08
0.48
-11.11
-22.5
-32.68
-41.23
-48.34
-54.79
-61.71
-70.3
-81.43
-95.16
-110.38
-124.67
-134.73
-137.28
-130.12
-113.09
-88.2
-58.98
-29.42
-2.69
19.56
37.2
51.02
62.01
70.71
77.17
81.14
82.48
81.47
78.79
75.3
71.73
68.4
65.2
61.81
57.93
53.51
48.82
44.29
40.17
36.38
32.37
27.33
20.47
11.39
0.27
-12.1
-24.69
-36.53
-47.07
-56.34
-64.81
-73.26
-82.44
-93.06
-105.58
-120.04
-135.73
-150.87
-162.68
-167.87
-163.71
-149.04
-124.91
-94.33
-61.29
-29.49
-1.39
22.13
41.41
57.29
70.53
81.48
90.2
96.6
100.68
102.58
102.62
101.25
98.94
96.11
93.08
90.02
86.95
83.81
80.47
76.78
72.59
67.73
62.07
55.51
47.99
39.5
30.1
19.87
9
-2.24
-13.54
-24.55
-35.01
-44.8
-54.02
-63.02
-72.38
-82.85
-95.17
-109.6
-125.49
-140.96
-152.98
-158.15
-153.74
-138.8
-114.6
-84.29
-51.84
-20.8
6.62
29.7
48.84
64.78
78.12
89.08
97.63
103.76
107.61
109.49
109.73
108.63
106.4
103.22
99.39
95.34
91.56
88.43
86.01
83.9
81.32
77.42
71.61
63.85
54.67
44.91
35.32
26.24
17.49
8.58
-0.96
-11.26
-21.99
-32.54
-42.28
-50.9
-58.62
-66.14
-74.52
-84.82
-97.68
-112.87
-128.88
-143
-151.79
-152.05
-141.92
-121.66
-93.63
-61.57
-29.44
-0.28
24.3
44.06
59.58
71.57
80.55
86.76
90.41
91.8
91.4
89.75
87.34
84.47
81.4
78.27
75.33
72.81
70.87
69.47
68.22
66.5
63.65
59.2
53.1
45.7
37.56
29.2
20.85
12.45
3.76
-5.42
-15.04
-24.8
-34.26
-43.04
-51
-58.29
-65.37
-72.9
-81.65
-92.14
-104.26
-116.85
-127.64
-133.6
-131.88
-120.83
-100.8
-74.13
-44.45
-15.44
10.14
31.02
47.16
59.17
67.62
72.8
74.81
73.86
70.59
66.06
61.52
57.97
55.83
54.86
54.33
53.4
51.56
48.75
45.38
41.96
38.72
35.42
31.38
25.8
18.16
8.59
-2.17
-13.04
-22.99
-31.5
-38.69
-45.24
-52.05
-59.96
-69.63
-81.26
-94.56
-108.4
-120.77
-128.93
-130.05
-122.2
-105.12
-80.56
-51.74
-22.34
4.62
27.5
45.94
60.36
71.27
78.85
83.04
83.84
81.68
77.47
72.38
67.44
63.14
59.4
55.7
51.53
46.67
41.34
36.1
31.51
27.75
24.47
20.88
16.03
9.23
0.41
-9.92
-20.78
-31.18
-40.51
-48.73
-56.43
-64.55
-74.18
-86.18
-100.86
-117.61
-134.6
-148.94
-157.12
-156.13
-144.43
-122.68
-93.62
-61.21
-29.37
-0.94
22.78
41.83
56.94
68.88
78.07
84.62
88.53
89.98
89.42
87.52
85.06
82.6
80.37
78.23
75.8
72.72
68.85
64.38
59.68
55.07
50.61
45.94
40.42
33.37
24.4
13.57
1.49
-10.97
-22.91
-33.77
-43.41
-52.15
-60.56
-69.32
-79.14
-90.68
-104.36
-119.97
-136.2
-150.48
-159.42
-159.71
-149.4
-128.71
-100.09
-67.42
-34.72
-5.03
20.13
40.63
57.1
70.34
80.89
88.99
94.68
98
99.08
98.23
95.92
92.73
89.24
85.88
82.9
80.32
78
75.7
73.14
70
66.01
60.98
54.85
47.74
39.84
31.31
22.21
12.49
2.13
-8.8
-20.04
-31.2
-41.85
-51.73
-60.79
-69.28
-77.76
-87.05
-98.03
-111.18
-126.11
-141.11
-153.17
-158.69
-154.62
-139.66
-114.89
-83.51
-49.82
-17.77
9.97
32.49
50.22
64.18
75.25
83.89
90.16
94
95.54
95.14
93.34
90.72
87.67
84.47
81.29
78.24
75.46
73.02
70.8
68.5
65.63
61.69
56.42
49.81
42.13
33.78
25.12
16.33
7.42
-1.73
-11.22
-21.02
-30.99
-40.85
-50.3
-59.1
-67.24
-75.06
-83.24
-92.67
-103.99
-117
-130.17
-140.66
-145.03
-140.34
-125.36
-101.12
-70.66
-38.09
-7.25
19.24
40.31
56.13
67.46
75.09
79.53
81.09
80.17
77.39
73.67
69.99
67.11
65.37
64.63
64.39
64.12
63.4
62.02
59.89
57
53.28
48.67
43.15
36.78
29.64
21.78
13.2
3.9
-5.96
-16.07
-25.97
-35.17
-43.42
-50.73
-57.43
-64.14
-71.67
-80.84
-92.22
-105.57
-119.5
-131.4
-137.96
-136.17
-124.48
-103.48
-75.78
-45.21
-15.49
10.73
32.27
49.09
61.67
70.47
75.7
77.55
76.39
73.07
68.74
64.56
61.38
59.46
58.44
57.64
56.36
54.27
51.45
48.37
45.47
42.89
40.25
36.75
31.45
23.73
13.58
1.66
-10.85
-22.76
-33.21
-42.04
-49.68
-57.05
-65.22
-75.17
-87.52
-102.25
-118.42
-133.97
-145.87
-150.77
-145.98
-130.57
-105.83
-75.01
-42.28
-11.4
15.19
36.75
53.75
67.11
77.56
85.34
90.35
92.56
92.2
89.93
86.61
83.11
80
77.43
75.25
73.1
70.6
67.56
63.97
59.92
55.51
50.7
45.25
38.84
31.13
21.93
11.35
-0.21
-12.14
-23.81
-34.75
-44.83
-54.25
-63.45
-73.03
-83.65
-95.93
-110.32
-126.69
-143.99
-159.92
-171.22
-174.47
-167.23
-149.01
-121.65
-88.7
-54.26
-21.76
6.81
30.91
50.93
67.51
81.14
92.01
100.19
105.83
109.19
110.63
110.5
109.13
106.76
103.67
100.14
96.5
92.99
89.72
86.54
83.05
78.77
73.28
66.42
58.34
49.42
40
30.27
20.15
9.46
-1.87
-13.64
-25.4
-36.6
-46.87
-56.21
-65.04
-74.15
-84.5
-96.89
-111.65
-128.2
-144.76
-158.47
-165.86
-163.97
-151.36
-128.75
-98.9
-65.74
-33.13
-3.79
21.05
41.46
58.11
71.7
82.62
91.02
96.94
100.59
102.33
102.6
101.79
100.14
97.81
94.96
91.77
88.54
85.54
82.87
80.31
77.4
73.48
68.05
61.03
52.75
43.89
35.1
26.72
18.61
10.28
1.24
-8.74
-19.41
-30.16
-40.31
-49.45
-57.63
-65.42
-73.68
-83.38
-95.26
-109.45
-125.11
-140.23
-151.86
-156.69
-152.13
-137.2
-113.12
-82.91
-50.54
-19.68
7.19
29.13
46.43
59.89
70.23
77.82
82.75
85.09
85.17
83.63
81.26
78.8
76.66
74.92
73.42
71.9
70.13
68.03
65.57
62.66
59.13
54.71
49.17
42.43
34.61
26.02
16.99
7.78
-1.54
-10.99
-20.62
-30.39
-40.12
-49.54
-58.39
-66.6
-74.32
-82.08
-90.66
-100.94
-113.46
-127.96
-142.89
-155.48
-162.33
-160.53
-148.76
-127.94
-101.04
-72.09
-44.91
-22.09
-4.72
7.22
14.26
17.15
16.97
15.41
14.76
17.38
24.82
37.1
52.58
68.65
82.79
93.46
100.29
103.77
104.55
103.03
99.42
94.05
87.7
81.46
76.4
73.04
71.18
70.02
68.53
65.97
62.12
57.3
51.99
46.59
41.08
35.04
27.9
19.23
9.05
-2.09
-13.34
-23.86
-33.18
-41.37
-49
-56.92
-66.04
-77.08
-90.29
-105.16
-120.12
-132.63
-139.61
-138.34
-127.48
-107.64
-81.37
-52.24
-23.79
1.53
22.7
39.82
53.48
64.18
72.1
77.17
79.46
79.36
77.56
74.92
72.22
69.97
68.33
67.16
66.09
64.7
62.6
59.57
55.64
50.96
45.76
40.14
33.97
26.96
18.84
9.49
-0.89
-11.83
-22.76
-33.19
-42.84
-51.71
-60
-68.1
-76.62
-86.31
-97.93
-111.85
-127.61
-143.46
-156.52
-163.34
-161.03
-148.27
-125.95
-96.86
-64.83
-33.47
-5.24
18.85
38.92
55.64
69.58
81.06
90.15
96.92
101.55
104.38
105.75
105.91
104.96
102.95
99.97
96.3
92.34
88.59
85.36
82.68
80.16
77.06
72.61
66.29
58.08
48.57
38.7
29.37
21.03
13.45
5.87
-2.63
-12.6
-23.89
-35.76
-47.14
-57.21
-65.76
-73.31
-80.89
-89.76
-100.96
-114.94
-131.2
-147.97
-162.37
-170.91
-170.5
-159.5
-138.34
-109.56
-76.91
-44.2
-14.19
11.77
33.63
51.97
67.38
80.18
90.4
98.02
103.18
106.21
107.59
107.7
106.82
105.05
102.44
99.18
95.58
92.12
89.23
87.09
85.5
83.9
81.52
77.63
71.85
64.23
55.3
45.79
36.5
27.96
20.32
13.31
6.4
-1.02
-9.33
-18.55
-28.32
-38
-47
-54.98
-62.11
-68.98
-76.55
-85.82
-97.6
-112.12
-128.72
-145.58
-159.83
-168.05
-167.27
-155.87
-134.4
-105.46
-72.93
-40.74
-11.79
12.59
32.44
48.54
61.72
72.42
80.73
86.6
90.14
91.74
91.95
91.39
90.45
89.26
87.75
85.83
83.49
80.91
78.36
76.03
73.9
71.61
68.62
64.37
58.55
51.19
42.74
33.85
25.2
17.28
10.23
3.83
-2.48
-9.32
-17.19
-26.19
-36.01
-45.95
-55.16
-63.03
-69.4
-74.67
-79.78
-85.93
-94.26
-105.49
-119.45
-134.81
-148.96
-158.53
-160.21
-151.83
-133.23
-106.4
-74.88
-42.65
-12.99
12.18
32.32
47.78
59.25
67.33
72.47
75.12
75.82
75.25
74.09
72.85
71.78
70.82
69.74
68.37
66.73
65.09
63.83
63.14
62.83
62.25
60.51
56.84
51
43.37
34.87
26.51
19.04
12.63
6.86
0.95
-5.84
-13.86
-22.91
-32.31
-41.21
-48.9
-55.18
-60.45
-65.56
-71.68
-79.86
-90.66
-103.72
-117.45
-129.13
-135.45
-133.55
-121.96
-101.34
-74.28
-44.56
-15.92
8.97
28.92
44.07
55.16
62.94
67.84
70.05
69.75
67.38
63.68
59.53
55.73
52.82
50.94
49.93
49.43
49.05
48.44
47.36
45.65
43.23
40.05
36.08
31.28
25.67
19.24
12.07
4.19
-4.27
-13.15
-22.23
-31.19
-39.77
-47.76
-55.15
-62.19
-69.46
-77.77
-87.88
-100.13
-113.82
-126.96
-136.51
-139.14
-132.44
-115.86
-91.09
-61.51
-31.13
-3.3
19.97
38.18
51.84
61.81
68.73
72.97
74.71
74.21
71.97
68.7
65.22
62.2
60.01
58.65
57.84
57.1
56
54.24
51.72
48.44
44.49
39.89
34.56
28.28
20.8
12
1.96
-8.97
-20.24
-31.29
-41.74
-51.48
-60.63
-69.5
-78.5
-88.13
-98.99
-111.63
-126.05
-141.3
-155.1
-164.2
-165.27
-156.06
-136.42
-108.47
-75.92
-42.84
-12.5
13.36
34.38
51.1
64.31
74.61
82.41
87.98
91.59
93.56
94.17
93.69
92.3
90.21
87.64
84.94
82.41
80.3
78.64
77.16
75.31
72.41
67.91
61.59
53.71
44.83
35.59
26.34
17.07
7.47
-2.83
-13.91
-25.52
-37.07
-47.98
-57.9
-66.97
-75.77
-85.23
-96.38
-110.02
-126.27
-144.04
-160.9
-173.36
-177.75
-171.45
-153.87
-126.8
-93.85
-59.22
-26.44
2.38
26.65
46.76
63.39
77.11
88.2
96.82
103.12
107.31
109.68
110.48
109.93
108.24
105.66
102.53
99.27
96.34
94.07
92.47
91.12
89.25
85.93
80.45
72.64
62.94
52.29
41.77
32.17
23.68
15.89
7.98
-0.89
-11.16
-22.69
-34.77
-46.48
-57.06
-66.23
-74.41
-82.6
-92.06
-103.92
-118.65
-135.43
-152.08
-165.16
-170.87
-166.24
-150.2
-124.14
-91.44
-56.42
-22.96
6.49
31.1
51.27
67.77
81.21
91.8
99.51
104.44
107
107.88
107.79
107.22
106.28
104.77
102.46
99.33
95.72
92.2
89.32
87.19
85.39
82.98
78.96
72.65
64.09
54.08
43.8
34.38
26.33
19.33
12.46
4.67
-4.72
-15.66
-27.43
-38.99
-49.39
-58.2
-65.59
-72.3
-79.35
-87.9
-98.9
-112.67
-128.53
-144.47
-157.29
-163.36
-159.69
-145.05
-120.54
-89.25
-55.33
-22.65
6.1
29.81
48.57
63.1
74.09
82.02
87.17
89.86
90.58
90
88.76
87.36
85.98
84.53
82.85
80.88
78.82
77.02
75.75
74.98
74.2
72.54
69.13
63.46
55.69
46.59
37.28
28.72
21.3
14.73
8.2
0.84
-7.81
-17.55
-27.63
-37.09
-45.2
-51.83
-57.49
-63.2
-70.13
-79.3
-91.13
-105.07
-119.42
-131.44
-137.85
-135.86
-124.11
-103.32
-76.14
-46.33
-17.58
7.48
27.68
43.08
54.31
62.01
66.54
68.1
66.99
63.82
59.49
55.06
51.44
49.13
48.19
48.21
48.57
48.65
48.03
46.58
44.37
41.58
38.29
34.44
29.86
24.3
17.64
9.89
1.27
-7.88
-17.16
-26.18
-34.62
-42.32
-49.3
-55.79
-62.3
-69.52
-78.25
-89.02
-101.69
-115.03
-126.69
-133.57
-132.78
-122.65
-103.43
-77.36
-47.92
-18.76
7.34
28.96
45.93
58.71
67.83
73.62
76.25
75.98
73.41
69.5
65.31
61.73
59.23
57.7
56.64
55.42
53.53
50.85
47.59
44.14
40.82
37.6
34.05
29.46
23.17
14.85
4.74
-6.41
-17.58
-27.87
-36.81
-44.51
-51.56
-58.93
-67.61
-78.36
-91.4
-106.07
-120.66
-132.46
-138.35
-135.68
-123.18
-101.55
-73.36
-42.26
-11.89
15.06
37.31
54.77
68.08
77.95
84.94
89.38
91.55
91.81
90.65
88.63
86.19
83.64
81.04
78.34
75.4
72.08
68.31
64.01
59.15
53.74
47.82
41.4
34.5
26.99
18.68
9.34
-1.12
-12.51
-24.33
-35.88
-46.51
-55.88
-64.16
-71.97
-80.23
-89.97
-101.97
-116.46
-132.73
-148.93
-162.16
-169.07
-166.83
-154.14
-131.78
-102.47
-69.97
-37.91
-8.87
15.97
36.59
53.56
67.52
78.94
88.06
95.08
100.15
103.41
104.99
104.96
103.43
100.6
96.85
92.71
88.74
85.39
82.78
80.57
78.09
74.48
69.08
61.66
52.58
42.57
32.46
22.78
13.6
4.54
-4.94
-15.23
-26.33
-37.82
-49.09
-59.51
-68.82
-77.13
-85.07
-93.59
-103.85
-116.75
-132.35
-149.47
-165.36
-176.27
-178.41
-169.32
-148.84
-119.28
-84.72
-49.56
-17.23
10.53
33.61
52.82
69.06
82.83
94.19
103.02
109.31
113.33
115.5
116.21
115.69
113.99
111.12
107.24
102.72
98.21
94.29
91.27
88.95
86.56
83.08
77.57
69.68
59.74
48.74
37.91
28.17
19.85
12.47
5.11
-3.26
-13.19
-24.56
-36.6
-48.2
-58.43
-66.87
-73.84
-80.32
-87.68
-97.26
-109.96
-125.7
-143.03
-159.09
-170.09
-172.39
-163.63
-143.7
-114.86
-81.01
-46.47
-14.63
12.57
34.77
52.48
66.49
77.35
85.35
90.7
93.7
94.84
94.73
93.89
92.67
91.15
89.27
86.99
84.42
81.83
79.57
77.79
76.36
74.7
72.05
67.72
61.33
53.08
43.68
34.13
25.26
17.48
10.55
3.71
-3.85
-12.71
-22.76
-33.37
-43.59
-52.65
-60.25
-66.75
-72.95
-79.95
-88.76
-100.01
-113.57
-128.17
-141.38
-149.95
-150.64
-141.38
-122.04
-94.69
-62.96
-30.88
-1.74
22.64
41.84
56.39
67.1
74.61
79.29
81.44
81.43
79.8
77.19
74.2
71.25
68.56
66.2
64.17
62.49
61.14
60.01
58.81
57.11
54.41
50.37
44.9
38.25
30.9
23.32
15.78
8.24
0.39
-8.09
-17.34
-27.14
-36.94
-46.13
-54.22
-61.16
-67.34
-73.64
-81.12
-90.69
-102.58
-115.86
-128.35
-136.86
-138.12
-129.91
-111.91
-85.97
-55.54
-24.58
3.67
27.32
45.89
59.83
69.81
76.34
79.7
80.15
78.24
74.83
70.95
67.56
65.24
64.03
63.54
63.18
62.4
60.85
58.49
55.45
51.92
48.05
43.82
39.06
33.45
26.65
18.46
8.92
-1.58
-12.36
-22.69
-32.07
-40.33
-47.78
-55.03
-62.86
-72.02
-83.12
-96.29
-110.9
-125.27
-136.68
-141.98
-138.47
-125.01
-102.48
-73.69
-42.45
-12.45
13.74
34.97
51.33
63.56
72.44
78.51
81.99
83.03
81.84
78.88
74.84
70.5
66.6
63.54
61.37
59.77
58.22
56.22
53.45
49.82
45.43
40.48
35.04
29.05
22.29
14.44
5.31
-5.08
-16.37
-28
-39.33
-49.87
-59.5
-68.44
-77.24
-86.62
-97.37
-110.11
-124.98
-141.2
-156.88
-169.08
-174.42
-170.13
-155.04
-130.14
-98.35
-63.64
-29.83
0.42
25.86
46.49
62.98
76.03
86.19
93.8
99.16
102.59
104.48
105.11
104.65
103.1
100.49
96.97
92.97
89.08
85.83
83.41
81.52
79.39
76.11
70.97
63.77
54.91
45.24
35.61
26.6
18.18
9.85
0.9
-9.24
-20.64
-32.81
-44.88
-56.02
-65.72
-74.11
-81.95
-90.44
-100.9
-114.24
-130.38
-147.79
-163.49
-173.54
-174.22
-163.32
-141.03
-110.01
-74.53
-39.01
-6.79
20.54
42.95
61.22
76.17
88.27
97.57
104.09
108.04
109.94
110.43
110.05
109.06
107.41
104.95
101.64
97.75
93.78
90.32
87.63
85.54
83.31
79.99
74.78
67.39
58.19
48.06
38.04
28.9
20.82
13.37
5.7
-2.99
-13.1
-24.4
-36.14
-47.34
-57.25
-65.63
-72.88
-79.92
-87.98
-98.28
-111.54
-127.49
-144.48
-159.42
-168.44
-167.96
-156.07
-133.22
-102.25
-67.41
-32.96
-2.07
23.76
44.39
60.43
72.61
81.47
87.38
90.75
92.09
91.97
90.94
89.34
87.4
85.17
82.73
80.16
77.68
75.5
73.77
72.37
70.86
68.54
64.67
58.84
51.17
42.35
33.34
24.96
17.54
10.74
3.78
-4.13
-13.37
-23.73
-34.48
-44.73
-53.77
-61.45
-68.16
-74.84
-82.71
-92.81
-105.59
-120.28
-134.69
-145.46
-148.88
-142.15
-124.51
-97.64
-65.22
-31.73
-1.06
24.42
44.03
58.31
68.22
74.54
77.76
78.16
76.19
72.59
68.32
64.34
61.36
59.63
58.98
58.91
58.85
58.35
57.19
55.33
52.84
49.77
46.1
41.73
36.52
30.36
23.18
15.01
5.95
-3.68
-13.48
-22.95
-31.7
-39.54
-46.61
-53.37
-60.46
-68.65
-78.61
-90.7
-104.47
-118.38
-129.77
-135.39
-132.38
-119.38
-97.2
-68.66
-37.68
-8.02
17.74
38.55
54.51
66.1
73.67
77.3
77.1
73.65
68.12
62.08
56.93
53.48
51.6
50.55
49.38
47.49
44.88
42.12
39.86
38.42
37.46
36.03
32.97
27.33
18.81
7.96
-4.09
-15.92
-26.42
-35.14
-42.38
-49.08
-56.48
-65.77
-77.69
-92.28
-108.4
-123.7
-134.88
-138.45
-131.97
-114.95
-89.28
-58.65
-27.4
0.94
24.37
42.53
56.04
65.71
72.04
75.18
75.32
72.98
69.16
65.03
61.58
59.27
57.89
56.78
55.19
52.65
49.2
45.3
41.55
38.28
35.33
31.96
27.18
20.1
10.37
-1.65
-14.94
-28.22
-40.37
-50.88
-59.97
-68.53
-77.87
-89.25
-103.52
-120.63
-139.22
-156.56
-168.94
-172.64
-165.14
-146.12
-117.72
-83.91
-49.17
-17.14
10.2
32.54
50.59
65.33
77.41
87.02
94.09
98.54
100.51
100.36
98.63
95.9
92.72
89.43
86.2
82.99
79.64
75.99
71.96
67.61
62.99
58.1
52.71
46.43
38.77
29.39
18.3
5.92
-6.98
-19.57
-31.22
-41.72
-51.32
-60.55
-70.1
-80.65
-92.83
-107.08
-123.31
-140.46
-156.22
-167.27
-170.08
-162.11
-142.88
-114.35
-80.23
-44.84
-11.77
16.93
40.75
60.18
75.96
88.64
98.51
105.68
110.33
112.74
113.27
112.25
109.97
106.69
102.75
98.56
94.62
91.28
88.68
86.59
84.47
81.6
77.31
71.23
63.43
54.43
44.93
35.61
26.73
18.09
9.16
-0.68
-11.69
-23.61
-35.74
-47.21
-57.4
-66.23
-74.24
-82.46
-92.15
-104.35
-119.36
-136.28
-152.7
-165.02
-169.33
-162.74
-144.53
-116.5
-82.52
-47.14
-14.19
14.11
37.27
55.87
70.81
82.65
91.63
97.79
101.33
102.75
102.68
101.71
100.19
98.22
95.76
92.88
89.85
87.12
85.12
83.89
83.01
81.57
78.56
73.25
65.6
56.22
46.16
36.46
27.7
19.85
12.34
4.42
-4.51
-14.56
-25.32
-36.03
-45.9
-54.45
-61.72
-68.28
-75.13
-83.49
-94.35
-107.96
-123.4
-138.29
-149.18
-152.39
-145.27
-127.24
-100.13
-67.61
-34.04
-3.1
23.03
43.75
59.53
71.19
79.41
84.57
86.95
86.9
85.04
82.13
78.94
76.04
73.76
72.11
70.93
69.97
69
67.8
66.16
63.8
60.42
55.8
49.87
42.84
35.07
26.94
18.69
10.34
1.71
-7.31
-16.71
-26.21
-35.38
-43.82
-51.3
-57.96
-64.28
-71.05
-79.27
-89.71
-102.53
-116.7
-129.91
-138.79
-139.97
-131.2
-112.31
-85.45
-54.44
-23.46
4.21
26.83
44.22
57.08
66.18
71.92
74.34
73.51
69.91
64.61
59.01
54.43
51.62
50.56
50.6
50.74
50.18
48.55
46.02
43.01
39.93
36.86
33.46
29.1
23.16
15.31
5.69
-5.07
-16.11
-26.6
-36.04
-44.35
-51.85
-59.07
-66.66
-75.29
-85.58
-97.89
-111.92
-126.23
-138.26
-144.69
-142.5
-130.11
-108.19
-79.49
-48.01
-17.63
8.96
30.7
47.81
61.01
70.9
77.64
81.15
81.56
79.37
75.6
71.37
67.55
64.51
62.03
59.59
56.65
53.05
48.98
44.9
41.21
37.96
34.72
30.71
25.08
17.24
7.09
-4.87
-17.71
-30.35
-41.89
-51.89
-60.49
-68.3
-76.28
-85.51
-96.89
-110.83
-126.81
-143.12
-156.82
-164.39
-162.68
-150.06
-127.13
-96.57
-62.38
-28.57
1.86
27.44
48.03
64.27
77.03
86.98
94.56
99.99
103.44
105.04
104.91
103.25
100.31
96.49
92.24
88.05
84.31
81.19
78.58
76.05
73.03
68.97
63.59
56.9
49.22
40.88
32.08
22.78
12.72
1.72
-10.19
-22.67
-35.16
-47.07
-57.99
-67.88
-77.13
-86.54
-97.19
-110.19
-126.04
-144.11
-162.21
-176.72
-183.57
-179.51
-163.39
-136.7
-103.07
-67.01
-32.49
-1.99
23.74
45.04
62.73
77.43
89.49
99.04
106.23
111.31
114.55
116.15
116.27
114.98
112.39
108.73
104.41
99.93
95.83
92.42
89.64
86.96
83.5
78.39
71.09
61.73
51.03
40.08
29.82
20.61
12.15
3.6
-5.94
-16.96
-29.26
-42.02
-54.17
-64.87
-73.89
-81.66
-89.19
-97.76
-108.55
-122.28
-138.68
-156.17
-171.74
-181.49
-181.68
-170.07
-146.88
-114.83
-78.29
-41.78
-8.63
19.61
42.94
62.12
77.91
90.62
100.25
106.81
110.59
112.22
112.45
111.9
110.87
109.34
107.11
104.08
100.41
96.51
92.95
90.1
87.93
85.86
82.96
78.34
71.48
62.52
52.18
41.49
31.39
22.32
14.11
6.13
-2.42
-12.1
-22.94
-34.49
-45.91
-56.37
-65.35
-72.89
-79.53
-86.25
-94.26
-104.62
-117.92
-133.77
-150.42
-164.81
-173.12
-171.86
-159.14
-135.47
-103.68
-68.07
-32.99
-1.69
24.33
45.02
61.12
73.43
82.41
88.3
91.35
92.12
91.42
90.09
88.76
87.66
86.67
85.51
84.05
82.38
80.8
79.5
78.37
76.92
74.36
70.02
63.61
55.41
46.24
37.03
28.49
20.77
13.5
5.96
-2.5
-12.11
-22.58
-33.18
-43.09
-51.72
-58.96
-65.29
-71.64
-79.19
-89
-101.48
-115.94
-130.34
-141.42
-145.6
-140.03
-123.76
-98.19
-66.73
-33.7
-3
22.85
43.07
58.06
68.75
75.87
79.72
80.43
78.24
73.9
68.52
63.39
59.48
57.25
56.48
56.53
56.63
56.13
54.72
52.4
49.32
45.63
41.34
36.32
30.3
23.03
14.38
4.45
-6.39
-17.56
-28.4
-38.4
-47.29
-55.17
-62.41
-69.61
-77.49
-86.83
-98.16
-111.39
-125.32
-137.55
-144.79
-143.86
-132.81
-111.85
-83.41
-51.43
-20.04
7.64
30.15
47.47
60.4
69.74
76.01
79.37
80
78.3
75.05
71.17
67.49
64.52
62.32
60.59
58.86
56.71
53.9
50.47
46.63
42.61
38.49
34.09
28.91
22.37
14.01
3.72
-8.06
-20.52
-32.68
-43.77
-53.45
-61.96
-69.95
-78.32
-87.98
-99.7
-113.8
-129.74
-145.88
-159.34
-166.62
-164.55
-151.5
-128.03
-96.94
-62.3
-28.22
2.28
27.82
48.39
64.77
77.88
88.32
96.37
102.07
105.46
106.62
105.82
103.45
100.06
96.26
92.61
89.5
87.03
85.01
83
80.39
76.66
71.52
64.99
57.36
49.01
40.2
30.96
21.07
10.29
-1.45
-13.89
-26.52
-38.69
-49.92
-60.04
-69.25
-78.11
-87.43
-98.22
-111.38
-127.2
-144.87
-162.08
-175.24
-180.4
-174.56
-156.82
-128.89
-94.48
-58.09
-23.59
6.69
32
52.71
69.53
83
93.42
100.99
106.01
108.94
110.32
110.53
109.79
108.12
105.49
101.97
97.91
93.86
90.44
88.05
86.58
85.33
83.2
79.05
72.24
62.91
51.97
40.7
30.24
21.13
13.07
5.18
-3.58
-13.86
-25.63
-38.13
-50.25
-60.99
-69.92
-77.33
-84.2
-91.89
-101.75
-114.72
-130.76
-148.48
-165.07
-176.65
-179.35
-170.52
-149.84
-119.51
-83.62
-46.78
-12.79
16.26
39.92
58.85
73.97
85.94
95.07
101.43
105.21
106.81
106.83
105.88
104.41
102.58
100.37
97.69
94.64
91.56
88.94
87.16
86.16
85.34
83.73
80.34
74.57
66.55
57.07
47.32
38.38
30.82
24.47
18.55
11.96
3.89
-5.86
-16.67
-27.44
-37.02
-44.83
-51.17
-57.18
-64.44
-74.49
-88.31
-105.95
-126.23
-146.64
-163.61
-173.21
-172.18
-159.03
-134.72
-102.41
-66.59
-31.66
-0.83
24.36
43.79
58.09
68.06
74.33
77.37
77.72
76.06
73.15
69.74
66.4
63.49
61.19
59.49
58.35
57.61
57.03
56.31
55.02
52.81
49.35
44.61
38.74
32.06
24.87
17.35
9.49
1.17
-7.7
-17.05
-26.65
-36.16
-45.24
-53.7
-61.58
-69.17
-77.08
-86.13
-97.14
-110.35
-124.9
-138.55
-147.93
-149.56
-141.03
-122.07
-94.7
-62.64
-30.03
-0.27
24.7
44.37
59.08
69.49
76.11
79.37
79.72
77.8
74.49
70.73
67.34
64.85
63.36
62.66
62.37
62.1
61.55
60.55
58.93
56.48
52.92
48.06
41.87
34.58
26.6
18.27
9.75
0.92
-8.46
-18.54
-29.24
-40.16
-50.81
-60.75
-69.83
-78.28
-86.69
-95.93
-106.97
-120.48
-136.24
-152.71
-166.87
-174.88
-173.18
-159.88
-135.61
-103.4
-67.71
-32.91
-2.11
23.45
43.97
60.4
73.65
84.24
92.34
98.04
101.57
103.32
103.72
103.11
101.66
99.42
96.52
93.25
90.04
87.37
85.42
84.01
82.44
79.83
75.41
68.88
60.52
51.08
41.42
32.15
23.32
14.49
4.96
-5.78
-17.79
-30.56
-43.24
-54.96
-65.26
-74.28
-82.76
-91.88
-102.9
-116.73
-133.33
-151.3
-167.74
-178.79
-180.71
-171.17
-150.15
-120.1
-85.08
-49.49
-16.75
11.34
34.46
53.21
68.35
80.42
89.64
96.18
100.33
102.56
103.37
103.22
102.32
100.71
98.44
95.72
92.98
90.73
89.34
88.7
88.17
86.76
83.44
77.62
69.38
59.46
48.96
38.9
29.81
21.6
13.64
5.12
-4.58
-15.54
-27.35
-39.22
-50.37
-60.32
-69.17
-77.52
-86.39
-96.94
-110.03
-125.67
-142.6
-158.12
-168.61
-170.45
-161.3
-141.02
-111.84
-77.68
-42.87
-10.94
16.15
37.93
54.92
67.96
77.7
84.56
88.84
90.94
91.36
90.64
89.3
87.65
85.89
84.14
82.49
81.07
79.96
79.11
78.3
77.06
74.83
71.09
65.59
58.44
50.07
41.11
32.05
23.14
14.2
4.89
-5.07
-15.73
-26.7
-37.4
-47.28
-56.11
-64.12
-72.03
-80.87
-91.6
-104.62
-119.24
-133.43
-144.02
-147.54
-141.3
-124.55
-98.8
-67.45
-34.66
-4.07
22.05
42.96
58.98
70.8
78.93
83.64
85.12
83.79
80.44
76.17
72.08
69.02
67.31
66.71
66.58
66.18
65.01
62.9
60.05
56.75
53.21
49.34
44.78
39.02
31.69
22.73
12.51
1.69
-9.03
-19.06
-28.22
-36.62
-44.62
-52.74
-61.6
-71.85
-84.06
-98.41
-114.13
-129.24
-140.71
-145.14
-139.95
-124.31
-99.68
-69.27
-37.13
-6.86
19.23
40.35
56.79
69.31
78.6
84.98
88.56
89.46
88.03
84.95
81.08
77.25
73.97
71.45
69.53
67.89
66.23
64.31
61.95
58.94
55.04
50.05
43.88
36.64
28.59
20
10.99
1.5
-8.61
-19.4
-30.71
-42.14
-53.18
-63.47
-72.91
-81.79
-90.77
-100.79
-112.78
-127.24
-143.69
-160.27
-173.81
-180.47
-176.99
-161.9
-136.15
-102.96
-66.75
-31.7
-0.71
25.05
45.82
62.5
75.97
86.8
95.24
101.38
105.42
107.64
108.33
107.79
106.19
103.7
100.53
97.06
93.72
90.88
88.63
86.62
84.15
80.35
74.59
66.75
57.25
46.97
36.84
27.47
18.92
10.7
2.02
-7.77
-18.89
-30.95
-43.13
-54.52
-64.55
-73.25
-81.33
-89.96
-100.46
-113.74
-129.81
-147.27
-163.37
-174.37
-176.63
-167.83
-147.86
-119
-85.2
-50.8
-19.19
7.82
29.94
47.81
62.24
73.77
82.63
88.98
93.13
95.64
97.13
98.12
98.8
99.08
98.73
97.55
95.62
93.24
90.9
88.93
87.32
85.55
82.77
78.16
71.28
62.39
52.3
42.12
32.73
24.46
16.95
9.35
0.77
-9.31
-20.77
-32.88
-44.62
-55.09
-63.92
-71.39
-78.38
-86.12
-95.82
-108.31
-123.59
-140.45
-156.39
-167.96
-171.59
-164.77
-146.91
-119.8
-86.98
-52.67
-20.52
7.25
29.96
47.94
61.97
72.67
80.44
85.56
88.38
89.34
88.95
87.62
85.68
83.33
80.8
78.34
76.25
74.78
73.98
73.62
73.13
71.77
68.81
63.87
57.08
49.06
40.69
32.71
25.38
18.39
11.09
2.84
-6.57
-16.8
-27.08
-36.62
-44.96
-52.16
-58.8
-65.79
-74.1
-84.49
-97.15
-111.35
-125.17
-135.68
-139.58
-134.28
-118.89
-94.67
-64.8
-33.34
-3.97
20.9
40.42
54.96
65.39
72.5
76.75
78.4
77.79
75.48
72.24
68.88
66.01
63.91
62.54
61.7
61.1
60.56
59.84
58.69
56.76
53.69
49.27
43.54
36.78
29.4
21.73
13.88
5.7
-3.03
-12.43
-22.4
-32.54
-42.31
-51.27
-59.24
-66.43
-73.46
-81.24
-90.82
-102.96
-117.68
-133.66
-148.21
-157.7
-158.57
-148.63
-127.94
-98.97
-65.75
-32.61
-2.85
21.85
41.34
56.34
67.73
76.13
81.89
85.23
86.55
86.37
85.27
83.69
81.86
79.78
77.41
74.79
72.17
69.89
68.19
66.92
65.51
63.04
58.67
52.04
43.52
34.02
24.64
16.09
8.41
0.96
-7.14
-16.57
-27.39
-39.03
-50.56
-61.1
-70.2
-77.99
-85.14
-92.69
-101.83
-113.48
-127.83
-143.89
-159.26
-170.41
-173.63
-166.22
-147.61
-119.65
-86.08
-51.28
-18.93
8.82
31.46
49.57
64.06
75.64
84.63
91.19
95.47
97.75
98.45
97.97
96.58
94.48
91.8
88.78
85.75
83.11
81.11
79.71
78.44
76.54
73.17
67.79
60.41
51.59
42.18
32.99
24.41
16.26
8.02
-0.94
-10.92
-21.78
-32.96
-43.77
-53.69
-62.58
-70.77
-79.06
-88.46
-99.99
-114.07
-130.06
-145.87
-158.17
-163.24
-158.16
-142.01
-116.35
-84.79
-51.72
-20.93
5.33
26.59
43.5
57.07
68.02
76.54
82.54
86.03
87.2
86.58
84.82
82.53
80.17
77.95
75.92
74.03
72.15
70.12
67.81
65.07
61.75
57.7
52.82
47
40.18
32.38
23.62
14.05
3.9
-6.51
-16.78
-26.55
-35.58
-43.85
-51.62
-59.42
-68.02
-78.25
-90.57
-104.73
-119.33
-131.86
-139.18
-138.48
-128.25
-108.95
-82.93
-53.71
-24.79
1.24
23.13
40.79
54.63
65.05
72.15
75.92
76.59
74.83
71.72
68.42
65.77
64
62.81
61.56
59.73
57.11
53.98
50.83
48.08
45.72
43.24
39.71
34.14
25.97
15.28
2.92
-9.83
-21.74
-32.07
-40.84
-48.71
-56.75
-66.05
-77.43
-91.19
-106.79
-122.61
-136.01
-143.78
-143.04
-132.23
-111.85
-84.39
-53.54
-23.06
4.32
27.31
45.87
60.63
72.23
80.99
86.94
90.06
90.51
88.81
85.78
82.31
79.17
76.74
74.9
73.18
70.99
67.94
64.03
59.61
55.12
50.74
46.18
40.72
33.55
24.13
12.55
-0.48
-13.86
-26.54
-37.89
-47.89
-57.05
-66.14
-75.99
-87.3
-100.6
-115.97
-132.73
-149.15
-162.42
-169.23
-166.73
-153.62
-130.71
-100.78
-67.68
-35.05
-5.44
20.02
41.35
59.1
73.86
85.97
95.57
102.74
107.57
110.21
110.92
110.02
107.92
105.1
102.01
99.03
96.32
93.88
91.47
88.7
85.1
80.29
74.04
66.44
57.86
48.81
39.69
30.65
21.49
11.88
1.5
-9.7
-21.43
-33.21
-44.6
-55.36
-65.67
-76.09
-87.45
-100.65
-116.17
-133.59
-151.17
-165.92
-174.22
-172.94
-160.56
-137.86
-107.68
-73.98
-40.59
-10.17
16.06
38.08
56.42
71.54
83.63
92.74
98.9
102.44
103.92
103.99
103.26
102.06
100.47
98.36
95.64
92.43
89.09
86.12
83.88
82.3
80.81
78.44
74.26
67.81
59.3
49.6
39.82
30.84
22.9
15.54
7.87
-0.92
-11.15
-22.46
-33.96
-44.69
-54
-61.87
-68.88
-76.01
-84.35
-94.79
-107.75
-122.9
-138.85
-153.08
-162.37
-163.57
-154.67
-135.61
-108.48
-76.85
-44.67
-15.1
10.13
30.67
47.02
59.84
69.55
76.34
80.33
81.8
81.27
79.41
76.89
74.27
71.91
70
68.62
67.7
67.07
66.46
65.49
63.74
60.87
56.62
51.03
44.34
36.91
29.12
21.15
12.94
4.26
-5.12
-15.26
-25.89
-36.46
-46.34
-55.11
-62.8
-69.96
-77.58
-86.82
-98.45
-112.4
-127.31
-140.61
-148.97
-149.37
-140.03
-121.12
-94.77
-64.41
-33.68
-5.49
18.52
37.96
53.18
64.83
73.45
79.43
83.06
84.64
84.57
83.28
81.21
78.7
75.98
73.23
70.58
68.19
66.17
64.5
62.92
60.91
57.82
53.08
46.47
38.24
28.96
19.35
9.91
0.75
-8.42
-18.02
-28.36
-39.41
-50.75
-61.72
-71.7
-80.34
-87.72
-94.48
-101.66
-110.48
-121.87
-135.87
-151.12
-164.89
-173.57
-173.85
-163.81
-143.66
-115.66
-83.26
-50.01
-18.61
9.46
33.73
54.28
71.34
85.11
95.8
103.71
109.27
112.93
115.11
116.09
116
114.95
113.02
110.34
107.16
103.81
100.61
97.8
95.32
92.81
89.6
84.97
78.39
69.81
59.75
49.11
38.85
29.56
21.28
13.45
5.21
-4.14
-14.89
-26.72
-38.86
-50.39
-60.64
-69.42
-77.13
-84.65
-93.17
-103.8
-117.24
-133.25
-150.3
-165.6
-175.59
-176.93
-167.57
-147.57
-119.1
-85.77
-51.48
-19.36
8.81
32.56
52.2
68.29
81.23
91.22
98.42
103.06
105.54
106.39
106.14
105.19
103.77
101.92
99.64
96.98
94.11
91.31
88.81
86.63
84.47
81.72
77.69
71.86
64.1
54.77
44.6
34.48
25.08
16.64
8.91
1.24
-7.11
-16.57
-27.07
-38.06
-48.7
-58.31
-66.63
-73.98
-81.06
-88.83
-98.19
-109.81
-123.81
-139.34
-154.37
-165.81
-170.19
-164.76
-148.56
-122.91
-91.09
-57.22
-25.03
3.07
26.11
44.27
58.12
68.27
75.13
79.06
80.51
80.05
78.3
75.86
73.17
70.56
68.24
66.35
64.95
63.97
63.21
62.35
60.97
58.68
55.16
50.34
44.32
37.38
29.88
22.08
14.08
5.8
-2.92
-12.19
-21.92
-31.8
-41.29
-49.92
-57.45
-64.08
-70.54
-77.91
-87.18
-98.72
-111.73
-124.08
-132.7
-134.44
-127.17
-110.59
-86.4
-57.8
-28.39
-1.13
22.27
41.35
56.39
67.84
75.9
80.59
81.95
80.43
76.92
72.61
68.64
65.71
63.91
62.86
61.91
60.49
58.33
55.51
52.32
49.07
45.88
42.52
38.47
33.09
25.9
16.79
6.14
-5.28
-16.63
-27.26
-36.92
-45.74
-54.17
-62.74
-72.11
-82.9
-95.57
-109.96
-124.9
-138.02
-146.15
-146.22
-136.36
-116.72
-89.51
-58.31
-26.91
1.7
25.87
45.2
60.08
71.18
79.1
84.3
87.17
88.1
87.51
85.79
83.33
80.41
77.31
74.23
71.39
68.91
66.79
64.85
62.75
60.02
56.25
51.25
45.07
38.02
30.43
22.48
14.14
5.17
-4.62
-15.24
-26.37
-37.46
-47.95
-57.49
-66.16
-74.44
-83.19
-93.46
-106.1
-121.38
-138.44
-155.11
-168.05
-173.63
-169
-153.17
-127.44
-95.11
-60.31
-26.83
2.81
27.61
47.72
63.83
76.62
86.55
93.9
98.95
102.03
103.55
103.82
103.05
101.29
98.58
95.09
91.2
87.41
84.18
81.64
79.47
76.96
73.29
67.84
60.49
51.67
42.15
32.72
23.8
15.33
6.82
-2.34
-12.55
-23.73
-35.39
-46.77
-57.21
-66.39
-74.51
-82.33
-90.97
-101.6
-114.94
-130.72
-147.26
-161.53
-169.8
-168.75
-156.63
-133.98
-103.48
-69.14
-34.97
-4.01
22.21
43.45
60.22
73.21
82.93
89.81
94.22
96.61
97.48
97.28
96.33
94.8
92.75
90.26
87.51
84.74
82.25
80.23
78.58
76.87
74.41
70.45
64.56
56.85
47.95
38.82
30.26
22.62
15.59
8.45
0.41
-8.93
-19.4
-30.32
-40.79
-50.1
-58
-64.84
-71.52
-79.23
-89.13
-101.74
-116.51
-131.52
-143.61
-149.21
-145.41
-131.06
-107.25
-77.08
-44.57
-13.54
13.39
35.12
51.71
63.84
72.2
77.29
79.4
78.92
76.43
72.74
68.79
65.37
62.97
61.66
61.17
61.01
60.69
59.89
58.46
56.41
53.79
50.6
46.71
41.93
36.02
28.78
20.18
10.39
-0.15
-10.84
-21.04
-30.31
-38.48
-45.82
-52.86
-60.28
-68.8
-78.99
-91.07
-104.53
-117.88
-128.67
-133.93
-131.04
-118.73
-97.69
-70.49
-40.75
-12.02
13.21
33.85
49.97
62.07
70.59
75.64
77.25
75.69
71.77
66.7
61.79
58.02
55.68
54.41
53.45
52.06
49.88
47.06
44.07
41.33
38.84
36.07
32.1
26.02
17.39
6.51
-5.63
-17.73
-28.69
-38.01
-45.95
-53.38
-61.47
-71.33
-83.66
-98.43
-114.58
-129.94
-141.46
-145.93
-140.93
-125.75
-101.76
-72.05
-40.54
-10.73
15.07
36.04
52.46
65.12
74.72
81.61
85.89
87.65
87.18
85.07
82.07
78.96
76.21
73.97
72.01
69.96
67.41
64.17
60.31
56.03
51.54
46.8
41.49
35.04
26.88
16.73
4.81
-8.19
-21.32
-33.71
-44.82
-54.67
-63.7
-72.63
-82.3
-93.48
-106.72
-122.08
-138.69
-154.61
-166.85
-172.09
-167.69
-152.64
-128.12
-97.14
-63.61
-31.13
-2.1
22.52
42.94
59.86
73.91
85.43
94.48
101.09
105.41
107.74
108.5
108.08
106.79
104.85
102.48
99.9
97.34
95
92.89
90.84
88.47
85.33
81.04
75.43
68.58
60.71
52.14
43.19
34.21
25.54
17.54
10.51
4.58
-0.39
-4.85
-9.42
-14.76
-21.29
-29.14
-38.07
-47.57
-57.06
-66.02
-74.23
-81.77
-89.11
-97.02
-106.44
-118.09
-132.07
-147.31
-161.45
-171.22
-173.28
-165.35
-147.05
-120.19
-88.16
-54.85
-23.54
3.86
26.84
45.87
61.68
74.76
85.23
93
98.06
100.65
101.27
100.57
99.05
97.03
94.61
91.84
88.88
86.01
83.48
81.35
79.29
76.66
72.73
67.04
59.61
51
42.07
33.53
25.68
18.23
10.52
1.88
-7.95
-18.7
-29.68
-40.12
-49.49
-57.79
-65.58
-73.82
-83.57
-95.61
-109.96
-125.49
-139.81
-149.73
-152.07
-144.73
-127.54
-102.32
-72.41
-41.52
-12.7
12.28
32.95
49.64
62.85
72.85
79.64
83.16
83.64
81.76
78.59
75.28
72.71
71.22
70.6
70.29
69.69
68.42
66.33
63.46
59.86
55.52
50.39
44.43
37.66
30.13
21.85
12.87
3.27
-6.74
-16.8
-26.51
-35.56
-43.85
-51.61
-59.3
-67.57
-77.15
-88.58
-102.01
-116.76
-131.03
-142.07
-146.78
-142.67
-128.8
-106.3
-77.95
-47.38
-17.85
8.41
30.52
48.55
63.02
74.45
83.14
89.26
93.02
94.68
94.62
93.34
91.29
88.89
86.43
84.06
81.84
79.73
77.69
75.59
73.2
70.14
65.97
60.31
53.08
44.52
35.17
25.67
16.41
7.41
-1.68
-11.36
-21.91
-33.19
-44.61
-55.41
-64.95
-73.15
-80.5
-88.03
-96.97
-108.36
-122.49
-138.54
-154.35
-166.73
-172.2
-168.01
-153.22
-129.01
-98.42
-65.33
-33.24
-4.42
20.32
41.26
59.11
74.39
87.24
97.49
104.95
109.68
112.05
112.68
112.19
111.03
109.38
107.21
104.47
101.25
97.85
94.64
91.84
89.28
86.43
82.52
76.89
69.19
59.62
48.82
37.74
27.28
18.06
10.09
2.82
-4.72
-13.43
-23.74
-35.4
-47.57
-59.16
-69.37
-77.98
-85.45
-92.73
-100.96
-111.15
-123.97
-139.34
-156.18
-172.2
-184.24
-189.02
-184.13
-169
-145.15
-115.75
-84.62
-55.08
-29.26
-7.88
9.38
23.2
34.22
42.73
48.77
52.32
53.54
52.88
51.03
48.76
46.73
45.35
44.9
45.55
47.57
51.28
56.94
64.46
73.29
82.38
90.42
96.24
99.09
98.89
96.18
91.81
86.64
81.09
75.09
68.15
59.67
49.31
37.29
24.32
11.44
-0.4
-10.7
-19.57
-27.71
-36.23
-46.26
-58.67
-73.67
-90.62
-107.8
-122.64
-132.14
-133.67
-125.76
-108.69
-84.46
-56.24
-27.49
-1.07
21.34
39.19
52.79
62.78
69.8
74.35
76.75
77.29
76.31
74.24
71.55
68.71
66.1
63.96
62.32
61.15
60.3
59.58
58.68
57.21
54.72
50.82
45.34
38.45
30.6
22.34
14.1
5.98
-2.26
-10.94
-20.27
-30.14
-40.11
-49.58
-58.1
-65.55
-72.28
-79.04
-86.85
-96.67
-108.98
-123.21
-137.61
-149.25
-154.8
-151.52
-138.34
-116.26
-88.1
-57.51
-27.81
-1.23
21.38
40.12
55.48
67.88
77.53
84.51
89
91.35
92.04
91.58
90.39
88.69
86.56
84.05
81.25
78.36
75.69
73.44
71.57
69.62
66.86
62.51
56.13
47.87
38.46
28.91
20.1
12.33
5.28
-1.86
-9.88
-19.19
-29.58
-40.39
-50.79
-60.13
-68.27
-75.55
-82.74
-90.83
-100.84
-113.44
-128.54
-144.87
-159.86
-170.04
-172.01
-163.61
-144.73
-117.5
-85.56
-52.87
-22.58
3.67
25.58
43.73
58.88
71.56
81.96
90.12
96.11
100.09
102.38
103.23
102.88
101.48
99.14
96.09
92.65
89.27
86.38
84.19
82.52
80.74
77.96
73.36
66.53
57.73
47.82
37.89
28.84
20.91
13.66
6.2
-2.4
-12.55
-23.99
-35.85
-47.09
-56.93
-65.17
-72.24
-79.08
-86.84
-96.59
-108.96
-123.72
-139.45
-153.53
-162.55
-163.31
-153.85
-134.27
-106.8
-75.13
-43.18
-14.04
10.65
30.64
46.49
59.02
68.87
76.43
81.88
85.36
87.07
87.24
86.22
84.39
82.15
79.88
77.91
76.42
75.42
74.69
73.82
72.27
69.51
65.22
59.44
52.47
44.84
36.99
29.13
21.15
12.8
3.84
-5.74
-15.71
-25.61
-34.99
-43.52
-51.16
-58.24
-65.46
-73.83
-84.24
-96.98
-111.2
-124.72
-134.34
-136.8
-129.89
-113.39
-89.16
-60.61
-31.5
-4.86
17.63
35.59
49.44
59.75
66.85
70.84
71.78
70.07
66.53
62.25
58.3
55.38
53.61
52.61
51.76
50.51
48.63
46.21
43.56
40.88
38.07
34.68
30.03
23.49
14.82
4.35
-7.08
-18.39
-28.68
-37.56
-45.29
-52.64
-60.62
-70.2
-82
-96.1
-111.75
-127.14
-139.6
-146.03
-143.8
-131.71
-110.52
-82.81
-52.18
-22.16
4.7
27.16
45.11
58.96
69.18
76.07
79.83
80.75
79.4
76.61
73.28
70.15
67.63
65.71
64.01
62.05
59.44
56.09
52.22
48.21
44.29
40.4
36.06
30.59
23.3
13.89
2.53
-10.09
-23.02
-35.33
-46.34
-55.91
-64.4
-72.58
-81.52
-92.29
-105.64
-121.55
-138.87
-155.14
-167
-170.99
-164.68
-147.54
-121.27
-89.25
-55.51
-23.5
4.62
28.21
47.67
63.76
77.13
88.07
96.55
102.48
105.86
106.92
106.06
103.89
100.98
97.85
94.8
91.92
89.11
86.2
82.97
79.29
75.01
70.04
64.28
57.56
49.75
40.77
30.65
19.57
7.85
-4.09
-15.83
-27.04
-37.52
-47.31
-56.68
-66.16
-76.5
-88.54
-102.86
-119.31
-136.61
-152.21
-162.74
-164.94
-156.74
-138.11
-111.1
-79.22
-46.36
-15.65
11.12
33.52
51.92
66.98
79.21
88.85
96.03
100.92
103.78
104.99
104.89
103.77
101.84
99.35
96.62
94.03
91.89
90.27
88.89
87.12
84.2
79.53
72.89
64.57
55.28
45.84
36.92
28.8
21.22
13.61
5.3
-4.13
-14.61
-25.63
-36.39
-46.14
-54.52
-61.72
-68.54
-76.22
-86
-98.66
-113.89
-129.93
-143.74
-151.59
-150.29
-138.35
-116.56
-87.9
-56.44
-26.11
0.41
22.08
39.1
52.37
62.69
70.5
75.89
78.9
79.73
78.8
76.71
74.09
71.48
69.22
67.45
66.08
64.89
63.57
61.83
59.47
56.35
52.4
47.56
41.79
34.99
27.16
18.36
8.81
-1.13
-11.03
-20.5
-29.27
-37.28
-44.7
-51.89
-59.39
-67.87
-77.95
-89.99
-103.63
-117.56
-129.42
-136.32
-135.63
-125.85
-107.29
-81.98
-53.09
-23.95
2.8
25.64
44.21
58.77
69.85
77.85
83
85.44
85.48
83.6
80.51
76.99
73.7
71
68.95
67.34
65.83
64.06
61.73
58.61
54.59
49.63
43.83
37.33
30.3
22.81
14.77
6.04
-3.53
-13.89
-24.77
-35.7
-46.22
-56.02
-65.06
-73.6
-82.12
-91.37
-102.15
-115.07
-130.05
-145.92
-160.15
-169.37
-170.29
-160.91
-141.33
-113.83
-82.12
-50.04
-20.52
5.02
26.46
44.42
59.57
72.34
82.83
91.01
96.95
100.85
102.97
103.61
102.95
101.16
98.45
95.17
91.82
88.89
86.67
85.05
83.52
81.25
77.44
71.64
63.93
54.91
45.43
36.3
27.88
20.04
12.15
3.55
-6.21
-17.06
-28.41
-39.44
-49.45
-58.15
-65.85
-73.35
-81.76
-92.15
-105.18
-120.6
-136.99
-151.68
-161.27
-162.53
-153.55
-134.47
-107.57
-76.5
-45.09
-16.23
8.69
29.56
46.96
61.52
73.56
83.08
90.11
94.83
97.71
99.28
99.96
99.92
99.13
97.42
94.78
91.41
87.75
84.38
81.67
79.63
77.76
75.22
71.09
64.9
56.71
47.27
37.62
28.69
20.91
14.04
7.37
0.08
-8.37
-17.96
-28.18
-38.26
-47.5
-55.56
-62.56
-69.1
-76.02
-84.28
-94.65
-107.4
-121.9
-136.34
-147.91
-153.36
-150.03
-136.78
-114.55
-86.11
-55.24
-25.51
0.56
21.91
38.67
51.54
61.28
68.33
72.87
75.03
75.08
73.57
71.18
68.62
66.38
64.68
63.42
62.41
61.42
60.29
58.91
57.1
54.62
51.19
46.61
40.87
34.13
26.63
18.58
10.09
1.19
-8.01
-17.37
-26.65
-35.6
-44.04
-51.97
-59.51
-67.03
-75.11
-84.45
-95.66
-108.64
-122.26
-134.1
-141.01
-140
-129.34
-109.4
-82.51
-52.3
-22.47
4.22
26.39
43.89
57.28
67.23
74.29
78.8
81.15
81.82
81.39
80.37
79.1
77.67
75.97
73.9
71.53
69.12
66.95
65.15
63.53
61.53
58.43
53.63
46.91
38.57
29.29
19.84
10.84
2.42
-5.71
-14.15
-23.46
-33.88
-45.14
-56.56
-67.38
-77.06
-85.63
-93.69
-102.3
-112.62
-125.38
-140.39
-156.18
-170.06
-178.65
-178.78
-168.56
-148.09
-119.53
-86.44
-52.67
-21.31
5.86
28.4
46.73
61.53
73.36
82.61
89.56
94.51
97.86
99.99
101.21
101.65
101.19
99.68
97.04
93.51
89.6
85.99
83.21
81.34
79.88
77.87
74.3
68.5
60.53
51.07
41.17
31.78
23.32
15.53
7.68
-1.09
-11.31
-22.91
-35.24
-47.36
-58.4
-68
-76.37
-84.34
-93.05
-103.67
-117
-133.07
-150.75
-167.64
-180.36
-185.36
-179.93
-163.31
-137.03
-104.49
-69.92
-37.04
-8.17
15.98
35.89
52.38
66.03
77.01
85.26
90.83
94.1
95.69
96.17
95.92
94.95
93.1
90.32
86.84
83.22
80.05
77.73
76.11
74.53
72.05
67.78
61.3
52.84
43.19
33.4
24.39
16.56
9.63
2.88
-4.56
-13.22
-23.04
-33.32
-43.04
-51.23
-57.42
-61.86
-65.49
-69.67
-75.8
-84.91
-97.05
-111.02
-124.25
-133.38
-135.14
-127.44
-110.19
-85.4
-56.47
-27.15
-0.4
22.15
40.19
54.22
64.93
72.75
77.88
80.39
80.53
78.86
76.18
73.37
71.16
69.88
69.46
69.57
69.78
69.84
69.71
69.52
69.34
69.13
68.6
67.28
64.72
60.53
54.58
46.99
38.07
28.3
18.18
8.1
-1.77
-11.49
-21.36
-31.85
-43.51
-56.82
-71.91
-88.21
-104.21
-117.49
-125.14
-124.63
-114.75
-96.14
-71.23
-43.53
-16.51
7.33
26.84
42.03
53.5
61.84
67.33
70.03
70.08
67.93
64.44
60.64
57.43
55.28
54.08
53.38
52.52
50.99
48.54
45.22
41.24
36.82
32.04
26.79
20.76
13.58
5.06
-4.74
-15.37
-26.14
-36.35
-45.55
-53.69
-61.07
-68.27
-75.91
-84.66
-95.16
-107.84
-122.6
-138.36
-152.83
-162.8
-165.02
-157.32
-139.53
-113.64
-83.15
-51.9
-22.87
2.41
23.77
41.75
57
69.82
80.18
87.89
92.9
95.41
95.82
94.62
92.37
89.54
86.61
83.98
81.94
80.58
79.75
79.04
77.82
75.47
71.5
65.78
58.5
50.11
41.11
31.8
22.24
12.31
1.88
-8.95
-19.88
-30.42
-40.2
-49.11
-57.47
-65.97
-75.56
-87.1
-101.01
-116.77
-132.7
-146
-153.42
-152.18
-140.98
-120.57
-93.47
-63.24
-33.27
-5.95
17.63
37.45
53.99
67.75
79.01
87.84
94.32
98.61
100.97
101.7
101.1
99.41
96.89
93.85
90.67
87.75
85.39
83.66
82.28
80.68
78.21
74.37
69.05
62.56
55.56
48.67
42.27
36.24
30.06
23.09
14.91
5.56
-4.41
-14.19
-23.06
-30.81
-37.81
-44.96
-53.46
-64.41
-78.42
-95.21
-113.25
-129.82
-141.47
-144.91
-138.15
-121.25
-96.4
-67.23
-37.62
-10.59
12.27
30.76
45.46
57.17
66.41
73.39
78.13
80.65
81.17
80.01
77.65
74.57
71.2
67.87
64.79
62.06
59.67
57.51
55.35
52.83
49.56
45.19
39.55
32.77
25.15
17.1
8.92
0.73
-7.54
-16.04
-24.8
-33.69
-42.36
-50.47
-57.8
-64.47
-70.92
-77.92
-86.3
-96.65
-108.86
-121.72
-132.96
-139.59
-138.84
-129.06
-110.49
-85.27
-56.78
-28.58
-3.39
17.43
33.69
45.93
54.68
60.28
62.84
62.61
60.21
56.68
53.19
50.66
49.43
49.19
49.25
48.9
47.78
45.98
43.92
42
40.29
38.39
35.58
31.07
24.45
15.8
5.8
-4.6
-14.49
-23.26
-30.85
-37.62
-44.25
-51.53
-60.18
-70.7
-83.1
-96.62
-109.51
-119.21
-122.88
-118.35
-104.97
-83.95
-58.06
-30.76
-5.09
17.1
35.17
49.4
60.28
68.01
72.56
73.79
71.98
67.95
62.99
58.46
55.31
53.79
53.48
53.51
53.04
51.58
49.12
46.01
42.68
39.31
35.69
31.22
25.23
17.27
7.39
-3.82
-15.38
-26.3
-35.99
-44.37
-51.96
-59.56
-68.05
-78.13
-90.25
-104.4
-119.86
-134.94
-147.01
-153.05
-150.42
-137.98
-116.55
-88.81
-58.4
-28.82
-2.42
19.89
38.33
53.62
66.34
76.66
84.42
89.4
91.61
91.44
89.63
87.01
84.28
81.81
79.6
77.42
74.95
72.02
68.54
64.59
60.19
55.36
49.98
43.91
37.01
29.17
20.4
10.74
0.39
-10.37
-21.12
-31.43
-40.95
-49.53
-57.38
-65.01
-73.24
-82.99
-94.88
-108.85
-123.73
-137.13
-145.95
-147.16
-138.93
-121.26
-96.13
-66.81
-36.81
-8.93
15.32
35.64
52.42
66.22
77.39
86.03
92.12
95.75
97.18
96.85
95.25
92.83
89.91
86.74
83.53
80.53
77.95
75.9
74.22
72.44
69.9
65.97
60.35
53.18
45.03
36.58
28.35
20.46
12.59
4.24
-5.04
-15.27
-26.08
-36.76
-46.63
-55.35
-63.13
-70.67
-79.02
-89.21
-101.85
-116.65
-132.19
-145.87
-154.47
-155.02
-145.82
-127.13
-101.12
-71.26
-41.17
-13.64
9.88
29.18
44.72
57.06
66.42
72.76
76.02
76.43
74.62
71.57
68.26
65.36
63.09
61.22
59.38
57.32
55.06
52.9
51.18
49.98
49.08
47.86
45.59
41.62
35.63
27.68
18.24
8.03
-2.2
-11.8
-20.44
-28.14
-35.23
-42.31
-50.08
-59.24
-70.22
-82.83
-96.06
-107.89
-115.71
-116.95
-110
-94.78
-72.93
-47.27
-20.94
3.42
24.28
41.12
54.18
63.94
70.77
74.87
76.39
75.56
72.89
69.13
65.15
61.76
59.41
58.13
57.51
56.93
55.81
53.79
50.81
47.03
42.69
37.96
32.86
27.19
20.7
13.16
4.56
-4.87
-14.66
-24.3
-33.39
-41.8
-49.67
-57.35
-65.31
-74.14
-84.45
-96.65
-110.65
-125.38
-138.69
-147.63
-149.33
-141.95
-125.47
-101.75
-73.94
-45.47
-19.04
3.83
22.78
38.16
50.58
60.54
68.37
74.26
78.4
80.99
82.3
82.66
82.35
81.62
80.62
79.4
77.96
76.18
73.94
71.07
67.45
62.97
57.67
51.66
45.13
38.24
31.02
23.39
15.12
6.08
-3.72
-14.06
-24.53
-34.7
-44.26
-53.23
-61.94
-71.03
-81.33
-93.5
-107.66
-122.96
-137.37
-148
-151.82
-146.65
-131.98
-109.29
-81.54
-52.22
-24.35
0.23
20.99
38.26
52.74
65
75.36
83.88
90.51
95.25
98.11
99.23
98.78
97.07
94.46
91.4
88.35
85.71
83.66
82.1
80.61
78.53
75.2
70.29
63.88
56.52
48.86
41.4
34.22
26.95
19.06
10.18
0.27
-10.25
-20.78
-30.75
-39.85
-48.14
-55.97
-63.9
-72.64
-82.79
-94.62
-107.58
-120.11
-129.67
-133.4
-129.05
-115.83
-94.92
-69.06
-41.68
-15.84
6.55
24.88
39.51
51.09
60.08
66.59
70.53
71.88
70.95
68.46
65.36
62.56
60.6
59.57
59.09
58.56
57.48
55.59
52.91
49.66
46.07
42.23
38.1
33.51
28.29
22.31
15.52
8.02
0.03
-8.16
-16.28
-24.09
-31.55
-38.78
-46.05
-53.76
-62.46
-72.63
-84.4
-97.16
-109.35
-118.54
-122.03
-117.75
-105.07
-85.19
-60.75
-34.99
-10.74
10.24
27.35
40.79
51
58.29
62.8
64.62
64.08
61.77
58.55
55.26
52.59
50.95
50.37
50.61
51.26
51.82
51.85
51.01
49.12
46.1
42.01
36.95
31.11
24.65
17.7
10.29
2.36
-6.17
-15.29
-24.87
-34.57
-43.96
-52.7
-60.69
-68.21
-75.91
-84.63
-95.14
-107.64
-121.4
-134.53
-144.24
-147.59
-142.4
-128.13
-106.09
-79.08
-50.41
-22.97
1.44
22.17
39.37
53.52
65.03
74.17
81.06
85.82
88.62
89.68
89.32
87.9
85.85
83.6
81.5
79.76
78.37
77.11
75.61
73.49
70.36
65.99
60.34
53.57
45.96
37.8
29.3
20.49
11.33
1.73
-8.24
-18.37
-28.37
-37.93
-46.92
-55.42
-63.81
-72.69
-82.76
-94.62
-108.27
-122.77
-136.06
-145.25
-147.47
-140.8
-125.11
-102.15
-74.95
-46.88
-20.59
2.45
21.85
37.9
50.98
61.37
69.2
74.61
77.87
79.36
79.49
78.56
76.77
74.24
71.19
67.92
64.83
62.27
60.33
58.85
57.31
55.03
51.4
46.07
39.16
31.13
22.68
14.41
6.62
-0.76
-8.09
-15.73
-23.84
-32.22
-40.44
-48.02
-54.73
-60.74
-66.67
-73.39
-81.81
-92.42
-104.88
-117.79
-128.64
-134.46
-132.68
-122.03
-103.09
-78.14
-50.49
-23.37
0.87
21.15
37.38
49.96
59.27
65.5
68.75
69.26
67.62
64.68
61.36
58.43
56.23
54.73
53.58
52.34
50.67
48.48
45.88
43.13
40.4
37.69
34.69
30.92
25.88
19.28
11.21
2.13
-7.25
-16.24
-24.46
-31.85
-38.8
-45.83
-53.56
-62.53
-73.01
-84.9
-97.37
-108.79
-116.82
-118.97
-113.36
-99.46
-78.42
-52.77
-25.71
-0.05
22.32
40.73
55.33
66.64
75.04
80.68
83.59
83.93
82.26
79.44
76.44
74.06
72.62
71.94
71.54
70.86
69.53
67.46
64.71
61.45
57.76
53.62
48.92
43.46
36.98
29.19
19.91
9.16
-2.74
-15.17
-27.46
-39.03
-49.67
-59.51
-69.06
-79.01
-90.03
-102.58
-116.55
-130.99
-143.94
-152.75
-154.74
-148.08
-132.53
-109.59
-82.04
-53.04
-25.26
-0.35
21.01
38.86
53.5
65.2
74.2
80.74
85.13
87.71
88.85
88.85
87.9
86.18
83.89
81.3
78.78
76.66
75.11
73.95
72.65
70.46
66.71
61.13
53.95
45.82
37.47
29.37
21.54
13.59
4.98
-4.64
-15.19
-26.24
-37.1
-47.19
-56.22
-64.32
-72.05
-80.28
-89.97
-101.82
-115.76
-130.57
-143.83
-152.4
-153.31
-144.79
-127
-101.96
-72.87
-43.1
-15.16
9.62
31.05
49.49
65.37
78.87
89.96
98.56
104.75
108.83
111.29
112.57
112.97
112.58
111.35
109.22
106.25
102.62
98.56
94.2
89.43
83.87
77.02
68.51
58.29
46.82
34.97
23.73
13.85
5.48
-1.89
-9.23
-17.49
-27.17
-38.09
-49.46
-60.24
-69.62
-77.28
-83.5
-89.03
-94.88
-102.06
-111.27
-122.55
-134.86
-146.05
-153.14
-153.24
-144.47
-126.78
-101.99
-73.24
-43.93
-16.78
6.69
26.1
41.7
53.97
63.3
69.95
74.18
76.3
76.75
75.98
74.42
72.47
70.43
68.51
66.8
65.27
63.77
62.05
59.86
56.97
53.24
48.67
43.39
37.55
31.31
24.7
17.63
9.93
1.44
-7.83
-17.65
-27.6
-37.15
-45.91
-53.74
-60.88
-67.88
-75.49
-84.33
-94.54
-105.48
-115.55
-122.48
-123.9
-118.1
-104.67
-84.79
-60.88
-35.92
-12.56
7.48
23.61
36.01
45.24
51.74
55.72
57.31
56.76
54.66
51.89
49.42
47.96
47.69
48.28
49.02
49.2
48.43
46.74
44.47
42.01
39.52
36.82
33.4
28.73
22.45
14.61
5.61
-3.87
-13.14
-21.78
-29.67
-37.04
-44.33
-52.13
-61.04
-71.54
-83.81
-97.35
-110.78
-121.8
-127.69
-126.09
-115.83
-97.49
-73.28
-46.3
-19.6
4.67
25.55
43.02
57.49
69.29
78.51
85.08
88.99
90.49
90.15
88.67
86.68
84.6
82.57
80.57
78.51
76.36
74.11
71.71
69
65.72
61.59
56.43
50.22
43.06
35.13
26.54
17.39
7.76
-2.18
-12.14
-21.81
-30.93
-39.43
-47.48
-55.5
-64.12
-73.99
-85.63
-99.01
-113.28
-126.56
-136.21
-139.5
-134.44
-120.54
-99.04
-72.56
-44.27
-16.97
7.45
28.23
45.38
59.34
70.5
79.13
85.38
89.38
91.4
91.8
90.98
89.3
87
84.2
81.04
77.72
74.57
71.91
69.85
68.14
66.17
63.15
58.42
51.81
43.72
34.94
26.39
18.63
11.73
5.2
-1.66
-9.42
-18.24
-27.76
-37.34
-46.32
-54.35
-61.51
-68.25
-75.31
-83.45
-93.31
-105.09
-118.18
-130.92
-140.72
-144.63
-140.26
-126.72
-105.08
-78.07
-49.23
-21.74
2.36
22.33
38.45
51.35
61.53
69.24
74.53
77.53
78.53
78.03
76.57
74.64
72.57
70.52
68.56
66.7
64.96
63.33
61.76
60.08
57.97
55.05
51
45.74
39.46
32.64
25.78
19.22
12.96
6.76
0.25
-6.75
-14.14
-21.55
-28.53
-34.81
-40.41
-45.69
-51.31
-58.02
-66.44
-76.67
-87.98
-98.66
-106.21
-108.01
-102.16
-88.25
-67.56
-42.74
-16.87
7.28
27.96
44.44
56.79
65.4
70.74
73.24
73.33
71.56
68.55
64.96
61.34
58.03
55.18
52.74
50.64
48.81
47.21
45.81
44.45
42.8
40.39
36.78
31.8
25.62
18.64
11.35
4.01
-3.44
-11.21
-19.52
-28.34
-37.33
-45.98
-53.84
-60.74
-66.9
-72.85
-79.32
-87.04
-96.43
-107.33
-118.65
-128.33
-133.76
-132.45
-122.99
-105.59
-82.15
-55.62
-29.08
-4.9
15.7
32.55
46.12
56.98
65.57
72.15
76.9
80.01
81.73
82.33
82.03
81.04
79.5
77.61
75.57
73.56
71.73
70.1
68.45
66.42
63.49
59.22
53.39
46.14
37.9
29.28
20.77
12.6
4.64
-3.49
-12.14
-21.46
-31.22
-40.94
-50.09
-58.3
-65.56
-72.28
-79.23
-87.32
-97.28
-109.14
-121.89
-133.34
-140.58
-140.8
-132.27
-115.09
-91.2
-63.75
-36.07
-10.71
11.02
28.87
43.22
54.54
63.18
69.38
73.43
75.75
76.85
77.15
76.91
76.07
74.54
72.24
69.35
66.27
63.53
61.49
60.14
59.03
57.42
54.54
49.94
43.7
36.35
28.66
21.28
14.44
7.95
1.33
-5.9
-13.95
-22.64
-31.47
-39.87
-47.41
-54.03
-60.03
-66.05
-72.86
-81.19
-91.34
-102.83
-114.25
-123.29
-127.26
-123.92
-112.27
-93.06
-68.63
-42.17
-16.81
5.24
23.02
36.65
46.84
54.38
59.79
63.3
64.97
64.93
63.52
61.26
58.79
56.62
55.02
53.95
53.12
52.17
50.82
48.91
46.45
43.46
39.94
35.85
31.08
25.55
19.21
12.12
4.43
-3.58
-11.58
-19.24
-26.28
-32.58
-38.22
-43.44
-48.69
-54.56
-61.65
-70.36
-80.51
-91.09
-100.13
-105.16
-103.87
-95.03
-79
-57.7
-34.04
-10.92
9.54
26.36
39.47
49.26
56.08
60.05
61.23
59.92
56.75
52.73
48.9
46.01
44.29
43.5
43.08
42.49
41.4
39.78
37.79
35.66
33.47
31.09
28.18
24.32
19.14
12.52
4.69
-3.81
-12.31
-20.22
-27.29
-33.68
-39.91
-46.64
-54.48
-63.78
-74.47
-85.93
-96.85
-105.31
-109.13
-106.43
-96.32
-79.3
-57.27
-32.95
-9.07
12.33
30.25
44.61
55.8
64.25
70.18
73.66
74.76
73.79
71.32
68.08
64.76
61.82
59.42
57.46
55.64
53.68
51.32
48.39
44.8
40.57
35.75
30.47
24.79
18.68
11.93
4.31
-4.36
-13.98
-24.14
-34.24
-43.69
-52.2
-59.85
-67.06
-74.48
-82.77
-92.52
-104.01
-116.95
-130.22
-141.8
-149.03
-149.33
-141.08
-124.3
-100.77
-73.5
-45.74
-20.06
2.15
20.71
36.11
49.04
59.97
69.05
76.22
81.41
84.62
85.97
85.72
84.22
81.85
79.05
76.19
73.57
71.29
69.27
67.21
64.71
61.39
56.99
51.47
45.04
38.02
30.7
23.23
15.54
7.44
-1.25
-10.55
-20.17
-29.64
-38.45
-46.3
-53.22
-59.64
-66.35
-74.25
-84.03
-95.78
-108.61
-120.53
-128.75
-130.41
-123.53
-107.82
-84.86
-57.62
-29.47
-3.16
19.8
39.15
55.35
68.94
80.17
88.98
95.23
99
100.69
100.88
100.11
98.66
96.55
93.7
90.15
86.22
82.48
79.47
77.39
75.9
74.23
71.45
66.9
60.45
52.53
43.93
35.46
27.57
20.29
13.26
5.98
-1.97
-10.69
-19.93
-29.18
-37.87
-45.62
-52.31
-58.29
-64.22
-71.01
-79.52
-90.14
-102.41
-114.8
-124.77
-129.42
-126.35
-114.58
-94.94
-69.89
-42.69
-16.41
6.87
26.29
41.94
54.31
63.9
70.96
75.59
77.93
78.29
77.21
75.25
72.94
70.61
68.39
66.3
64.3
62.44
60.77
59.24
57.66
55.62
52.62
48.3
42.62
35.88
28.69
21.65
15.13
9.12
3.24
-3.02
-10
-17.7
-25.73
-33.46
-40.36
-46.14
-51
-55.54
-60.62
-67.1
-75.51
-85.65
-96.41
-105.75
-111.14
-110.2
-101.59
-85.52
-63.76
-39.16
-14.72
7.19
25.3
39.36
49.76
57.02
61.53
63.52
63.22
61.07
57.73
54.01
50.7
48.35
47.12
46.78
46.85
46.77
46.04
44.42
41.88
38.59
34.72
30.41
25.66
20.42
14.57
8.06
0.94
-6.64
-14.46
-22.25
-29.78
-36.86
-43.42
-49.55
-55.6
-62.09
-69.63
-78.63
-88.87
-99.26
-107.81
-112.11
-110.01
-100.42
-83.73
-61.8
-37.34
-13.15
8.64
26.88
41.36
52.4
60.51
66.11
69.47
70.83
70.49
68.87
66.47
63.77
61.09
58.6
56.34
54.33
52.58
51.08
49.74
48.28
46.28
43.3
39.03
33.45
26.88
19.8
12.71
5.85
-0.84
-7.65
-14.87
-22.61
-30.69
-38.71
-46.23
-52.98
-59
-64.72
-70.84
-78.22
-87.49
-98.69
-110.91
-122.17
-129.77
-131.02
-124.14
-108.99
-87.16
-61.48
-35.05
-10.43
10.94
28.65
42.98
54.41
63.36
70.06
74.72
77.57
78.92
79.11
78.36
76.84
74.63
71.82
68.63
65.37
62.45
60.18
58.64
57.54
56.33
54.27
50.76
45.53
38.79
31.17
23.44
16.23
9.79
3.89
-2.06
-8.62
-16.1
-24.37
-32.9
-41
-48.16
-54.23
-59.55
-64.83
-70.99
-78.85
-88.82
-100.51
-112.54
-122.63
-128.1
-126.6
-116.95
-99.6
-76.52
-50.61
-24.8
-1.34
18.57
34.7
47.36
57.04
64.15
68.94
71.65
72.6
72.22
71.01
69.38
67.59
65.72
63.76
61.71
59.68
57.85
56.34
55.07
53.69
51.65
48.43
43.74
37.72
30.85
23.8
17.13
11.07
5.45
-0.19
-6.36
-13.33
-20.96
-28.72
-35.93
-42.04
-46.94
-51.04
-55.17
-60.37
-67.45
-76.71
-87.6
-98.61
-107.42
-111.45
-108.62
-98.05
-80.45
-58.02
-33.69
-10.32
10.08
26.64
39.38
48.76
55.25
59.09
60.42
59.46
56.71
52.98
49.18
46.09
44.14
43.29
43.14
43.12
42.7
41.57
39.69
37.2
34.29
31.06
27.48
23.33
18.39
12.45
5.51
-2.25
-10.39
-18.41
-25.83
-32.37
-38.11
-43.4
-48.82
-55.05
-62.65
-71.87
-82.42
-93.31
-102.8
-108.64
-108.66
-101.43
-86.85
-66.29
-42.28
-17.73
4.82
23.81
38.77
49.98
58.05
63.53
66.79
68.05
67.59
65.81
63.26
60.44
57.75
55.39
53.39
51.65
50.04
48.43
46.68
44.62
42.06
38.82
34.78
29.91
24.31
18.12
11.51
4.58
-2.65
-10.2
-18.05
-26.08
-34.01
-41.52
-48.37
-54.58
-60.49
-66.75
-74.14
-83.35
-94.49
-106.8
-118.48
-126.9
-129.34
-123.8
-109.83
-88.71
-63.09
-36.13
-10.55
11.89
30.59
45.68
57.66
66.94
73.82
78.47
81.09
81.99
81.55
80.14
78.03
75.45
72.54
69.5
66.59
64.1
62.22
60.85
59.6
57.79
54.73
50.01
43.7
36.34
28.64
21.27
14.46
8.08
1.66
-5.25
-12.88
-21.14
-29.63
-37.87
-45.48
-52.34
-58.66
-64.92
-71.82
-80.04
-89.97
-101.31
-112.81
-122.26
-126.96
-124.54
-113.81
-95.27
-71.11
-44.46
-18.47
4.54
23.48
38.35
49.8
58.55
65.08
69.57
72.05
72.64
71.67
69.69
67.3
65
63.05
61.46
60.14
58.93
57.72
56.39
54.77
52.62
49.66
45.7
40.73
34.88
28.38
21.39
13.96
6.11
-2.13
-10.55
-18.84
-26.62
-33.59
-39.69
-45.07
-50.15
-55.54
-61.93
-69.91
-79.55
-90.1
-99.83
-106.24
-106.76
-99.71
-84.97
-64.13
-40.07
-15.9
5.91
24.06
38.32
49.12
56.9
61.89
64.11
63.64
60.95
56.84
52.4
48.55
45.89
44.49
43.98
43.79
43.33
42.29
40.55
38.24
35.51
32.46
29.05
25.05
20.18
14.2
7.07
-1.02
-9.66
-18.3
-26.44
-33.8
-40.38
-46.47
-52.56
-59.27
-67.14
-76.49
-87.1
-98
-107.38
-112.91
-112.33
-104.28
-88.83
-67.59
-43.2
-18.52
4.11
23.4
38.95
51.01
59.99
66.23
70.02
71.63
71.49
70.12
68.06
65.76
63.48
61.31
59.24
57.28
55.44
53.73
52.08
50.27
47.96
44.77
40.44
34.97
28.63
21.82
14.92
8.07
1.15
-6.13
-13.99
-22.43
-31.13
-39.58
-47.31
-54.06
-60.02
-65.7
-71.91
-79.5
-89.01
-100.32
-112.36
-123.09
-129.88
-130.17
-122.4
-106.58
-84.35
-58.5
-32.05
-7.44
13.93
31.7
46.14
57.76
66.95
73.92
78.82
81.81
83.11
83.02
81.86
79.88
77.34
74.47
71.54
68.84
66.62
65
63.87
62.81
61.17
58.28
53.66
47.29
39.63
31.49
23.71
16.79
10.7
4.89
-1.37
-8.62
-16.93
-25.88
-34.74
-42.87
-49.97
-56.21
-62.19
-68.71
-76.56
-86.2
-97.41
-109.1
-119.21
-125.21
-124.69
-116.29
-100.15
-78.02
-52.66
-27.06
-3.55
16.53
32.9
45.85
55.88
63.41
68.64
71.78
73.08
72.96
71.91
70.42
68.79
67.1
65.29
63.32
61.28
59.37
57.79
56.54
55.28
53.46
50.47
45.98
40.11
33.4
26.55
20.11
14.23
8.62
2.74
-3.86
-11.29
-19.23
-27.05
-34.13
-40.13
-45.18
-49.81
-54.79
-60.9
-68.63
-77.96
-88.13
-97.61
-104.26
-105.8
-100.57
-88.1
-69.41
-46.83
-23.22
-1.22
17.51
32.39
43.69
52.03
57.93
61.63
63.22
62.83
60.82
57.79
54.47
51.48
49.2
47.7
46.79
46.14
45.4
44.29
42.64
40.33
37.37
33.78
29.57
24.76
19.32
13.2
6.42
-0.92
-8.58
-16.2
-23.45
-30.14
-36.28
-42.08
-47.88
-54.06
-61.05
-69.14
-78.42
-88.51
-98.32
-106.04
-109.46
-106.61
-96.48
-79.49
-57.53
-33.35
-9.74
11.19
28.42
41.85
51.99
59.44
64.63
67.82
69.21
69.07
67.86
66.1
64.23
62.49
60.88
59.31
57.69
56.06
54.45
52.89
51.16
48.84
45.48
40.81
34.91
28.23
21.35
14.74
8.55
2.57
-3.63
-10.42
-17.93
-25.97
-34.11
-41.85
-48.85
-55.04
-60.66
-66.25
-72.58
-80.43
-90.25
-101.68
-113.28
-122.61
-126.82
-123.59
-112.01
-93.02
-69.08
-43.36
-18.74
2.99
21.22
36.22
48.55
58.64
66.61
72.47
76.25
78.22
78.8
78.43
77.43
75.9
73.84
71.26
68.31
65.35
62.79
60.89
59.62
58.54
56.92
54.04
49.43
43.13
35.65
27.79
20.33
13.7
7.85
2.28
-3.67
-10.5
-18.31
-26.74
-35.14
-42.87
-49.54
-55.21
-60.37
-65.77
-72.29
-80.59
-90.84
-102.4
-113.68
-122.24
-125.4
-121.09
-108.59
-88.92
-64.63
-38.91
-14.63
6.39
23.59
37.27
48.11
56.59
62.94
67.16
69.34
69.77
68.89
67.23
65.18
63
60.79
58.69
56.81
55.27
54.11
53.19
52.16
50.55
47.91
44.01
38.94
33.06
26.85
20.73
14.87
9.21
3.44
-2.71
-9.4
-16.54
-23.79
-30.73
-37
-42.5
-47.41
-52.28
-57.81
-64.66
-73.12
-82.75
-92.24
-99.53
-102.3
-98.71
-88.01
-70.93
-49.48
-26.4
-4.33
14.82
30.13
41.56
49.58
54.75
57.5
58.13
56.96
54.42
51.16
47.87
45.17
43.37
42.44
42.07
41.83
41.31
40.32
38.79
36.79
34.38
31.54
28.24
24.33
19.7
14.23
7.9
0.76
-6.97
-14.93
-22.74
-30.01
-36.56
-42.42
-47.9
-53.54
-59.99
-67.83
-77.32
-88.05
-98.74
-107.37
-111.56
-109.3
-99.61
-83.02
-61.4
-37.49
-14.04
6.88
24.2
37.79
48.09
55.7
61.06
64.42
65.91
65.71
64.17
61.79
59.16
56.72
54.75
53.32
52.33
51.61
50.94
50.05
48.63
46.33
42.92
38.32
32.69
26.36
19.68
12.91
6.1
-0.83
-8.02
-15.53
-23.31
-31.16
-38.79
-45.98
-52.66
-58.97
-65.37
-72.48
-80.97
-91.16
-102.58
-113.81
-122.52
-126.07
-122.31
-110.45
-91.41
-67.52
-41.82
-17.06
4.94
23.47
38.62
50.79
60.33
67.45
72.32
75.19
76.49
76.69
76.15
75.04
73.37
71.13
68.43
65.55
62.85
60.69
59.16
58.03
56.76
54.65
51.14
46.02
39.52
32.24
24.87
17.88
11.32
4.87
-1.96
-9.52
-17.79
-26.36
-34.64
-42.15
-48.68
-54.47
-60.07
-66.22
-73.65
-82.84
-93.7
-105.36
-116.02
-123.23
-124.52
-118.22
-104.09
-83.56
-59.2
-33.99
-10.43
9.99
26.83
40.33
50.98
59.15
65.03
68.77
70.55
70.75
69.8
68.2
66.29
64.3
62.36
60.53
58.92
57.6
56.56
55.68
54.57
52.78
49.85
45.55
39.98
33.56
26.86
20.36
14.28
8.49
2.64
-3.66
-10.56
-17.89
-25.2
-31.98
-37.87
-42.87
-47.42
-52.3
-58.42
-66.46
-76.46
-87.51
-97.74
-104.61
-105.64
-99.23
-85.21
-65.05
-41.33
-17.04
5.26
24.01
38.67
49.45
56.92
61.62
63.96
64.29
63.04
60.75
58.05
55.53
53.56
52.22
51.38
50.79
50.2
49.47
48.44
46.95
44.78
41.71
37.59
32.49
26.62
20.25
13.6
6.71
-0.48
-8.03
-15.87
-23.78
-31.44
-38.53
-44.9
-50.67
-56.2
-62.08
-69.01
-77.6
-87.97
-99.5
-110.54
-118.68
-121.31
-116.48
-103.68
-84.06
-60.11
-34.84
-10.85
10.2
27.74
41.96
53.29
62.07
68.43
72.43
74.25
74.29
73.19
71.57
69.91
68.41
67.01
65.53
63.9
62.17
60.55
59.16
57.91
56.42
54.12
50.48
45.28
38.69
31.27
23.72
16.63
10.2
4.21
-1.86
-8.59
-16.3
-24.88
-33.78
-42.33
-49.95
-56.47
-62.13
-67.6
-73.7
-81.23
-90.69
-101.95
-113.99
-124.85
-131.9
-132.6
-125.3
-109.93
-88.12
-62.68
-36.69
-12.59
8.32
25.84
40.37
52.43
62.31
70.02
75.48
78.75
80.13
80.13
79.32
78.17
76.92
75.59
74.11
72.4
70.55
68.75
67.16
65.76
64.23
62.01
58.53
53.47
46.94
39.47
31.81
24.61
18.21
12.5
7.08
1.39
-5
-12.22
-20.1
-28.2
-35.98
-42.99
-49.06
-54.36
-59.4
-64.97
-71.89
-80.79
-91.7
-103.79
-115.27
-123.64
-126.31
-121.44
-108.58
-88.91
-64.91
-39.58
-15.58
5.39
22.69
36.53
47.47
56.02
62.48
66.97
69.61
70.61
70.32
69.18
67.56
65.72
63.77
61.77
59.83
58.13
56.85
56.03
55.4
54.42
52.46
49.04
44.07
37.91
31.21
24.68
18.78
13.57
8.73
3.7
-2.03
-8.72
-16.2
-23.97
-31.36
-37.85
-43.24
-47.85
-52.42
-57.88
-65.07
-74.28
-84.96
-95.57
-103.81
-107.18
-103.72
-92.76
-75.16
-53.14
-29.58
-7.17
12.23
27.83
39.71
48.4
54.43
58.17
59.84
59.67
58.01
55.4
52.47
49.78
47.7
46.31
45.45
44.81
44.06
42.95
41.36
39.24
36.59
33.37
29.48
24.88
19.55
13.56
7.01
0.02
-7.29
-14.81
-22.39
-29.8
-36.81
-43.28
-49.21
-54.86
-60.73
-67.43
-75.46
-84.89
-95.08
-104.49
-110.89
-111.96
-106.01
-92.71
-73.29
-50.24
-26.43
-4.33
14.64
30.12
42.4
51.99
59.2
64.23
67.2
68.44
68.41
67.6
66.39
64.9
63.13
61.02
58.68
56.36
54.38
52.93
51.94
51.01
49.55
46.99
42.93
37.35
30.58
23.21
15.82
8.78
2.16
-4.29
-10.9
-17.95
-25.46
-33.2
-40.75
-47.75
-54.05
-59.83
-65.59
-72.05
-79.94
-89.69
-101
-112.65
-122.54
-128.04
-126.85
-117.75
-101.08
-78.71
-53.43
-28.06
-4.73
15.42
32.2
45.89
56.91
65.55
71.95
76.24
78.65
79.53
79.31
78.4
77.06
75.41
73.44
71.15
68.66
66.22
64.08
62.35
60.83
59.02
56.28
52.13
46.4
39.41
31.77
24.15
17.04
10.54
4.39
-1.87
-8.71
-16.33
-24.55
-32.9
-40.74
-47.58
-53.31
-58.3
-63.29
-69.23
-76.93
-86.71
-98.13
-109.81
-119.55
-124.84
-123.51
-114.47
-98.13
-76.36
-51.85
-27.39
-5.08
13.97
29.52
41.89
51.5
58.67
63.61
66.55
67.81
67.81
66.99
65.71
64.18
62.52
60.8
59.14
57.7
56.61
55.85
55.17
54.13
52.22
49.05
44.54
38.92
32.65
26.24
20.06
14.19
8.46
2.55
-3.81
-10.73
-18.06
-25.42
-32.37
-38.61
-44.07
-49.06
-54.2
-60.28
-67.9
-77.17
-87.24
-96.38
-102.18
-102.29
-95.25
-81.04
-61.22
-38.41
-15.48
5.29
22.67
36.42
46.96
54.79
60.3
63.63
64.92
64.47
62.77
60.45
58.06
55.91
54.07
52.48
51.05
49.77
48.66
47.66
46.53
44.91
42.4
38.71
33.89
28.19
22.01
15.68
9.28
2.69
-4.32
-11.85
-19.81
-27.86
-35.58
-42.64
-48.96
-54.78
-60.63
-67.13
-74.9
-84.22
-94.78
-105.47
-114.35
-118.97
-117.17
-107.76
-91.1
-69.09
-44.55
-20.35
1.42
19.78
34.76
46.84
56.54
64.13
69.69
73.28
75.07
75.39
74.61
73.08
71.02
68.6
65.99
63.35
60.9
58.76
56.95
55.25
53.28
50.58
46.79
41.79
35.8
29.27
22.66
16.26
10.03
3.67
-3.17
-10.7
-18.84
-27.26
-35.52
-43.26
-50.3
-56.77
-63.03
-69.67
-77.43
-86.81
-97.74
-109.2
-119.1
-124.78
-123.79
-114.8
-98.19
-75.94
-50.96
-26.13
-3.52
15.84
31.87
44.88
55.25
63.27
69.13
73.1
75.53
76.79
77.19
76.91
75.94
74.26
71.89
68.96
65.83
62.9
60.54
58.87
57.66
56.28
53.96
50.05
44.33
37.09
29.08
21.22
14.23
8.32
3.15
-1.97
-7.78
-14.64
-22.4
-30.48
-38.18
-44.95
-50.71
-55.83
-60.97
-66.87
-74.18
-83.16
-93.55
-104.3
-113.62
-119.22
-118.88
-111.26
-96.36
-75.73
-51.96
-27.88
-5.83
12.84
27.78
39.33
48.09
54.58
59.17
62.07
63.42
63.42
62.34
60.51
58.32
56.12
54.17
52.64
51.57
50.87
50.39
49.85
48.88
47.08
44.11
39.84
34.44
28.32
21.98
15.82
9.96
4.26
-1.59
-7.78
-14.33
-20.97
-27.33
-33.08
-38.13
-42.68
-47.19
-52.34
-58.76
-66.78
-76.14
-85.76
-93.78
-97.96
-96.33
-87.87
-72.99
-53.4
-31.64
-10.22
8.96
24.93
37.53
47.01
53.72
57.94
59.9
59.97
58.68
56.67
54.53
52.67
51.2
50.1
49.21
48.47
47.79
47.15
46.41
45.31
43.53
40.7
36.63
31.39
25.27
18.73
12.22
6.01
0.1
-5.74
-11.86
-18.48
-25.64
-33.07
-40.36
-47.11
-53.11
-58.5
-63.78
-69.7
-77.05
-86.32
-97.25
-108.6
-118.2
-123.41
-121.97
-112.75
-96.26
-74.48
-50.2
-26.19
-4.42
14.16
29.48
41.93
51.97
59.9
65.87
70.02
72.49
73.55
73.57
72.86
71.72
70.25
68.47
66.34
63.93
61.44
59.15
57.22
55.58
53.8
51.27
47.43
42.04
35.37
28.04
20.82
14.24
8.33
2.72
-3.22
-9.98
-17.72
-26.13
-34.64
-42.62
-49.66
-55.79
-61.41
-67.28
-74.26
-83.02
-93.61
-105.22
-116.03
-123.61
-125.51
-120.1
-107.1
-87.75
-64.36
-39.64
-15.95
5.17
23.06
37.67
49.27
58.17
64.65
68.96
71.46
72.51
72.47
71.64
70.17
68.19
65.84
63.32
60.94
58.98
57.56
56.56
55.61
54.14
51.59
47.64
42.29
35.91
29.11
22.51
16.53
11.2
6.19
0.97
-4.98
-11.86
-19.5
-27.41
-34.94
-41.59
-47.17
-51.92
-56.49
-61.81
-68.71
-77.57
-87.96
-98.39
-106.56
-109.89
-106.39
-95.36
-77.74
-55.81
-32.5
-10.48
8.51
23.82
35.67
44.66
51.34
55.98
58.66
59.39
58.42
56.24
53.54
51.01
49.11
47.96
47.34
46.89
46.23
45.16
43.63
41.71
39.44
36.76
33.51
29.52
24.63
18.81
12.13
4.82
-2.85
-10.57
-18.09
-25.22
-31.89
-38.12
-44.07
-50.07
-56.62
-64.24
-73.23
-83.25
-93.08
-100.72
-103.82
-100.48
-89.91
-72.89
-51.5
-28.45
-6.29
13.26
29.43
42.21
51.92
58.93
63.47
65.83
66.34
65.54
64.02
62.25
60.53
58.87
57.19
55.38
53.53
51.83
50.47
49.43
48.38
46.72
43.79
39.22
33.1
25.96
18.58
11.58
5.22
-0.72
-6.74
-13.33
-20.72
-28.78
-37.09
-45.12
-52.46
-59.01
-65.02
-71.02
-77.79
-86.06
-96.17
-107.71
-119.24
-128.43
-132.6
-129.54
-118.31
-99.65
-75.78
-49.68
-24.19
-1.32
18.02
33.83
46.59
56.8
64.84
70.94
75.27
78.05
79.54
80.03
79.76
78.87
77.45
75.57
73.33
70.96
68.74
66.9
65.48
64.27
62.75
60.3
56.37
50.76
43.72
35.89
28.07
20.95
14.77
9.33
4
-1.95
-9.01
-17.22
-26.11
-34.93
-42.96
-49.83
-55.61
-60.89
-66.57
-73.6
-82.64
-93.76
-106.1
-117.79
-126.26
-128.83
-123.61
-110.19
-89.84
-65.17
-39.29
-14.88
6.41
24
38.09
49.19
57.76
64.11
68.46
71.08
72.3
72.5
71.99
70.96
69.51
67.7
65.67
63.61
61.79
60.39
59.41
58.56
57.29
54.97
51.14
45.67
38.92
31.56
24.32
17.71
11.82
6.33
0.74
-5.42
-12.29
-19.66
-27.01
-33.83
-39.79
-44.94
-49.73
-54.94
-61.43
-69.71
-79.62
-89.97
-98.72
-103.35
-101.68
-92.64
-76.68
-55.73
-32.51
-9.77
10.46
27.14
40.11
49.69
56.27
60.11
61.38
60.38
57.62
53.88
50.05
46.92
44.93
44.07
43.95
43.96
43.53
42.35
40.39
37.87
35.03
31.98
28.63
24.71
19.9
14.04
7.2
-0.33
-8.12
-15.8
-23.1
-29.98
-36.53
-42.91
-49.33
-56.02
-63.31
-71.53
-80.8
-90.66
-99.87
-106.42
-108.02
-102.87
-90.43
-71.72
-49.07
-25.4
-3.28
15.63
30.81
42.57
51.48
58.03
62.39
64.59
64.73
63.14
60.48
57.51
54.94
53.13
52.12
51.65
51.36
50.92
50.06
48.64
46.49
43.44
39.38
34.34
28.49
22.12
15.45
8.6
1.5
-5.94
-13.79
-21.9
-29.98
-37.67
-44.69
-50.98
-56.84
-62.82
-69.71
-78.21
-88.62
-100.37
-111.92
-120.89
-124.65
-121.19
-109.81
-91.47
-68.44
-43.58
-19.46
2.24
20.8
36.26
48.91
59.04
66.8
72.31
75.77
77.51
77.95
77.49
76.41
74.9
73.07
71.02
68.91
66.93
65.22
63.82
62.52
60.91
58.43
54.62
49.28
42.61
35.15
27.59
20.48
14
7.97
1.92
-4.63
-11.93
-19.87
-28.03
-35.89
-43.04
-49.36
-55.16
-61.05
-67.86
-76.32
-86.75
-98.69
-110.72
-120.54
-125.5
-123.39
-113.23
-95.67
-72.86
-47.78
-23.33
-1.52
16.82
31.81
44.02
53.98
61.89
67.76
71.55
73.48
74
73.7
73.05
72.25
71.22
69.78
67.85
65.59
63.34
61.5
60.19
59.19
57.9
55.58
51.65
45.96
38.89
31.23
23.88
17.5
12.23
7.72
3.29
-1.76
-7.82
-14.82
-22.34
-29.71
-36.39
-42.1
-46.95
-51.38
-56.1
-61.9
-69.42
-78.84
-89.5
-99.84
-107.53
-110.07
-105.62
-93.63
-75.16
-52.6
-28.92
-6.76
12.17
27.28
38.85
47.52
53.83
58.08
60.4
60.92
60.03
58.26
56.27
54.5
53.16
52.17
51.31
50.45
49.56
48.64
47.63
46.29
44.26
41.22
37.07
32
26.35
20.45
14.47
8.36
1.99
-4.72
-11.69
-18.67
-25.39
-31.61
-37.3
-42.65
-48.04
-54.03
-61.22
-69.98
-80.09
-90.51
-99.37
-104.32
-103.29
-95.2
-80.45
-60.73
-38.57
-16.49
3.65
20.86
34.95
46.1
54.59
60.62
64.37
66.13
66.33
65.5
64.13
62.6
61.05
59.51
57.94
56.39
54.91
53.61
52.48
51.36
49.93
47.72
44.33
39.54
33.43
26.42
19.14
12.23
6.05
0.54
-4.71
-10.32
-16.71
-23.96
-31.71
-39.33
-46.25
-52.15
-57.17
-61.84
-66.91
-73.17
-81.21
-91.11
-102.23
-113.01
-121.16
-124.2
-120.21
-108.58
-90.31
-67.72
-43.66
-20.65
-0.23
17.11
31.63
43.79
53.92
62.09
68.2
72.28
74.51
75.28
75.08
74.34
73.35
72.2
70.87
69.29
67.46
65.47
63.48
61.62
59.84
57.89
55.35
51.81
47
40.97
34.09
26.93
20.06
13.85
8.33
3.24
-1.84
-7.35
-13.53
-20.39
-27.66
-34.96
-41.89
-48.19
-53.8
-58.99
-64.18
-70
-77.1
-85.91
-96.39
-107.69
-118.09
-125.26
-126.81
-121.13
-108.01
-88.77
-65.86
-42.08
-19.76
-0.24
16.07
29.42
40.3
49.07
55.92
60.96
64.32
66.22
66.98
66.99
66.55
65.89
65.05
63.98
62.61
60.97
59.27
57.72
56.51
55.49
54.26
52.23
48.85
43.93
37.7
30.8
24
17.94
12.83
8.46
4.28
-0.26
-5.56
-11.66
-18.28
-24.97
-31.24
-36.81
-41.57
-45.68
-49.55
-53.72
-58.9
-65.69
-74.34
-84.43
-94.65
-102.88
-106.74
-104.26
-94.68
-78.7
-58.34
-36.26
-14.9
4.07
19.95
32.68
42.49
49.58
54.03
56.04
55.99
54.53
52.42
50.3
48.54
47.22
46.2
45.33
44.56
43.92
43.45
43.08
42.54
41.43
39.34
36.04
31.57
26.22
20.45
14.6
8.85
3.05
-3.06
-9.7
-16.85
-24.18
-31.18
-37.43
-42.78
-47.54
-52.38
-58.14
-65.53
-74.8
-85.45
-96.19
-105.03
-109.74
-108.41
-100.08
-85.15
-65.29
-42.97
-20.72
-0.54
16.49
30.17
40.81
48.94
54.96
59.14
61.62
62.58
62.29
61.1
59.39
57.44
55.49
53.63
51.96
50.57
49.54
48.86
48.34
47.55
45.94
43.03
38.61
32.86
26.29
19.49
12.94
6.79
0.82
-5.36
-12.12
-19.59
-27.61
-35.75
-43.51
-50.5
-56.64
-62.19
-67.82
-74.39
-82.76
-93.34
-105.71
-118.31
-128.62
-133.74
-131.32
-120.45
-102.05
-78.57
-53.21
-28.8
-7.09
11.4
27.08
40.55
52.21
62.03
69.74
75.17
78.46
80.01
80.37
79.93
78.89
77.25
75
72.3
69.5
67.06
65.25
63.98
62.75
60.82
57.52
52.55
46.1
38.74
31.18
23.96
17.27
10.92
4.52
-2.36
-9.92
-18.1
-26.52
-34.72
-42.29
-49.03
-55.11
-61.01
-67.46
-75.24
-84.85
-96.2
-108.29
-119.16
-126.19
-126.9
-119.69
-104.57
-83.19
-58.32
-33.03
-9.72
10.27
26.71
39.96
50.59
58.99
65.35
69.8
72.5
73.7
73.7
72.78
71.19
69.15
66.89
64.65
62.64
60.99
59.69
58.55
57.18
55.15
52.05
47.69
42.18
35.86
29.24
22.71
16.46
10.29
3.88
-3.12
-10.77
-18.79
-26.63
-33.73
-39.75
-44.82
-49.52
-54.76
-61.47
-70.13
-80.45
-91.08
-99.83
-104.14
-101.9
-92.24
-75.84
-54.74
-31.7
-9.34
10.5
26.99
40.05
50.02
57.21
61.82
63.93
63.77
61.78
58.67
55.27
52.32
50.25
49.08
48.52
48.08
47.4
46.25
44.61
42.54
40.03
36.99
33.27
28.74
23.31
17.01
9.94
2.29
-5.68
-13.63
-21.19
-28.12
-34.42
-40.35
-46.41
-53.23
-61.36
-71.04
-82.02
-93.3
-103.14
-109.4
-109.95
-103.46
-89.86
-70.49
-47.74
-24.33
-2.61
16
31.03
42.72
51.61
58.22
62.92
65.95
67.55
67.97
67.48
66.33
64.7
62.76
60.62
58.46
56.44
54.67
53.14
51.67
49.88
47.36
43.77
38.99
33.18
26.71
19.99
13.25
6.49
-0.53
-8.03
-16.13
-24.61
-33.05
-41
-48.19
-54.73
-61.05
-67.83
-75.79
-85.35
-96.37
-107.88
-118.09
-124.63
-125.19
-118.21
-103.54
-82.56
-57.78
-32.19
-8.29
12.34
29.22
42.68
53.37
61.92
68.65
73.73
77.17
79.06
79.57
78.97
77.53
75.47
72.96
70.18
67.39
64.83
62.7
60.98
59.39
57.37
54.34
49.88
43.97
37.03
29.72
22.69
16.28
10.41
4.65
-1.57
-8.63
-16.6
-25.11
-33.55
-41.3
-47.97
-53.63
-58.8
-64.32
-71.14
-79.94
-90.73
-102.61
-113.65
-121.27
-122.88
-116.79
-102.82
-82.45
-58.44
-33.86
-11.23
8.05
23.72
36.23
46.24
54.2
60.25
64.44
66.83
67.7
67.45
66.5
65.17
63.61
61.87
60.04
58.26
56.73
55.61
54.79
53.93
52.47
49.87
45.87
40.61
34.55
28.29
22.28
16.64
11.19
5.58
-0.54
-7.27
-14.46
-21.7
-28.52
-34.58
-39.84
-44.65
-49.66
-55.65
-63.22
-72.49
-82.78
-92.54
-99.64
-101.86
-97.61
-86.49
-69.43
-48.54
-26.36
-5.24
13.25
28.42
40.27
49.17
55.48
59.47
61.35
61.4
60.02
57.76
55.16
52.71
50.68
49.15
48.04
47.2
46.53
45.91
45.18
44.1
42.29
39.36
35.09
29.55
23.12
16.38
9.84
3.72
-2.12
-8.08
-14.53
-21.61
-29.12
-36.59
-43.52
-49.64
-55.08
-60.33
-66.15
-73.29
-82.23
-92.77
-103.75
-113.17
-118.51
-117.5
-108.94
-93.15
-71.95
-48.1
-24.4
-2.93
15.28
30.19
42.25
52
59.76
65.63
69.66
72.02
73.03
73.1
72.6
71.7
70.39
68.59
66.26
63.61
61.02
58.89
57.44
56.46
55.37
53.35
49.72
44.21
37.13
29.21
21.35
14.23
8.07
2.57
-2.9
-9
-16.08
-24.08
-32.48
-40.59
-47.83
-53.96
-59.18
-64.08
-69.48
-76.19
-84.79
-95.36
-107.19
-118.65
-127.36
-130.75
-126.79
-114.81
-95.77
-72.1
-46.88
-22.88
-1.85
15.7
30.18
42.33
52.7
61.42
68.3
73.13
75.95
77.05
76.98
76.19
74.97
73.38
71.38
69.01
66.49
64.11
62.17
60.72
59.51
58
55.6
51.82
46.52
39.9
32.53
25.12
18.26
12.27
7.05
2.17
-2.98
-8.88
-15.69
-23.17
-30.83
-38.11
-44.67
-50.48
-55.82
-61.16
-67.04
-74.01
-82.42
-92.29
-102.96
-112.91
-119.9
-121.47
-115.8
-102.39
-82.42
-58.4
-33.35
-9.92
10.27
26.69
39.6
49.49
56.8
61.73
64.43
65.15
64.34
62.64
60.69
59.01
57.78
56.92
56.16
55.28
54.21
53.04
51.92
50.82
49.47
47.37
44.09
39.47
33.75
27.52
21.39
15.8
10.73
5.83
0.58
-5.43
-12.21
-19.48
-26.65
-33.17
-38.7
-43.32
-47.46
-51.85
-57.32
-64.52
-73.54
-83.67
-93.28
-100.09
-101.74
-96.57
-84.19
-65.77
-43.64
-20.62
0.82
19.11
33.64
44.58
52.39
57.54
60.37
61.18
60.31
58.23
55.49
52.63
50.05
47.94
46.34
45.2
44.4
43.79
43.13
42.1
40.35
37.59
33.77
29.05
23.77
18.31
12.83
7.29
1.44
-5.01
-12.12
-19.75
-27.52
-34.98
-41.82
-47.94
-53.52
-59.03
-65.14
-72.58
-81.88
-92.91
-104.63
-115.01
-121.41
-121.33
-113.31
-97.55
-75.88
-51.19
-26.47
-3.97
15.2
30.92
43.55
53.51
60.99
66.07
68.96
70.1
70.18
69.86
69.56
69.32
68.89
67.99
66.43
64.35
62.08
60
58.28
56.78
55
52.3
48.16
42.43
35.43
27.84
20.48
13.87
8.1
2.8
-2.73
-9.1
-16.57
-24.93
-33.58
-41.8
-49.02
-55.08
-60.3
-65.42
-71.42
-79.19
-89.26
-101.39
-114.37
-125.97
-133.44
-134.15
-126.53
-110.65
-88.25
-62.22
-35.71
-11.21
9.89
27.27
41.36
52.72
61.81
68.81
73.81
76.95
78.51
78.9
78.55
77.78
76.72
75.36
73.66
71.62
69.36
67.11
65.05
63.22
61.42
59.21
56.06
51.51
45.44
38.11
30.2
22.51
15.72
10
5.01
-0.02
-5.88
-12.98
-21.15
-29.69
-37.76
-44.74
-50.53
-55.52
-60.47
-66.16
-73.3
-82.26
-92.98
-104.7
-115.86
-124.15
-127.04
-122.52
-109.94
-90.32
-66.16
-40.58
-16.4
4.63
21.89
35.65
46.49
54.91
61.17
65.4
67.78
68.55
68.1
66.81
65.05
63.15
61.35
59.85
58.76
58.07
57.67
57.33
56.65
55.18
52.52
48.45
43.08
36.82
30.3
24.06
18.37
13.12
7.89
2.2
-4.24
-11.35
-18.76
-25.92
-32.41
-38.04
-42.99
-47.8
-53.2
-59.96
-68.47
-78.4
-88.44
-96.4
-99.77
-96.51
-85.81
-68.52
-46.86
-23.75
-1.85
17.03
32.19
43.73
52.13
57.86
61.27
62.62
62.26
60.65
58.31
55.73
53.26
51.09
49.28
47.85
46.81
46.11
45.63
45.14
44.27
42.63
39.91
35.97
30.93
25.09
18.86
12.54
6.26
-0.09
-6.78
-14.05
-21.94
-30.21
-38.37
-45.9
-52.44
-58.06
-63.24
-68.85
-75.8
-84.67
-95.27
-106.34
-115.67
-120.64
-118.93
-109.42
-92.58
-70.36
-45.59
-21.07
1.14
20.02
35.47
47.85
57.61
65
70.22
73.44
75.01
75.38
75.07
74.47
73.75
72.88
71.71
70.14
68.22
66.15
64.21
62.55
61.04
59.26
56.62
52.57
46.84
39.59
31.38
23
15.15
8.23
2.15
-3.57
-9.63
-16.55
-24.46
-33.01
-41.54
-49.3
-55.81
-61.05
-65.47
-69.92
-75.48
-83.11
-93.27
-105.44
-117.91
-127.92
-132.39
-128.9
-116.62
-96.65
-71.68
-45.05
-19.71
2.48
20.93
35.85
47.83
57.33
64.59
69.7
72.79
74.19
74.31
73.65
72.63
71.48
70.24
68.81
67.08
65.01
62.69
60.33
58.13
56.17
54.26
51.96
48.75
44.25
38.38
31.48
24.18
17.16
10.88
5.4
0.41
-4.61
-10.12
-16.33
-23.12
-30.08
-36.74
-42.75
-48.04
-52.86
-57.68
-63.1
-69.71
-77.88
-87.58
-98.13
-108.01
-115.1
-117.05
-112.11
-99.75
-81
-58.16
-34.06
-11.27
8.57
24.83
37.63
47.37
54.41
59.01
61.39
61.88
60.96
59.23
57.24
55.39
53.88
52.73
51.89
51.27
50.81
50.46
50.08
49.43
48.17
45.96
42.61
38.2
33.02
27.47
21.84
16.19
10.39
4.22
-2.43
-9.46
-16.56
-23.29
-29.32
-34.53
-39.13
-43.62
-48.74
-55.26
-63.6
-73.5
-83.73
-92.15
-96.21
-93.8
-83.93
-67.25
-45.75
-22.18
0.81
21.34
38.49
52.19
62.74
70.57
76.06
79.53
81.42
82.26
82.65
83.11
83.97
85.28
86.81
88.27
89.5
90.58
91.83
93.65
96.23
