30.22
17.6
3.14
-11.62
-24.98
-35.08
-40.31
-39.75
-33.59
-23.18
-10.54
2.33
14.02
23.94
32.12
38.73
43.67
46.54
46.8
44.27
39.34
33.05
26.69
21.31
17.37
14.56
12.21
9.56
6.2
2.2
-2.03
-6.06
-9.66
-12.9
-16.16
-19.96
-24.84
-31.19
-39.06
-47.98
-56.9
-64.29
-68.46
-68.08
-62.6
-52.4
-38.71
-23.13
-7.33
7.41
20.13
30.22
37.27
41.18
42.1
40.63
37.62
34.02
30.55
27.5
24.74
21.91
18.67
14.97
11.06
7.36
4.15
1.53
-0.81
-3.36
-6.67
-11.22
-17.22
-24.69
-33.29
-42.35
-50.79
-57.24
-60.32
-58.98
-52.86
-42.4
-28.8
-13.6
1.63
15.69
27.75
37.37
44.3
48.37
49.58
48.13
44.61
39.81
34.65
29.83
25.71
22.21
18.96
15.59
11.87
7.82
3.65
-0.43
-4.31
-8.05
-11.92
-16.34
-21.72
-28.37
-36.26
-44.87
-53.1
-59.47
-62.45
-60.95
-54.67
-44.13
-30.53
-15.31
0.16
14.76
27.65
38.13
45.7
50.01
51.08
49.36
45.67
41.01
36.21
31.77
27.74
23.91
19.99
15.86
11.62
7.51
3.78
0.51
-2.43
-5.36
-8.65
-12.71
-17.89
-24.42
-32.33
-41.2
-50.12
-57.63
-62.14
-62.3
-57.44
-47.86
-34.67
-19.47
-3.89
10.68
23.27
33.2
40.09
43.82
44.51
42.63
38.92
34.26
29.46
25.08
21.33
18.1
15.06
11.8
8.11
4
-0.24
-4.25
-7.75
-10.77
-13.71
-17.2
-21.97
-28.39
-36.35
-45.02
-53.07
-58.88
-61
-58.54
-51.35
-40.1
-26
-10.57
4.7
18.54
30
38.45
43.64
45.65
44.88
42.09
38.13
33.87
29.88
26.39
23.22
20.01
16.45
12.45
8.23
4.14
0.47
-2.76
-5.88
-9.45
-14.11
-20.25
-27.94
-36.73
-45.66
-53.39
-58.43
-59.49
-55.78
-47.31
-34.85
-19.78
-3.76
11.67
25.25
36.16
43.97
48.64
50.37
49.66
47.13
43.46
39.25
34.87
30.5
26.14
21.73
17.3
12.91
8.73
4.86
1.32
-2.07
-5.65
-9.9
-15.31
-22.18
-30.48
-39.57
-48.26
-54.91
-57.94
-56.22
-49.44
-38.26
-24.03
-8.47
6.84
20.65
32.17
40.99
46.86
49.76
49.82
47.47
43.38
38.43
33.35
28.65
24.42
20.48
16.59
12.55
8.44
4.47
0.88
-2.3
-5.32
-8.68
-13.05
-18.92
-26.44
-35.08
-43.71
-50.71
-54.42
-53.6
-47.8
-37.52
-23.97
-8.73
6.65
20.93
33.21
42.87
49.5
52.89
53.14
50.77
46.59
41.6
36.7
32.34
28.54
24.96
21.14
16.83
12.12
7.38
3.03
-0.73
-4.06
-7.47
-11.71
-17.41
-24.85
-33.69
-42.99
-51.25
-56.83
-58.33
-54.95
-46.75
-34.62
-19.96
-4.37
10.68
24
34.74
42.37
46.7
47.87
46.43
43.18
39.05
34.8
30.8
27.09
23.4
19.52
15.38
11.18
7.18
3.54
0.21
-3.12
-6.86
-11.41
-17.01
-23.78
-31.6
-39.98
-48.05
-54.48
-57.76
-56.6
-50.4
-39.48
-25.03
-8.81
7.36
21.93
33.81
42.44
47.61
49.5
48.5
45.25
40.51
35.05
29.55
24.47
20.02
16.16
12.73
9.49
6.27
2.96
-0.39
-3.79
-7.25
-10.98
-15.38
-20.86
-27.62
-35.33
-43
-49.06
-51.77
-49.83
-42.78
-31.29
-16.8
-1.18
13.86
27.05
37.61
45.16
49.56
50.89
49.5
46.03
41.3
36.12
31.1
26.47
22.2
18.11
14.07
10.09
6.31
2.87
-0.23
-3.23
-6.57
-10.8
-16.45
-23.72
-32.34
-41.37
-49.29
-54.36
-55.06
-50.64
-41.27
-28.1
-12.8
2.86
17.37
29.7
39.23
45.65
48.87
49.08
46.74
42.61
37.56
32.38
27.59
23.3
19.34
15.43
11.39
7.27
3.31
-0.25
-3.37
-6.27
-9.49
-13.62
-19.19
-26.33
-34.7
-43.43
-51.25
-56.73
-58.56
-55.96
-48.88
-38.04
-24.65
-10.19
4.02
16.92
27.81
36.2
41.8
44.51
44.52
42.33
38.72
34.51
30.39
26.67
23.37
20.24
17.08
13.82
10.59
7.64
5.11
2.93
0.76
-1.94
-5.77
-11.21
-18.42
-27.17
-36.66
-45.65
-52.56
-55.88
-54.56
-48.37
-37.98
-24.79
-10.46
3.5
16.01
26.49
34.62
40.21
43.11
43.32
41.13
37.22
32.5
27.88
23.94
20.76
18.01
15.15
11.8
7.94
3.88
0.11
-2.99
-5.39
-7.44
-9.81
-13.23
-18.24
-24.97
-33
-41.29
-48.46
-52.98
-53.66
-49.89
-41.87
-30.49
-17.09
-3.13
10.07
21.47
30.35
36.27
39.1
39.09
36.83
33.22
29.12
25.19
21.73
18.68
15.77
12.71
9.42
6
2.7
-0.24
-2.72
-4.86
-7.05
-9.84
-13.8
-19.25
-26.16
-33.92
-41.48
-47.51
-50.72
-50.16
-45.47
-36.96
-25.51
-12.42
0.9
13.2
23.55
31.36
36.41
38.73
38.55
36.36
32.82
28.66
24.53
20.81
17.57
14.56
11.53
8.34
5.07
1.93
-0.91
-3.48
-6.07
-9.15
-13.2
-18.56
-25.25
-32.86
-40.49
-46.86
-50.49
-50.18
-45.33
-36.23
-23.99
-10.24
3.32
15.36
25.08
32.19
36.76
39.01
39.22
37.72
34.96
31.37
27.41
23.43
19.6
15.94
12.37
8.84
5.32
1.91
-1.29
-4.24
-6.99
-9.85
-13.27
-17.8
-23.79
-31.18
-39.28
-46.78
-52.09
-53.76
-50.93
-43.62
-32.65
-19.41
-5.41
8.01
19.83
29.4
36.36
40.52
41.97
40.98
38.12
34.08
29.63
25.31
21.43
18
14.78
11.49
7.99
4.35
0.8
-2.39
-5.14
-7.66
-10.4
-13.95
-18.8
-25.17
-32.79
-40.94
-48.46
-54.01
-56.35
-54.66
-48.85
-39.44
-27.54
-14.44
-1.32
10.88
21.45
29.89
35.82
38.99
39.53
37.91
34.94
31.51
28.24
25.35
22.66
19.78
16.42
12.58
8.5
4.56
1.09
-1.84
-4.34
-6.75
-9.43
-12.82
-17.25
-22.93
-29.7
-36.95
-43.58
-48.17
-49.4
-46.46
-39.33
-28.77
-16.13
-2.91
9.57
20.33
28.75
34.52
37.57
38.07
36.42
33.31
29.53
25.77
22.44
19.58
16.91
14.03
10.66
6.8
2.71
-1.2
-4.59
-7.35
-9.7
-12.08
-15.09
-19.22
-24.8
-31.68
-39.27
-46.43
-51.75
-53.86
-51.84
-45.51
-35.5
-23.02
-9.51
3.71
15.57
25.37
32.65
37.19
39
38.4
35.95
32.38
28.42
24.54
20.96
17.56
14.11
10.41
6.46
2.45
-1.27
-4.39
-6.86
-8.89
-10.98
-13.72
-17.61
-22.89
-29.35
-36.27
-42.49
-46.64
-47.47
-44.2
-36.8
-25.97
-12.93
0.95
14.44
26.61
36.76
44.37
48.98
50.42
48.83
44.8
39.31
33.42
28.02
23.6
20.16
17.32
14.6
11.62
8.26
4.69
1.22
-1.91
-4.67
-7.32
-10.32
-14.26
-19.59
-26.48
-34.59
-43.05
-50.48
-55.31
-56.17
-52.34
-44
-32.19
-18.44
-4.32
8.92
20.46
29.83
36.71
40.87
42.22
41.02
37.87
33.68
29.38
25.55
22.34
19.44
16.4
12.84
8.73
4.33
0.11
-3.56
-6.59
-9.19
-11.91
-15.35
-20.06
-26.32
-34
-42.47
-50.6
-56.96
-60.11
-59.03
-53.36
-43.64
-31.05
-17.12
-3.33
9.23
19.84
28.13
33.91
37.1
37.81
36.38
33.41
29.64
25.71
21.95
18.41
14.87
11.13
7.11
2.96
-1.01
-4.53
-7.47
-9.94
-12.26
-14.86
-18.14
-22.38
-27.66
-33.73
-40.06
-45.7
-49.5
-50.27
-47.17
-39.98
-29.27
-16.3
-2.64
10.12
20.83
28.86
34.05
36.55
36.7
34.92
31.72
27.71
23.48
19.49
15.93
12.63
9.26
5.47
1.14
-3.56
-8.19
-12.31
-15.62
-18.17
-20.37
-22.82
-26.2
-30.84
-36.62
-42.76
-47.95
-50.69
-49.66
-44.22
-34.55
-21.68
-7.15
7.3
20.16
30.29
37.1
40.48
40.82
38.85
35.49
31.62
27.86
24.51
21.53
18.65
15.67
12.47
9.15
5.83
2.66
-0.3
-3.17
-6.13
-9.47
-13.44
-18.29
-24.02
-30.38
-36.67
-41.82
-44.6
-43.87
-39.07
-30.34
-18.64
-5.46
7.57
19.07
28.22
34.78
38.97
41.21
41.93
41.54
40.44
39.14
38.19
38.05
38.79
39.97
40.61
39.64
36.3
30.54
23.14
15.49
9.24
5.78
6.04
10.33
18.23
28.73
40.1
49.89
55.09
52.83
41.33
20.89
-5.44
-32.32
-53.63
-64.4
-62.64
-49.99
-30.96
-11.14
4.88
14.86
18.96
18.89
16.62
13.49
10
6.22
2.32
-1.18
-3.61
-4.54
-4.22
-3.58
-3.84
-6.02
-10.5
-16.94
-24.48
-32.06
-38.71
-43.62
-46.15
-45.77
-42.18
-35.31
-25.53
-13.57
-0.44
12.69
24.7
34.61
41.66
45.45
45.96
43.66
39.36
34.08
28.7
23.79
19.5
15.55
11.57
7.23
2.48
-2.53
-7.47
-12.09
-16.36
-20.49
-24.98
-30.42
-37.21
-45.36
-54.23
-62.54
-68.64
-70.91
-68.31
-60.64
-48.63
-33.71
-17.56
-1.84
12.16
23.53
31.74
36.65
38.38
37.49
34.69
30.86
26.77
22.89
19.35
15.96
12.44
8.56
4.33
-0.08
-4.3
-8.07
-11.41
-14.65
-18.44
-23.5
-30.25
-38.54
-47.43
-55.39
-60.59
-61.45
-57.14
-47.77
-34.35
-18.56
-2.21
13.06
26.03
36.04
42.83
46.53
47.49
46.23
43.41
39.66
35.54
31.36
27.21
22.93
18.38
13.51
8.51
3.72
-0.58
-4.3
-7.84
-11.86
-17.11
-24.08
-32.65
-41.93
-50.4
-56.25
-57.87
-54.37
-45.77
-33.04
-17.7
-1.5
13.98
27.51
38.23
45.74
49.98
51.31
50.36
47.92
44.66
41
37.07
32.8
28.17
23.25
18.28
13.5
9.03
4.84
0.75
-3.46
-8.07
-13.34
-19.55
-26.81
-34.87
-42.94
-49.69
-53.47
-52.83
-47
-36.22
-21.67
-5.19
11.22
25.93
37.86
46.55
52.02
54.58
54.65
52.67
49.11
44.44
39.14
33.63
28.21
23.03
18.09
13.32
8.73
4.33
0.16
-3.85
-8
-12.8
-18.78
-26.21
-34.8
-43.57
-50.98
-55.27
-55.05
-49.64
-39.38
-25.49
-9.8
5.78
19.65
30.72
38.52
43.09
44.79
44.23
42.13
39.31
36.59
34.66
33.83
33.95
34.42
34.34
32.89
29.63
24.68
18.72
12.82
8.07
5.25
4.61
5.81
8.19
11.01
13.77
16.29
18.53
20.44
21.76
22.01
20.71
17.78
13.68
9.42
6.22
5.02
6.09
8.84
12.04
14.16
13.89
10.13
2.06
-10.98
-29.13
-51.26
-74.4
-93.97
-105.27
-105.44
-95.15
-78.57
-61.7
-49.76
-44.97
-46.07
-49.47
-51.4
-49.51
-43.42
-34.05
-22.52
-9.59
4.45
19.16
33.57
46.21
55.54
60.5
60.96
57.85
52.76
47.39
42.81
39.25
36.2
32.77
28.33
22.82
16.84
11.16
6.37
2.52
-0.92
-4.85
-10.11
-17.09
-25.43
-34.01
-41.16
-45.08
-44.39
-38.54
-28.05
-14.36
0.57
14.78
26.83
35.94
42.03
45.4
46.49
45.66
43.19
39.35
34.41
28.79
22.94
17.28
12.12
7.58
3.62
0.1
-3.17
-6.39
-9.84
-13.83
-18.74
-24.87
-32.19
-40.17
-47.65
-53.08
-54.88
-52.02
-44.39
-32.91
-19.22
-5.14
7.79
18.58
26.78
32.28
35.17
35.65
34.03
30.77
26.39
21.42
16.27
11.21
6.43
2.02
-1.96
-5.52
-8.71
-11.67
-14.6
-17.75
-21.51
-26.28
-32.32
-39.49
-47.03
-53.53
-57.27
-56.74
-51.19
-40.97
-27.36
-12.2
2.65
15.78
26.29
33.83
38.36
40.09
39.36
36.72
32.77
28.09
23.15
18.21
13.39
8.72
4.22
-0.07
-4.13
-7.96
-11.64
-15.37
-19.45
-24.25
-30.14
-37.2
-44.95
-52.29
-57.59
-59.17
-55.87
-47.45
-34.77
-19.48
-3.47
11.57
24.5
34.74
42.11
46.63
48.39
47.67
44.88
40.62
35.58
30.33
25.24
20.39
15.73
11.14
6.63
2.32
-1.66
-5.27
-8.77
-12.66
-17.6
-24.06
-32.01
-40.67
-48.54
-53.75
-54.59
-50.13
-40.49
-26.9
-11.17
4.77
19.38
31.72
41.32
48.06
51.92
53.05
51.73
48.49
43.97
38.78
33.36
27.86
22.3
16.59
10.81
5.12
-0.2
-5.03
-9.46
-13.88
-18.87
-25.01
-32.67
-41.64
-51.04
-59.33
-64.6
-65.14
-59.95
-49.18
-34.02
-16.43
1.48
17.94
31.79
42.43
49.73
53.78
54.86
53.45
50.16
45.67
40.55
35.12
29.49
23.66
17.72
11.93
6.66
2.24
-1.32
-4.3
-7.31
-11.09
-16.25
-23.1
-31.44
-40.44
-48.73
-54.54
-56.16
-52.52
-43.49
-30.07
-14.1
2.29
17.25
29.57
38.67
44.52
47.32
47.47
45.47
41.91
37.47
32.67
27.86
23.12
18.4
13.67
9.01
4.65
0.76
-2.61
-5.68
-8.92
-12.94
-18.31
-25.33
-33.79
-42.83
-50.99
-56.44
-57.55
-53.37
-43.98
-30.47
-14.62
1.69
16.81
29.6
39.44
46.06
49.57
50.29
48.79
45.74
41.76
37.31
32.63
27.83
22.97
18.2
13.7
9.59
5.87
2.32
-1.39
-5.71
-11.04
-17.62
-25.51
-34.27
-43.06
-50.52
-55.15
-55.56
-50.99
-41.53
-28.24
-12.8
2.93
17.32
29.29
38.29
44.22
47.24
47.67
45.98
42.66
38.3
33.36
28.2
23.02
17.92
13.01
8.41
4.25
0.58
-2.7
-5.87
-9.31
-13.43
-18.61
-25.02
-32.48
-40.28
-47.13
-51.34
-51.29
-46.02
-35.58
-21.18
-4.77
11.55
26.08
37.81
46.4
51.94
54.66
54.81
52.72
48.78
43.51
37.47
31.18
25.05
19.31
14.02
9.17
4.68
0.49
-3.47
-7.36
-11.4
-16.02
-21.64
-28.52
-36.44
-44.53
-51.32
-55.09
-54.37
-48.46
-37.74
-23.53
-7.78
7.53
20.81
31.17
38.4
42.71
44.52
44.22
42.14
38.53
33.7
28
21.91
15.87
10.23
5.23
0.89
-2.86
-6.21
-9.36
-12.6
-16.24
-20.7
-26.34
-33.26
-41.05
-48.64
-54.43
-56.71
-54.19
-46.53
-34.43
-19.48
-3.64
11.26
23.92
33.63
40.13
43.55
44.15
42.38
38.76
33.96
28.61
23.28
18.3
13.74
9.46
5.24
0.95
-3.39
-7.61
-11.56
-15.31
-19.23
-23.92
-29.92
-37.3
-45.32
-52.47
-56.82
-56.64
-51.06
-40.36
-25.9
-9.66
6.34
20.55
32.04
40.52
46.01
48.67
48.76
46.54
42.44
37
30.86
24.64
18.82
13.65
9.12
5.08
1.27
-2.43
-6.1
-9.81
-13.75
-18.36
-24.06
-31.12
-39.16
-47.04
-52.99
-55.16
-52.26
-44.03
-31.41
-16.12
-0.17
14.73
27.39
37.18
43.86
47.41
48.07
46.28
42.73
38.18
33.35
28.72
24.41
20.35
16.34
12.29
8.18
4.13
0.29
-3.32
-6.86
-10.79
-15.68
-22.11
-30.2
-39.39
-48.33
-55.13
-57.99
-55.73
-48.3
-36.65
-22.47
-7.54
6.65
19.09
29.17
36.51
40.9
42.31
41.05
37.72
33.21
28.37
23.77
19.62
15.69
11.66
7.22
2.38
-2.57
-7.24
-11.31
-14.84
-18.26
-22.27
-27.56
-34.4
-42.38
-50.41
-56.89
-60.16
-59.01
-53
-42.58
-28.95
-13.67
1.68
15.77
27.6
36.55
42.31
44.9
44.63
42.14
38.23
33.66
28.98
24.42
19.95
15.41
10.71
5.92
1.28
-2.89
-6.41
-9.32
-12
-15.06
-19.17
-24.81
-32.01
-40.14
-47.95
-53.8
-56.1
-53.77
-46.57
-35.13
-20.82
-5.36
9.52
22.45
32.47
39.19
42.61
43.14
41.43
38.18
34.04
29.48
24.79
20.12
15.55
11.16
7
3.11
-0.5
-3.86
-7.02
-10.06
-13.2
-16.81
-21.33
-27.12
-34.07
-41.46
-47.87
-51.57
-50.98
-45.34
-34.97
-21.19
-5.94
8.85
21.73
31.94
39.26
43.81
45.85
45.63
43.45
39.72
34.96
29.71
24.42
19.38
14.67
10.25
6.02
1.96
-1.95
-5.67
-9.28
-13
-17.25
-22.49
-29.03
-36.75
-44.84
-51.9
-56.22
-56.23
-51.14
-41.18
-27.62
-12.36
2.67
15.95
26.64
34.46
39.52
42.08
42.43
40.89
37.88
33.85
29.27
24.5
19.76
15.12
10.59
6.2
2.02
-1.83
-5.3
-8.47
-11.64
-15.28
-19.93
-25.92
-33.14
-40.76
-47.35
-51.19
-50.82
-45.52
-35.69
-22.59
-8.03
6.25
18.95
29.39
37.34
42.78
45.78
46.4
44.88
41.6
37.14
32.08
26.86
21.7
16.63
11.61
6.67
1.98
-2.26
-5.91
-9.04
-12.03
-15.42
-19.82
-25.59
-32.71
-40.49
-47.72
-52.8
-54.22
-50.94
-42.84
-30.75
-16.25
-1.24
12.6
24.09
32.69
38.34
41.24
41.72
40.15
36.97
32.72
27.91
22.97
18.07
13.23
8.35
3.5
-1.13
-5.23
-8.56
-11.16
-13.4
-15.9
-19.37
-24.35
-30.94
-38.64
-46.33
-52.44
-55.32
-53.71
-47.19
-36.27
-22.31
-7.05
7.81
21.03
31.9
40.15
45.78
48.88
49.6
48.2
45.05
40.64
35.47
29.99
24.49
19.12
13.89
8.84
4.04
-0.44
-4.52
-8.35
-12.21
-16.64
-22.09
-28.82
-36.46
-44.05
-50.09
-52.98
-51.46
-45.13
-34.51
-20.94
-6.21
7.94
20.2
29.79
36.43
40.19
41.41
40.53
38.07
34.59
30.53
26.22
21.82
17.43
13.06
8.8
4.69
0.82
-2.8
-6.26
-9.75
-13.63
-18.31
-24.13
-31.18
-39.03
-46.68
-52.63
-55.26
-53.31
-46.34
-34.93
-20.49
-4.9
10.04
22.95
33.05
40.08
44.13
45.49
44.56
41.87
37.96
33.43
28.69
24.01
19.44
14.95
10.5
6.11
1.91
-1.98
-5.52
-8.87
-12.42
-16.74
-22.34
-29.44
-37.61
-45.73
-52.17
-55.17
-53.49
-46.76
-35.68
-21.74
-6.79
7.42
19.61
29.02
35.34
38.63
39.16
37.4
33.9
29.29
24.07
18.61
13.13
7.75
2.57
-2.3
-6.74
-10.73
-14.33
-17.73
-21.17
-24.95
-29.34
-34.59
-40.84
-47.84
-54.95
-60.91
-64.2
-63.36
-57.56
-46.95
-32.7
-16.7
-0.92
13.02
24.17
32.21
37.28
39.7
39.87
38.17
35.04
30.94
26.31
21.56
17.05
12.99
9.41
6.18
3.01
-0.35
-4.06
-8.01
-12.06
-16.15
-20.55
-25.72
-31.95
-38.91
-45.29
-49.18
-48.64
-42.69
-31.67
-17.26
-1.74
12.87
25.3
35.22
42.84
48.44
52.15
54.05
54.38
53.72
52.85
52.37
52.35
52.16
50.75
47.13
40.89
32.43
22.94
14.13
7.76
5.18
6.91
12.33
19.71
26.42
29.57
26.8
16.97
0.42
-21.11
-44.89
-67.63
-85.96
-96.93
-98.63
-90.83
-75.25
-55.28
-34.93
-17.7
-5.44
1.74
5.08
6.16
6.26
5.96
5.4
4.61
3.67
2.68
1.56
-0.06
-2.65
-6.64
-12.2
-19.22
-27.29
-35.7
-43.42
-49.16
-51.58
-49.67
-43.11
-32.44
-18.93
-4.16
10.41
23.7
35.04
43.94
50.09
53.24
53.38
50.87
46.43
40.97
35.28
29.87
24.88
20.16
15.42
10.47
5.23
-0.17
-5.58
-10.95
-16.46
-22.53
-29.66
-38.09
-47.46
-56.63
-63.79
-67.01
-64.88
-57.03
-44.31
-28.49
-11.7
4.21
17.97
28.98
37.05
42.22
44.62
44.43
42.06
38.09
33.18
27.93
22.68
17.55
12.5
7.54
2.73
-1.74
-5.76
-9.46
-13.25
-17.84
-23.95
-31.97
-41.63
-51.85
-60.83
-66.49
-67.06
-61.64
-50.48
-34.98
-17.15
0.83
17.16
30.65
40.69
47.08
49.92
49.56
46.58
41.79
36.05
30.13
24.47
19.22
14.27
9.46
4.76
0.23
-4.01
-8
-12.04
-16.72
-22.72
-30.51
-40.02
-50.36
-59.88
-66.47
-68.15
-63.71
-53.1
-37.49
-18.91
0.35
18.3
33.56
45.4
53.57
58.14
59.37
57.71
53.78
48.28
41.94
35.34
28.91
22.86
17.29
12.21
7.57
3.21
-1.06
-5.57
-10.77
-17.13
-25.05
-34.51
-44.82
-54.53
-61.6
-63.97
-60.21
-50.04
-34.46
-15.45
4.69
23.86
40.53
53.82
63.32
68.95
70.9
69.6
65.77
60.26
53.88
47.22
40.61
34.15
27.87
21.81
16.06
10.66
5.59
0.66
-4.52
-10.45
-17.67
-26.48
-36.7
-47.37
-56.78
-62.72
-63.09
-56.63
-43.44
-25.07
-4.05
16.81
35.18
49.7
59.9
66.05
68.71
68.55
66.16
62.16
57.11
51.54
45.79
40.01
34.15
28.13
21.93
15.74
9.77
4.13
-1.31
-7.07
-13.86
-22.39
-32.96
-45.13
-57.66
-68.66
-76.01
-77.94
-73.55
-63.09
-47.81
-29.71
-10.95
6.48
21.11
32
38.77
41.56
40.93
37.84
33.45
28.94
25.32
23.18
22.61
23.22
24.25
24.92
24.71
23.6
22.02
20.62
19.8
19.48
19.04
17.66
14.78
10.55
5.93
2.32
1.04
2.77
7.29
13.7
20.88
27.99
34.75
41.39
48.21
55.27
62.15
68.02
71.96
73.15
71.03
65.29
56.02
43.96
30.55
17.8
7.65
1.25
-1.65
-2.52
-3.45
-6.16
-11.37
-18.75
-27.39
-36.39
-45.04
-52.68
-58.31
-60.51
-57.8
-49.36
-35.55
-18.08
0.53
17.77
31.79
41.84
48.11
51.31
52.21
51.35
49.01
45.28
40.25
34.09
27.19
20.01
13.06
6.73
1.2
-3.59
-7.91
-12.07
-16.37
-21.09
-26.57
-33.12
-40.85
-49.39
-57.67
-63.99
-66.43
-63.53
-54.81
-41.09
-24.2
-6.38
10.27
24.36
35.21
42.67
46.93
48.33
47.27
44.27
39.95
34.91
29.66
24.47
19.38
14.34
9.31
4.4
-0.21
-4.32
-7.93
-11.3
-14.95
-19.58
-25.72
-33.55
-42.55
-51.55
-58.8
-62.51
-61.32
-54.73
-43.29
-28.44
-12.08
3.92
18.09
29.53
37.89
43.19
45.67
45.7
43.76
40.33
35.92
30.98
25.81
20.6
15.45
10.4
5.48
0.84
-3.42
-7.2
-10.54
-13.71
-17.17
-21.55
-27.36
-34.81
-43.37
-51.84
-58.42
-61.21
-58.91
-51.2
-38.96
-23.94
-8.2
6.48
18.88
28.43
34.97
38.59
39.48
37.97
34.57
29.93
24.71
19.49
14.55
9.99
5.74
1.72
-2.11
-5.7
-9.01
-12.04
-14.94
-18.09
-21.94
-26.93
-33.24
-40.55
-47.92
-53.86
-56.74
-55.18
-48.64
-37.53
-23.17
-7.34
8.07
21.55
32.1
39.27
43.04
43.74
41.96
38.39
33.75
28.58
23.2
17.75
12.2
6.62
1.14
-3.99
-8.58
-12.53
-15.92
-19.07
-22.4
-26.44
-31.63
-38.2
-45.86
-53.7
-60.29
-63.89
-63.03
-56.96
-45.98
-31.37
-14.99
1.2
15.65
27.37
35.96
41.37
43.8
43.61
41.3
37.51
32.92
28.18
23.68
19.56
15.73
12.03
8.36
4.74
1.21
-2.25
-5.85
-9.98
-15.09
-21.51
-29.21
-37.68
-45.92
-52.56
-56.13
-55.43
-49.87
-39.66
-25.85
-10.07
5.79
20.06
31.56
39.71
44.55
46.48
46.11
44.08
40.96
37.18
33.02
28.65
24.2
19.74
15.38
11.26
7.47
4.01
0.75
-2.65
-6.64
-11.69
-18.14
-26.02
-34.94
-44.02
-51.96
-57.27
-58.62
-55.26
-47.28
-35.59
-21.7
-7.33
6.04
17.35
26.05
31.92
35.01
35.51
33.83
30.6
26.54
22.3
18.26
14.5
10.86
7.14
3.27
-0.65
-4.38
-7.7
-10.56
-13.2
-16.11
-19.92
-25.21
-32.13
-40.26
-48.43
-54.96
-58.1
-56.56
-49.97
-39.02
-25.21
-10.42
3.64
15.74
25.22
31.84
35.72
37.09
36.33
33.86
30.2
25.85
21.29
16.85
12.72
8.91
5.36
1.96
-1.36
-4.57
-7.6
-10.4
-13.04
-15.87
-19.41
-24.22
-30.5
-37.79
-44.9
-50.1
-51.65
-48.38
-40.09
-27.7
-12.89
2.4
16.42
27.96
36.39
41.54
43.6
42.94
40.15
35.92
30.96
25.84
20.96
16.49
12.36
8.5
4.78
1.18
-2.29
-5.6
-8.78
-12.01
-15.6
-19.96
-25.45
-32.12
-39.46
-46.3
-50.99
-51.87
-47.84
-38.82
-25.79
-10.47
5.2
19.58
31.6
40.74
46.79
49.76
49.75
47.12
42.47
36.61
30.32
24.23
18.67
13.77
9.47
5.75
2.57
-0.16
-2.61
-5.14
-8.16
-12.15
-17.44
-24.18
-32.12
-40.48
-47.97
-52.92
-53.79
-49.63
-40.47
-27.39
-12.24
2.98
16.6
27.53
35.34
40
41.72
40.86
37.91
33.48
28.27
22.9
17.78
13.08
8.76
4.73
0.94
-2.54
-5.64
-8.37
-10.9
-13.67
-17.26
-22.2
-28.7
-36.39
-44.22
-50.61
-53.87
-52.72
-46.73
-36.38
-23
-8.23
6.29
19.29
29.91
37.68
42.43
44.29
43.62
41
37.09
32.53
27.71
22.86
17.96
12.95
7.83
2.76
-2.03
-6.26
-9.78
-12.76
-15.64
-19.12
-23.91
-30.39
-38.35
-46.81
-54.17
-58.57
-58.5
-53.21
-43.03
-29.25
-13.77
1.45
14.81
25.35
32.76
37.17
38.97
38.6
36.49
33.05
28.68
23.77
18.66
13.63
8.88
4.52
0.58
-2.92
-6.03
-8.85
-11.59
-14.61
-18.35
-23.24
-29.47
-36.79
-44.34
-50.69
-54.18
-53.32
-47.41
-36.73
-22.6
-6.91
8.39
21.77
32.35
39.87
44.42
46.27
45.74
43.18
39.01
33.74
27.87
21.87
16.09
10.76
5.98
1.75
-2.01
-5.48
-8.9
-12.59
-16.88
-22.12
-28.54
-36.1
-44.29
-52.03
-57.81
-60
-57.39
-49.6
-37.29
-22
-5.67
9.86
23.19
33.54
40.65
44.63
45.83
44.74
41.97
38.14
33.83
29.4
25.05
20.81
16.63
12.5
8.45
4.52
0.72
-3.05
-7.03
-11.55
-17.02
-23.74
-31.74
-40.49
-48.87
-55.21
-57.71
-55.05
-46.9
-34.07
-18.36
-1.91
13.35
26.15
35.94
42.64
46.47
47.66
46.56
43.6
39.35
34.43
29.38
24.55
20.04
15.79
11.69
7.61
3.54
-0.48
-4.41
-8.32
-12.44
-17.18
-22.99
-30.09
-38.14
-46.08
-52.3
-54.98
-52.76
-45.16
-32.84
-17.4
-0.89
14.75
28.07
38.28
45.12
48.7
49.27
47.23
43.06
37.49
31.29
25.2
19.75
15.11
11.15
7.6
4.17
0.71
-2.82
-6.39
-10.09
-14.15
-19.01
-25.09
-32.6
-41.19
-49.88
-57.05
-60.89
-59.9
-53.42
-41.86
-26.63
-9.72
6.85
21.45
33.06
41.26
46.03
47.59
46.37
42.94
38.01
32.35
26.66
21.42
16.81
12.71
8.87
5.04
1.16
-2.73
-6.51
-10.15
-13.93
-18.35
-24.04
-31.28
-39.79
-48.44
-55.45
-58.83
-57.04
-49.58
-37.18
-21.56
-4.84
11.01
24.63
35.35
42.96
47.49
49.13
48.17
45.14
40.73
35.69
30.61
25.78
21.15
16.56
11.84
7.02
2.28
-2.13
-6.11
-9.79
-13.6
-18.23
-24.28
-32.03
-41.03
-49.96
-56.89
-59.77
-57.14
-48.6
-35.06
-18.33
-0.55
16.34
30.95
42.43
50.39
54.76
55.78
54.04
50.37
45.68
40.7
35.77
30.89
25.89
20.68
15.36
10.2
5.44
1.18
-2.72
-6.62
-11.01
-16.38
-23.06
-31.06
-39.78
-47.99
-53.98
-55.98
-52.74
-44.05
-30.8
-14.76
2.01
17.73
31.17
41.67
48.97
53.04
54
52.27
48.49
43.52
38.14
32.88
27.95
23.22
18.55
13.87
9.27
4.97
1.08
-2.46
-5.96
-9.86
-14.71
-20.89
-28.43
-36.88
-45.18
-51.82
-55.15
-53.84
-47.31
-35.96
-21.06
-4.45
11.93
26.46
38.04
46.15
50.77
52.23
51.12
48.08
43.81
38.87
33.75
28.73
23.97
19.46
15.13
10.89
6.65
2.44
-1.69
-5.71
-9.81
-14.38
-19.99
-27.09
-35.69
-45.09
-53.88
-60.16
-62.14
-58.7
-49.72
-36.22
-19.97
-3.02
12.77
26.13
36.33
43.14
46.7
47.35
45.61
42.14
37.63
32.66
27.66
22.79
18.05
13.39
8.78
4.33
0.2
-3.48
-6.74
-9.82
-13.18
-17.41
-23.03
-30.23
-38.66
-47.23
-54.32
-58.11
-57.16
-50.81
-39.5
-24.59
-8.01
8.31
22.8
34.51
43.06
48.49
51.12
51.37
49.74
46.73
42.84
38.46
33.87
29.26
24.73
20.36
16.17
12.18
8.31
4.41
0.3
-4.26
-9.59
-15.99
-23.72
-32.69
-42.2
-50.89
-56.91
-58.42
-54.34
-44.7
-30.81
-14.72
1.39
15.81
27.58
36.31
41.99
44.7
44.64
42.16
37.89
32.59
26.99
21.52
16.32
11.25
6.11
0.85
-4.39
-9.32
-13.7
-17.51
-21.05
-24.92
-29.84
-36.33
-44.42
-53.34
-61.65
-67.48
-69.06
-65.36
-56.41
-43.25
-27.6
-11.33
4.04
17.46
28.34
36.34
41.28
43.15
42.23
39.15
34.75
29.89
25.17
20.81
16.73
12.73
8.69
4.68
0.92
-2.39
-5.27
-8.03
-11.28
-15.73
-21.93
-29.98
-39.27
-48.52
-55.91
-59.6
-58.24
-51.44
-39.88
-25.12
-9.16
6.12
19.31
29.63
36.8
40.89
42.1
40.78
37.43
32.69
27.28
21.81
16.72
12.19
8.17
4.52
1.08
-2.21
-5.3
-8.17
-10.86
-13.66
-17.1
-21.81
-28.18
-35.95
-44.05
-50.69
-53.89
-52.21
-45.29
-33.98
-19.95
-5.09
9.11
21.75
32.47
41.12
47.52
51.46
52.83
51.85
49.01
45.01
40.48
35.89
31.52
27.56
24.2
21.54
19.55
17.85
15.84
12.89
8.69
3.38
-2.45
-8
-12.7
-16.32
-18.93
-20.66
-21.5
-21.1
-19.01
-14.87
-8.82
-1.52
5.82
11.77
14.89
14.09
8.77
-0.99
-14.32
-29.55
-44.45
-56.54
-63.62
-64.24
-57.95
-45.54
-28.74
-9.9
8.49
24.34
36.27
43.79
47.14
47.03
44.37
40.13
35.44
31.67
30.38
32.93
39.95
50.94
64.18
77.29
87.98
94.71
96.99
95.15
89.99
82.35
72.97
62.55
51.87
41.73
32.77
25.22
18.86
13.04
7.03
0.36
-7.01
-14.77
-22.42
-29.49
-35.83
-41.55
-47.12
-53.17
-60.21
-68.37
-77.06
-85.01
-90.45
-91.77
-87.93
-78.95
-65.82
-50.12
-33.51
-17.4
-2.82
9.42
18.65
24.39
26.53
25.53
22.33
18.12
13.95
10.31
7.2
4.2
0.86
-3.04
-7.36
-11.73
-15.74
-19.14
-22.02
-24.75
-27.99
-32.42
-38.61
-46.68
-56.15
-65.86
-74.1
-79.02
-79.12
-73.67
-62.95
-48.13
-30.87
-12.96
4.04
18.93
30.83
39.22
43.88
44.98
43.14
39.3
34.54
29.79
25.61
22.06
18.87
15.65
12.08
8.08
3.82
-0.42
-4.4
-8.1
-11.71
-15.71
-20.63
-27.01
-35.13
-44.75
-54.98
-64.3
-70.75
-72.53
-68.48
-58.54
-43.8
-26.14
-7.64
9.91
25.32
37.93
47.39
53.52
56.31
55.97
53.16
48.82
43.99
39.41
35.29
31.35
27.08
22.16
16.65
11.01
5.9
1.68
-1.7
-4.83
-8.58
-13.83
-21.16
-30.66
-41.78
-53.34
-63.63
-70.71
-72.88
-69.14
-59.49
-44.95
-27.24
-8.3
10.13
26.69
40.48
50.92
57.66
60.64
60.18
56.99
52.07
46.46
41.01
36.14
31.86
27.86
23.75
19.25
14.33
9.2
4.14
-0.67
-5.27
-10
-15.42
-22.19
-30.75
-41.1
-52.57
-63.78
-72.84
-77.85
-77.46
-71.33
-60.17
-45.48
-28.99
-12.16
4.06
19.07
32.36
43.3
51.12
55.27
55.69
53.04
48.5
43.41
38.8
35.06
32.03
29.21
26.1
22.5
18.58
14.74
11.48
9.11
7.65
6.82
6.01
4.4
1.1
-4.54
-12.64
-22.39
-32.08
-39.46
-42.45
-40.03
-32.64
-22.13
-10.96
-1.18
6.36
12.25
18.06
25.45
35.43
47.93
61.89
75.66
87.43
95.5
98.51
95.63
86.99
73.84
58.63
44.35
33.56
27.44
25.28
24.94
23.83
20.14
13.39
4.32
-5.94
-16.6
-27.42
-38.27
-48.47
-56.47
-60.24
-58.09
-49.64
-36.01
-19.49
-2.63
12.63
25.31
35.34
42.91
48.13
50.82
50.73
47.84
42.65
36.14
29.48
23.67
19.12
15.66
12.67
9.44
5.53
0.94
-3.88
-8.43
-12.37
-15.87
-19.54
-24.28
-30.79
-39.24
-48.94
-58.41
-65.72
-69.03
-67.16
-59.88
-47.94
-32.72
-15.93
0.88
16.41
29.7
40.08
47.12
50.72
51.16
49.12
45.5
41.19
36.81
32.59
28.46
24.13
19.43
14.4
9.32
4.62
0.56
-2.81
-5.79
-8.88
-12.65
-17.65
-24.28
-32.64
-42.34
-52.36
-61.1
-66.64
-67.32
-62.34
-52.02
-37.8
-21.67
-5.52
9.23
21.84
32
39.59
44.49
46.67
46.29
43.82
40.05
35.77
31.65
27.99
24.69
21.42
17.81
13.73
9.33
5.08
1.44
-1.37
-3.54
-5.72
-8.78
-13.52
-20.32
-28.94
-38.44
-47.38
-54.07
-57.06
-55.47
-49.18
-38.84
-25.57
-10.74
4.37
18.61
31.01
40.79
47.37
50.54
50.53
48.04
44
39.35
34.73
30.37
26.2
21.96
17.5
12.9
8.4
4.3
0.77
-2.25
-5.04
-8.05
-11.75
-16.56
-22.78
-30.51
-39.41
-48.66
-56.87
-62.3
-63.32
-58.95
-49.27
-35.43
-19.39
-3.24
11.22
22.91
31.44
36.81
39.33
39.28
37.09
33.25
28.45
23.37
18.55
14.3
10.53
6.99
3.39
-0.36
-4.16
-7.8
-11.12
-14.24
-17.52
-21.51
-26.73
-33.45
-41.45
-49.96
-57.63
-62.88
-64.19
-60.63
-52.2
-39.8
-25.04
-9.71
4.68
17.14
27.14
34.46
38.98
40.7
39.83
36.88
32.66
28.03
23.58
19.54
15.72
11.84
7.69
3.32
-0.97
-4.86
-8.24
-11.26
-14.35
-18.14
-23.18
-29.78
-37.73
-46.19
-53.78
-58.79
-59.73
-55.71
-46.82
-34.05
-19.03
-3.53
10.89
23.09
32.47
38.75
41.99
42.53
40.92
37.87
34.02
29.85
25.55
21.1
16.42
11.57
6.74
2.21
-1.73
-5.02
-7.79
-10.42
-13.37
-17.18
-22.3
-28.91
-36.71
-44.81
-51.72
-55.7
-55.29
-49.79
-39.57
-25.94
-10.66
4.51
18.25
29.7
38.39
44.04
46.59
46.27
43.58
39.34
34.38
29.39
24.68
20.25
15.95
11.64
7.31
3.08
-0.88
-4.46
-7.67
-10.73
-14.01
-18.03
-23.28
-30.03
-38.1
-46.58
-54.01
-58.59
-58.8
-53.86
-44.03
-30.58
-15.28
0.02
13.92
25.53
34.46
40.61
44.01
44.8
43.27
39.91
35.37
30.4
25.6
21.3
17.51
14.02
10.5
6.8
2.96
-0.76
-4.1
-6.97
-9.63
-12.63
-16.64
-22.16
-29.24
-37.33
-45.3
-51.65
-54.86
-53.82
-48.09
-38.07
-24.85
-9.96
5.07
18.92
30.62
39.54
45.29
47.77
47.23
44.22
39.61
34.29
29.01
24.14
19.72
15.63
11.72
7.92
4.31
0.95
-2.14
-5.08
-8.1
-11.54
-15.76
-21.1
-27.76
-35.61
-44.02
-51.84
-57.57
-59.74
-57.36
-50.2
-38.93
-24.87
-9.63
5.24
18.51
29.3
37.01
41.36
42.43
40.74
37.19
32.87
28.76
25.45
23.02
21.14
19.31
17.11
14.37
11.18
7.78
4.42
1.18
-2.03
-5.52
-9.76
-15.25
-22.25
-30.53
-39.21
-46.84
-51.67
-52.21
-47.67
-38.32
-25.3
-10.32
4.94
19.12
31.31
40.99
47.75
51.38
51.84
49.51
45.12
39.69
34.13
29.04
24.54
20.35
16.1
11.58
6.9
2.41
-1.49
-4.6
-7.08
-9.46
-12.52
-17.01
-23.45
-31.78
-41.35
-50.88
-58.76
-63.39
-63.53
-58.76
-49.44
-36.68
-21.89
-6.52
8.24
21.47
32.45
40.63
45.59
47.24
45.9
42.37
37.64
32.68
28.15
24.26
20.86
17.62
14.32
10.91
7.55
4.48
1.8
-0.52
-2.76
-5.3
-8.55
-12.87
-18.55
-25.69
-34.01
-42.75
-50.5
-55.63
-56.54
-52.38
-43.29
-30.4
-15.44
-0.13
14.18
26.72
37.05
44.89
49.95
51.99
51.03
47.56
42.47
36.82
31.53
27.08
23.45
20.28
17.1
13.62
9.81
5.9
2.16
-1.18
-4.1
-6.89
-10.05
-14.18
-19.78
-27.09
-35.85
-45.24
-53.95
-60.42
-63.23
-61.47
-55
-44.46
-31.05
-16.24
-1.42
12.24
23.85
32.75
38.52
41.02
40.49
37.56
33.15
28.24
23.62
19.73
16.6
14.01
11.63
9.2
6.6
3.86
1.11
-1.59
-4.21
-6.94
-10.05
-13.98
-19.17
-25.86
-33.92
-42.64
-50.8
-56.79
-59.12
-56.83
-49.82
-38.92
-25.48
-11.05
3.12
16.14
27.47
36.65
43.22
46.73
47.01
44.38
39.69
34.13
28.85
24.58
21.46
19.15
17.05
14.66
11.78
8.45
4.97
1.55
-1.74
-5.07
-8.78
-13.27
-18.94
-25.93
-34.05
-42.61
-50.45
-56.11
-58.22
-55.88
-48.93
-38.01
-24.36
-9.41
5.43
19.09
30.74
39.83
45.97
49.06
49.27
47.13
43.47
39.15
34.91
31.16
27.99
25.14
22.29
19.17
15.7
12.03
8.34
4.82
1.43
-2.11
-6.27
-11.63
-18.63
-27.46
-37.77
-48.58
-58.38
-65.38
-67.99
-65.3
-57.42
-45.35
-30.77
-15.42
-0.82
12.05
22.6
30.52
35.66
37.99
37.81
35.63
32.22
28.32
24.51
21.02
17.76
14.51
11.02
7.23
3.27
-0.61
-4.12
-7.17
-9.9
-12.75
-16.34
-21.24
-27.76
-35.71
-44.27
-52.07
-57.48
-59.08
-56.02
-48.32
-36.85
-22.95
-8.16
6.23
19.27
30.26
38.67
44.05
46.2
45.32
42.11
37.58
32.74
28.29
24.4
20.89
17.4
13.75
10
6.37
3.13
0.35
-2.17
-4.83
-8.17
-12.75
-18.93
-26.76
-35.75
-44.82
-52.38
-56.73
-56.56
-51.3
-41.39
-28.08
-13.04
2.03
15.8
27.33
36.09
41.87
44.72
44.97
43.13
39.86
35.72
31.19
26.53
21.91
17.43
13.13
9.11
5.37
1.95
-1.21
-4.18
-7.17
-10.47
-14.53
-19.83
-26.64
-34.79
-43.44
-51.12
-56
-56.46
-51.64
-41.79
-28.23
-12.91
2.21
15.69
26.77
35.26
41.16
44.53
45.42
44.01
40.79
36.51
32.03
27.94
24.38
21.1
17.63
13.69
9.31
4.92
1.02
-2.06
-4.44
-6.71
-9.76
-14.43
-21.17
-29.75
-39.18
-47.87
-53.99
-55.97
-52.91
-44.9
-32.91
-18.47
-3.26
11.33
24.37
35.23
43.54
48.95
51.33
50.79
47.89
43.53
38.72
34.27
30.47
27.16
23.85
20.07
15.65
10.8
6.03
1.8
-1.7
-4.66
-7.6
-11.22
-16.11
-22.61
-30.64
-39.63
-48.52
-55.9
-60.24
-60.27
-55.42
-45.96
-32.96
-18.03
-2.78
11.42
23.71
33.54
40.6
44.71
45.88
44.42
40.98
36.42
31.62
27.2
23.39
20.05
16.87
13.53
9.96
6.28
2.75
-0.45
-3.26
-5.91
-8.78
-12.35
-17.03
-23.09
-30.42
-38.46
-46.15
-52.03
-54.62
-52.83
-46.32
-35.68
-22.22
-7.57
6.78
19.75
30.67
39.15
44.88
47.61
47.31
44.35
39.55
34.02
28.77
24.45
21.09
18.29
15.45
12.17
8.43
4.54
0.9
-2.22
-4.95
-7.75
-11.29
-16.17
-22.74
-30.88
-39.91
-48.64
-55.55
-59.09
-58.13
-52.26
-41.99
-28.56
-13.62
1.19
14.58
25.73
34.17
39.74
42.44
42.5
40.42
36.91
32.8
28.74
25.1
21.83
18.74
15.62
12.42
9.34
6.57
4.22
2.11
-0.13
-2.99
-6.88
-12.07
-18.66
-26.51
-35.14
-43.57
-50.37
-53.9
-52.8
-46.55
-35.67
-21.66
-6.4
8.37
21.54
32.51
41.05
46.99
50.12
50.39
48.09
44
39.12
34.39
30.35
27
23.93
20.66
16.86
12.55
8.02
3.68
-0.19
-3.54
-6.64
-9.92
-13.96
-19.18
-25.79
-33.55
-41.69
-48.98
-53.94
-55.2
-51.96
-44.23
-32.81
-19.09
-4.62
9.29
21.68
31.97
39.76
44.8
46.96
46.39
43.59
39.34
34.57
30.06
26.23
23.06
20.18
17.09
13.39
9
4.21
-0.45
-4.49
-7.63
-10.09
-12.45
-15.57
-20.27
-27.04
-35.82
-45.87
-55.77
-63.73
-67.99
-67.35
-61.53
-51.37
-38.5
-24.95
-12.52
-2.44
4.92
9.87
13.2
15.7
17.83
19.41
19.77
18.05
13.63
6.54
-2.48
-12.19
-21.26
-28.69
-33.98
-37.05
-38.01
-36.93
-33.88
-29.03
-22.89
-16.28
-10.12
-5.12
-1.43
1.37
3.89
6.45
8.79
10.19
10.06
8.58
6.84
6.43
8.51
13.05
18.75
23.7
26.38
26.52
25.15
24.01
24.67
27.88
33.51
40.85
49.02
56.98
63.43
66.73
65.09
57.37
43.7
25.83
6.58
-11.02
-24.85
-34.21
-39.81
-43.21
-45.91
-48.8
-51.81
-54.06
-54.24
-51.18
-44.23
-33.52
-19.97
-5
9.85
23.25
34.22
42.2
46.87
48.25
46.69
42.95
38.1
33.18
28.93
25.61
22.91
20.28
17.13
13.22
8.74
4.19
0.11
-3.27
-6.12
-9.12
-13.11
-18.8
-26.39
-35.46
-44.85
-52.99
-58.27
-59.37
-55.75
-47.63
-35.95
-22.08
-7.44
6.68
19.27
29.59
37.13
41.6
43.03
41.8
38.64
34.47
30.12
26.09
22.44
18.91
15.1
10.83
6.16
1.46
-2.82
-6.4
-9.2
-11.59
-14.08
-17.38
-22.08
-28.56
-36.73
-45.91
-54.84
-61.81
-65.17
-63.73
-57.19
-46.2
-32.09
-16.53
-1.05
13.08
24.99
34.05
39.88
42.42
41.98
39.31
35.36
31.07
27.05
23.46
20.08
16.57
12.73
8.6
4.49
0.73
-2.45
-5.17
-7.77
-10.79
-14.73
-20.02
-26.83
-34.98
-43.75
-51.85
-57.7
-59.7
-56.87
-49.12
-37.35
-23.1
-8.05
6.33
19.07
29.59
37.55
42.67
44.84
44.16
41.09
36.44
31.1
25.84
21.1
16.89
12.95
8.97
4.77
0.44
-3.74
-7.48
-10.72
-13.67
-16.87
-21.01
-26.6
-33.78
-42.02
-50.13
-56.47
-59.38
-57.64
-50.87
-39.6
-25.16
-9.25
6.42
20.42
31.75
39.8
44.32
45.4
43.56
39.54
34.31
28.79
23.57
18.95
14.85
11.01
7.19
3.33
-0.44
-3.92
-6.99
-9.83
-12.88
-16.89
-22.49
-30
-39.01
-48.36
-56.3
-60.95
-60.82
-55.32
-44.93
-30.95
-15.12
0.82
15.48
27.91
37.54
44.06
47.46
47.99
46.21
42.92
38.83
34.52
30.17
25.77
21.21
16.54
12
7.85
4.29
1.15
-1.94
-5.56
-10.27
-16.44
-24.11
-32.87
-41.84
-49.65
-54.76
-55.74
-51.74
-42.73
-29.57
-13.79
2.76
18.32
31.56
41.61
48.22
51.53
51.97
50.19
46.81
42.48
37.62
32.57
27.49
22.51
17.71
13.23
9.19
5.63
2.5
-0.48
-3.72
-7.74
-12.97
-19.65
-27.61
-36.11
-43.88
-49.26
-50.65
-46.93
-37.89
-24.37
-7.98
9.27
25.55
39.51
50.38
57.88
62.08
63.25
61.82
58.36
53.51
47.91
42.05
36.25
30.67
25.35
20.34
15.63
11.28
7.28
3.51
-0.34
-4.69
-10.06
-16.89
-25.22
-34.61
-43.92
-51.48
-55.48
-54.5
-47.93
-36.25
-20.88
-3.76
13.11
28.18
40.39
49.27
54.74
56.98
56.45
53.67
49.33
44.06
38.4
32.76
27.37
22.4
17.9
13.88
10.27
6.93
3.63
0.13
-3.87
-8.74
-14.87
-22.51
-31.57
-41.39
-50.53
-57.17
-59.46
-56.2
-47.32
-33.83
-17.63
-0.81
14.82
28.07
38.37
45.53
49.63
50.83
49.42
45.91
41
35.49
30.11
25.33
21.24
17.68
14.26
10.71
6.94
3.09
-0.69
-4.43
-8.48
-13.56
-20.32
-29.02
-39.11
-49.23
-57.41
-61.68
-60.66
-53.98
-42.33
-27.23
-10.55
5.99
21.02
33.65
43.39
49.96
53.37
53.8
51.75
47.89
42.98
37.68
32.44
27.49
22.87
18.59
14.64
11.02
7.72
4.64
1.57
-1.93
-6.42
-12.49
-20.38
-29.76
-39.54
-47.95
-53.03
-53.23
-47.91
-37.54
-23.55
-7.8
7.9
22.08
33.77
42.38
47.65
49.58
48.53
45.15
40.36
35.05
29.88
25.15
20.85
16.8
12.88
9.11
5.62
2.55
-0.1
-2.62
-5.48
-9.29
-14.54
-21.43
-29.68
-38.34
-46.04
-51.13
-52.2
-48.4
-39.81
-27.3
-12.31
3.47
18.54
31.7
42.15
49.43
53.39
54.23
52.55
49.19
45.08
41.01
37.39
34.28
31.42
28.5
25.32
21.93
18.49
15.18
12.04
8.82
5.13
0.46
-5.53
-12.9
-21.22
-29.55
-36.61
-40.87
-41.11
-36.62
-27.53
-14.81
-0.05
14.87
28.22
38.71
45.67
48.95
48.95
46.33
41.88
36.45
30.68
25.04
19.73
14.79
10.2
5.9
1.91
-1.77
-5.18
-8.41
-11.67
-15.24
-19.46
-24.78
-31.45
-39.42
-48.1
-56.19
-62.05
-64.03
-61.05
-53.05
-41
-26.57
-11.65
2.16
13.79
22.68
28.68
31.88
32.54
31.06
27.94
23.73
18.91
13.93
9.13
4.79
1.1
-1.88
-4.24
-6.22
-8.19
-10.53
-13.58
-17.66
-23.02
-29.66
-37.22
-44.78
-50.86
-53.77
-52.12
-45.34
-33.96
-19.51
-4.03
10.53
22.78
32.05
38.34
41.95
43.3
42.73
40.49
36.88
32.25
27.04
21.73
16.74
12.37
8.71
5.72
3.19
0.83
-1.74
-4.88
-8.91
-14.12
-20.67
-28.48
-37.05
-45.37
-52
-55.34
-54.1
-47.84
-37.08
-23.29
-8.4
5.77
17.81
26.94
32.89
35.7
35.67
33.22
29
23.68
17.94
12.23
6.85
1.88
-2.67
-6.85
-10.67
-14.18
-17.42
-20.49
-23.48
-26.6
-30.2
-34.72
-40.47
-47.31
-54.43
-60.36
-63.35
-61.98
-55.74
-45.21
-31.95
-17.86
-4.7
6.39
14.82
20.46
23.36
23.65
21.59
17.65
12.53
7.01
1.79
-2.74
-6.59
-9.99
-13.23
-16.42
-19.51
-22.31
-24.76
-27.06
-29.7
-33.37
-38.59
-45.4
-53.1
-60.29
-65.11
-65.81
-61.33
-51.66
-37.94
-22.12
-6.38
7.56
18.65
26.68
31.95
34.9
35.94
35.29
33.16
29.78
25.53
20.88
16.29
12.13
8.65
6.01
4.2
3.13
2.53
1.98
0.92
-1.27
-5.17
-11.05
-18.64
-26.9
-34.19
-38.59
-38.49
-33.18
-23.1
-9.74
4.86
18.74
30.46
39.29
45.09
48.04
48.51
46.88
43.61
39.23
34.32
29.39
24.81
20.77
17.23
14.03
10.95
7.82
4.55
1.03
-2.86
-7.39
-12.93
-19.77
-27.82
-36.46
-44.42
-50.04
-51.77
-48.66
-40.72
-28.91
-14.91
-0.47
12.84
23.99
32.41
37.93
40.65
40.8
38.84
35.35
30.99
26.42
22.05
18.05
14.3
10.56
6.62
2.5
-1.6
-5.43
-8.84
-11.98
-15.3
-19.43
-24.9
-31.89
-39.88
-47.72
-53.79
-56.43
-54.46
-47.53
-36.27
-21.97
-6.33
9.07
22.95
34.43
42.89
47.99
49.69
48.28
44.54
39.46
34.06
29.01
24.55
20.53
16.63
12.61
8.49
4.47
0.79
-2.37
-5.1
-7.7
-10.68
-14.59
-19.84
-26.55
-34.31
-42.11
-48.53
-52
-51.33
-46.05
-36.57
-24.03
-9.92
4.22
17.17
27.98
36.01
40.89
42.53
41.2
37.56
32.6
27.3
22.48
18.51
15.37
12.73
10.27
7.74
5.1
2.42
-0.24
-2.88
-5.66
-8.8
-12.63
-17.41
-23.34
-30.33
-37.76
-44.54
-49.13
-50.03
-46.22
-37.62
-25.15
-10.44
4.58
18.28
29.5
37.68
42.7
44.73
44.16
41.5
37.45
32.77
28.11
23.92
20.34
17.32
14.62
12
9.27
6.38
3.38
0.37
-2.62
-5.72
-9.35
-14.06
-20.36
-28.4
-37.6
-46.69
-53.89
-57.44
-56.18
-49.93
-39.54
-26.54
-12.72
0.43
11.9
21.18
28.07
32.51
34.52
34.26
32.13
28.76
24.81
20.88
17.26
14
10.98
8.08
5.24
2.49
-0.13
-2.65
-5.22
-8.13
-11.73
-16.43
-22.43
-29.64
-37.43
-44.59
-49.52
-50.71
-47.25
-39.1
-27.2
-13.04
1.73
15.75
28.1
38.11
45.36
49.49
50.37
48.26
43.89
38.33
32.64
27.58
23.35
19.73
16.27
12.58
8.54
4.34
0.37
-3.13
-6.07
-8.74
-11.6
-15.28
-20.27
-26.75
-34.38
-42.22
-48.91
-52.89
-52.88
-48.26
-39.3
-27.03
-12.98
1.23
14.24
25.08
33.14
38.16
40.12
39.25
36.14
31.57
26.46
21.63
17.54
14.27
11.58
9.11
6.6
3.95
1.23
-1.4
-3.9
-6.37
-9.08
-12.38
-16.64
-22.03
-28.47
-35.44
-41.96
-46.73
-48.38
-45.87
-38.82
-27.72
-13.86
0.99
15
26.65
34.96
39.56
40.63
38.81
34.98
30.11
25.07
20.44
16.43
12.95
9.69
6.31
2.63
-1.35
-5.42
-9.29
-12.67
-15.44
-17.76
-20.15
-23.39
-28.23
-35.03
-43.32
-51.83
-58.62
-61.73
-59.81
-52.59
-40.92
-26.45
-11.08
3.57
16.38
26.76
34.47
39.42
41.63
41.28
38.8
34.79
30.03
25.16
20.6
16.49
12.73
9.17
5.76
2.56
-0.3
-2.75
-4.82
-6.86
-9.35
-12.94
-18.12
-25.02
-33.2
-41.56
-48.58
-52.63
-52.5
-47.72
-38.7
-26.54
-12.7
1.36
14.38
25.35
33.51
38.35
39.76
38.05
34.02
28.79
23.42
18.65
14.68
11.35
8.25
5.16
2.06
-0.78
-3.1
-4.81
-6.08
-7.33
-9.07
-11.83
-15.94
-21.54
-28.4
-35.87
-42.88
-48.05
-50.04
-47.87
-41.25
-30.7
-17.41
-2.9
11.26
23.74
33.63
40.38
43.83
44.14
41.81
37.55
32.18
26.45
20.85
15.69
11.01
6.8
3.03
-0.28
-3.08
-5.33
-7.04
-8.39
-9.65
-11.31
-13.97
-18.19
-24.29
-31.94
-40.15
-47.3
-51.56
-51.44
-46.27
-36.44
-23.2
-8.36
6.28
19.27
29.74
37.31
41.96
43.92
43.46
41
37.05
32.18
26.98
21.96
17.42
13.47
10.01
6.81
3.74
0.68
-2.31
-5.18
-7.99
-10.98
-14.68
-19.72
-26.54
-35.03
-44.33
-52.82
-58.51
-59.72
-55.53
-46.14
-32.73
-17.08
-1.03
13.8
26.24
35.49
41.1
42.93
41.25
36.82
30.7
24.15
18.18
13.4
9.87
7.22
4.98
2.74
0.39
-1.99
-4.26
-6.39
-8.65
-11.51
-15.54
-21.17
-28.49
-37.11
-46.07
-53.93
-59.06
-60.06
-56.09
-47.21
-34.28
-18.75
-2.23
13.79
28.15
40.05
48.94
54.59
57.05
56.72
54.31
50.64
46.44
42.12
37.81
33.4
28.8
24.01
19.2
14.58
10.31
6.37
2.55
-1.48
-6.1
-11.64
-18.31
-26.15
-34.85
-43.67
-51.38
-56.52
-57.7
-54.06
-45.56
-33.02
-17.88
-1.81
13.64
27.28
38.3
46.23
50.9
52.44
51.34
48.36
44.42
40.32
36.58
33.28
30.17
26.82
22.86
18.19
12.95
7.51
2.29
-2.39
-6.44
-10.14
-14.04
-18.95
-25.6
-34.28
-44.48
-54.81
-63.19
-67.42
-65.86
-57.87
-44.02
-25.79
-5.24
15.48
34.31
49.59
60.05
65.03
64.68
60.02
52.87
45.36
39.33
35.8
34.59
34.6
34.31
32.52
28.86
23.94
19
15.24
13.26
12.7
12.42
10.85
6.68
-0.72
-10.93
-22.5
-33.25
-40.84
-43.38
-40.02
-31.17
-18.27
-3.37
11.58
25.11
36.32
44.79
50.31
52.84
52.51
49.89
45.87
41.47
37.44
33.91
30.45
26.28
20.84
14.1
6.6
-0.77
-7.2
-12.29
-16.22
-19.56
-23.09
-27.52
-33.27
-40.36
-48.33
-56.21
-62.66
-66.21
-65.69
-60.53
-51.02
-38.14
-23.26
-7.77
7.16
20.7
32.22
41.16
47.13
49.95
49.83
47.38
43.45
38.84
34.16
29.64
25.31
21.11
17
13.04
9.27
5.75
2.42
-0.87
-4.39
-8.48
-13.56
-20.03
-28.06
-37.39
-47.12
-55.81
-61.73
-63.34
-59.78
-51.08
-38.22
-22.76
-6.47
9.11
22.77
33.75
41.67
46.34
47.85
46.58
43.17
38.49
33.43
28.7
24.66
21.29
18.28
15.31
12.14
8.84
5.62
2.7
0.12
-2.42
-5.43
-9.58
-15.3
-22.68
-31.21
-39.8
-46.98
-51.18
-51.2
-46.46
-37.27
-24.64
-10.04
4.99
19.15
31.47
41.33
48.31
52.19
52.97
51.01
47.02
41.96
36.74
31.94
27.66
23.59
19.3
14.48
9.19
3.8
-1.3
-5.83
-9.88
-13.83
-18.22
-23.53
-29.99
-37.42
-45.16
-52.1
-56.9
-58.31
-55.46
-48.15
-36.91
-22.8
-7.21
8.44
22.84
34.97
44.1
49.86
52.21
51.43
48.11
42.97
36.78
30.22
23.83
17.91
12.58
7.83
3.55
-0.34
-3.9
-7.17
-10.28
-13.44
-16.98
-21.28
-26.63
-33.17
-40.56
-48
-54.17
-57.58
-56.93
-51.6
-41.86
-28.76
-13.84
1.32
15.41
27.55
37.2
44.06
48.01
49.14
47.77
44.44
39.87
34.76
29.7
25
20.69
16.64
12.6
8.41
4.09
-0.19
-4.24
-8
-11.65
-15.64
-20.52
-26.72
-34.28
-42.7
-50.86
-57.21
-60.2
-58.68
-52.28
-41.58
-27.91
-12.92
1.85
15.27
26.69
35.75
42.21
45.89
46.81
45.29
42.03
38.03
34.2
31.17
29.01
27.35
25.61
23.32
20.3
16.8
13.2
9.83
6.74
3.65
0.08
-4.47
-10.35
-17.66
-26.17
-35.29
-44.07
-51.23
-55.37
-55.35
-50.71
-41.78
-29.72
-16.1
-2.49
9.86
20.17
27.97
33.07
35.43
35.24
32.98
29.32
25.07
20.89
17.17
13.95
11.03
8.16
5.17
2.06
-1.06
-4.04
-6.8
-9.35
-11.83
-14.5
-17.7
-21.9
-27.48
-34.55
-42.61
-50.51
-56.56
-59.06
-56.88
-49.84
-38.83
-25.39
-11.19
2.41
14.56
24.82
32.89
38.43
41.09
40.76
37.71
32.71
26.86
21.21
16.43
12.6
9.35
6.19
2.79
-0.8
-4.28
-7.31
-9.79
-11.94
-14.18
-17.01
-20.81
-25.76
-31.78
-38.42
-44.85
-49.8
-51.9
-50.03
-43.69
-33.23
-19.79
-4.99
9.55
22.44
32.78
40.09
44.33
45.75
44.92
42.61
39.61
36.63
34.08
32.1
30.54
29.13
27.57
25.66
23.29
20.46
17.2
13.53
9.46
4.94
-0.11
-5.86
-12.47
-19.97
-28.09
-36.08
-42.78
-46.87
-47.3
-43.63
-36.2
-26.03
-14.39
-2.5
8.77
18.83
27.33
33.84
37.95
39.36
38.05
34.49
29.45
23.91
18.64
14.1
10.35
7.14
4.17
1.18
-1.85
-4.82
-7.49
-9.72
-11.48
-13.03
-14.87
-17.66
-21.98
-28.08
-35.68
-43.83
-51.08
-55.9
-57.01
-53.85
-46.6
-36.12
-23.58
-10.3
2.59
14.08
23.29
29.63
32.8
32.99
30.9
27.61
24.25
21.59
19.89
18.87
17.98
16.66
14.67
12.11
9.34
6.78
4.66
2.92
1.2
-1.01
-4.21
-8.77
-14.8
-22.07
-29.97
-37.51
-43.4
-46.3
-45.16
-39.53
-29.73
-16.83
-2.39
11.96
24.86
35.45
43.28
48.26
50.52
50.35
48.25
44.87
40.99
37.26
34.09
31.48
29.09
26.39
22.95
18.7
13.91
9.13
4.9
1.54
-1.06
-3.3
-5.82
-9.31
-14.26
-20.75
-28.29
-35.81
-41.81
-44.79
-43.69
-38.25
-29.09
-17.43
-4.74
7.7
18.96
28.43
35.64
40.2
41.86
40.66
37.16
32.27
27.08
22.51
18.97
16.37
14.23
12.03
9.5
6.66
3.79
1.15
-1.1
-3.15
-5.35
-8.16
-11.98
-17.12
-23.62
-31.17
-39.05
-46.07
-50.86
-52.1
-49.07
-41.72
-30.8
-17.61
-3.69
9.45
20.55
28.7
33.47
34.91
33.54
30.18
25.79
21.21
16.97
13.4
10.55
8.36
6.68
5.23
3.73
1.89
-0.46
-3.38
-6.68
-10.18
-13.74
-17.32
-21.07
-25
-28.96
-32.42
-34.65
-34.84
-32.39
-27.08
-19.12
-9.07
2.31
14.14
25.5
35.46
43.12
47.81
49.17
47.38
43.01
37
30.37
24.02
18.53
14.13
10.76
8.1
5.79
3.41
0.68
-2.64
-6.71
-11.69
-17.82
-25.31
-34.26
-44.3
-54.5
-63.37
-69.14
-70.34
-66.17
-56.91
-43.73
-28.38
-12.65
1.97
14.54
24.52
31.66
35.85
37.17
35.93
32.73
28.44
23.93
19.86
16.5
13.69
11.04
8.18
5
1.61
-1.69
-4.66
-7.25
-9.65
-12.3
-15.67
-20.23
-26.16
-33.21
-40.57
-46.89
-50.63
-50.45
-45.76
-36.82
-24.8
-11.24
2.32
14.67
25.02
32.92
38.14
40.57
40.46
38.34
35.02
31.27
27.64
24.28
21.02
17.6
13.9
10.01
6.24
2.87
0.01
-2.5
-5.01
-8.03
-12.02
-17.28
-23.85
-31.28
-38.76
-45.01
-48.7
-48.69
-44.38
-35.9
-24.13
-10.41
3.69
16.72
27.57
35.57
40.49
42.52
42.14
40
36.79
33.1
29.3
25.49
21.63
17.6
13.32
8.89
4.51
0.38
-3.35
-6.7
-9.92
-13.37
-17.51
-22.76
-29.34
-37.05
-45.14
-52.34
-57.07
-57.92
-54.04
-45.54
-33.41
-19.26
-4.78
8.58
19.86
28.57
34.53
37.79
38.53
37.12
34.06
29.97
25.42
20.86
16.49
12.34
8.34
4.4
0.58
-3.02
-6.22
-8.97
-11.41
-13.99
-17.32
-22.05
-28.6
-36.79
-45.74
-53.94
-59.56
-61.04
-57.56
-49.34
-37.47
-23.57
-9.25
4.23
16.04
25.71
32.89
37.37
39.04
38.19
35.42
31.61
27.6
23.89
20.62
17.51
14.23
10.53
6.52
2.47
-1.26
-4.52
-7.46
-10.45
-14.08
-18.87
-25.19
-32.99
-41.77
-50.51
-57.77
-62.04
-62.11
-57.48
-48.44
-36.02
-21.65
-6.74
7.53
20.28
30.88
38.87
43.93
46.08
45.61
43.2
39.64
35.63
31.65
27.83
24.16
20.5
16.77
13.04
9.45
6.15
3.19
0.5
-2.19
-5.25
-9.16
-14.34
-21.07
-29.26
-38.3
-47
-53.8
-57.14
-55.96
-50.04
-40.04
-27.31
-13.45
0.2
12.66
23.38
31.99
38.2
41.78
42.64
41.05
37.6
33.18
28.64
24.6
21.24
18.31
15.34
11.91
7.85
3.33
-1.24
-5.47
-9.22
-12.62
-16.17
-20.4
-25.76
-32.35
-39.81
-47.26
-53.4
-56.85
-56.43
-51.56
-42.44
-30.03
-15.7
-0.92
13.04
25.22
34.88
41.54
44.93
45.18
42.86
38.96
34.58
30.58
27.33
24.69
22.15
19.21
15.66
11.62
7.41
3.33
-0.6
-4.57
-8.98
-14.23
-20.58
-28.05
-36.31
-44.66
-51.96
-56.8
-57.74
-53.71
-44.38
-30.32
-12.87
6.2
25.06
42.24
56.65
67.66
74.98
78.71
79.31
77.51
74.2
70.18
66.02
61.96
57.98
53.93
49.64
45.04
40.1
34.97
29.84
24.82
19.89
14.72
8.72
1.21
-8.2
-19.27
-30.9
-41.32
-48.51
-50.85
-47.61
-39.21
-27.05
-13.04
0.94
13.46
23.63
31.07
35.76
37.77
37.39
35.03
31.28
26.83
22.26
17.95
13.91
9.93
5.64
0.81
-4.61
-10.43
-16.3
-21.91
-27.12
-32.09
-37.25
-43.13
-50.05
-57.83
-65.58
-71.84
-74.85
-73.16
-66.13
-54.1
-38.45
-21
-3.69
12.02
25.23
35.51
42.75
46.9
48.08
46.6
43.1
38.44
33.53
29.05
25.19
21.84
18.59
15.14
11.37
7.36
3.25
-0.99
-5.64
-11.21
-18.2
-26.81
-36.61
-46.5
-54.85
-59.89
-60.27
-55.4
-45.73
-32.45
-17.23
-1.7
12.78
25.24
35.09
41.91
45.59
46.18
44.1
39.98
34.62
28.72
22.76
17.06
11.77
7.05
3.03
-0.22
-2.8
-5.07
-7.58
-10.95
-15.66
-21.98
-29.74
-38.36
-46.7
-53.26
-56.44
-54.95
-48.27
-36.87
-22.15
-5.98
9.77
23.64
34.79
42.86
47.84
49.89
49.31
46.54
42.15
36.82
31.04
25.18
19.36
13.6
7.95
2.6
-2.21
-6.29
-9.63
-12.52
-15.49
-19.17
-24.07
-30.44
-37.96
-45.8
-52.59
-56.71
-56.75
-51.9
-42.29
-28.94
-13.43
2.53
17.57
30.75
41.62
49.93
55.52
58.27
58.24
55.76
51.39
45.92
40.06
34.36
29.08
24.29
19.95
15.99
12.34
8.91
5.55
2.01
-1.99
-6.81
-12.71
-19.88
-28.26
-37.31
-45.95
-52.65
-55.82
-54.21
-47.43
-36.1
-21.66
-5.92
9.43
23.15
34.53
43.22
49.05
51.99
52.12
49.82
45.67
40.48
34.98
29.74
25
20.67
16.55
12.35
7.99
3.52
-0.86
-4.96
-8.78
-12.53
-16.71
-21.93
-28.63
-36.73
-45.51
-53.48
-58.87
-60.09
-56.29
-47.61
-35.09
-20.35
-5.02
9.48
22.13
32.23
39.28
43.08
43.76
41.85
38.2
33.76
29.34
25.35
21.85
18.61
15.36
11.93
8.32
4.68
1.12
-2.3
-5.74
-9.48
-13.91
-19.41
-26.14
-33.84
-41.7
-48.41
-52.44
-52.5
-47.94
-39.02
-26.77
-12.75
1.45
14.58
25.74
34.49
40.53
43.83
44.48
42.87
39.65
35.59
31.4
27.48
23.98
20.72
17.52
14.21
10.86
7.59
4.49
1.56
-1.4
-4.67
-8.64
-13.61
-19.75
-26.92
-34.61
-41.86
-47.37
-49.83
-48.25
-42.34
-32.62
-20.25
-6.7
6.71
18.91
29.25
37.31
42.82
45.64
45.88
43.97
40.65
36.77
33
29.77
27.01
24.44
21.63
18.33
14.5
10.34
6.23
2.44
-0.91
-4
-7.29
-11.38
-16.81
-23.8
-32.07
-40.69
-48.27
-53.19
-54.13
-50.41
-42.21
-30.5
-16.71
-2.29
11.59
24.1
34.72
43.01
48.59
51.27
51.15
48.81
45.09
40.95
37.04
33.61
30.51
27.43
24.13
20.61
17.15
14.14
11.81
10.16
8.82
7.22
4.75
0.98
-4.3
-11.05
-19
-27.67
-36.23
-43.51
-48.15
-48.91
-45.06
-36.71
-24.8
-10.85
3.4
16.49
27.31
35.32
40.3
42.35
41.8
39.22
35.38
31.05
26.91
23.3
20.26
17.52
14.8
11.85
8.65
5.36
2.15
-0.83
-3.71
-6.77
-10.45
-15.2
-21.26
-28.64
-36.88
-45.09
-52.01
-56.24
-56.6
-52.42
-43.86
-31.84
-17.78
-3.22
10.46
22.28
31.6
38.07
41.6
42.35
40.76
37.54
33.48
29.25
25.21
21.42
17.63
13.63
9.27
4.69
0.07
-4.33
-8.43
-12.35
-16.39
-21.01
-26.56
-33.23
-40.81
-48.59
-55.46
-60.14
-61.51
-58.95
-52.51
-42.84
-31.1
-18.57
-6.49
4.12
12.6
18.54
21.86
22.8
21.86
19.64
16.78
13.72
10.68
7.66
4.56
1.35
-1.89
-4.98
-7.74
-10.09
-12.13
-14.1
-16.35
-19.24
-23.08
-28.02
-33.91
-40.15
-45.8
-49.57
-50.33
-47.34
-40.58
-30.75
-19.06
-6.83
4.76
14.88
22.98
28.71
31.94
32.73
31.45
28.72
25.3
21.84
18.68
15.84
13.11
10.32
7.45
4.65
2.2
0.23
-1.35
-2.83
-4.67
-7.34
-11.21
-16.41
-22.73
-29.45
-35.5
-39.47
-40.18
-36.92
-29.76
-19.61
-7.83
4.03
14.7
23.29
29.39
32.96
34.21
33.55
31.43
28.39
24.84
21.14
17.46
13.9
10.53
7.36
4.44
1.78
-0.61
-2.82
-4.96
-7.31
-10.22
-14.08
-19.25
-25.71
-33
-40.04
-45.39
-47.56
-45.56
-39.21
-29.21
-17
-4.21
7.67
17.6
25.04
29.82
32.05
31.98
30.02
26.66
22.48
18.02
13.68
9.69
6.06
2.68
-0.61
-3.88
-7.07
-10.04
-12.68
-15.04
-17.43
-20.41
-24.47
-29.8
-35.99
-41.93
-46.11
-47.02
-43.78
-36.35
-25.66
-13.22
-0.69
10.58
19.72
26.37
30.45
32.05
31.39
28.8
24.84
20.15
15.35
10.87
6.82
3.09
-0.52
-4.04
-7.4
-10.32
-12.62
-14.34
-15.81
-17.64
-20.48
-24.84
-30.68
-37.41
-43.78
-48.18
-49.09
-45.5
-37.36
-25.52
-11.55
2.79
15.98
27.04
35.55
41.47
44.95
46.25
45.74
43.94
41.45
38.76
36.12
33.46
30.46
26.85
22.57
17.88
13.17
8.78
4.81
0.96
-3.23
-8.29
-14.53
-21.91
-29.93
-37.63
-43.8
-47.18
-46.89
-42.59
-34.71
-24.22
-12.5
-0.87
9.53
17.96
24
27.51
28.66
27.83
25.64
22.76
19.75
16.98
14.5
12.17
9.79
7.27
4.66
2.15
-0.09
-2
-3.72
-5.61
-8.09
-11.59
-16.35
-22.27
-28.79
-34.96
-39.52
-41.27
-39.38
-33.62
-24.46
-12.97
-0.5
11.6
22.17
30.43
36
38.87
39.33
37.92
35.21
31.83
28.16
24.48
20.85
17.36
14.06
11.06
8.47
6.28
4.42
2.62
0.56
-2.09
-5.63
-10.18
-15.67
-21.6
-27.18
-31.27
-32.77
-30.83
-25.22
-16.38
-5.36
6.47
17.83
27.69
35.51
41.09
44.51
45.94
45.55
43.48
39.91
35.08
29.36
23.3
17.46
12.43
8.61
6.13
4.86
4.37
4.12
3.47
1.86
-1.21
-5.98
-12.35
-19.77
-27.25
-33.44
-36.92
-36.66
-32.28
-24.24
-13.71
-2.24
8.69
17.98
25.05
29.81
32.49
33.45
33.03
31.48
28.96
25.61
21.64
17.33
13.01
8.98
5.33
2.06
-1.01
-4.09
-7.33
-10.91
-15.05
-20.09
-26.3
-33.68
-41.65
-49
-54.08
-55.41
-52.12
-44.34
-33.17
-20.21
-7.14
4.83
14.99
23.09
29.09
32.97
34.75
34.51
32.62
29.58
26.03
22.47
19.17
16.08
13
9.72
6.13
2.34
-1.48
-5.22
-8.9
-12.71
-16.98
-22.02
-27.9
-34.3
-40.38
-44.88
-46.48
-44.15
-37.66
-27.64
-15.5
-2.91
8.64
18.21
25.46
30.45
33.4
34.47
33.75
31.43
27.85
23.51
19
14.79
11.05
7.76
4.66
1.61
-1.43
-4.4
-7.21
-9.96
-12.98
-16.79
-21.84
-28.33
-35.85
-43.45
-49.68
-53.02
-52.31
-47.09
-37.81
-25.67
-12.27
0.84
12.37
21.54
27.97
31.61
32.67
31.53
28.75
24.91
20.62
16.31
12.2
8.35
4.64
0.95
-2.83
-6.65
-10.38
-13.92
-17.25
-20.6
-24.37
-28.96
-34.5
-40.64
-46.44
-50.56
-51.67
-48.9
-42.14
-32.13
-20.22
-7.96
3.24
12.46
19.27
23.65
25.82
26.06
24.68
21.96
18.26
13.94
9.4
5
0.99
-2.49
-5.44
-7.93
-10.09
-12.09
-14.08
-16.33
-19.19
-23.04
-28.08
-34.15
-40.48
-45.84
-48.73
-47.95
-42.96
-34.14
-22.65
-10.1
1.95
12.3
20.27
25.66
28.63
29.46
28.59
26.46
23.51
20.16
16.67
13.18
9.71
6.24
2.79
-0.48
-3.42
-5.87
-7.87
-9.64
-11.59
-14.28
-18.13
-23.26
-29.24
-35.05
-39.31
-40.61
-38.03
-31.45
-21.58
-9.75
2.55
14.07
24
31.87
37.49
40.77
41.74
40.57
37.71
33.74
29.28
24.81
20.52
16.41
12.33
8.27
4.31
0.69
-2.37
-4.83
-6.93
-9.2
-12.25
-16.64
-22.55
-29.69
-37.23
-43.91
-48.35
-49.32
-46.13
-38.81
-28.16
-15.47
-2.25
10.17
20.83
29.12
34.81
37.88
38.52
37.13
34.29
30.68
26.85
23.15
19.59
16.05
12.37
8.58
4.93
1.68
-0.95
-3.07
-4.99
-7.21
-10.2
-14.32
-19.61
-25.81
-32.24
-37.85
-41.42
-41.77
-38.15
-30.54
-19.72
-7.13
5.56
16.83
25.62
31.42
34.27
34.5
32.69
29.55
25.75
21.9
18.3
15.02
11.85
8.64
5.36
2.16
-0.73
-3.21
-5.43
-7.75
-10.62
-14.45
-19.44
-25.56
-32.41
-39.26
-44.94
-48.12
-47.62
-42.78
-33.76
-21.6
-7.89
5.63
17.57
27
33.59
37.41
38.85
38.42
36.62
33.97
30.77
27.24
23.44
19.46
15.39
11.36
7.56
4.04
0.8
-2.34
-5.65
-9.48
-14.16
-19.92
-26.72
-34.09
-41.13
-46.49
-48.8
-46.99
-40.72
-30.47
-17.48
-3.38
10.25
22.16
31.61
38.27
42.18
43.56
42.78
40.3
36.61
32.21
27.5
22.79
18.33
14.25
10.6
7.29
4.17
0.98
-2.42
-6.2
-10.41
-15.18
-20.63
-26.78
-33.29
-39.33
-43.59
-44.63
-41.38
-33.6
-22.03
-8.21
6.04
19.13
30
38.16
43.51
46.2
46.46
44.71
41.4
37.18
32.58
28.02
23.68
19.6
15.69
11.87
8.16
4.59
1.24
-1.92
-5.02
-8.37
-12.37
-17.41
-23.71
-30.99
-38.46
-44.78
-48.48
-48.24
-43.46
-34.37
-22
-7.91
6.28
19.14
29.74
37.64
42.75
45.31
45.6
44.05
41.1
37.29
33.13
29.07
25.37
22.06
19
15.95
12.75
9.36
5.92
2.51
-0.89
-4.52
-8.84
-14.28
-21.01
-28.62
-36.12
-41.98
-44.64
-42.96
-36.63
-26.33
-13.5
0.13
13.02
24.08
32.74
38.79
42.15
42.91
41.27
37.73
32.94
27.65
22.44
17.63
13.22
9.06
4.92
0.71
-3.53
-7.62
-11.37
-14.73
-17.92
-21.41
-25.8
-31.43
-38.16
-45.08
-50.7
-53.39
-51.86
-45.74
-35.52
-22.47
-8.21
5.75
18.2
28.34
35.63
39.87
41.07
39.65
36.26
31.76
26.99
22.46
18.4
14.64
10.95
7.09
3.07
-0.96
-4.76
-8.2
-11.35
-14.57
-18.46
-23.56
-30.13
-37.74
-45.23
-50.96
-53.24
-50.99
-44.01
-33.14
-19.82
-5.74
7.68
19.36
28.62
35.06
38.49
39.08
37.28
33.88
29.65
25.24
20.97
16.88
12.88
8.89
4.97
1.2
-2.28
-5.48
-8.61
-12.02
-16.16
-21.4
-27.86
-35.11
-42.26
-47.95
-50.74
-49.57
-44.07
-34.73
-22.64
-9.23
4.16
16.43
26.84
34.89
40.29
42.95
43.01
40.91
37.24
32.66
27.74
22.84
18.19
13.87
9.99
6.57
3.64
1.1
-1.26
-3.77
-6.91
-11.14
-16.78
-23.74
-31.43
-38.69
-43.98
-45.84
-43.24
-36.06
-24.98
-11.41
3.04
16.85
28.86
38.38
44.98
48.6
49.35
47.61
43.98
39.19
33.94
28.75
23.91
19.4
15.17
11.17
7.48
4.3
1.74
-0.28
-2.24
-4.81
-8.74
-14.42
-21.68
-29.64
-36.86
-41.75
-42.91
-39.58
-31.81
-20.43
-6.85
7.3
20.42
31.27
39.07
43.56
44.9
43.62
40.37
35.89
30.79
25.56
20.51
15.76
11.3
7.06
3
-0.86
-4.45
-7.75
-10.9
-14.25
-18.31
-23.57
-30.21
-37.78
-45.22
-51
-53.53
-51.65
-45.01
-34.21
-20.61
-6
7.91
19.76
28.77
34.7
37.71
38.23
36.79
33.99
30.35
26.33
22.23
18.2
14.27
10.43
6.68
3.06
-0.33
-3.46
-6.45
-9.56
-13.27
-18
-23.99
-31.02
-38.28
-44.5
-48.19
-48.07
-43.46
-34.57
-22.35
-8.27
6.07
19.31
30.43
38.83
44.25
46.75
46.58
44.19
40.16
35.12
29.68
24.26
19.13
14.39
10.04
6.05
2.41
-0.88
-3.85
-6.65
-9.63
-13.3
-18.19
-24.58
-32.25
-40.3
-47.24
-51.43
-51.46
-46.7
-37.38
-24.59
-9.86
5.16
19.01
30.61
39.25
44.66
46.91
46.46
44.04
40.47
36.48
32.5
28.69
24.94
21.13
17.18
13.21
9.43
6.04
3.1
0.44
-2.27
-5.48
-9.63
-15.08
-21.87
-29.67
-37.7
-44.72
-49.24
-49.88
-45.83
-37.13
-24.73
-10.23
4.6
18.23
29.69
38.49
44.53
47.89
48.77
47.46
44.43
40.3
35.7
31.15
26.87
22.87
18.96
15.02
11.08
7.3
3.88
0.91
-1.69
-4.3
-7.42
-11.51
-16.97
-23.79
-31.58
-39.39
-45.83
-49.39
-48.84
-43.59
-33.98
-21.2
-6.87
7.26
19.87
30.09
37.59
42.32
44.42
44.13
41.86
38.2
33.85
29.48
25.52
22.03
18.77
15.34
11.51
7.34
3.23
-0.4
-3.26
-5.53
-7.82
-10.89
-15.46
-21.82
-29.71
-38.31
-46.34
-52.3
-54.79
-52.86
-46.19
-35.34
-21.54
-6.47
8.2
21.14
31.44
38.69
42.82
44.02
42.71
39.52
35.24
30.63
26.27
22.42
19
15.75
12.42
8.94
5.39
2.02
-0.98
-3.59
-6.05
-8.79
-12.39
-17.32
-23.75
-31.34
-39.19
-45.97
-50.22
-50.72
-46.85
-38.8
-27.42
-14.04
-0.13
13.01
24.32
33.1
38.93
41.73
41.77
39.6
35.95
31.57
27.1
22.88
19.01
15.43
11.99
8.6
5.19
1.8
-1.51
-4.64
-7.56
-10.35
-13.25
-16.74
-21.35
-27.42
-34.77
-42.59
-49.39
-53.44
-53.27
-48.19
-38.58
-25.7
-11.3
3.04
16.11
27.3
36.26
42.74
46.48
47.27
45.3
41.15
35.82
30.34
25.5
21.64
18.62
16.01
13.36
10.42
7.2
3.94
0.96
-1.51
-3.5
-5.42
-7.89
-11.69
-17.3
-24.79
-33.48
-42.1
-49.04
-52.7
-51.99
-46.53
-36.84
-24.06
-9.75
4.56
17.58
28.41
36.53
41.67
43.84
43.25
40.39
36.01
30.95
25.97
21.59
17.95
14.82
11.88
8.85
5.68
2.53
-0.35
-2.77
-4.77
-6.61
-8.74
-11.64
-15.67
-21.05
-27.61
-34.84
-41.67
-46.77
-48.62
-46.12
-38.97
-27.86
-14.36
-0.36
12.41
22.87
30.56
35.48
37.79
37.65
35.29
31.14
25.86
20.21
14.93
10.35
6.51
3.19
0.12
-2.83
-5.65
-8.26
-10.66
-12.93
-15.36
-18.33
-22.3
-27.61
-34.25
-41.76
-49.07
-54.71
-57.09
-55.08
-48.31
-37.36
-23.56
-8.61
5.84
18.54
28.71
36.04
40.54
42.38
41.93
39.63
36.06
31.8
27.35
23
18.8
14.67
10.46
6.08
1.64
-2.64
-6.5
-9.88
-12.95
-16.23
-20.34
-25.84
-32.84
-40.87
-48.69
-54.65
-57.13
-54.99
-48.02
-36.97
-23.27
-8.6
5.52
17.99
28.08
35.38
39.7
41.04
39.76
36.53
32.3
27.99
24.2
21.03
18.17
15.17
11.76
8.04
4.42
1.33
-0.99
-2.77
-4.55
-7.04
-10.86
-16.41
-23.66
-32.11
-40.78
-48.24
-52.9
-53.41
-49.12
-40.25
-27.87
-13.54
1.16
14.91
26.8
36.27
42.97
46.72
47.62
46.07
42.73
38.44
33.9
29.58
25.61
21.93
18.38
14.83
11.26
7.71
4.29
1.08
-1.85
-4.55
-7.26
-10.37
-14.44
-19.96
-27.09
-35.36
-43.6
-50.11
-53.18
-51.63
-45.17
-34.58
-21.3
-7.02
6.77
19
29.02
36.45
41.04
42.75
41.79
38.73
34.42
29.77
25.46
21.78
18.63
15.69
12.7
9.55
6.38
3.38
0.74
-1.51
-3.51
-5.57
-8.13
-11.73
-16.8
-23.46
-31.26
-39.06
-45.2
-47.99
-46.21
-39.6
-28.85
-15.42
-0.95
13.13
25.78
36.3
44.07
48.64
49.65
47.23
42
35.06
27.66
20.74
14.81
9.81
5.42
1.25
-2.86
-6.84
-10.52
-13.75
-16.62
-19.42
-22.68
-26.99
-32.75
-39.99
-48.22
-56.38
-62.99
-66.57
-65.96
-60.7
-51.13
-38.29
-23.55
-8.34
6.07
18.71
28.88
36.16
40.36
41.63
40.43
37.43
33.46
29.19
25.11
21.37
17.88
14.45
10.89
7.18
3.44
-0.11
-3.31
-6.15
-8.84
-11.77
-15.42
-20.27
-26.58
-34.23
-42.51
-50.13
-55.33
-56.43
-52.38
-43.19
-29.96
-14.53
1.13
15.48
27.6
37.14
44
48.12
49.49
48.22
44.82
40.08
35
30.41
26.77
24.03
21.75
19.33
16.32
12.6
8.38
4.1
0.09
-3.59
-7.2
-11.33
-16.59
-23.45
-31.97
-41.66
-51.41
-59.66
-64.78
-65.4
-60.92
-51.64
-38.66
-23.5
-7.76
7.21
20.41
31.1
38.83
43.34
44.71
43.37
40.04
35.65
30.94
26.43
22.26
18.35
14.53
10.7
6.88
3.18
-0.28
-3.49
-6.58
-9.87
-13.72
-18.57
-24.72
-32.26
-40.92
-49.9
-57.97
-63.56
-65.22
-62.02
-53.91
-41.76
-27.05
-11.52
3.31
16.3
26.77
34.29
38.71
40.08
38.73
35.32
30.67
25.63
20.77
16.36
12.33
8.49
4.66
0.77
-3.08
-6.79
-10.24
-13.48
-16.73
-20.39
-24.99
-30.98
-38.55
-47.26
-56.03
-63.2
-66.93
-65.78
-59.11
-47.43
-32.09
-15
1.95
17.26
29.95
39.5
45.7
48.66
48.68
46.38
42.54
38.02
33.53
29.46
25.84
22.37
18.73
14.66
10.22
5.63
1.23
-2.81
-6.6
-10.59
-15.51
-21.93
-30.08
-39.46
-48.79
-56.29
-60.07
-58.78
-51.96
-40.25
-25.05
-8.19
8.65
24.18
37.5
48.03
55.35
59.29
59.96
57.91
54
49.21
44.32
39.69
35.31
30.92
26.27
21.34
16.33
11.64
7.55
4.06
0.81
-2.91
-7.93
-14.93
-24.06
-34.77
-45.7
-55
-60.68
-61.29
-56.2
-45.84
-31.47
-14.77
2.56
19.07
33.6
45.34
53.71
58.46
59.73
58.06
54.31
49.41
44.13
38.94
34
29.19
24.37
19.43
14.45
9.65
5.23
1.34
-2.13
-5.51
-9.37
-14.32
-20.84
-29.11
-38.75
-48.75
-57.47
-63.05
-63.8
-58.77
-48.17
-33.28
-16.13
1.1
16.64
29.4
38.94
45.26
48.56
49.09
47.29
43.73
39.17
34.37
29.96
26.16
22.84
19.67
16.22
12.33
8.09
3.86
-0.04
-3.44
-6.55
-9.97
-14.4
-20.49
-28.33
-37.32
-46.12
-52.9
-55.82
-53.58
-45.87
-33.45
-17.93
-1.33
14.48
28.13
38.84
46.31
50.53
51.66
50.09
46.39
41.34
35.72
30.14
24.87
19.87
14.94
9.97
5.07
0.49
-3.48
-6.73
-9.49
-12.22
-15.61
-20.31
-26.74
-34.82
-43.78
-52.2
-58.17
-59.88
-56.17
-46.94
-33.16
-16.63
0.67
17.01
31.2
42.58
50.81
55.77
57.54
56.53
53.44
49.14
44.43
39.67
34.84
29.62
23.74
17.23
10.47
4.03
-1.67
-6.54
-10.93
-15.49
-20.94
-27.76
-35.94
-44.89
-53.4
-59.9
-62.78
-60.93
-53.96
-42.43
-27.59
-11.08
5.49
20.7
33.5
43.22
49.5
52.39
52.31
49.96
46.2
41.73
37.04
32.31
27.6
22.83
18.08
13.42
8.98
4.84
0.93
-2.92
-7.05
-11.86
-17.8
-25.1
-33.63
-42.69
-50.95
-56.76
-58.46
-55.04
-46.36
-33.35
-17.67
-1.21
14.29
27.65
38.16
45.57
49.86
51.22
50.05
46.96
42.71
38.03
33.47
29.23
25.22
21.18
16.89
12.34
7.71
3.32
-0.67
-4.28
-7.85
-11.87
-16.86
-23.24
-31.05
-39.89
-48.73
-56.06
-60.17
-59.63
-53.8
-43.08
-28.83
-12.9
2.85
17.04
28.87
37.92
44.01
47.05
47.13
44.61
40.23
34.89
29.47
24.57
20.34
16.63
13.1
9.5
5.74
1.98
-1.54
-4.63
-7.31
-9.95
-13.15
-17.63
-23.9
-31.98
-41.11
-49.83
-56.27
-58.72
-56.12
-48.45
-36.68
-22.38
-7.25
7.3
20.36
31.3
39.71
45.12
47.26
46.2
42.56
37.43
32.03
27.26
23.39
20.13
16.87
13.15
8.9
4.46
0.31
-3.3
-6.41
-9.46
-13
-17.61
-23.62
-31.05
-39.54
-48.19
-55.71
-60.53
-61.31
-57.25
-48.49
-35.96
-21.14
-5.61
9.34
22.75
33.96
42.52
48.11
50.65
50.36
47.82
43.84
39.25
34.73
30.68
27.17
24.05
21.03
17.82
14.28
10.4
6.38
2.46
-1.19
-4.62
-8.21
-12.54
-18.25
-25.73
-34.81
-44.52
-53.27
-59.11
-60.35
-56.15
-46.79
-33.58
-18.38
-3.03
11.23
23.7
34.2
42.55
48.49
51.64
51.81
49.29
44.84
39.6
34.61
30.53
27.42
24.91
22.46
19.65
16.35
12.77
9.24
6.06
3.27
0.65
-2.23
-5.81
-10.42
-16.19
-23.09
-31.01
-39.61
-48.28
-55.92
-61.07
-62.17
-58.16
-48.92
-35.42
-19.45
-3.02
12.22
25.28
35.79
43.79
49.4
52.66
53.69
52.66
50
46.26
42.08
37.95
34.22
30.95
28.01
25.15
22.09
18.65
14.8
10.69
6.54
2.57
-1.16
-4.77
-8.52
-12.65
-17.35
-22.75
-28.99
-36.16
-44.25
-52.84
-60.93
-66.98
-69.28
-66.5
-58.28
-45.39
-29.58
-12.99
2.5
15.68
26.13
33.92
39.29
42.36
43.13
41.67
38.27
33.59
28.52
23.9
20.2
17.43
15.15
12.74
9.76
6.12
2.12
-1.74
-4.99
-7.4
-9.12
-10.55
-12.25
-14.71
-18.33
-23.22
-29.22
-35.79
-42.02
-46.71
-48.64
-46.88
-41.07
-31.64
-19.64
-6.48
6.46
18.15
27.95
35.56
40.86
43.83
44.54
43.23
40.41
36.78
33.05
29.8
27.25
25.25
23.39
21.27
18.58
15.3
11.61
7.74
3.88
0.06
-3.87
-8.19
-13.22
-19.24
-26.34
-34.33
-42.55
-49.93
-55.11
-56.77
-54.04
-46.8
-35.75
-22.24
-7.88
5.86
17.9
27.52
34.3
37.98
38.55
36.28
31.85
26.17
20.21
14.6
9.49
4.63
-0.4
-5.76
-11.27
-16.38
-20.49
-23.27
-24.86
-25.81
-26.87
-28.76
-31.96
-36.63
-42.57
-49.19
-55.55
-60.36
-62.32
-60.32
-53.88
-43.35
-29.76
-14.56
0.81
15.25
28.1
38.89
47.35
53.16
56.13
56.33
54.19
50.46
45.93
41.26
36.7
32.25
27.69
22.86
17.78
12.65
7.79
3.43
-0.27
-3.41
-6.27
-9.34
-13.24
-18.55
-25.48
-33.64
-41.85
-48.32
-51.21
-49.17
-41.94
-30.45
-16.36
-1.59
12.43
24.88
35.54
44.39
51.37
56.33
59.18
60.17
59.85
58.92
57.86
56.67
54.91
52.06
47.88
42.75
37.56
33.25
30.35
28.66
27.24
24.82
20.26
12.9
2.8
-9.28
-22.03
-33.71
-42.51
-46.89
-46.01
-40.01
-29.94
-17.56
-4.77
6.78
16.01
22.49
26.23
27.58
26.92
24.68
21.21
16.81
11.74
6.2
0.34
-5.78
-12.09
-18.5
-24.77
-30.63
-35.77
-40.08
-43.72
-47.08
-50.72
-55.07
-60.34
-66.33
-72.39
-77.5
-80.38
-79.9
-75.27
-66.47
-54.17
-39.63
-24.38
-9.83
2.87
13
20.13
24.21
25.49
24.52
22.07
18.83
15.32
11.68
7.88
3.8
-0.51
-4.87
-8.98
-12.6
-15.75
-18.67
-21.81
-25.69
-30.78
-37.3
-45.06
-53.33
-60.82
-65.95
-67.16
-63.49
-54.85
-42.14
-26.96
-11.16
3.66
16.35
26.25
33.17
37.16
38.53
37.76
35.46
32.22
28.45
24.41
20.17
15.82
11.45
7.24
3.32
-0.34
-3.83
-7.37
-11.14
-15.35
-20.2
-25.88
-32.42
-39.39
-45.8
-50.12
-50.74
-46.48
-37.14
-23.62
-7.69
8.54
23.2
35.01
43.44
48.58
50.86
50.86
49.12
46.07
42.02
37.17
31.69
25.75
19.55
13.39
7.53
2.17
-2.56
-6.67
-10.31
-13.78
-17.49
-21.92
-27.42
-33.99
-41.06
-47.4
-51.42
-51.51
-46.69
-36.99
-23.46
-8
7.41
21.03
31.86
39.53
44.1
45.9
45.27
42.68
38.63
33.7
28.41
23.17
18.19
13.54
9.2
5.13
1.35
-2.19
-5.5
-8.73
-12.07
-15.83
-20.41
-26.11
-32.97
-40.4
-47.22
-51.68
-52.14
-47.5
-37.74
-23.99
-8.12
7.78
22.01
33.5
41.85
47.11
49.54
49.51
47.4
43.64
38.73
33.12
27.22
21.41
15.91
10.82
6.09
1.58
-2.89
-7.52
-12.37
-17.51
-22.96
-28.88
-35.52
-42.99
-51.06
-58.85
-64.88
-67.38
-64.88
-56.79
-43.67
-27.15
-9.29
7.89
22.99
35.22
44.31
50.2
52.95
52.72
49.89
45.18
39.45
33.52
27.91
22.76
17.89
13.01
8.03
3.06
-1.63
-5.81
-9.51
-13.05
-17.09
-22.27
-29.05
-37.31
-46.29
-54.5
-60.1
-61.35
-57.21
-47.69
-33.92
-17.75
-1.15
14.25
27.47
38.03
45.73
50.53
52.38
51.51
48.43
43.96
38.96
34.07
29.48
24.94
20.07
14.66
8.91
3.3
-1.56
-5.33
-8.18
-10.7
-13.81
-18.31
-24.72
-32.96
-42.29
-51.4
-58.59
-62.16
-60.83
-54.17
-42.61
-27.47
-10.45
6.72
22.52
35.88
46.06
52.73
55.85
55.8
53.32
49.3
44.61
39.8
35.09
30.37
25.44
20.19
14.75
9.37
4.38
0.03
-3.6
-6.65
-9.46
-12.47
-16.24
-21.23
-27.62
-35.15
-42.95
-49.67
-53.76
-53.92
-49.45
-40.53
-28.13
-13.74
0.97
14.56
25.96
34.56
40.12
42.75
42.77
40.67
37.07
32.57
27.77
23.08
18.74
14.78
11.1
7.59
4.18
0.87
-2.33
-5.48
-8.75
-12.43
-16.87
-22.48
-29.48
-37.79
-46.78
-55.26
-61.57
-64.05
-61.54
-53.8
-41.65
-26.64
-10.55
5.08
19.12
30.8
39.58
45.04
47.05
45.85
42.26
37.37
32.29
27.77
24.05
20.89
17.83
14.54
10.9
7.09
3.45
0.25
-2.43
-4.84
-7.52
-11.13
-16.24
-23.07
-31.22
-39.7
-46.99
-51.43
-51.75
-47.34
-38.53
-26.36
-12.32
2.09
15.56
27.07
35.93
41.67
44.19
43.73
40.91
36.6
31.7
26.92
22.59
18.71
15.05
11.39
7.61
3.81
0.2
-3.02
-5.79
-8.3
-10.98
-14.42
-19.15
-25.41
-32.97
-41
-48.16
-52.87
-53.71
-49.79
-41.1
-28.48
-13.45
2.22
16.95
29.5
39.19
45.68
48.95
49.17
46.76
42.4
36.88
31.06
25.56
20.74
16.63
13.09
9.93
7.06
4.48
2.22
0.24
-1.64
-3.77
-6.57
-10.43
-15.59
-21.96
-28.97
-35.57
-40.35
-41.91
-39.23
-32.08
-21.16
-7.84
6.13
19.18
30.14
38.39
43.66
45.94
45.36
42.22
37.09
30.83
24.37
18.48
13.55
9.53
6.07
2.76
-0.64
-4.02
-7.14
-9.76
-11.84
-13.64
-15.64
-18.39
-22.33
-27.64
-34.06
-40.79
-46.56
-49.8
-49.16
-43.87
-34.11
-20.92
-5.9
9.26
23.15
34.8
43.6
49.16
51.3
50.11
46.16
40.34
33.77
27.41
21.8
17.04
12.84
8.89
5.05
1.4
-1.82
-4.52
-6.83
-9.21
-12.21
-16.36
-21.95
-28.98
-37.07
-45.4
-52.82
-57.93
-59.41
-56.39
-48.77
-37.25
-23.19
-8.24
6.11
18.72
28.86
36.09
40.15
41.03
39.04
34.86
29.45
23.81
18.64
14.29
10.66
7.47
4.43
1.42
-1.55
-4.4
-7.1
-9.75
-12.59
-16
-20.4
-26.19
-33.47
-41.81
-50.17
-56.97
-60.54
-59.52
-53.46
-42.84
-28.98
-13.64
1.5
15.08
26.18
34.25
39.05
40.61
39.28
35.79
31.05
26.03
21.48
17.77
14.88
12.43
9.97
7.14
3.87
0.29
-3.29
-6.62
-9.65
-12.66
-16.21
-20.98
-27.48
-35.69
-44.85
-53.49
-59.72
-61.8
-58.71
-50.46
-38.07
-23.18
-7.53
7.44
20.74
31.67
39.75
44.55
45.85
43.89
39.37
33.46
27.38
22.05
17.84
14.58
11.73
8.78
5.52
2.05
-1.25
-4.05
-6.21
-7.96
-9.8
-12.43
-16.52
-22.45
-30.12
-38.81
-47.18
-53.56
-56.29
-54.26
-47.18
-35.66
-21.04
-5.01
10.77
24.9
36.32
44.34
48.6
49.18
46.59
41.72
35.68
29.54
24.09
19.67
16.22
13.34
10.5
7.34
3.71
-0.23
-4.23
-8.03
-11.62
-15.21
-19.31
-24.49
-31.18
-39.45
-48.71
-57.76
-64.84
-68.14
-66.29
-58.79
-46.3
-30.29
-12.77
4.4
19.77
32.49
42.11
48.41
51.39
51.25
48.53
44.13
39.12
34.44
30.66
27.83
25.57
23.31
20.6
17.25
13.4
9.4
5.54
1.91
-1.7
-5.78
-10.92
-17.66
-26.12
-35.96
-46.16
-55.17
-61.23
-62.76
-58.91
-49.75
-36.26
-19.99
-2.71
13.96
28.73
40.61
48.91
53.26
53.73
50.89
45.76
39.56
33.41
28.06
23.74
20.29
17.29
14.35
11.24
7.96
4.65
1.43
-1.69
-4.92
-8.6
-13.23
-19.22
-26.83
-35.89
-45.61
-54.61
-61.09
-63.23
-59.74
-50.3
-35.73
-17.78
1.34
19.47
34.98
46.87
54.77
58.8
59.29
56.85
52.22
46.28
39.91
33.85
28.54
24.06
20.2
16.63
13.08
9.49
5.9
2.39
-1.08
-4.74
-8.98
-14.3
-21.07
-29.34
-38.57
-47.62
-54.78
-58.25
-56.69
-49.65
-37.78
-22.6
-5.97
10.35
25.05
37.3
46.56
52.5
54.98
54.2
50.78
45.7
40.01
34.55
29.69
25.32
21.07
16.63
11.94
7.27
3
-0.61
-3.6
-6.5
-10.05
-15.15
-22.4
-31.87
-42.85
-53.86
-62.83
-67.63
-66.7
-59.54
-46.86
-30.31
-11.98
6.22
22.87
37.04
48.19
55.92
60.04
60.67
58.38
54.15
49.07
44.07
39.59
35.62
31.83
27.9
23.66
19.26
14.97
11.09
7.71
4.6
1.26
-3.02
-8.93
-16.9
-26.92
-38.29
-49.63
-59
-64.38
-64.16
-57.7
-45.47
-28.96
-10.24
8.72
26.38
41.77
54.38
63.85
69.88
72.27
71.13
67.01
60.9
54.01
47.45
41.89
37.5
33.97
30.77
27.4
23.56
19.27
14.72
10.19
5.8
1.42
-3.34
-9.04
-16.2
-25.14
-35.7
-47.23
-58.44
-67.63
-73.04
-73.19
-67.39
-55.87
-39.82
-21.01
-1.47
17
33.02
45.66
54.48
59.41
60.75
59.13
55.46
50.81
46.14
42.17
39.12
36.84
34.79
32.4
29.24
25.24
20.62
15.75
10.99
6.44
2
-2.7
-8.07
-14.51
-22.34
-31.51
-41.6
-51.54
-59.78
-64.5
-64.14
-57.91
-46.1
-30.04
-11.65
6.98
24.13
38.63
49.8
57.37
61.28
61.69
58.97
53.86
47.31
40.42
34.18
29.15
25.37
22.32
19.28
15.62
11.19
6.32
1.59
-2.52
-5.99
-9.27
-13.08
-18.1
-24.73
-32.93
-42.29
-52
-60.92
-67.61
-70.56
-68.56
-61.13
-48.71
-32.64
-14.78
2.99
19.17
32.71
43.08
49.99
53.46
53.76
51.46
47.46
42.72
38.14
34.22
31.05
28.31
25.51
22.26
18.36
13.99
9.5
5.35
1.78
-1.24
-4.08
-7.38
-11.81
-17.97
-26.04
-35.63
-45.67
-54.57
-60.53
-62.04
-58.32
-49.49
-36.56
-21.04
-4.59
11.31
25.48
36.99
45.18
49.59
50.16
47.32
41.95
35.27
28.51
22.61
17.98
14.51
11.64
8.72
5.21
1.03
-3.55
-8.02
-11.9
-15.04
-17.71
-20.6
-24.5
-30.07
-37.46
-46.07
-54.64
-61.42
-64.67
-63.07
-56.24
-44.7
-29.75
-13.05
3.73
19.18
32.21
42.02
48.17
50.61
49.76
46.46
41.72
36.5
31.4
26.64
22.1
17.65
13.15
8.67
4.34
0.35
-3.18
-6.26
-9.03
-11.91
-15.46
-20.41
-27.31
-36.22
-46.46
-56.57
-64.6
-68.6
-67.29
-60.36
-48.6
-33.57
-17.13
-1.01
13.5
25.6
34.89
41.23
44.65
45.31
43.57
39.97
35.21
30.03
24.99
20.36
16.15
12.16
8.29
4.56
1.16
-1.72
-4.02
-5.97
-8.09
-11.06
-15.54
-21.95
-30.23
-39.65
-48.88
-56.2
-59.91
-58.8
-52.5
-41.57
-27.24
-11.11
5.24
20.47
33.47
43.48
50.03
53.05
52.85
50.1
45.69
40.5
35.29
30.48
26.18
22.16
18.01
13.36
8.12
2.51
-3.01
-7.91
-11.97
-15.33
-18.57
-22.46
-27.68
-34.56
-42.76
-51.32
-58.6
-62.78
-62.27
-56.29
-45.1
-30
-12.97
3.99
19.16
31.5
40.53
46.23
48.82
48.63
46.15
42
36.98
31.81
27.1
23.09
19.63
16.41
13.09
9.65
6.24
3.21
0.75
-1.22
-3.1
-5.54
-9.16
-14.58
-22.01
-31.28
-41.52
-51.22
-58.45
-61.33
-58.71
-50.48
-37.78
-22.42
-6.41
8.58
21.44
31.52
38.48
42.09
42.38
39.7
34.87
29.01
23.33
18.7
15.42
13.21
11.37
9.21
6.27
2.53
-1.73
-6.19
-10.64
-15.2
-20.14
-25.84
-32.54
-40.24
-48.56
-56.67
-63.37
-67.25
-67.06
-62.05
-52.32
-38.75
-22.86
-6.39
9.03
22.16
32.19
38.73
41.73
41.5
38.7
34.17
28.85
23.54
18.71
14.56
10.99
7.83
4.91
2.13
-0.57
-3.29
-6.17
-9.41
-13.24
-17.99
-24.01
-31.5
-40.3
-49.57
-57.83
-63.13
-63.75
-58.74
-48.33
-33.86
-17.21
-0.35
15.24
28.55
38.98
46.14
49.82
50.08
47.36
42.54
36.68
30.83
25.71
21.61
18.38
15.62
12.87
9.83
6.46
2.87
-0.67
-4.04
-7.39
-11.15
-16.05
-22.76
-31.56
-42.02
-52.83
-62.03
-67.48
-67.55
-61.65
-50.42
-35.44
-18.7
-1.98
13.4
26.58
37.05
44.34
48.17
48.46
45.71
40.86
35.14
29.69
25.17
21.7
18.88
16.22
13.31
10.1
6.78
3.61
0.72
-2.07
-5.13
-9.03
-14.25
-21.12
-29.63
-39.36
-49.36
-58.22
-64.22
-65.81
-62.05
-52.9
-39.3
-22.86
-5.46
11.18
25.76
37.35
45.48
49.92
50.87
48.91
44.92
39.94
34.82
30.05
25.72
21.66
17.69
13.77
10.01
6.57
3.48
0.58
-2.44
-5.95
-10.39
-16.11
-23.37
-32.13
-41.87
-51.44
-59.13
-63.08
-61.82
-54.81
-42.66
-27.01
-9.91
6.63
21.2
32.98
41.63
47.11
49.47
48.96
46.01
41.32
35.74
30.1
24.97
20.52
16.71
13.32
10.21
7.32
4.64
2.13
-0.4
-3.31
-7.05
-12.12
-18.77
-26.84
-35.5
-43.24
-48.24
-48.78
-43.94
-33.91
-20
-4.22
11.34
24.99
35.76
43.26
47.5
48.74
47.4
44.12
39.65
34.82
30.31
26.41
23.11
20.09
17.01
13.65
9.98
6.13
2.22
-1.73
-5.97
-10.9
-17.01
-24.6
-33.53
-43
-51.56
-57.38
-58.75
-54.65
-45.1
-31.15
-14.58
2.61
18.63
32.19
42.45
49.06
52
51.64
48.69
44.07
38.72
33.4
28.52
24.13
20.15
16.4
12.8
9.37
6.11
3.03
-0.05
-3.44
-7.61
-13.07
-20.25
-29.13
-39.1
-48.83
-56.47
-60.17
-58.57
-51.3
-39.09
-23.5
-6.49
10.11
24.75
36.37
44.29
48.24
48.36
45.27
39.98
33.62
27.2
21.33
16.21
11.74
7.8
4.32
1.32
-1.21
-3.46
-5.74
-8.49
-12.07
-16.8
-22.79
-29.99
-38.06
-46.22
-53.25
-57.53
-57.56
-52.34
-41.87
-27.2
-10.15
7.14
22.82
35.6
44.87
50.49
52.66
51.76
48.33
43.09
36.83
30.34
24.15
18.55
13.56
9.07
4.95
1.1
-2.49
-5.91
-9.29
-12.99
-17.43
-23.08
-30.19
-38.56
-47.35
-55.05
-59.77
-59.75
-54.01
-42.7
-27.18
-9.57
7.85
23.24
35.5
44.23
49.51
51.63
50.94
47.95
43.25
37.65
31.93
26.67
22.13
18.17
14.47
10.72
6.79
2.73
-1.32
-5.36
-9.62
-14.59
-20.84
-28.58
-37.48
-46.41
-53.63
-57.21
-55.65
-48.37
-35.95
-20.03
-2.74
13.8
27.98
38.87
46.19
50.13
51.05
49.53
46.14
41.56
36.42
31.23
26.3
21.78
17.64
13.75
10.02
6.32
2.65
-1.07
-4.99
-9.42
-14.82
-21.57
-29.76
-38.82
-47.46
-53.85
-56.12
-53.01
-44.32
-31.03
-14.91
1.93
17.71
31.09
41.35
48.12
51.33
51.2
48.23
43.27
37.34
31.41
26.14
21.74
18.05
14.67
11.33
7.91
4.59
1.57
-1.06
-3.55
-6.49
-10.64
-16.67
-24.8
-34.55
-44.65
-53.31
-58.55
-58.84
-53.51
-42.93
-28.42
-11.76
5.2
20.97
34.4
44.74
51.53
54.55
54
50.44
44.88
38.5
32.36
27.13
22.94
19.53
16.42
13.25
9.88
6.47
3.32
0.58
-1.85
-4.41
-7.79
-12.71
-19.59
-28.43
-38.61
-48.87
-57.53
-62.79
-63.21
-58.12
-47.87
-33.72
-17.51
-1.13
13.93
26.68
36.7
43.76
47.79
48.72
46.74
42.4
36.63
30.57
25.21
21.08
18.13
15.85
13.56
10.78
7.42
3.68
-0.04
-3.44
-6.44
-9.25
-12.26
-15.95
-20.83
-27.2
-35.04
-43.71
-51.98
-58.18
-60.58
-57.98
-50.05
-37.53
-21.97
-5.29
10.74
24.8
36.12
44.31
49.19
50.76
49.23
45.11
39.27
32.85
26.89
22.09
18.57
15.92
13.43
10.47
6.76
2.48
-1.87
-5.78
-9.04
-11.76
-14.43
-17.63
-21.87
-27.45
-34.35
-42.23
-50.33
-57.53
-62.41
-63.58
-60.01
-51.5
-38.78
-23.32
-6.99
8.49
21.84
32.33
39.59
43.53
44.29
42.31
38.41
33.63
29.03
25.26
22.48
20.29
18.1
15.43
12.16
8.52
4.92
1.7
-1.06
-3.56
-6.24
-9.68
-14.39
-20.77
-28.84
-38.07
-47.32
-54.89
-59
-58.27
-52.25
-41.56
-27.71
-12.49
2.46
16.09
27.78
37.14
43.81
47.44
47.88
45.4
40.84
35.34
30.01
25.59
22.23
19.59
17.09
14.27
10.98
7.46
4.08
1.22
-1.03
-2.93
-5.02
-8.01
-12.48
-18.84
-27.09
-36.74
-46.78
-55.7
-61.77
-63.44
-59.86
-51.13
-38.39
-23.38
-7.96
6.42
18.89
29.1
36.91
42.2
44.81
44.7
42.12
37.76
32.58
27.56
23.39
20.3
18.02
15.97
13.63
10.67
7.16
3.44
-0.04
-3.02
-5.55
-8.03
-11.09
-15.32
-21.15
-28.64
-37.44
-46.73
-55.25
-61.47
-63.82
-61.22
-53.4
-41.13
-26.01
-9.98
5.24
18.56
29.54
38.18
44.48
48.34
49.55
48.11
44.43
39.35
33.93
29.05
25.2
22.32
20.01
17.75
15.17
12.15
8.76
5.21
1.66
-1.8
-5.22
-8.7
-12.4
-16.48
-21.21
-26.93
-33.92
-42.23
-51.29
-59.87
-66.15
-68.29
-65.07
-56.26
-42.92
-26.89
-10.3
5.06
18.08
28.24
35.38
39.46
40.55
38.86
34.99
29.83
24.52
19.98
16.65
14.41
12.62
10.66
8.16
5.25
2.4
0.02
-1.76
-3.35
-5.42
-8.63
-13.29
-19.39
-26.68
-34.83
-43.5
-52.08
-59.6
-64.61
-65.64
-61.68
-52.68
-39.71
-24.52
-9.07
5.14
17.2
26.78
33.74
37.93
39.23
37.65
33.67
28.17
22.28
16.99
12.87
9.89
7.55
5.27
2.57
-0.62
-4.08
-7.46
-10.57
-13.58
-16.89
-21.11
-26.76
-34.09
-42.84
-52.12
-60.5
-66.24
-67.79
-64.22
-55.56
-42.75
-27.39
-11.19
4.36
18.21
29.69
38.35
43.95
46.41
46.02
43.36
39.31
34.8
30.53
26.87
23.71
20.75
17.54
13.89
9.82
5.65
1.7
-1.85
-5.14
-8.64
-13.04
-19.01
-26.88
-36.43
-46.71
-56.13
-62.84
-65.15
-62.08
-53.6
-40.65
-24.8
-7.81
8.71
23.54
35.79
44.94
50.73
53.27
52.96
50.53
46.82
42.62
38.5
34.64
30.93
27.02
22.59
17.5
11.92
6.24
0.91
-3.81
-8.08
-12.34
-17.33
-23.69
-31.77
-41.38
-51.65
-61.14
-68.05
-70.72
-68.02
-59.79
-46.81
-30.62
-13.07
4.15
19.74
32.88
43.07
50.04
53.72
54.23
52.08
48.08
43.23
38.46
34.42
31.3
28.83
26.49
23.72
20.25
16.17
11.88
7.8
4.12
0.61
-3.32
-8.39
-15.2
-23.87
-34
-44.56
-54.07
-60.85
-63.31
-60.45
-52.09
-39.03
-22.83
-5.43
11.42
26.41
38.76
48.06
54.08
56.72
56.15
52.94
48.05
42.66
37.8
34
31.21
28.93
26.52
23.51
19.87
15.86
11.89
8.32
5.19
2.24
-1.07
-5.34
-11.15
-18.81
-28.22
-38.72
-49
-57.36
-61.96
-61.43
-55.26
-44.01
-29.13
-12.52
3.95
18.83
31.15
40.39
46.31
48.91
48.51
45.71
41.48
36.86
32.76
29.65
27.44
25.61
23.43
20.39
16.39
11.79
7.19
3.14
-0.24
-3.23
-6.48
-10.77
-16.7
-24.49
-33.84
-43.88
-53.19
-60.03
-62.72
-60.15
-52.11
-39.42
-23.67
-6.7
9.8
24.64
37.04
46.43
52.39
54.64
53.34
49.14
43.25
37.05
31.65
27.57
24.65
22.27
19.76
16.79
13.39
9.9
6.61
3.61
0.68
-2.64
-6.83
-12.32
-19.36
-27.96
-37.68
-47.54
-56.03
-61.39
-62.08
-57.28
-47.18
-33
-16.5
0.43
16.2
29.72
40.36
47.78
51.95
53.03
51.46
47.94
43.3
38.33
33.6
29.4
25.61
21.94
18.03
13.71
9.12
4.59
0.49
-2.96
-5.84
-8.56
-11.73
-15.97
-21.83
-29.52
-38.75
-48.56
-57.36
-63.17
-64.23
-59.53
-49.22
-34.6
-17.65
-0.42
15.49
29.16
40.19
48.47
53.86
56.3
55.83
52.86
48.19
42.91
38.06
34.31
31.74
29.86
27.98
25.49
22.22
18.43
14.58
11.03
7.8
4.57
0.79
-3.99
-10.08
-17.57
-26.3
-35.89
-45.54
-54.08
-60.05
-62.08
-59.26
-51.57
-39.82
-25.48
-10.23
4.44
17.46
28.22
36.38
41.8
44.48
44.5
42.25
38.38
33.82
29.53
26.23
24.18
23.09
22.29
21.03
18.88
15.78
12.05
8.16
4.38
0.72
-3.16
-7.69
-13.33
-20.28
-28.54
-37.66
-46.84
-54.84
-60.22
-61.65
-58.3
-50.17
-38.08
-23.58
-8.39
5.93
18.32
28.21
35.32
39.59
41.04
39.92
36.77
32.41
27.81
23.78
20.7
18.47
16.59
14.49
11.8
8.52
4.94
1.51
-1.54
-4.24
-6.93
-10.07
-14.12
-19.39
-26.03
-33.96
-42.77
-51.6
-59.09
-63.64
-63.75
-58.63
-48.46
-34.45
-18.44
-2.34
12.31
24.57
33.97
40.34
43.62
43.89
41.53
37.23
32.03
27
22.94
20.14
18.29
16.71
14.69
11.81
8.09
3.99
0.05
-3.32
-6.13
-8.83
-12.09
-16.59
-22.7
-30.41
-39.17
-47.95
-55.4
-60
-60.51
-56.25
-47.37
-34.79
-20.04
-4.75
9.63
22.09
32.06
39.21
43.45
44.79
43.51
40.14
35.55
30.74
26.52
23.37
21.2
19.54
17.75
15.36
12.25
8.66
5.01
1.59
-1.53
-4.61
-8.04
-12.32
-17.82
-24.73
-32.94
-41.88
-50.51
-57.33
-60.76
-59.53
-53.15
-42.17
-27.95
-12.37
2.81
16.27
27.29
35.59
41.12
43.92
44.07
41.9
38
33.29
28.74
25.14
22.75
21.24
19.92
18.04
15.22
11.54
7.56
3.89
0.91
-1.48
-3.83
-6.82
-11.1
-17.01
-24.56
-33.39
-42.78
-51.6
-58.44
-61.85
-60.72
-54.7
-44.28
-30.76
-15.76
-0.85
12.78
24.34
33.33
39.44
42.53
42.78
40.69
37.12
33.04
29.26
26.22
23.85
21.77
19.41
16.38
12.58
8.28
4
0.23
-2.74
-5
-6.97
-9.26
-12.46
-17.04
-23.2
-30.77
-39.15
-47.23
-53.55
-56.56
-55.11
-48.84
-38.35
-25.02
-10.52
3.57
16.18
26.68
34.7
39.97
42.26
41.58
38.3
33.29
27.73
22.81
19.24
17.07
15.7
14.19
11.8
8.28
3.98
-0.44
-4.36
-7.54
-10.29
-13.2
-16.99
-22.1
-28.65
-36.31
-44.36
-51.7
-57
-59
-56.81
-50.23
-39.89
-27.03
-13.16
0.3
12.32
22.24
29.63
34.28
36.09
35.3
32.47
28.49
24.31
20.6
17.64
15.22
12.94
10.41
7.51
4.41
1.36
-1.39
-3.86
-6.32
-9.23
-13.08
-18.33
-25.23
-33.61
-42.83
-51.67
-58.58
-61.94
-60.62
-54.21
-43.27
-29.12
-13.48
1.93
15.79
27.19
35.71
41.23
43.78
43.58
41.04
36.84
31.85
27.01
23
20.07
17.94
15.99
13.65
10.64
7.11
3.52
0.28
-2.48
-5.1
-8.2
-12.52
-18.57
-26.42
-35.51
-44.69
-52.32
-56.66
-56.34
-50.84
-40.7
-27.31
-12.46
2.23
15.72
27.48
37.26
44.69
49.3
50.66
48.82
44.41
38.63
32.8
27.91
24.35
21.84
19.72
17.34
14.33
10.76
6.94
3.27
-0.09
-3.25
-6.61
-10.63
-15.7
-22.08
-29.72
-38.23
-46.76
-54.07
-58.61
-59
-54.43
-45.05
-31.9
-16.64
-1.01
13.56
26.13
36.17
43.37
47.54
48.73
47.23
43.76
39.21
34.54
30.41
27.13
24.54
22.23
19.69
16.5
12.6
8.21
3.88
0.12
-2.8
-5.12
-7.54
-10.96
-16.14
-23.32
-32.09
-41.39
-49.81
-55.78
-58.04
-55.84
-49.14
-38.6
-25.37
-10.88
3.49
16.65
27.82
36.52
42.42
45.44
45.67
43.54
39.74
35.16
30.6
26.63
23.44
20.84
18.44
15.82
12.84
9.54
6.23
3.17
0.48
-1.99
-4.62
-7.9
-12.29
-18.1
-25.38
-33.83
-42.66
-50.68
-56.38
-58.39
-55.78
-48.41
-37.01
-22.93
-7.86
6.68
19.49
29.8
37.14
41.36
42.55
41.08
37.65
33.09
28.32
24
20.49
17.78
15.6
13.57
11.35
8.79
5.89
2.8
-0.31
-3.35
-6.42
-9.83
-14.03
-19.47
-26.35
-34.44
-42.86
-50.25
-55.02
-55.77
-51.83
-43.39
-31.54
-17.82
-3.85
9.13
20.33
29.32
35.84
39.72
40.97
39.87
37.04
33.31
29.49
26.07
23.15
20.45
17.53
14.07
10.04
5.73
1.62
-1.83
-4.53
-6.78
-9.27
-12.86
-18.28
-25.81
-35.11
-45.11
-54.21
-60.58
-62.62
-59.42
-51.08
-38.6
-23.64
-7.97
7.01
20.39
31.69
40.55
46.61
49.53
49.3
46.38
41.75
36.59
31.85
27.97
24.82
21.96
18.91
15.56
12.04
8.63
5.55
2.75
-0.03
-3.23
-7.3
-12.6
-19.38
-27.64
-36.96
-46.42
-54.64
-59.98
-60.99
-56.91
-47.9
-35.07
-20.07
-4.64
9.83
22.37
32.41
39.52
43.38
43.84
41.15
36.13
30.01
24.12
19.43
16.31
14.46
13.18
11.75
9.69
6.95
3.76
0.48
-2.62
-5.51
-8.44
-11.85
-16.25
-22.1
-29.51
-38.09
-46.86
-54.39
-59.08
-59.62
-55.38
-46.56
-34.12
-19.52
-4.33
10.06
22.57
32.41
39.11
42.46
42.63
40.18
36.02
31.24
26.77
23.14
20.35
17.96
15.35
12.13
8.27
4.12
0.13
-3.38
-6.46
-9.45
-12.93
-17.43
-23.32
-30.71
-39.31
-48.38
-56.72
-62.72
-64.85
-62.02
-54.01
-41.61
-26.29
-9.91
5.81
19.52
30.35
37.83
41.9
42.86
41.31
38.1
34.08
29.94
26.06
22.56
19.3
16.14
12.95
9.71
6.46
3.23
-0.02
-3.43
-7.26
-11.9
-17.76
-25.14
-34
-43.74
-53.13
-60.49
-64.08
-62.65
-55.84
-44.34
-29.62
-13.52
2.26
16.43
28.19
37.13
43.09
46.07
46.27
44.16
40.43
35.93
31.4
27.33
23.86
20.81
17.88
14.77
11.39
7.82
4.26
0.82
-2.62
-6.44
-11.28
-17.73
-26.09
-36.01
-46.38
-55.48
-61.32
-62.27
-57.52
-47.34
-32.94
-16.07
1.42
17.93
32.24
43.54
51.31
55.39
55.97
53.75
49.69
44.91
40.34
36.49
33.43
30.85
28.36
25.64
22.65
19.51
16.37
13.3
10.12
6.49
1.82
-4.38
-12.49
-22.42
-33.44
-44.15
-52.67
-57.08
-56.03
-49.11
-37.05
-21.51
-4.52
12
26.59
38.38
46.97
52.29
54.45
53.82
50.97
46.68
41.79
37.04
32.88
29.38
26.37
23.53
20.62
17.58
14.56
11.72
9.1
6.52
3.52
-0.47
-5.98
-13.33
-22.38
-32.46
-42.28
-50.18
-54.37
-53.53
-47.17
-35.83
-20.95
-4.47
11.75
26.29
38.26
47.29
53.28
56.28
56.43
54.09
49.83
44.33
38.28
32.19
26.34
20.8
15.54
10.59
6.01
1.87
-1.79
-5.07
-8.23
-11.71
-16.07
-21.85
-29.34
-38.34
-47.88
-56.31
-61.57
-61.85
-56.22
-45
-29.75
-12.73
3.77
18.07
29.3
37.31
42.31
44.52
44.22
41.72
37.57
32.49
27.31
22.66
18.79
15.63
12.83
10.12
7.36
4.65
2.13
-0.17
-2.46
-5.28
-9.31
-15.22
-23.27
-33.09
-43.47
-52.58
-58.38
-59.23
-54.43
-44.36
-30.36
-14.23
2.2
17.45
30.45
40.5
47.19
50.38
50.33
47.72
43.51
38.75
34.17
30.09
26.38
22.69
18.74
14.54
10.37
6.64
3.62
1.25
-0.89
-3.46
-7.19
-12.65
-20.09
-29.25
-39.29
-48.75
-55.83
-58.75
-56.34
-48.41
-35.89
-20.45
-4.08
11.49
25.04
35.92
43.85
48.74
50.68
49.99
47.23
43.29
39.02
35.08
31.71
28.73
25.73
22.34
18.49
14.37
10.34
6.69
3.48
0.42
-2.97
-7.29
-13.07
-20.65
-29.93
-40.18
-50.02
-57.51
-60.76
-58.45
-50.4
-37.65
-22.09
-5.84
9.37
22.46
32.96
40.7
45.59
47.58
46.82
43.82
39.43
34.65
30.28
26.72
23.9
21.37
18.66
15.5
11.94
8.27
4.84
1.82
-0.97
-4.01
-7.99
-13.48
-20.79
-29.72
-39.52
-48.94
-56.42
-60.47
-59.94
-54.47
-44.48
-31.18
-16.16
-1.04
12.79
24.34
32.96
38.34
40.43
39.6
36.57
32.33
27.92
24.06
20.97
18.37
15.75
12.68
9.09
5.26
1.66
-1.36
-3.78
-5.93
-8.43
-11.89
-16.87
-23.55
-31.72
-40.62
-48.94
-55.03
-57.26
-54.6
-46.9
-35.04
-20.6
-5.44
8.81
20.99
30.43
36.87
40.3
40.93
39.19
35.72
31.27
26.56
22.07
18.01
14.38
11.05
7.96
5.1
2.47
0.01
-2.5
-5.41
-9.1
-13.91
-20.08
-27.64
-36.3
-45.34
-53.52
-59.27
-61
-57.67
-49.17
-36.43
-21.17
-5.38
9.23
21.53
30.99
37.54
41.29
42.44
41.35
38.49
34.52
30.08
25.72
21.71
18.05
14.59
11.13
7.58
3.95
0.37
-3.14
-6.63
-10.39
-14.91
-20.73
-28.23
-37.25
-46.97
-55.82
-61.88
-63.44
-59.51
-50.31
-37.04
-21.6
-5.94
8.43
20.58
30.09
36.82
40.77
42.03
40.91
37.95
34
29.89
26.23
23.25
20.69
18.04
14.89
11.08
6.86
2.72
-0.91
-3.95
-6.81
-10.26
-15.16
-22.05
-30.81
-40.54
-49.7
-56.43
-59.12
-56.78
-49.36
-37.7
-23.26
-7.71
7.46
21.11
32.46
40.95
46.23
48.13
46.87
43.08
37.79
32.15
27.12
23.16
20.2
17.75
15.24
12.33
9.01
5.53
2.23
-0.76
-3.58
-6.64
-10.5
-15.67
-22.43
-30.69
-39.82
-48.69
-55.73
-59.32
-58.22
-52.02
-41.21
-27.17
-11.69
3.47
16.92
27.8
35.67
40.41
42.14
41.2
38.14
33.73
28.74
23.85
19.41
15.47
11.88
8.39
4.87
1.31
-2.09
-5.16
-7.82
-10.17
-12.58
-15.61
-19.87
-25.81
-33.46
-42.22
-50.83
-57.55
-60.59
-58.7
-51.6
-40.06
-25.7
-10.42
4.1
16.69
26.74
33.98
38.33
39.84
38.72
35.54
31.09
26.24
21.67
17.69
14.23
10.92
7.45
3.66
-0.29
-4.04
-7.25
-9.75
-11.81
-14.06
-17.42
-22.67
-30.12
-39.23
-48.56
-56.1
-59.8
-58.3
-51.31
-39.68
-25.03
-9.21
6.17
19.95
31.37
39.97
45.43
47.72
47.13
44.4
40.48
36.28
32.42
29.04
25.95
22.79
19.4
15.84
12.38
9.23
6.4
3.58
0.18
-4.39
-10.62
-18.64
-28.18
-38.4
-48.04
-55.58
-59.5
-58.73
-52.92
-42.56
-28.84
-13.33
2.39
16.98
29.42
39.07
45.55
48.82
49.17
47.19
43.65
39.33
34.82
30.43
26.25
22.16
18.09
14.04
10.13
6.49
3.16
0.02
-3.28
-7.15
-12.05
-18.34
-26.12
-35.17
-44.75
-53.61
-60.12
-62.67
-60.08
-52.12
-39.62
-24.2
-7.85
7.69
21.2
32.1
40.18
45.44
47.94
47.83
45.52
41.62
36.95
32.28
28.2
24.87
22.1
19.48
16.6
13.28
9.63
5.98
2.67
-0.17
-2.78
-5.7
-9.65
-15.23
-22.64
-31.54
-40.92
-49.26
-54.83
-56.15
-52.51
-44.11
-32.07
-17.97
-3.38
10.46
22.76
32.98
40.7
45.53
47.3
46.23
43.03
38.71
34.3
30.52
27.58
25.24
22.99
20.41
17.28
13.71
9.98
6.4
3.13
0.02
-3.26
-7.21
-12.29
-18.84
-26.89
-36.01
-45.32
-53.42
-58.69
-59.68
-55.6
-46.59
-33.71
-18.65
-3.23
10.95
22.82
31.79
37.67
40.5
40.57
38.42
34.78
30.5
26.28
22.57
19.38
16.44
13.44
10.14
6.6
3.05
-0.21
-3.09
-5.68
-8.36
-11.63
-16.04
-21.98
-29.48
-38.06
-46.58
-53.43
-56.8
-55.36
-48.62
-37.27
-22.92
-7.54
7.06
19.68
29.75
37.13
41.86
43.94
43.54
40.98
36.93
32.18
27.5
23.36
19.81
16.58
13.31
9.78
6.03
2.31
-1.1
-4.07
-6.76
-9.64
-13.35
-18.51
-25.37
-33.65
-42.29
-49.68
-54.04
-53.93
-48.8
-39.09
-26.13
-11.55
3.11
16.73
28.59
38.17
45.03
48.77
49.32
47.03
42.75
37.54
32.35
27.7
23.56
19.6
15.43
10.97
6.44
2.22
-1.4
-4.41
-7.14
-10.19
-14.15
-19.53
-26.53
-34.95
-44.15
-52.93
-59.75
-62.96
-61.41
-54.68
-43.4
-28.96
-13.13
2.39
16.35
27.89
36.54
42.1
44.61
44.41
42.14
38.65
34.7
30.86
27.27
23.84
20.29
16.48
12.42
8.3
4.4
0.88
-2.25
-5.23
-8.44
-12.39
-17.53
-24.15
-32.25
-41.25
-50.04
-57.02
-60.49
-59.19
-52.72
-41.75
-27.8
-12.77
1.61
14.16
24.26
31.74
36.56
38.77
38.47
36
31.96
27.15
22.34
18.13
14.73
12
9.6
7.18
4.57
1.77
-1.05
-3.8
-6.47
-9.37
-12.93
-17.66
-23.92
-31.73
-40.6
-49.44
-56.73
-60.83
-60.44
-55.03
-45.02
-31.74
-16.92
-2.29
10.8
21.54
29.52
34.59
36.77
36.35
33.89
30.2
26.15
22.36
19.06
16.06
13.01
9.64
5.99
2.35
-0.92
-3.69
-6.18
-8.89
-12.44
-17.32
-23.72
-31.46
-39.99
-48.41
-55.52
-59.99
-60.6
-56.59
-47.94
-35.45
-20.62
-5.23
9.09
21.18
30.43
36.7
40.13
41.07
39.91
37.17
33.44
29.23
25
20.94
17.12
13.43
9.78
6.11
2.39
-1.41
-5.41
-9.75
-14.75
-20.72
-27.97
-36.47
-45.7
-54.5
-61.18
-64.03
-61.78
-54.17
-42.03
-26.98
-10.95
4.4
17.88
28.79
36.73
41.52
43.17
42.04
38.86
34.51
29.86
25.43
21.37
17.54
13.76
9.96
6.21
2.68
-0.56
-3.57
-6.6
-10.03
-14.36
-20.1
-27.48
-36.32
-45.7
-54.06
-59.47
-60.23
-55.42
-45.25
-31
-14.6
1.91
16.91
29.36
38.77
45.03
48.23
48.68
46.82
43.35
39.02
34.52
30.29
26.44
22.79
19.05
15.05
10.8
6.5
2.39
-1.44
-5.14
-9.18
-14.16
-20.64
-28.82
-38.35
-48.06
-56.25
-60.91
-60.42
-54.07
-42.3
-26.67
-9.25
7.88
23.19
35.75
45.11
51.13
53.77
53.28
50.2
45.45
40.06
34.93
30.52
26.84
23.57
20.35
16.97
13.49
10.09
6.94
4.02
1.04
-2.58
-7.48
-14.3
-23.21
-33.73
-44.54
-53.74
-59.26
-59.51
-53.91
-43.08
-28.57
-12.36
3.68
18.15
30.14
39.11
44.78
47.09
46.3
43.09
38.4
33.26
28.44
24.23
20.53
17
13.33
9.46
5.51
1.71
-1.85
-5.32
-9.1
-13.79
-19.92
-27.84
-37.32
-47.49
-56.83
-63.46
-65.65
-62.28
-53.29
-39.58
-22.84
-5.04
11.96
26.71
38.22
46.03
50.13
50.92
49.18
45.81
41.7
37.42
33.17
28.88
24.34
19.51
14.51
9.59
4.96
0.62
-3.65
-8.31
-13.79
-20.51
-28.62
-37.97
-47.89
-57.22
-64.36
-67.6
-65.6
-57.84
-44.81
-27.98
-9.38
8.85
24.96
37.78
46.81
52.06
53.95
53.09
50.23
46.1
41.29
36.23
31.14
26.1
21.11
16.2
11.43
6.86
2.5
-1.74
-6.04
-10.76
-16.32
-23.14
-31.45
-41.02
-50.99
-59.81
-65.55
-66.41
-61.3
-50.28
-34.52
-16.03
3.02
20.73
35.8
47.55
55.75
60.48
62.04
60.93
57.82
53.47
48.55
43.52
38.62
33.82
29.05
24.27
19.56
15.05
10.86
6.94
3.04
-1.31
-6.7
-13.65
-22.49
-33.05
-44.48
-55.22
-63.24
-66.53
-63.73
-54.61
-40.13
-22.2
-3.05
15.31
31.44
44.5
54.1
60.1
62.58
61.92
58.79
54.14
48.97
44.02
39.64
35.66
31.71
27.32
22.37
16.97
11.51
6.35
1.62
-2.8
-7.34
-12.56
-19.07
-27.26
-37.12
-47.98
-58.46
-66.66
-70.57
-68.78
-60.87
-47.62
-30.68
-12.07
6.36
23.17
37.34
48.16
55.15
58.15
57.46
53.93
48.79
43.34
38.54
34.75
31.78
29.01
25.84
21.9
17.26
12.29
7.45
3.06
-0.92
-4.86
-9.38
-15.09
-22.48
-31.65
-42.09
-52.68
-61.73
-67.3
-67.76
-62.29
-51.14
-35.6
-17.58
1.01
18.51
33.83
46.2
55.14
60.36
61.86
60.09
55.91
50.43
44.64
39.22
34.32
29.74
25.18
20.44
15.59
10.89
6.6
2.77
-0.84
-4.74
-9.66
-16.25
-24.82
-35.11
-46.1
-56.11
-63.1
-65.24
-61.41
-51.64
-37.03
-19.4
-0.7
17.33
33.54
47.16
57.65
64.58
67.65
66.93
62.99
56.98
50.21
43.87
38.57
34.29
30.52
26.62
22.26
17.47
12.64
8.17
4.23
0.54
-3.54
-8.76
-15.8
-24.9
-35.81
-47.54
-58.5
-66.78
-70.52
-68.56
-60.71
-47.87
-31.66
-13.92
3.72
20.09
34.35
45.83
53.94
58.26
58.77
56.07
51.28
45.76
40.67
36.56
33.33
30.37
27.01
22.87
18.03
12.98
8.26
4.16
0.56
-3.03
-7.29
-12.8
-19.95
-28.77
-38.88
-49.32
-58.6
-64.88
-66.45
-62.3
-52.48
-38.14
-21.12
-3.4
13.38
28.12
40.12
48.92
54.16
55.71
53.84
49.26
43.11
36.55
30.51
25.34
20.92
16.79
12.56
8.11
3.61
-0.55
-4.09
-7.01
-9.68
-12.68
-16.67
-22.18
-29.42
-38.22
-47.87
-57.14
-64.4
-67.95
-66.5
-59.56
-47.63
-32.09
-14.84
2.21
17.46
29.81
38.64
43.7
45.12
43.36
39.23
33.73
27.86
22.41
17.76
13.9
10.49
7.15
3.59
-0.24
-4.15
-7.88
-11.26
-14.4
-17.68
-21.76
-27.22
-34.43
-43.14
-52.47
-60.98
-66.94
-68.84
-65.72
-57.52
-45.02
-29.61
-12.98
3.28
17.79
29.56
37.92
42.6
43.7
41.82
37.88
32.89
27.74
22.92
18.53
14.35
10.14
5.8
1.47
-2.6
-6.16
-9.15
-11.78
-14.42
-17.67
-22.08
-28.09
-35.75
-44.48
-53.02
-59.54
-62.23
-59.73
-51.73
-39.04
-23.3
-6.53
9.46
23.31
34.19
41.67
45.72
46.56
44.79
41.24
36.79
32.18
27.78
23.67
19.68
15.69
11.67
7.67
3.8
0.12
-3.38
-6.88
-10.62
-15.06
-20.71
-27.99
-36.86
-46.54
-55.46
-61.52
-62.82
-58.26
-48.05
-33.61
-17.08
-0.65
14.08
26.19
35.39
41.64
45
45.62
43.8
40.15
35.45
30.52
25.94
21.88
18.16
14.42
10.39
6.02
1.55
-2.74
-6.66
-10.35
-14.26
-19.08
-25.41
-33.42
-42.67
-51.93
-59.48
-63.47
-62.5
-56.1
-44.77
-29.96
-13.51
2.75
17.37
29.45
38.49
44.36
47.15
47.19
45.06
41.48
37.21
32.82
28.62
24.65
20.84
17.1
13.43
9.86
6.4
2.94
-0.75
-5.01
-10.18
-16.58
-24.42
-33.54
-43.3
-52.46
-59.28
-61.98
-59.34
-51.16
-38.38
-22.88
-6.74
8.18
20.68
30.19
36.51
39.69
39.98
37.86
34.04
29.4
24.69
20.27
16.16
12.15
8.06
3.88
-0.21
-4.02
-7.51
-10.87
-14.46
-18.72
-24.1
-30.87
-39.04
-48.15
-57.16
-64.49
-68.31
-67.17
-60.42
-48.54
-33.02
-15.91
0.7
15.18
26.51
34.33
38.71
40.05
38.96
36.13
32.25
27.89
23.46
19.16
15.13
11.42
8.03
4.95
2.08
-0.73
-3.65
-6.85
-10.5
-14.81
-20.12
-26.67
-34.42
-42.71
-50.23
-55.15
-55.71
-50.8
-40.41
-25.69
-8.65
8.49
23.82
36.08
44.71
49.72
51.43
50.37
47.18
42.53
37.08
31.38
25.83
20.64
15.87
11.49
7.43
3.63
-0.02
-3.63
-7.42
-11.64
-16.67
-22.9
-30.6
-39.64
-49.26
-57.99
-63.94
-65.32
-61.11
-51.39
-37.34
-20.83
-3.81
12.14
26.05
37.35
45.75
51.01
53.06
52.13
48.85
44.25
39.45
35.36
32.37
30.3
28.52
26.32
23.18
19.04
14.23
9.31
4.67
0.32
-4.14
-9.46
-16.34
-25.19
-35.79
-47.18
-57.71
-65.39
-68.43
-65.67
-57.07
-43.57
-26.9
-8.96
8.61
24.6
38.26
49.11
56.79
61.08
62.11
60.37
56.7
52.1
47.37
43.02
39.18
35.69
32.27
28.71
24.9
20.83
16.62
12.38
8.25
4.3
0.53
-3.25
-7.35
-12.27
-18.61
-26.87
-37.25
-49.29
-61.76
-72.69
-79.83
-81.27
-76.05
-64.55
-48.29
-29.51
-10.39
7.37
22.79
35.46
45.21
51.95
55.62
56.32
54.47
50.79
46.22
41.65
37.72
34.63
32.19
29.97
27.52
24.54
20.99
17.05
12.98
8.99
5.08
1.1
-3.22
-8.15
-13.9
-20.67
-28.6
-37.75
-47.82
-58.05
-66.99
-72.83
-73.82
-68.92
-58.24
-43.05
-25.42
-7.47
9.07
23.21
34.55
42.96
48.4
50.83
50.39
47.53
43.11
38.14
33.58
30.01
27.49
25.62
23.76
21.39
18.28
14.61
10.8
7.3
4.32
1.69
-1.01
-4.4
-9.02
-15.28
-23.34
-33.05
-43.8
-54.46
-63.39
-68.76
-69.04
-63.5
-52.51
-37.44
-20.29
-3.1
12.51
25.53
35.45
42.2
45.88
46.76
45.26
41.99
37.66
33.02
28.66
24.91
21.76
18.9
15.94
12.54
8.57
4.2
-0.28
-4.55
-8.55
-12.4
-16.55
-21.57
-28.01
-36.1
-45.55
-55.39
-64.06
-69.76
-70.91
-66.67
-57.15
-43.4
-27.02
-9.69
7.2
22.65
35.93
46.43
53.59
57.05
56.83
53.52
48.21
42.23
36.72
32.31
29.02
26.36
23.69
20.56
16.83
12.73
8.55
4.57
0.79
-2.97
-7.1
-12.06
-18.26
-26.04
-35.39
-45.81
-56.14
-64.65
-69.38
-68.78
-62.23
-50.31
-34.64
-17.24
-0.01
15.79
29.43
40.53
48.79
53.85
55.56
54.13
50.3
45.19
39.96
35.38
31.67
28.51
25.31
21.55
16.99
11.82
6.5
1.61
-2.51
-5.89
-8.98
-12.58
-17.51
-24.31
-32.97
-42.71
-52.13
-59.41
-62.88
-61.45
-54.93
-43.99
-29.95
-14.32
1.51
16.38
29.39
39.72
46.78
50.18
50.08
47.11
42.3
36.76
31.39
26.61
22.45
18.63
14.84
10.93
6.97
3.17
-0.25
-3.23
-5.91
-8.65
-11.88
-16.07
-21.57
-28.58
-37
-46.22
-55.1
-62.01
-65.25
-63.51
-56.42
-44.66
-29.73
-13.51
2.26
16.27
27.74
36.28
41.77
44.27
44.1
41.83
38.15
33.87
29.57
25.57
21.89
18.29
14.52
10.42
6.06
1.71
-2.28
-5.66
-8.5
-11.19
-14.48
-19.17
-25.83
-34.45
-44.28
-53.77
-60.93
-63.89
-61.41
-53.41
-40.86
-25.46
-9.1
6.59
20.48
31.87
40.27
45.34
46.91
45.27
41.2
35.84
30.36
25.48
21.34
17.52
13.45
8.78
3.6
-1.62
-6.32
-10.17
-13.27
-16.07
-19.28
-23.55
-29.33
-36.58
-44.74
-52.66
-58.74
-61.31
-59.11
-51.76
-39.84
-24.78
-8.39
7.54
21.64
32.97
41.03
45.67
47.06
45.72
42.48
38.31
34.03
30.1
26.53
23
19.13
14.77
10.06
5.42
1.21
-2.37
-5.5
-8.57
-12.16
-16.75
-22.71
-30.09
-38.5
-47.06
-54.33
-58.6
-58.34
-52.7
-41.9
-27.18
-10.47
6.19
21.12
33.24
42.02
47.35
49.4
48.53
45.38
40.74
35.46
30.26
25.55
21.45
17.78
14.32
10.84
7.31
3.73
0.2
-3.23
-6.61
-10.14
-14.28
-19.56
-26.51
-35.18
-44.9
-54.16
-60.89
-63.05
-59.43
-50.04
-36.13
-19.69
-2.78
12.98
26.62
37.59
45.54
50.25
51.6
49.86
45.73
40.24
34.41
28.93
24.02
19.46
14.9
10.08
5.06
0.13
-4.38
-8.33
-11.87
-15.48
-19.79
-25.39
-32.64
-41.46
-51.25
-60.85
-68.65
-72.99
-72.53
-66.69
-55.85
-41.29
-24.76
-8.09
7.16
19.92
29.51
35.69
38.51
38.37
35.98
32.16
27.73
23.24
18.95
14.79
10.62
6.35
2.02
-2.24
-6.26
-10.01
-13.62
-17.36
-21.65
-26.87
-33.39
-41.33
-50.39
-59.69
-67.76
-72.8
-73.13
-67.8
-56.83
-41.37
-23.28
-4.64
12.71
27.48
38.88
46.6
50.68
51.45
49.51
45.68
40.77
35.51
30.35
25.51
21.01
16.83
12.88
9.1
5.38
1.61
-2.33
-6.59
-11.37
-17.05
-24.08
-32.85
-43.19
-54.13
-63.81
-69.88
-70.31
-64.06
-51.55
-34.43
-15.1
4.17
21.63
36.19
47.32
54.77
58.56
58.93
56.53
52.23
47.03
41.7
36.63
31.88
27.18
22.28
17.07
11.68
6.39
1.42
-3.2
-7.79
-12.95
-19.43
-27.74
-37.88
-49.03
-59.59
-67.51
-70.77
-68.02
-58.96
-44.46
-26.18
-6.26
13.31
30.92
45.38
56.01
62.4
64.63
63.18
58.99
53.22
47
41.12
35.88
31.21
26.79
22.37
17.86
13.35
9
4.88
0.84
-3.52
-8.75
-15.49
-24.09
-34.47
-45.87
-56.76
-65.13
-68.94
-66.76
-58.15
-43.91
-25.74
-5.77
13.94
31.76
46.53
57.54
64.39
67.1
66.08
62.23
56.74
50.78
45.21
40.32
35.94
31.62
26.99
21.97
16.75
11.72
7.14
3
-1.04
-5.59
-11.31
-18.79
-28.29
-39.48
-51.29
-61.93
-69.18
-70.98
-66.11
-54.61
-37.78
-17.83
2.8
22.02
38.37
50.98
59.42
63.61
63.76
60.52
54.95
48.31
41.77
36.04
31.27
27.16
23.22
19.13
14.82
10.43
6.11
1.94
-2.25
-6.83
-12.31
-19.25
-28
-38.49
-49.85
-60.44
-67.98
-70.29
-65.95
-54.89
-38.43
-18.76
1.63
20.7
37.01
49.72
58.36
62.73
63
59.75
54.03
47.1
40.11
33.76
28.21
23.22
18.43
13.66
8.98
4.6
0.7
-2.84
-6.4
-10.61
-16.21
-23.78
-33.47
-44.78
-56.37
-66.2
-71.97
-71.74
-64.58
-50.89
-32.34
-11.31
9.69
28.6
44.07
55.37
62.37
65.29
64.71
61.48
56.6
51.05
45.49
40.25
35.24
30.26
25.13
19.88
14.77
10.08
5.93
2.05
-2.16
-7.49
-14.67
-24.04
-35.25
-47.18
-58
-65.44
-67.51
-62.96
-51.85
-35.49
-16.05
4.09
22.96
39.25
52.32
61.82
67.63
69.73
68.45
64.54
59.07
53.14
47.52
42.45
37.7
32.84
27.58
21.86
15.9
9.93
4.06
-1.84
-8.13
-15.32
-23.88
-34.02
-45.44
-57.07
-67.14
-73.49
-74.21
-68.26
-55.95
-38.76
-18.93
1.21
19.79
35.55
47.73
55.94
60.08
60.4
57.56
52.62
46.76
41
35.93
31.63
27.83
24.12
20.16
15.87
11.37
6.9
2.61
-1.57
-6.01
-11.4
-18.48
-27.71
-38.86
-50.76
-61.42
-68.45
-69.81
-64.51
-52.91
-36.62
-17.85
1.16
18.72
33.77
45.66
53.99
58.43
58.99
56.1
50.78
44.31
37.96
32.49
28.01
24.17
20.4
16.34
12
7.63
3.57
-0.06
-3.43
-6.99
-11.35
-17.1
-24.63
-33.98
-44.61
-55.27
-64.12
-69.07
-68.48
-61.61
-49.06
-32.47
-14.01
4.18
20.5
33.89
43.78
49.86
52.12
50.89
46.94
41.37
35.29
29.6
24.65
20.37
16.45
12.56
8.62
4.72
1.08
-2.21
-5.26
-8.45
-12.31
-17.41
-24.17
-32.74
-42.75
-53.19
-62.5
-68.72
-70.04
-65.28
-54.42
-38.62
-19.96
-0.87
16.55
30.85
41.38
48.01
50.91
50.47
47.24
42.05
35.92
29.86
24.58
20.33
16.87
13.72
10.48
7
3.35
-0.27
-3.83
-7.56
-11.92
-17.44
-24.53
-33.23
-43.04
-52.78
-60.71
-64.86
-63.58
-56.11
-42.92
-25.66
-6.62
11.86
28.09
41.08
50.51
56.43
59.05
58.71
55.93
51.43
45.98
40.22
34.49
28.8
23.05
17.09
11.02
5.06
-0.51
-5.55
-10.12
-14.6
-19.62
-25.86
-33.87
-43.62
-54.33
-64.38
-71.66
-74.15
-70.63
-61.03
-46.5
-29
-10.66
6.62
21.51
33.24
41.38
45.89
46.98
45.24
41.56
36.97
32.38
28.32
24.86
21.63
18.12
13.95
9.1
3.86
-1.27
-5.89
-9.92
-13.67
-17.78
-23.01
-29.88
-38.4
-47.83
-56.7
-63.1
-65.26
-62.03
-53.37
-40.25
-24.4
-7.73
8.1
21.93
33.09
41.22
46.22
48.2
47.55
44.97
41.27
37.24
33.36
29.78
26.29
22.62
18.61
14.32
9.99
5.93
2.26
-1.15
-4.71
-9.01
-14.62
-21.9
-30.8
-40.64
-50.15
-57.58
-61.18
-59.62
-52.55
-40.66
-25.53
-9.17
6.56
20.2
30.89
38.16
41.95
42.45
40.22
36.08
31.02
25.95
21.45
17.67
14.38
11.21
7.82
4.05
0.04
-3.97
-7.71
-11.05
-14.07
-17.11
-20.7
-25.45
-31.81
-39.73
-48.44
-56.46
-61.85
-62.85
-58.45
-48.81
-35.16
-19.44
-3.59
10.83
22.87
32.05
38.15
41.08
40.91
38.04
33.23
27.51
21.85
16.94
13.01
9.83
7.05
4.36
1.65
-1.05
-3.64
-6.14
-8.79
-11.95
-16.13
-21.74
-29
-37.73
-47.14
-55.88
-62.14
-64.2
-60.9
-52.15
-38.93
-23.05
-6.55
8.81
21.8
31.79
38.49
41.91
42.18
39.76
35.37
29.93
24.3
19.09
14.51
10.48
6.78
3.25
-0.11
-3.23
-6.11
-8.85
-11.78
-15.32
-19.96
-26.06
-33.7
-42.54
-51.62
-59.49
-64.4
-64.85
-60
-50.07
-36.2
-20.11
-3.68
11.58
24.57
34.69
41.57
45.13
45.55
43.34
39.27
34.26
29.1
24.3
20.02
16.09
12.3
8.48
4.61
0.84
-2.73
-6.08
-9.43
-13.14
-17.68
-23.56
-31.02
-39.94
-49.59
-58.59
-65.08
-67.26
-63.88
-54.8
-41.02
-24.4
-7.06
9.2
23.17
34.24
42.1
46.62
47.82
46.04
42.05
36.95
31.88
27.59
24.25
21.48
18.61
15.14
10.94
6.31
1.73
-2.36
-5.83
-8.98
-12.48
-17.2
-23.87
-32.84
-43.66
-55.1
-65.15
-71.62
-72.7
-67.56
-56.65
-41.42
-23.89
-6.03
10.62
25.06
36.64
44.92
49.66
50.89
49.06
45.05
39.99
34.9
30.46
26.87
23.89
21.08
18.06
14.71
11.15
7.62
4.27
1.08
-2.27
-6.24
-11.32
-17.93
-26.22
-35.97
-46.46
-56.39
-64.04
-67.59
-65.67
-57.78
-44.53
-27.53
-8.86
9.37
25.56
38.61
47.96
53.42
55.11
53.55
49.61
44.46
39.16
34.47
30.61
27.31
24.09
20.53
16.49
12.08
7.58
3.21
-0.94
-5.03
-9.38
-14.47
-20.9
-29.08
-39.08
-50.14
-60.75
-68.78
-72.11
-69.32
-60.16
-45.73
-27.97
-9.12
8.89
24.67
37.42
46.65
52.09
53.8
52.17
48.13
42.9
37.67
33.25
29.78
26.88
23.87
20.23
15.81
10.95
6.13
1.77
-2.11
-5.89
-10.18
-15.78
-23.23
-32.66
-43.5
-54.38
-63.33
-68.15
-67.16
-59.67
-46.33
-28.8
-9.27
10.13
27.71
42.32
53.22
59.97
62.49
61.17
56.95
51.09
44.84
39.06
34.02
29.5
25.07
20.4
15.48
10.57
6.02
2.01
-1.56
-5.13
-9.32
-14.79
-22.09
-31.35
-42.18
-53.54
-63.74
-70.75
-72.73
-68.51
-58.06
-42.52
-23.83
-4.27
14.18
30.11
42.76
51.76
57.07
58.85
57.47
53.7
48.46
42.84
37.65
33.27
29.62
26.23
22.62
18.48
13.88
9.12
4.54
0.3
-3.78
-8.2
-13.7
-20.93
-30.31
-41.53
-53.52
-64.37
-71.79
-73.7
-68.94
-57.74
-41.61
-22.77
-3.47
14.65
30.57
43.78
53.77
60.02
62.13
60.28
55.36
48.93
42.62
37.56
34.02
31.47
28.98
25.83
21.8
17.18
12.55
8.34
4.59
0.97
-3.17
-8.46
-15.46
-24.39
-34.99
-46.44
-57.23
-65.46
-69.21
-67.16
-59
-45.52
-28.39
-9.63
8.85
25.57
39.46
49.83
56.26
58.67
57.37
53.15
47.12
40.46
34.16
28.76
24.3
20.45
16.73
12.8
8.55
4.21
0.06
-3.64
-7
-10.45
-14.73
-20.58
-28.51
-38.52
-49.84
-61.03
-70.1
-75
-74.14
-66.89
-53.79
-36.41
-16.91
2.58
20.33
35.23
46.62
54.18
