1626696841.00
64.000000
-0.00
-0.00
-0.00
-0.00
-0.00
-0.00
-0.00
-0.00
-0.00
-0.00
0.00
0.01
0.01
-0.00
-0.03
-0.05
-0.05
0.00
0.13
0.36
0.66
1.01
1.37
1.72
2.06
2.40
2.79
3.24
3.80
4.42
5.06
5.66
6.20
6.68
7.15
7.68
8.31
9.14
10.09
11.04
11.88
12.56
13.14
13.76
14.65
15.96
17.91
20.32
22.90
25.38
27.58
29.57
31.68
34.32
37.81
42.54
48.15
54.10
59.83
64.97
69.58
74.14
79.34
85.71
93.76
103.00
112.62
121.73
129.77
136.75
143.30
150.75
157.77
166.64
177.95
191.79
206.97
220.57
228.25
225.36
208.53
176.87
132.76
80.05
23.07
-34.94
-92.44
-149.16
-205.23
-260.37
-313.74
-363.87
-409.83
-450.91
-486.50
-515.74
-537.23
-549.22
-549.96
-538.37
-514.21
-478.67
-433.88
-382.45
-327.02
-269.84
-212.63
-156.66
-102.95
-52.37
-5.90
35.58
71.43
101.35
125.50
144.38
158.69
169.15
176.37
180.75
182.57
182.07
179.51
175.23
169.65
163.18
156.15
148.81
141.30
133.69
126.02
118.33
110.69
103.16
95.80
88.68
81.83
75.25
68.95
62.95
57.25
51.86
46.78
42.03
37.59
33.45
29.61
26.07
22.81
19.83
17.11
14.67
12.48
10.54
8.83
7.35
6.07
4.97
4.05
3.27
2.62
2.09
1.65
1.30
1.01
0.79
0.61
0.47
0.37
0.28
0.22
0.18
0.15
0.13
0.12
0.13
0.14
0.15
0.17
0.20
0.24
0.27
0.31
0.35
0.40
0.45
0.49
0.54
0.59
0.64
0.69
0.75
0.83
0.91
1.01
1.09
1.15
1.18
1.21
1.23
1.29
1.40
1.58
1.79
2.02
2.24
2.44
2.61
2.81
3.06
3.42
3.86
4.37
4.90
5.38
5.79
6.14
6.52
7.00
7.66
8.52
9.46
10.37
11.10
11.59
11.89
12.20
12.71
13.62
14.90
16.34
17.56
18.15
17.86
16.65
14.79
12.59
10.34
8.05
5.42
1.97
-2.76
-8.87
-15.99
-23.34
-30.01
-35.30
-38.94
-41.24
-42.81
-44.34
-46.38
-49.31
-53.17
-57.56
-61.47
-63.23
-61.00
-53.50
-40.89
-25.00
-8.90
4.36
12.96
16.97
18.02
18.32
19.49
21.91
24.95
27.52
28.82
28.71
27.55
25.86
23.99
22.06
19.94
17.48
14.63
11.56
8.61
6.17
4.54
3.81
3.84
4.27
4.73
4.92
4.74
4.23
3.50
2.65
1.66
0.45
-1.04
-2.76
-4.56
-6.23
-7.59
-8.63
-9.54
-10.66
-12.31
-14.63
-17.10
-18.93
-19.15
-17.00
-12.21
-5.17
3.15
11.55
18.89
24.45
27.93
29.44
29.35
28.08
25.99
23.29
20.14
16.64
13.01
9.54
6.63
4.61
3.56
3.26
3.22
2.90
1.96
0.36
-1.64
-3.72
-5.67
-7.50
-9.47
-11.85
-14.89
-18.67
-23.15
-28.18
-33.47
-38.47
-42.35
-44.13
-42.94
-38.42
-30.93
-21.49
-11.51
-2.31
5.27
10.95
14.93
17.55
19.10
19.65
19.19
17.75
15.51
12.87
10.38
8.47
7.45
7.26
7.56
7.87
7.73
6.88
5.36
3.43
1.39
-0.58
-2.49
-4.52
-6.90
-9.82
-13.38
-17.60
-22.45
-27.70
-32.86
-37.13
-39.51
-39.12
-35.52
-28.94
-20.27
-10.77
-1.63
6.29
12.66
17.54
21.22
23.95
25.88
27.05
27.44
27.08
26.11
24.73
23.20
21.73
20.41
19.22
18.04
16.76
15.34
13.82
12.27
10.72
9.11
7.25
4.96
2.08
-1.46
-5.65
-10.43
-15.65
-21.07
-26.21
-30.33
-32.57
-32.22
-28.90
-22.86
-14.89
-6.08
2.47
9.94
15.94
20.41
23.47
25.32
26.07
25.85
24.78
23.08
21.02
18.90
17.00
15.52
14.50
13.89
13.53
13.25
12.88
12.27
11.33
9.98
8.20
6.01
3.48
0.66
-2.41
-5.79
-9.58
-13.85
-18.44
-22.91
-26.51
-28.37
-27.78
-24.49
-18.79
-11.48
-3.61
3.80
10.05
14.86
18.32
20.70
22.26
23.13
23.33
22.82
21.64
19.95
18.05
16.27
14.84
13.84
13.20
12.74
12.26
11.60
10.67
9.40
7.73
5.67
3.31
0.78
-1.72
-4.02
-6.12
-8.19
-10.60
-13.68
-17.60
-22.08
-26.41
-29.58
-30.61
-28.92
-24.52
-18.00
-10.36
-2.59
4.47
10.36
14.93
18.23
20.49
21.92
22.75
23.12
23.13
22.85
22.33
21.70
21.11
20.68
20.46
20.35
20.22
19.96
19.59
19.17
18.73
18.19
17.35
15.99
14.00
11.53
8.90
6.47
4.53
3.13
2.07
1.05
-0.24
-1.98
-4.19
-6.70
-9.24
-11.54
-13.40
-14.79
-15.81
-16.72
-17.80
-19.30
-21.40
-24.11
-27.32
-30.65
-33.50
-35.10
-34.73
-31.98
-26.99
-20.42
-13.31
-6.64
-1.07
3.21
6.44
8.94
11.03
12.84
14.39
15.64
16.64
17.39
17.92
18.20
18.19
17.90
17.42
16.87
16.38
16.03
15.79
15.58
15.29
14.80
14.07
13.08
11.90
10.58
9.19
7.79
6.36
4.94
3.48
2.05
0.68
-0.58
-1.73
-2.84
-4.00
-5.33
-6.84
-8.49
-10.15
-11.68
-13.03
-14.27
-15.52
-16.97
-18.74
-20.83
-23.17
-25.58
-27.77
-29.32
-29.81
-28.80
-26.11
-21.90
-16.67
-11.14
-5.99
-1.67
1.75
4.44
6.67
8.60
10.25
11.53
12.38
12.78
12.81
12.55
12.11
11.55
10.95
10.42
10.04
9.86
9.85
9.91
9.94
9.84
9.55
9.04
8.29
7.30
6.09
4.73
3.38
2.14
1.13
0.33
-0.33
-0.98
-1.73
-2.67
-3.81
-5.17
-6.67
-8.24
-9.75
-11.08
-12.18
-13.11
-14.02
-15.13
-16.62
-18.50
-20.56
-22.37
-23.40
-23.14
-21.35
-18.05
-13.58
-8.51
-3.43
1.18
5.00
7.93
10.05
11.50
12.47
13.09
13.44
13.51
13.27
12.72
11.91
10.97
10.04
9.28
8.74
8.41
8.26
8.22
8.24
8.24
8.14
7.79
7.09
5.96
4.46
2.74
0.99
-0.54
-1.70
-2.42
-2.77
-2.93
-3.16
-3.70
-4.69
-6.08
-7.65
-9.15
-10.36
-11.22
-11.87
-12.57
-13.53
-14.88
-16.62
-18.65
-20.80
-22.85
-24.41
-25.05
-24.28
-21.84
-17.80
-12.63
-7.03
-1.72
2.80
6.32
8.92
10.79
12.09
12.86
13.09
12.76
11.95
10.81
9.57
8.44
7.53
6.85
6.37
6.03
5.81
5.75
5.86
6.14
6.49
6.77
6.80
6.43
5.63
4.47
3.15
1.90
0.90
0.23
-0.19
-0.50
-0.91
-1.53
-2.43
-3.59
-4.96
-6.46
-8.00
-9.46
-10.73
-11.73
-12.47
-13.08
-13.80
-14.87
-16.45
-18.57
-21.09
-23.65
-25.80
-27.04
-26.96
-25.33
-22.19
-17.86
-12.84
-7.73
-3.07
0.78
3.66
5.62
6.87
7.67
8.21
8.59
8.80
8.81
8.66
8.44
8.32
8.40
8.72
9.18
9.64
9.98
10.14
10.15
10.05
9.88
9.63
9.22
8.59
7.68
6.56
5.33
4.17
3.21
2.46
1.82
1.10
0.15
-1.07
-2.40
-3.64
-4.67
-5.48
-6.26
-7.26
-8.58
-10.22
-11.99
-13.70
-15.24
-16.62
-17.98
-19.47
-21.24
-23.36
-25.80
-28.38
-30.73
-32.36
-32.75
-31.52
-28.59
-24.23
-18.99
-13.52
-8.38
-3.97
-0.42
2.28
4.29
5.76
6.86
7.72
8.39
8.92
9.31
9.59
9.77
9.91
10.08
10.34
10.75
11.32
11.97
12.64
13.20
13.56
13.68
13.50
13.01
12.21
11.15
9.91
8.58
7.30
6.12
5.03
3.94
2.77
1.49
0.13
-1.19
-2.44
-3.67
-4.99
-6.54
-8.35
-10.30
-12.20
-13.89
-15.38
-16.81
-18.44
-20.56
-23.35
-26.80
-30.64
-34.37
-37.28
-38.63
-37.86
-34.78
-29.71
-23.34
-16.52
-10.00
-4.28
0.47
4.28
7.25
9.49
11.11
12.22
13.02
13.69
14.36
15.11
15.91
16.65
17.26
17.66
17.84
17.84
17.73
17.54
17.31
17.03
16.68
16.26
15.77
15.22
14.55
13.70
12.56
11.05
9.16
7.01
4.82
2.85
1.24
-0.02
-1.17
-2.52
-4.35
-6.76
-9.64
-12.67
-15.53
-18.00
-20.04
-21.83
-23.70
-26.01
-29.01
-32.74
-36.89
-40.86
-43.79
-44.79
-43.29
-39.16
-32.80
-24.99
-16.70
-8.79
-1.85
3.82
8.19
11.41
13.70
15.31
16.45
17.26
17.78
17.98
17.88
17.56
17.19
16.96
17.01
17.36
17.92
18.55
19.11
19.51
19.69
19.57
19.10
18.19
16.83
15.08
13.10
11.12
9.31
7.77
6.40
4.97
3.16
0.80
-2.12
-5.37
-8.60
-11.51
-13.94
-15.97
-17.83
-19.83
-22.31
-25.54
-29.64
-34.52
-39.71
-44.41
-47.58
-48.24
-45.84
-40.41
-32.63
-23.55
-14.29
-5.71
1.69
7.75
12.49
16.03
18.45
19.87
20.45
20.45
20.13
19.80
19.70
19.94
20.54
21.37
22.28
23.08
23.64
23.94
23.99
23.85
23.54
23.00
22.13
20.81
19.02
16.85
14.48
12.09
9.84
7.72
5.60
3.31
0.69
-2.27
-5.47
-8.70
-11.74
-14.46
-16.92
-19.34
-22.10
-25.60
-30.10
-35.58
-41.59
-47.28
-51.54
-53.25
-51.67
-46.64
-38.67
-28.79
-18.23
-8.07
0.93
8.42
14.35
18.80
21.91
23.80
24.66
24.78
24.50
24.16
23.98
24.04
24.25
24.51
24.77
25.07
25.52
26.17
26.96
27.66
27.98
27.68
26.67
25.00
22.83
20.37
17.79
15.23
12.78
10.42
8.10
5.64
2.93
-0.15
-3.52
-7.01
-10.41
-13.60
-16.58
-19.48
-22.58
-26.13
-30.33
-35.25
-40.68
-46.11
-50.70
-53.42
-53.30
-49.81
-43.02
-33.66
-22.85
-11.75
-1.22
8.19
16.23
22.71
27.43
30.26
31.29
30.92
29.85
28.77
28.18
28.21
28.70
29.38
30.06
30.72
31.44
32.25
33.02
33.50
33.39
32.49
30.79
28.48
25.82
23.07
20.39
17.84
15.41
13.01
10.52
7.84
4.89
1.68
-1.65
-4.91
-7.88
-10.51
-12.96
-15.61
-18.94
-23.28
-28.58
-34.29
-39.43
-42.81
-43.40
-40.61
-34.49
-25.71
-15.38
-4.77
5.00
13.12
19.28
23.51
26.16
27.65
28.40
28.75
28.90
28.94
28.89
28.72
28.45
28.08
27.70
27.45
27.48
27.87
28.55
29.35
30.01
30.24
29.82
28.60
26.58
23.90
20.79
17.55
14.50
11.80
9.45
7.21
4.74
1.74
-1.91
-6.04
-10.29
-14.23
-17.57
-20.34
-22.88
-25.76
-29.50
-34.37
-40.13
-46.00
-50.77
-53.18
-52.27
-47.70
-39.88
-29.85
-18.96
-8.50
0.55
7.71
12.93
16.47
18.76
20.23
21.26
22.14
23.02
23.99
24.98
25.92
26.69
27.20
27.44
27.46
27.39
27.38
27.50
27.72
27.85
27.65
26.88
25.40
23.26
20.67
17.93
15.32
13.02
11.02
9.21
7.40
5.39
3.07
0.43
-2.47
-5.45
-8.34
-10.95
-13.23
-15.22
-17.14
-19.34
-22.21
-26.06
-30.92
-36.43
-41.74
-45.73
-47.29
-45.64
-40.69
-33.05
-23.84
-14.32
-5.55
1.86
7.74
12.22
15.52
17.86
19.45
20.49
21.22
21.83
22.46
23.12
23.71
24.08
24.10
23.76
23.16
22.48
21.86
21.38
20.95
20.45
19.71
18.64
17.24
15.56
13.71
11.79
9.85
7.92
5.98
3.98
1.82
-0.58
-3.23
-6.06
-8.91
-11.63
-14.10
-16.36
-18.59
-21.07
-24.11
-27.90
-32.37
-37.09
-41.29
-43.98
-44.24
-41.54
-35.97
-28.24
-19.47
-10.84
-3.25
2.84
7.46
10.88
13.50
15.66
17.55
19.24
20.75
21.99
22.88
23.31
23.29
22.89
22.27
21.62
21.11
20.86
20.82
20.90
20.94
20.77
20.21
19.17
17.63
15.66
13.42
11.09
8.79
6.54
4.27
1.86
-0.74
-3.45
-6.13
-8.65
-10.96
-13.19
-15.60
-18.51
-22.12
-26.46
-31.22
-35.80
-39.33
-40.96
-40.03
-36.38
-30.40
-22.91
-14.94
-7.37
-0.76
4.69
9.07
12.56
15.33
17.52
19.17
20.38
21.18
21.64
21.82
21.78
21.59
21.33
21.06
20.81
20.61
20.46
20.34
20.18
19.91
19.37
18.47
17.13
15.37
13.22
10.77
8.04
5.09
1.95
-1.30
-4.47
-7.42
-10.02
-12.26
-14.32
-16.49
-19.12
-22.42
-26.31
-30.40
-33.87
-35.81
-35.41
-32.36
-26.92
-19.89
-12.35
-5.31
0.58
5.07
8.28
10.49
12.02
13.12
13.99
14.74
15.42
15.98
16.31
16.30
15.89
15.18
14.33
13.59
13.13
12.99
13.13
13.40
13.67
13.83
13.80
13.47
12.79
11.66
10.06
8.01
5.63
3.07
0.49
-1.99
-4.35
-6.60
-8.87
-11.35
-14.24
-17.75
-21.94
-26.71
-31.63
-36.05
-39.16
-40.20
-38.68
-34.62
-28.53
-21.29
-13.93
-7.25
-1.72
2.56
5.78
8.24
10.17
11.71
12.91
13.78
14.30
14.52
14.48
14.27
13.97
13.67
13.41
13.21
13.06
12.91
12.72
12.42
11.98
11.32
10.34
8.92
7.03
4.75
2.33
0.06
-1.85
-3.38
-4.76
-6.37
-8.52
-11.28
-14.43
-17.64
-20.54
-22.99
-25.05
-26.98
-29.08
-31.62
-34.76
-38.42
-42.33
-45.85
-48.14
-48.34
-45.89
-40.80
-33.64
-25.41
-17.16
-9.70
-3.44
1.64
5.72
9.08
11.95
14.48
16.78
18.88
20.78
22.35
23.49
24.11
24.25
24.09
23.87
23.81
24.04
24.52
25.10
25.56
25.73
25.51
24.89
23.87
22.51
20.81
18.80
16.51
14.02
11.48
9.05
6.90
5.03
3.36
1.66
-0.31
-2.72
-5.56
-8.64
-11.68
-14.45
-16.87
-19.07
-21.31
-23.94
-27.19
-31.17
-35.78
-40.66
-45.20
-48.62
-50.06
-48.91
-44.94
-38.46
-30.20
-21.19
-12.39
-4.55
1.91
6.92
10.61
13.32
15.35
17.01
18.45
19.69
20.63
21.24
21.51
21.55
21.52
21.54
21.71
22.01
22.42
22.91
23.43
23.87
24.11
23.95
23.30
22.17
20.68
19.02
17.34
15.67
13.99
12.24
10.43
8.60
6.84
5.20
3.62
1.93
-0.03
-2.34
-4.96
-7.74
-10.46
-12.95
-15.13
-17.08
-18.97
-21.05
-23.62
-26.91
-31.03
-35.82
-40.76
-45.02
-47.58
-47.53
-44.42
-38.42
-30.34
-21.30
-12.44
-4.60
1.84
6.87
10.70
13.63
15.92
17.75
19.26
20.48
21.38
21.94
22.16
22.11
21.93
21.76
21.67
21.72
21.89
22.16
22.46
22.70
22.73
22.43
21.67
20.45
18.82
16.88
14.77
12.59
10.44
8.43
6.62
5.04
3.63
2.24
0.68
-1.25
-3.64
-6.40
-9.26
-11.93
-14.20
-16.07
-17.84
-19.94
-22.78
-26.54
-31.03
-35.73
-39.84
-42.52
-43.05
-40.99
-36.35
-29.54
-21.36
-12.79
-4.75
2.14
7.60
11.71
14.72
16.89
18.39
19.33
19.76
19.77
19.52
19.18
18.86
18.65
18.54
18.52
18.56
18.67
18.81
18.94
18.93
18.66
17.98
16.83
15.25
13.38
11.38
9.44
7.65
5.97
4.24
2.30
0.03
-2.56
-5.28
-7.90
-10.22
-12.17
-13.85
-15.53
-17.54
-20.18
-23.55
-27.51
-31.55
-34.91
-36.70
-36.20
-33.10
-27.68
-20.68
-13.13
-5.99
0.14
5.04
8.82
11.70
13.85
15.26
15.88
15.68
14.80
13.53
12.32
11.51
11.28
11.54
12.01
12.38
12.46
12.22
11.79
11.34
10.90
10.39
9.62
8.43
6.69
4.40
1.67
-1.36
-4.49
-7.52
-10.28
-12.70
-14.76
-16.62
-18.51
-20.73
-23.58
-27.18
-31.39
-35.71
-39.28
-41.15
-40.52
-37.07
-31.11
-23.48
-15.28
-7.51
-0.85
4.47
8.49
11.39
13.36
14.49
14.91
14.73
14.17
13.46
12.82
12.40
12.17
12.01
11.77
11.31
10.64
9.88
9.19
8.68
8.29
7.78
6.78
5.03
2.45
-0.76
-4.17
-7.35
-10.02
-12.13
-13.92
-15.75
-18.00
-20.93
-24.69
-29.16
-33.96
-38.37
-41.47
-42.32
-40.29
-35.28
-27.85
-19.02
-10.00
-1.83
4.89
10.00
13.66
16.20
17.93
19.06
19.76
20.12
20.22
20.10
19.79
19.29
18.62
17.78
16.85
15.91
15.09
14.45
13.95
13.46
12.73
11.49
9.56
6.94
3.79
0.45
-2.71
-5.41
-7.60
-9.52
-11.60
-14.33
-18.09
-22.88
-28.22
-33.19
-36.66
-37.59
-35.42
-30.23
-22.74
-14.07
-5.36
2.49
8.99
13.99
17.58
19.95
21.36
22.11
22.45
22.62
22.73
22.74
22.52
21.98
21.10
19.97
18.78
17.69
16.81
16.17
15.64
15.06
14.17
12.74
10.62
7.85
4.63
1.25
-1.98
-4.93
-7.64
-10.36
-13.42
-17.16
-21.73
-27.01
-32.44
-37.12
-40.00
-40.20
-37.27
-31.46
-23.55
-14.67
-5.95
1.78
8.10
12.95
16.49
18.98
20.66
21.73
22.31
22.51
22.38
22.00
21.41
20.66
19.78
18.77
17.67
16.55
15.52
14.69
14.09
13.59
12.89
11.60
9.41
6.20
2.21
-2.11
-6.17
-9.55
-12.12
-14.17
-16.23
-18.90
-22.59
-27.35
-32.78
-38.11
-42.34
-44.48
-43.82
-40.11
-33.66
-25.29
-16.09
-7.17
0.61
6.79
11.40
14.71
17.12
18.99
20.49
21.68
22.52
22.98
23.11
23.00
22.72
22.33
21.84
21.25
20.59
19.94
19.37
18.81
18.11
16.96
15.11
12.44
9.04
5.16
1.15
-2.69
-6.20
-9.34
-12.28
-15.30
-18.74
-22.90
-27.87
-33.31
-38.49
-42.32
-43.69
-41.91
-36.94
-29.49
-20.74
-11.95
-4.04
2.61
8.08
12.69
16.70
20.18
23.01
25.03
26.16
26.49
26.19
25.45
24.43
23.26
22.03
20.88
19.93
19.27
18.86
18.55
18.04
17.04
15.33
12.82
9.62
5.93
2.08
-1.63
-5.03
-8.07
-11.00
-14.20
-18.07
-22.82
-28.23
-33.56
-37.69
-39.45
-37.99
-33.15
-25.54
-16.34
-6.92
1.58
8.56
13.94
18.01
21.17
23.69
25.63
26.88
27.39
27.21
26.51
25.57
24.63
23.81
23.14
22.54
21.99
21.44
20.90
20.35
19.77
19.06
18.13
16.89
15.28
13.22
10.70
7.75
4.48
1.09
-2.19
-5.18
-7.83
-10.22
-12.57
-15.16
-18.24
-21.99
-26.40
-31.23
-35.86
-39.42
-40.92
-39.60
-35.22
-28.19
-19.50
-10.40
-1.98
5.11
10.71
15.00
18.31
20.81
22.58
23.59
23.88
23.64
23.18
22.78
22.62
22.64
22.70
22.64
22.42
22.16
22.02
22.06
22.16
22.04
21.39
20.02
17.97
15.51
13.01
10.77
8.90
7.32
5.78
4.05
1.92
-0.70
-3.70
-6.90
-10.00
-12.73
-14.90
-16.50
-17.70
-18.88
-20.52
-23.04
-26.68
-31.27
-36.20
-40.42
-42.77
-42.27
-38.49
-31.76
-23.09
-13.80
-5.14
2.07
7.57
11.52
14.28
16.18
17.43
18.11
18.30
18.12
17.75
17.38
17.13
17.02
16.98
16.92
16.77
16.55
16.38
16.37
16.58
16.88
17.01
16.63
15.52
13.67
11.32
8.89
6.75
5.04
3.62
2.12
0.16
-2.46
-5.60
-8.92
-12.01
-14.59
-16.65
-18.41
-20.21
-22.35
-25.05
-28.34
-32.07
-35.85
-39.04
-40.78
-40.25
-36.96
-31.01
-23.12
-14.45
-6.17
0.88
6.37
10.42
13.32
15.35
16.66
17.33
17.49
17.36
17.20
17.23
17.48
17.88
18.27
18.52
18.64
18.68
18.75
18.91
19.13
19.30
19.24
18.76
17.73
16.10
13.95
11.45
8.85
6.43
4.36
2.70
1.31
-0.08
-1.79
-4.02
-6.75
-9.73
-12.56
-14.91
-16.70
-18.11
-19.56
-21.49
-24.19
-27.75
-31.97
-36.47
-40.65
-43.73
-44.92
-43.54
-39.34
-32.62
-24.29
-15.54
-7.51
-0.90
4.09
7.75
10.51
12.72
14.53
15.91
16.81
17.22
17.27
17.11
16.90
16.71
16.58
16.54
16.63
16.86
17.21
17.62
17.96
18.09
17.93
17.41
16.49
15.16
13.41
11.26
8.83
6.27
3.76
1.47
-0.53
-2.24
-3.75
-5.17
-6.60
-8.09
-9.61
-11.14
-12.66
-14.16
-15.70
-17.34
-19.16
-21.27
-23.80
-26.89
-30.56
-34.59
-38.41
-41.18
-41.98
-40.15
-35.54
-28.67
-20.52
-12.29
-4.95
0.94
5.37
8.69
11.34
13.65
15.73
17.47
18.76
19.53
19.87
19.91
19.81
19.63
19.41
19.24
19.24
19.52
20.12
20.88
21.49
21.64
21.14
19.98
18.34
16.46
14.53
12.65
10.85
9.09
7.37
5.69
4.04
2.38
0.62
-1.31
-3.45
-5.76
-8.12
-10.35
-12.32
-13.98
-15.41
-16.80
-18.37
-20.31
-22.78
-25.86
-29.55
-33.65
-37.70
-40.93
-42.44
-41.45
-37.66
-31.37
-23.47
-15.13
-7.36
-0.83
4.30
8.19
11.17
13.46
15.21
16.42
17.09
17.24
16.98
16.46
15.87
15.36
15.05
15.00
15.21
15.62
16.19
16.83
17.47
17.94
18.05
17.55
16.33
14.39
11.94
9.34
6.94
5.04
3.70
2.76
1.92
0.81
-0.80
-2.96
-5.54
-8.28
-10.89
-13.17
-15.10
-16.78
-18.44
-20.35
-22.81
-26.02
-29.95
-34.28
-38.33
-41.19
-41.96
-40.02
-35.30
-28.32
-20.06
-11.66
-4.07
2.13
6.82
10.18
12.53
14.10
15.05
15.42
15.28
14.78
14.16
13.69
13.57
13.79
14.22
14.62
14.82
14.81
14.70
14.71
14.95
15.38
15.73
15.67
14.98
13.61
11.77
9.75
7.79
5.98
4.27
2.50
0.58
-1.54
-3.84
-6.33
-8.99
-11.74
-14.45
-16.91
-18.94
-20.55
-22.00
-23.72
-26.19
-29.71
-34.20
-39.13
-43.57
-46.43
-46.75
-44.01
-38.31
-30.36
-21.31
-12.36
-4.52
1.70
6.28
9.52
11.89
13.73
15.26
16.48
17.36
17.87
18.11
18.24
18.40
18.68
19.05
19.40
19.63
19.74
19.76
19.75
19.73
19.60
19.21
18.38
17.03
15.18
12.97
10.63
8.39
6.41
4.71
3.16
1.54
-0.41
-2.83
-5.69
-8.80
-11.87
-14.64
-16.99
-19.07
-21.19
-23.76
-27.07
-31.15
-35.65
-39.83
-42.73
-43.46
-41.42
-36.56
-29.34
-20.63
-11.48
-2.90
4.35
9.88
13.67
15.96
17.21
17.84
18.17
18.36
18.42
18.32
18.09
17.84
17.71
17.87
18.33
19.02
19.78
20.38
20.67
20.50
19.83
18.67
17.10
15.23
13.14
10.89
8.53
6.07
3.58
1.12
-1.29
-3.66
-6.03
-8.43
-10.85
-13.28
-15.73
-18.31
-21.25
-24.78
-28.90
-33.28
-37.17
-39.57
-39.56
-36.63
-30.88
-23.05
-14.30
-5.82
1.44
7.05
11.02
13.71
15.52
16.73
17.45
17.72
17.57
17.18
16.77
16.56
16.69
17.14
17.77
18.37
18.79
18.93
18.79
18.42
17.85
17.03
15.87
14.23
11.99
9.18
5.91
2.41
-1.04
-4.27
-7.23
-9.99
-12.70
-15.54
-18.67
-22.22
-26.23
-30.65
-35.17
-39.20
-41.92
-42.53
-40.44
-35.59
-28.47
-20.01
-11.29
-3.25
3.54
8.83
12.73
15.44
17.25
18.42
19.18
19.72
20.19
20.61
20.96
21.19
21.29
21.28
21.28
21.37
21.59
21.88
22.09
22.03
21.53
20.50
18.99
17.11
15.05
12.96
10.90
8.79
6.50
3.88
0.86
-2.45
-5.86
-9.15
-12.20
-15.07
-17.98
-21.28
-25.26
-30.01
-35.28
-40.49
-44.75
-47.08
-46.69
-43.22
-36.94
-28.62
-19.39
-10.33
-2.27
4.37
9.54
13.43
16.34
18.51
20.22
21.64
22.90
24.03
25.01
25.76
26.26
26.55
26.73
26.91
27.10
27.30
27.46
27.53
27.47
27.19
26.55
25.37
23.52
21.01
18.06
15.05
12.35
10.16
8.40
6.77
4.86
2.39
-0.71
-4.22
-7.77
-10.98
-13.65
-15.84
-17.89
-20.29
-23.53
-27.86
-33.23
-39.12
-44.69
-48.86
-50.63
-49.34
-44.83
-37.58
-28.55
-18.93
-9.82
-2.01
4.22
8.99
12.67
15.67
18.31
20.68
22.79
24.55
25.92
26.93
27.60
28.02
28.22
28.27
28.28
28.38
28.69
29.24
29.97
30.64
31.02
30.90
30.16
28.79
26.85
24.43
21.72
18.94
16.36
14.17
12.44
11.00
9.52
7.68
5.22
2.17
-1.27
-4.77
-8.03
-10.94
-13.54
-16.04
-18.71
-21.83
-25.59
-30.03
-34.98
-39.92
-44.05
-46.40
-46.07
-42.63
-36.31
-27.93
-18.75
-9.96
-2.39
3.65
8.23
11.64
14.14
15.89
17.02
17.71
18.23
18.86
19.70
20.70
21.65
22.32
22.60
22.57
22.43
22.42
22.69
23.19
23.76
24.14
24.03
23.26
21.80
19.80
17.62
15.60
13.93
12.60
11.34
9.80
7.73
5.12
2.18
-0.77
-3.47
-5.85
-8.06
-10.38
-13.12
-16.47
-20.53
-25.17
-30.06
-34.57
-37.88
-39.13
-37.71
-33.52
-27.03
-19.23
-11.28
-4.09
1.82
6.42
9.97
12.73
14.86
16.36
17.22
17.48
17.29
16.88
16.45
16.11
15.88
15.72
15.63
15.62
15.72
15.94
16.16
16.18
15.81
14.90
13.43
11.50
9.31
7.05
4.85
2.76
0.73
-1.36
-3.64
-6.19
-8.97
-11.88
-14.74
-17.37
-19.72
-21.86
-24.04
-26.62
-29.89
-33.90
-38.29
-42.29
-44.85
-45.00
-42.18
-36.46
-28.59
-19.72
-11.04
-3.45
2.65
7.34
10.91
13.74
16.06
17.96
19.47
20.58
21.38
21.97
22.46
22.88
23.20
23.36
23.33
23.16
22.97
22.83
22.77
22.73
22.56
22.09
21.20
19.83
17.94
15.58
12.89
10.11
7.49
5.23
3.39
1.80
0.19
-1.71
-4.00
-6.59
-9.22
-11.64
-13.76
-15.67
-17.61
-19.88
-22.71
-26.23
-30.45
-35.15
-39.91
-44.02
-46.62
-46.91
-44.41
-39.18
-31.85
-23.43
-15.01
-7.46
-1.24
3.66
7.48
10.60
13.35
15.91
18.31
20.47
22.27
23.56
24.30
24.51
24.32
23.87
23.31
22.72
22.23
21.89
21.77
21.90
22.22
22.54
22.60
22.15
21.03
19.24
16.97
14.49
12.07
9.89
8.00
6.28
4.56
2.61
0.26
-2.51
-5.62
-8.83
-11.89
-14.61
-16.94
-19.00
-21.04
-23.38
-26.31
-29.99
-34.39
-39.20
-43.79
-47.32
-48.87
-47.76
-43.75
-37.19
-28.97
-20.17
-11.85
-4.71
0.97
5.31
8.61
11.29
13.65
15.90
18.05
20.01
21.60
22.68
23.19
23.21
22.90
22.47
22.06
21.76
21.57
21.42
21.23
20.90
20.32
19.41
18.08
16.31
14.19
11.87
9.54
7.35
5.33
3.43
1.46
-0.75
-3.30
-6.17
-9.18
-12.11
-14.73
-16.97
-18.97
-21.10
-23.84
-27.55
-32.25
-37.45
-42.21
-45.40
-46.04
-43.67
-38.50
-31.27
-23.05
-14.86
-7.44
-1.17
3.88
7.87
11.03
13.65
15.97
18.14
20.16
21.91
23.17
23.78
23.69
23.01
22.02
21.01
20.21
19.69
19.38
19.11
18.67
17.93
16.83
15.39
13.66
11.73
9.65
7.42
5.03
2.41
-0.39
-3.29
-6.12
-8.73
-11.07
-13.17
-15.17
-17.25
-19.62
-22.51
-26.09
-30.40
-35.21
-39.92
-43.60
-45.25
-44.12
-40.00
-33.35
-25.15
-16.55
-8.51
-1.58
4.10
8.69
12.48
15.73
18.65
21.33
23.75
25.78
27.26
28.09
28.26
27.89
27.16
26.25
25.24
24.21
23.18
22.28
21.61
21.24
21.06
20.79
20.08
18.65
16.50
13.86
11.17
8.77
6.79
5.08
3.34
1.27
-1.31
-4.38
-7.77
-11.26
-14.64
-17.78
-20.60
-23.09
-25.38
-27.73
-30.54
-34.18
-38.80
-44.08
-49.17
-52.81
-53.76
-51.18
-45.05
-36.22
-26.11
-16.21
-7.62
-0.77
4.52
8.77
12.51
16.03
19.37
22.45
25.19
27.54
29.45
30.87
31.70
31.86
31.42
30.60
29.75
29.16
28.97
29.13
29.34
29.26
28.62
27.31
25.43
23.19
20.81
18.43
16.09
13.72
11.30
8.85
6.46
4.19
2.04
-0.13
-2.49
-5.18
-8.22
-11.47
-14.69
-17.63
-20.18
-22.42
-24.57
-26.96
-29.86
-33.45
-37.78
-42.70
-47.80
-52.34
-55.38
-55.94
-53.37
-47.61
-39.31
-29.68
-20.03
-11.43
-4.34
1.30
5.87
9.80
13.34
16.57
19.54
22.26
24.82
27.26
29.44
31.14
32.10
32.21
31.55
30.45
29.27
28.33
27.75
27.41
27.09
26.47
25.27
23.37
20.80
17.79
14.66
11.70
9.08
6.77
4.57
2.22
-0.46
-3.48
-6.73
-10.01
-13.15
-16.10
-18.90
-21.71
-24.75
-28.31
-32.53
-37.33
-42.28
-46.51
-49.03
-48.93
-45.74
-39.67
-31.50
-22.37
-13.38
-5.41
1.11
6.15
9.95
12.89
15.32
17.53
19.66
21.65
23.33
24.46
24.91
24.71
24.06
23.27
22.65
22.39
22.54
22.97
23.41
23.55
23.11
21.90
19.97
17.51
14.83
12.22
9.87
7.78
5.75
3.53
0.85
-2.42
-6.16
-10.12
-13.95
-17.37
-20.31
-22.95
-25.68
-28.98
-33.17
-38.25
-43.76
-48.86
-52.46
-53.58
-51.57
-46.41
-38.71
-29.53
-20.09
-11.44
-4.21
1.44
5.73
9.08
11.92
14.56
17.16
19.75
22.24
24.49
26.37
27.74
28.56
28.85
28.73
28.37
27.90
27.43
26.98
26.58
26.21
25.84
25.39
24.69
23.55
21.81
19.44
16.64
13.73
11.02
8.67
6.59
4.49
2.02
-1.03
-4.63
-8.53
-12.35
-15.80
-18.78
-21.41
-23.95
-26.68
-29.86
-33.65
-38.09
-43.07
-48.22
-52.87
-56.03
-56.72
-54.23
-48.43
-39.90
-29.77
-19.36
-9.78
-1.72
4.71
9.71
13.66
16.92
19.72
22.20
24.42
26.41
28.14
29.54
30.54
31.04
31.04
30.61
29.88
29.04
28.23
27.56
27.06
26.72
26.45
26.16
25.63
24.71
23.24
21.22
18.78
16.17
13.63
11.31
9.22
7.23
5.16
2.85
0.26
-2.54
-5.41
-8.18
-10.71
-12.95
-15.00
-17.04
-19.35
-22.27
-26.07
-30.90
-36.66
-42.91
-48.79
-53.15
-54.83
-52.95
-47.35
-38.64
-28.11
-17.29
-7.50
0.51
6.65
11.27
14.86
17.86
20.51
22.91
25.08
26.97
28.47
29.45
29.79
29.48
28.68
27.69
26.77
26.11
25.72
25.46
25.13
24.58
23.66
22.33
20.59
18.53
16.28
14.01
11.81
9.65
7.39
4.86
1.93
-1.37
-4.85
-8.29
-11.50
-14.43
-17.15
-19.90
-22.95
-26.57
-30.84
-35.58
-40.21
-43.89
-45.69
-44.90
-41.26
-35.07
-27.09
-18.30
-9.65
-1.88
4.58
9.61
13.36
16.14
18.33
20.17
21.75
22.94
23.54
23.44
22.67
21.49
20.19
19.02
18.07
17.30
16.61
15.94
15.26
14.53
13.66
12.50
10.88
8.71
6.10
3.25
0.39
-2.27
-4.68
-6.88
-8.98
-11.15
-13.57
-16.46
-19.98
-24.13
-28.63
-32.85
-35.92
-36.94
-35.32
-31.00
-24.52
-16.86
-9.09
-2.11
3.62
8.04
11.32
13.73
15.42
16.45
16.83
16.65
16.06
15.27
14.51
13.88
13.37
12.88
12.30
11.57
10.72
9.87
9.13
8.58
8.12
7.50
6.44
4.67
2.15
-0.97
-4.35
-7.65
-10.62
-13.19
-15.46
-17.66
-20.10
-23.07
-26.76
-31.08
-35.63
-39.64
-42.19
-42.42
-39.86
-34.62
-27.34
-19.04
-10.77
-3.29
2.97
7.96
11.86
14.90
17.26
19.05
20.31
21.04
21.30
21.17
20.75
20.19
19.56
18.94
18.28
17.53
16.66
15.69
14.73
13.88
13.18
12.47
11.50
9.99
7.78
4.94
1.74
-1.49
-4.46
-7.05
-9.33
-11.48
-13.74
-16.40
-19.65
-23.59
-28.05
-32.53
-36.25
-38.26
-37.83
-34.61
-28.87
-21.32
-12.94
-4.71
2.59
8.55
13.05
16.25
18.49
20.14
21.51
22.74
23.82
24.60
24.96
24.83
24.29
23.47
22.51
21.47
20.39
19.28
18.19
17.19
16.32
15.53
14.69
13.59
12.07
10.04
7.54
4.71
1.74
-1.20
-4.00
-6.64
-9.14
-11.53
-13.86
-16.21
-18.75
-21.68
-25.22
-29.36
-33.71
-37.50
-39.70
-39.44
-36.33
-30.62
-23.16
-15.06
-7.31
-0.52
5.09
9.62
13.23
16.02
18.02
19.20
19.61
19.38
18.76
17.98
17.30
16.92
16.87
17.08
17.37
17.47
17.21
16.53
15.52
14.33
13.15
12.04
10.94
9.68
8.13
6.16
3.78
1.10
-1.71
-4.45
-6.94
-9.06
-10.85
-12.42
-14.03
-16.02
-18.67
-22.11
-26.16
-30.24
-33.48
-34.93
-33.85
-30.02
-23.80
-16.09
-8.00
-0.54
5.63
10.28
13.55
15.82
17.45
18.65
19.49
19.87
19.74
19.10
18.16
17.19
16.46
16.08
16.01
16.12
16.23
16.23
16.08
15.76
15.24
14.43
13.22
11.56
9.50
7.17
4.76
2.45
0.32
-1.69
-3.74
-6.02
-8.58
-11.32
-13.99
-16.37
-18.37
-20.19
-22.22
-24.89
-28.45
-32.69
-36.96
-40.26
-41.54
-40.02
-35.53
-28.55
-20.04
-11.20
-3.06
3.75
9.03
12.92
15.71
17.66
18.96
19.76
20.18
20.40
20.57
20.75
20.96
21.10
21.09
20.87
20.49
20.05
19.70
19.55
19.58
19.67
19.57
19.04
17.91
16.22
14.15
12.01
10.02
8.30
6.79
5.35
3.80
2.05
0.06
-2.16
-4.56
-7.08
-9.62
-12.05
-14.30
-16.41
-18.58
-21.17
-24.54
-28.88
-33.94
-39.06
-43.25
-45.48
-44.97
-41.49
-35.41
-27.58
-19.07
-10.89
-3.78
1.91
6.20
9.32
11.66
13.54
15.22
16.78
18.21
19.45
20.42
21.07
21.42
21.45
21.19
20.70
20.04
19.35
18.81
18.58
18.76
19.31
20.00
20.49
20.43
19.60
18.01
15.90
13.60
11.44
9.60
8.02
6.57
5.00
3.14
0.94
-1.55
-4.18
-6.78
-9.20
-11.39
-13.36
-15.26
-17.37
-19.97
-23.28
-27.25
-31.41
-34.92
-36.77
-36.13
-32.69
-26.82
-19.44
-11.69
-4.53
1.46
6.17
9.76
12.49
14.60
16.24
17.53
18.54
19.34
19.88
20.14
20.02
19.56
18.85
18.08
17.46
17.08
16.91
16.80
16.55
16.02
15.14
13.97
12.60
11.13
9.55
7.82
5.91
3.82
1.66
-0.44
-2.38
-4.16
-5.89
-7.70
-9.75
-12.16
-14.95
-18.14
-21.69
-25.52
-29.41
-32.92
-35.48
-36.42
-35.24
-31.80
-26.43
-19.83
-12.89
-6.45
-1.06
3.08
6.05
8.13
9.57
10.59
11.23
11.51
11.37
10.86
10.11
9.32
8.66
8.24
8.01
7.86
7.71
7.53
7.40
7.37
7.38
7.22
6.63
5.44
3.67
1.52
-0.71
-2.77
-4.56
-6.12
-7.62
-9.30
-11.37
-14.02
-17.31
-21.02
-24.63
-27.34
-28.31
-26.94
-23.16
-17.46
-10.71
-3.91
2.15
7.09
10.84
13.55
15.40
16.51
16.91
16.68
15.98
15.02
14.08
13.33
12.79
12.36
11.88
11.22
10.34
9.32
8.26
7.25
6.28
5.28
4.12
2.67
0.85
-1.37
-3.95
-6.80
-9.76
-12.64
-15.29
-17.64
-19.71
-21.71
-23.98
-26.84
-30.50
-34.80
-39.20
-42.78
-44.58
-43.82
-40.29
-34.33
-26.77
-18.60
-10.68
-3.62
2.29
6.99
10.55
13.07
14.73
15.73
16.29
16.60
16.73
16.72
16.54
16.20
15.73
15.21
14.69
14.16
13.60
12.97
12.31
11.62
10.88
9.96
8.62
6.66
3.98
0.71
-2.85
-6.31
-9.43
-12.14
-14.62
-17.18
-20.18
-23.85
-28.29
-33.27
-38.32
-42.64
-45.33
-45.58
-42.96
-37.61
-30.21
-21.78
-13.43
-5.97
0.17
4.97
8.67
11.57
13.94
15.93
17.60
18.97
19.99
20.67
21.01
21.05
20.85
20.46
19.96
19.46
19.05
18.83
18.81
18.87
18.78
18.26
17.04
14.97
12.13
8.80
5.40
2.30
-0.31
-2.48
-4.51
-6.79
-9.66
-13.27
-17.53
-22.09
-26.35
-29.59
-31.09
-30.35
-27.22
-22.00
-15.43
-8.41
-1.76
3.94
8.49
11.98
14.66
16.76
18.39
19.58
20.24
20.34
19.91
19.11
18.15
17.29
16.73
16.50
16.57
16.73
16.75
16.44
15.68
14.53
13.13
11.65
10.22
8.86
7.47
5.89
4.01
1.86
-0.45
-2.75
-4.90
-6.90
-8.83
-10.79
-12.89
-15.20
-17.89
-21.10
-24.91
-29.18
-33.33
-36.42
-37.43
-35.62
-30.86
-23.75
-15.41
-7.05
0.33
6.24
10.60
13.71
15.94
17.71
19.33
20.92
22.47
23.79
24.70
25.07
24.92
24.41
23.78
23.20
22.78
22.53
22.42
22.38
22.38
22.33
22.09
21.55
20.62
19.29
17.59
15.61
13.39
10.93
8.24
5.32
2.22
-0.96
-4.12
-7.14
-9.97
-12.63
-15.21
-17.94
-21.09
-24.82
-29.04
-33.26
-36.61
-38.10
-36.94
-32.87
-26.31
-18.26
-9.94
-2.42
3.66
8.21
11.53
14.09
16.29
18.42
20.49
22.41
24.01
25.07
25.53
25.37
24.71
23.74
22.68
21.70
20.92
20.40
20.07
19.84
19.51
18.86
17.74
16.12
14.13
12.00
9.98
8.18
6.52
4.76
2.67
0.13
-2.73
-5.65
-8.32
-10.57
-12.47
-14.25
-16.27
-18.84
-22.12
-26.00
-30.08
-33.70
-36.08
-36.50
-34.55
-30.28
-24.26
-17.33
-10.39
-4.15
1.07
5.21
8.49
11.15
13.43
15.45
17.19
18.56
19.44
19.75
19.54
18.97
18.31
17.80
17.57
17.64
17.88
18.13
18.20
17.93
17.21
15.97
14.22
12.04
9.59
7.00
4.41
1.85
-0.69
-3.21
-5.75
-8.26
-10.64
-12.80
-14.69
-16.33
-17.91
-19.72
-22.09
-25.17
-28.87
-32.68
-35.79
-37.27
-36.35
-32.74
-26.71
-19.07
-10.89
-3.22
3.23
8.19
11.84
14.60
16.88
18.93
20.76
22.19
23.02
23.12
22.53
21.47
20.19
18.93
17.86
17.00
16.33
15.75
15.15
14.43
13.53
12.40
11.05
9.49
7.78
5.92
3.92
1.76
-0.60
-3.11
-5.71
-8.26
-10.68
-12.91
-15.04
-17.20
-19.57
-22.32
-25.54
-29.18
-32.95
-36.35
-38.65
-39.16
-37.37
-33.20
-27.08
-19.83
-12.38
-5.57
0.11
4.50
7.74
10.10
11.92
13.45
14.84
16.09
17.08
17.68
17.82
17.58
17.17
16.83
16.69
16.71
16.71
16.49
15.92
15.03
13.94
12.77
11.59
10.33
8.91
7.24
5.23
2.88
0.26
-2.54
-5.40
-8.21
-10.85
-13.23
-15.33
-17.21
-19.07
-21.19
-23.81
-27.04
-30.60
-33.87
-35.92
-35.90
-33.33
-28.27
-21.41
-13.74
-6.28
0.17
5.24
8.87
11.28
12.79
13.70
14.26
14.62
14.81
14.83
14.65
14.23
13.64
12.92
12.20
11.59
11.16
10.98
11.04
11.26
11.45
11.39
10.84
9.61
7.70
5.22
2.46
-0.24
-2.56
-4.38
-5.79
-7.07
-8.65
-10.92
-14.12
-18.23
-22.85
-27.30
-30.66
-32.10
-31.11
-27.67
-22.34
-16.00
-9.61
-3.91
0.71
4.22
6.74
8.44
9.39
9.65
9.28
8.43
7.32
6.09
4.90
3.79
2.82
2.02
1.45
1.18
1.19
1.39
1.64
1.70
1.37
0.47
-1.03
-3.05
-5.39
-7.78
-10.00
-11.95
-13.68
-15.39
-17.38
-19.94
-23.25
-27.20
-31.34
-34.92
-37.06
-36.96
-34.20
-28.88
-21.59
-13.28
-4.96
2.50
8.56
13.04
16.03
17.83
18.78
19.20
19.27
19.08
18.60
17.80
16.70
15.36
13.93
12.54
11.35
10.48
10.00
9.86
9.88
9.78
9.25
8.03
6.07
3.52
0.66
-2.17
-4.72
-6.89
-8.80
-10.76
-13.21
-16.55
-20.93
-26.08
-31.22
-35.22
-36.92
-35.58
-31.14
-24.20
-15.90
-7.45
0.14
6.27
10.81
13.90
15.91
17.24
18.20
18.97
19.52
19.77
19.59
18.96
17.97
16.77
15.56
14.45
13.52
12.78
12.20
11.69
11.10
10.22
8.85
6.83
4.20
1.06
-2.34
-5.83
-9.34
-12.96
-16.88
-21.29
-26.15
-31.08
-35.33
-37.97
-38.11
-35.30
-29.70
-22.07
-13.57
-5.37
1.62
6.99
10.79
13.33
15.01
16.14
16.91
17.38
17.59
17.53
17.20
16.61
15.81
14.91
14.08
13.46
13.12
12.95
12.72
12.19
11.18
9.67
7.75
5.56
3.21
0.68
-2.08
-5.15
-8.64
-12.59
-17.00
-21.67
-26.15
-29.71
-31.49
-30.75
-27.14
-20.88
-12.74
-3.80
4.83
12.32
18.21
22.45
25.25
26.92
27.79
28.08
27.94
27.51
26.89
26.22
25.54
24.82
23.96
22.92
21.72
20.56
19.65
19.10
18.81
18.48
17.68
16.11
13.70
10.64
7.31
4.12
1.34
-1.01
-3.14
-5.46
-8.38
-12.13
-16.59
-21.24
-25.21
-27.50
-27.30
-24.22
-18.48
-10.83
-2.39
5.72
12.63
17.93
21.63
24.05
25.57
26.51
27.04
27.19
27.00
26.48
25.73
24.85
23.96
23.15
22.48
22.00
21.74
21.70
21.85
22.10
22.31
22.35
22.03
21.22
19.88
18.06
15.94
13.75
11.65
9.69
7.77
5.71
3.34
0.66
-2.21
-5.03
-7.60
-9.82
-11.78
-13.66
-15.70
-18.15
-21.20
-24.91
-29.09
-33.24
-36.52
-37.97
-36.79
-32.71
-26.08
-17.84
-9.16
-1.13
5.57
10.70
14.32
16.68
18.04
18.63
18.69
18.43
18.03
17.63
17.34
17.17
17.14
17.20
17.29
17.35
17.34
17.26
17.08
16.81
16.36
15.67
14.71
13.51
12.12
10.63
8.99
7.16
5.02
2.60
0.02
-2.48
-4.66
-6.37
-7.66
-8.74
-9.89
-11.38
-13.39
-15.97
-19.01
-22.22
-25.16
-27.25
-27.86
-26.54
-23.11
-17.79
-11.24
-4.32
2.09
7.35
11.14
13.43
14.43
14.42
13.70
12.52
11.11
9.72
8.51
7.60
7.03
6.71
6.52
6.33
6.08
5.76
5.42
5.06
4.63
4.04
3.17
1.97
0.49
-1.17
-2.82
-4.34
-5.65
-6.77
-7.80
-8.91
-10.32
-12.25
-14.80
-17.87
-21.06
-23.72
-25.09
-24.59
-22.00
-17.58
-11.96
-6.00
-0.46
4.16
7.66
10.06
11.49
12.06
11.85
10.96
9.56
7.94
6.40
5.20
4.42
3.99
3.75
3.55
3.35
3.21
3.22
3.37
3.54
3.47
2.92
1.77
0.09
-1.91
-3.94
-5.80
-7.39
-8.78
-10.15
-11.73
-13.72
-16.23
-19.15
-22.17
-24.71
-26.14
-25.92
-23.78
-19.86
-14.69
-8.98
-3.45
1.37
5.14
7.73
9.19
9.62
9.22
8.24
6.94
5.60
4.41
3.51
2.95
2.66
2.57
2.54
2.49
2.39
2.31
2.25
2.17
1.92
1.25
0.03
-1.76
-3.88
-6.02
-7.91
-9.43
-10.66
-11.76
-12.92
-14.25
-15.80
-17.61
-19.69
-21.97
-24.18
-25.81
-26.23
-24.85
-21.44
-16.27
-10.07
-3.81
1.61
5.68
8.33
9.87
10.66
10.99
10.90
10.36
9.32
7.87
6.23
4.66
3.35
2.36
1.65
1.07
0.50
-0.11
-0.76
-1.43
-2.13
-2.91
-3.88
-5.12
-6.63
-8.30
-9.91
-11.20
-11.98
-12.24
-12.16
-12.09
-12.35
-13.19
-14.62
-16.43
-18.22
-19.44
-19.54
-18.03
-14.74
-9.78
-3.70
2.72
8.64
13.45
16.82
18.81
19.67
19.72
19.17
18.14
16.72
14.97
13.02
11.05
9.25
7.75
6.65
5.94
5.53
5.21
4.79
4.10
3.07
1.72
0.12
-1.67
-3.58
-5.61
-7.73
-9.89
-12.04
-14.15
-16.28
-18.54
-21.06
-23.83
-26.62
-28.96
-30.20
-29.74
-27.24
-22.80
-17.00
-10.74
-4.94
-0.28
2.96
4.90
5.89
6.30
6.35
6.09
5.51
4.61
3.49
2.35
1.41
0.82
0.65
0.84
1.25
1.67
1.93
1.89
1.49
0.75
-0.29
-1.57
-3.06
-4.75
-6.61
-8.57
-10.56
-12.56
-14.64
-16.93
-19.50
-22.20
-24.64
-26.17
-26.14
-24.14
-20.16
-14.70
-8.53
-2.56
2.54
6.40
9.01
10.58
11.37
11.56
11.20
10.31
8.97
7.39
5.90
4.81
4.33
4.42
4.85
5.27
5.36
4.90
3.90
2.47
0.82
-0.87
-2.51
-4.05
-5.58
-7.16
-8.90
-10.94
-13.39
-16.29
-19.51
-22.73
-25.37
-26.74
-26.26
-23.60
-18.90
-12.73
-5.93
0.63
6.25
10.56
13.50
15.23
15.92
15.75
14.84
13.30
11.33
9.22
7.28
5.79
4.87
4.51
4.52
4.65
4.63
4.26
3.44
2.18
0.60
-1.17
-3.00
-4.80
-6.58
-8.41
-10.48
-12.98
-16.11
-19.87
-24.06
-28.08
-31.10
-32.27
-30.96
-27.09
-21.14
-13.99
-6.64
0.11
5.82
10.40
13.93
16.49
18.15
18.92
18.86
18.15
17.05
15.87
14.87
14.18
13.87
13.88
14.09
14.34
14.42
14.14
13.36
12.02
10.18
7.97
5.54
3.03
0.43
-2.35
-5.46
-9.07
-13.20
-17.72
-22.22
-26.07
-28.50
-28.78
-26.47
-21.58
-14.68
-6.69
1.29
8.37
14.03
18.17
20.97
22.72
23.62
23.82
23.44
22.69
21.84
21.11
20.65
20.45
20.43
20.50
20.60
20.72
20.82
20.75
20.33
19.32
17.63
15.28
12.49
9.49
6.49
3.58
0.72
-2.23
-5.47
-9.19
-13.47
-18.10
-22.55
-25.94
-27.34
-26.04
-21.90
-15.42
-7.63
0.34
7.55
13.52
18.16
21.67
24.24
26.02
27.06
27.39
27.13
26.43
25.53
24.68
24.06
23.76
23.72
23.81
23.88
23.80
23.52
23.06
22.43
21.58
20.47
19.01
17.19
15.11
12.98
10.97
9.16
7.45
5.67
3.64
1.30
-1.25
-3.81
-6.17
-8.26
-10.12
-11.99
-14.11
-16.73
-19.99
-23.86
-28.05
-31.97
-34.78
-35.63
-33.94
-29.60
-23.12
-15.44
-7.64
-0.59
5.24
9.75
13.14
15.62
17.37
18.51
19.17
19.48
19.64
19.82
20.10
20.53
21.08
21.73
22.42
23.08
23.60
23.90
23.90
23.57
22.91
21.96
20.73
19.25
17.54
15.65
13.64
11.57
9.47
7.32
5.07
2.68
0.17
-2.34
-4.69
-6.71
-8.34
-9.69
-10.99
-12.55
-14.61
-17.30
-20.56
-24.13
-27.58
-30.34
-31.83
-31.49
-29.08
-24.68
-18.78
-12.09
-5.40
0.63
5.62
9.41
12.03
13.59
14.25
14.18
13.60
12.80
12.06
11.61
11.54
11.84
12.34
12.86
13.21
13.33
13.26
13.11
12.96
12.78
12.45
11.82
10.80
9.40
7.76
6.10
4.55
3.16
1.84
0.48
-1.00
-2.63
-4.37
-6.12
-7.84
-9.49
-11.08
-12.62
-14.22
-15.99
-18.12
-20.76
-23.91
-27.30
-30.33
-32.19
-32.12
-29.74
-25.19
-19.15
-12.60
-6.47
-1.38
2.48
5.22
7.13
8.40
9.13
9.34
9.06
8.41
7.64
7.04
6.81
7.01
7.61
8.52
9.65
10.94
12.37
13.87
15.34
16.62
17.58
18.13
18.26
18.01
17.40
16.47
15.23
13.74
12.11
10.43
8.75
6.98
4.97
2.58
-0.20
-3.20
-6.15
-8.74
-10.83
-12.49
-13.94
-15.50
-17.42
-19.87
-22.87
-26.30
-29.85
-33.06
-35.27
-35.83
-34.32
-30.69
-25.37
-19.10
-12.75
-6.97
-2.11
1.74
4.69
6.82
8.20
8.90
9.07
8.95
8.86
9.01
9.49
10.21
10.99
11.65
12.14
12.50
12.80
13.07
13.26
13.27
13.07
12.69
12.22
11.77
11.34
10.81
10.00
8.77
7.15
5.30
3.40
1.61
0.00
-1.44
-2.77
-4.04
-5.31
-6.64
-8.14
-9.85
-11.76
-13.76
-15.72
-17.55
-19.32
-21.22
-23.51
-26.34
-29.62
-32.96
-35.67
-37.04
-36.44
-33.66
-28.90
-22.78
-16.12
-9.67
-3.96
0.79
4.63
7.75
10.31
12.41
14.00
15.08
15.64
15.80
15.76
15.69
15.75
15.96
16.26
16.56
16.80
16.97
17.06
17.05
16.87
16.45
15.77
14.87
13.86
12.82
11.79
10.69
9.44
7.91
6.10
4.07
1.98
-0.05
-1.96
-3.77
-5.58
-7.45
-9.43
-11.42
-13.32
-14.98
-16.37
-17.53
-18.63
-19.92
-21.56
-23.70
-26.31
-29.34
-32.55
-35.59
-37.96
-39.02
-38.22
-35.28
-30.32
-23.91
-16.89
-10.10
-4.13
0.77
4.65
7.66
9.99
11.75
12.99
13.75
14.12
14.19
14.10
13.96
13.88
13.95
14.20
14.66
15.30
16.07
16.89
17.64
18.18
18.37
18.09
17.33
16.15
14.73
13.22
11.75
10.34
8.95
7.49
5.96
4.39
2.84
1.38
-0.02
-1.45
-2.97
-4.62
-6.35
-8.10
-9.82
-11.51
-13.21
-15.00
-16.94
-19.16
-21.82
-25.05
-28.86
-32.99
-36.88
-39.72
-40.69
-39.27
-35.35
-29.42
-22.33
-15.05
-8.40
-2.89
1.35
4.48
6.77
8.53
9.97
11.18
12.21
13.01
13.58
13.95
14.15
14.24
14.32
14.43
14.63
14.96
15.43
16.03
16.71
17.36
17.83
18.00
17.75
17.06
16.00
14.71
13.37
12.13
11.00
9.90
8.67
7.23
5.53
3.71
1.91
0.21
-1.48
-3.33
-5.49
-7.98
-10.61
-13.13
-15.32
-17.20
-18.99
-21.03
-23.62
-26.95
-30.93
-35.29
-39.55
-43.05
-45.03
-44.83
-42.06
-36.82
-29.71
-21.69
-13.75
-6.65
-0.77
3.87
7.50
10.37
12.66
14.51
15.98
17.11
17.96
18.58
19.06
19.53
20.15
20.97
21.99
23.05
24.00
24.70
25.14
25.38
25.51
25.53
25.33
24.74
23.64
21.99
19.88
17.47
14.94
12.44
10.04
7.77
5.60
3.45
1.30
-0.91
-3.15
-5.40
-7.65
-9.86
-12.06
-14.28
-16.56
-18.96
-21.60
-24.71
-28.49
-32.97
-37.84
-42.35
-45.43
-46.06
-43.64
-38.22
-30.61
-22.04
-13.76
-6.69
-1.18
2.91
6.00
8.52
10.66
12.43
13.71
14.45
14.76
14.92
15.25
15.94
16.99
18.16
19.17
19.79
20.01
19.99
19.97
20.11
20.38
20.53
20.23
19.19
17.32
14.82
12.04
9.34
6.91
4.72
2.52
0.05
-2.81
-6.00
-9.28
-12.36
-15.09
-17.51
-19.80
-22.24
-25.14
-28.72
-33.05
-37.97
-42.95
-47.20
-49.73
-49.71
-46.70
-40.85
-32.88
-23.90
-15.00
-7.05
-0.46
4.76
8.84
12.11
14.80
17.01
18.76
20.02
20.82
21.29
21.56
21.77
21.97
22.16
22.30
22.38
22.41
22.42
22.42
22.34
22.05
21.39
20.19
18.37
15.94
13.08
10.09
7.26
4.83
2.78
0.91
-1.15
-3.69
-6.78
-10.25
-13.77
-17.01
-19.84
-22.35
-24.84
-27.73
-31.45
-36.25
-42.12
-48.58
-54.75
-59.42
-61.38
-59.84
-54.68
-46.54
-36.55
-26.00
-15.99
-7.14
0.33
6.52
11.68
16.05
19.81
23.10
25.93
28.34
30.29
31.78
32.77
33.29
33.40
33.19
32.75
32.22
31.71
31.27
30.92
30.59
30.12
29.33
28.04
26.15
23.71
20.90
17.97
15.22
12.77
10.59
8.43
5.96
2.89
-0.86
-5.09
-9.45
-13.48
-16.91
-19.68
-22.04
-24.41
-27.33
-31.20
-36.12
-41.78
-47.37
-51.70
-53.52
-51.89
-46.55
-38.02
-27.47
-16.32
-5.79
3.36
10.93
17.09
22.18
26.51
30.28
33.55
36.30
38.43
39.92
40.76
41.05
40.93
40.58
40.12
39.64
39.21
38.89
38.73
38.77
38.90
38.96
38.68
37.82
36.20
33.81
30.77
27.31
23.74
20.32
17.17
14.22
11.25
8.02
4.35
0.29
-3.97
-8.13
-11.93
-15.30
-18.39
-21.52
-25.15
-29.70
-35.40
-42.18
-49.50
-56.39
-61.53
-63.65
-61.89
-56.05
-46.74
-35.19
-22.93
-11.32
-1.27
6.86
13.18
18.07
21.96
25.17
27.86
30.07
31.80
33.02
33.76
34.09
34.12
33.94
33.63
33.25
32.88
32.54
32.26
31.93
31.37
30.30
28.51
25.94
22.71
19.13
15.50
12.04
8.73
5.45
2.05
-1.53
-5.18
-8.74
-12.08
-15.18
-18.13
-21.18
-24.62
-28.74
-33.69
-39.28
-44.86
-49.39
-51.64
-50.59
-45.85
-37.82
-27.59
-16.56
-6.06
3.03
10.36
16.00
20.31
23.68
26.49
28.93
31.08
32.87
34.14
34.83
35.00
34.82
34.48
34.14
33.82
33.49
33.10
32.66
32.23
31.78
31.22
30.33
28.88
26.75
23.98
20.75
17.33
13.99
10.93
8.24
5.86
3.62
1.27
-1.42
-4.54
-8.03
-11.65
-15.16
-18.40
-21.42
-24.40
-27.58
-31.17
-35.27
-39.91
-44.99
-50.23
-55.05
-58.57
-59.79
-57.88
-52.59
-44.37
-34.32
-23.83
-14.08
-5.74
1.13
6.88
11.98
16.75
21.31
25.54
29.24
32.23
34.42
35.82
36.54
36.71
36.52
36.13
35.70
35.32
35.07
34.97
35.01
35.11
35.14
34.89
34.17
32.85
30.92
28.56
26.03
23.60
21.43
19.50
17.64
15.67
13.47
11.06
8.59
6.20
4.03
2.15
0.46
-1.15
-2.91
-4.99
-7.49
-10.41
-13.61
-16.89
-20.06
-23.02
-25.82
-28.58
-31.58
-35.07
-39.28
-44.23
-49.57
-54.54
-58.07
-59.04
-56.73
-51.12
-42.95
-33.46
-24.00
-15.55
-8.55
-2.94
1.65
5.64
9.31
12.75
15.94
18.79
21.23
23.19
24.65
25.60
26.03
25.98
25.53
24.83
24.02
23.25
22.61
22.19
22.06
22.25
22.77
23.44
24.04
24.28
23.99
23.17
21.99
20.73
19.54
18.47
17.38
16.11
14.54
12.69
10.67
8.63
6.70
4.89
3.17
1.45
-0.38
-2.39
-4.60
-6.94
-9.28
-11.47
-13.42
-15.18
-16.90
-18.79
-21.09
-23.97
-27.49
-31.53
-35.78
-39.72
-42.64
-43.80
-42.64
-39.01
-33.21
-26.02
-18.43
-11.36
-5.40
-0.74
2.80
5.58
7.93
10.04
11.96
13.67
15.12
16.30
17.22
17.84
18.11
18.03
17.66
17.20
16.91
17.04
17.65
18.64
19.68
20.39
20.47
19.74
18.28
16.36
14.30
12.43
10.87
9.61
8.46
7.23
5.74
3.99
2.09
0.19
-1.60
-3.25
-4.82
-6.42
-8.18
-10.13
-12.25
-14.46
-16.70
-18.93
-21.13
-23.32
-25.53
-27.85
-30.37
-33.25
-36.52
-40.00
-43.17
-45.28
-45.50
-43.32
-38.74
-32.35
-25.14
-18.12
-12.00
-7.07
-3.19
-0.03
2.77
5.42
8.06
10.69
13.27
15.66
17.67
19.08
19.76
19.71
19.09
18.19
17.33
16.74
16.54
16.63
16.88
17.08
17.10
16.89
16.47
15.93
15.30
14.56
13.69
12.68
11.60
10.58
9.72
9.03
8.33
7.39
6.02
4.18
2.04
-0.07
-1.89
-3.33
-4.53
-5.78
-7.35
-9.33
-11.64
-14.05
-16.31
-18.31
-20.07
-21.70
-23.33
-25.07
-27.02
-29.25
-31.84
-34.78
-37.81
-40.47
-42.06
-41.92
-39.67
-35.36
-29.52
-22.99
-16.62
-11.05
-6.57
-3.12
-0.43
1.85
4.04
6.34
8.82
11.34
13.64
15.44
16.52
16.86
16.63
16.11
15.60
15.30
15.29
15.54
15.96
16.49
17.01
17.41
17.52
17.23
16.48
15.34
14.02
12.74
11.66
10.81
10.08
9.30
8.31
7.07
5.70
4.36
3.21
2.27
1.49
0.71
-0.26
-1.53
-3.20
-5.35
-8.00
-11.04
-14.25
-17.27
-19.74
-21.45
-22.47
-23.15
-24.03
-25.57
-28.02
-31.30
-35.01
-38.48
-40.91
-41.61
-40.14
-36.50
-31.15
-24.86
-18.51
-12.79
-8.08
-4.43
-1.65
0.54
2.39
4.10
5.83
7.64
9.55
11.44
13.12
14.42
15.24
15.61
15.66
15.54
15.42
15.39
15.52
15.85
16.33
16.90
17.35
17.46
17.07
16.13
14.78
13.25
11.79
10.54
9.41
8.22
6.75
4.93
2.82
0.67
-1.26
-2.81
-3.99
-4.99
-6.08
-7.46
-9.23
-11.36
-13.69
-16.00
-18.10
-19.90
-21.41
-22.81
-24.41
-26.51
-29.32
-32.80
-36.62
-40.11
-42.46
-42.94
-41.06
-36.86
-30.83
-23.88
-16.96
-10.86
-5.97
-2.25
0.65
3.18
5.69
8.31
10.93
13.35
15.33
16.74
17.62
18.07
18.27
18.37
18.46
18.62
18.92
19.42
20.13
21.00
21.85
22.45
22.59
22.15
21.17
19.81
18.32
16.91
15.70
14.64
13.59
12.36
10.80
8.89
6.74
4.55
2.57
0.93
-0.34
-1.37
-2.34
-3.46
-4.87
-6.61
-8.68
-10.93
-13.26
-15.50
-17.55
-19.39
-21.16
-23.10
-25.53
-28.73
-32.79
-37.40
-41.89
-45.31
-46.69
-45.37
-41.29
-34.98
-27.47
-19.87
-13.08
-7.57
-3.38
-0.24
2.23
4.38
6.45
8.53
10.71
12.96
15.23
17.38
19.21
20.48
21.04
20.90
20.28
19.56
19.14
19.25
19.82
20.56
21.05
21.00
20.34
19.25
18.05
17.00
16.24
15.69
15.17
14.49
13.53
12.26
10.73
9.08
7.45
6.01
4.80
3.77
2.75
1.47
-0.25
-2.45
-4.99
-7.60
-10.02
-12.08
-13.79
-15.26
-16.74
-18.51
-20.87
-24.03
-28.04
-32.66
-37.22
-40.80
-42.39
-41.28
-37.32
-31.04
-23.43
-15.67
-8.72
-3.08
1.22
4.45
6.99
9.19
11.20
13.07
14.75
16.17
17.30
18.13
18.66
18.92
18.95
18.78
18.49
18.21
18.05
18.11
18.43
18.94
19.48
19.80
19.66
18.92
17.57
15.79
13.90
12.18
10.84
9.83
8.96
7.96
6.61
4.93
3.10
1.40
-0.00
-1.14
-2.26
-3.68
-5.61
-8.06
-10.83
-13.62
-16.13
-18.29
-20.19
-22.05
-24.18
-26.81
-30.07
-33.91
-38.10
-42.21
-45.58
-47.50
-47.31
-44.66
-39.60
-32.69
-24.84
-17.07
-10.23
-4.76
-0.62
2.60
5.44
8.31
11.34
14.37
17.11
19.35
21.03
22.25
23.20
23.99
24.65
25.13
25.42
25.52
25.51
25.46
25.42
25.33
25.09
24.59
23.79
22.68
21.33
19.88
18.43
17.11
15.90
14.71
13.40
11.81
9.89
7.73
5.55
3.57
1.95
0.63
-0.62
-2.12
-4.11
-6.65
-9.57
-12.53
-15.23
-17.51
-19.41
-21.13
-22.94
-25.13
-27.91
-31.41
-35.59
-40.14
-44.38
-47.37
-48.15
-46.11
-41.21
-34.16
-26.16
-18.44
-11.90
-6.85
-3.05
0.01
2.88
5.82
8.90
11.96
14.80
17.27
19.28
20.79
21.83
22.41
22.64
22.60
22.43
22.29
22.35
22.69
23.31
24.08
24.74
24.97
24.57
23.52
21.99
20.28
18.64
17.19
15.85
14.50
12.96
11.20
9.30
7.41
5.63
3.97
2.36
0.67
-1.22
-3.34
-5.65
-8.04
-10.40
-12.64
-14.78
-16.92
-19.22
-21.86
-25.01
-28.76
-33.10
-37.74
-42.11
-45.39
-46.65
-45.25
-41.03
-34.45
-26.47
-18.18
-10.52
-4.00
1.20
5.27
8.45
10.99
13.12
14.98
16.70
18.28
19.66
20.73
21.41
21.70
21.73
21.74
21.92
22.42
23.19
24.05
24.75
25.03
24.76
24.01
22.93
21.77
20.66
19.66
18.64
17.43
15.87
13.95
11.74
9.44
7.22
5.19
3.33
1.52
-0.38
-2.48
-4.83
-7.38
-10.07
-12.82
-15.62
-18.46
-21.36
-24.36
-27.55
-31.10
-35.18
-39.82
-44.75
-49.28
-52.42
-53.16
-50.89
-45.63
-38.08
-29.37
-20.69
-12.91
-6.41
-1.18
3.04
6.57
9.63
12.39
14.91
17.25
19.44
21.42
23.14
24.52
25.53
26.25
26.87
27.59
28.55
29.76
31.04
32.14
32.81
32.87
32.31
31.21
29.72
27.98
26.08
24.11
22.11
20.12
18.14
16.10
13.92
11.54
8.98
6.43
4.08
2.15
0.66
-0.57
-1.85
-3.49
-5.65
-8.30
-11.20
-14.04
-16.64
-18.96
-21.21
-23.76
-26.97
-31.11
-36.20
-41.94
-47.67
-52.48
-55.34
-55.40
-52.28
-46.20
-37.97
-28.76
-19.68
-11.55
-4.68
1.01
5.81
10.03
13.79
17.11
19.95
22.35
24.36
26.08
27.51
28.57
29.23
29.48
29.52
29.60
29.96
30.64
31.48
32.17
32.37
31.94
30.87
29.33
27.53
25.65
23.74
21.82
19.84
17.80
15.72
13.67
11.69
9.81
7.99
6.09
3.95
1.45
-1.45
-4.71
-8.21
-11.80
-15.37
-18.80
-22.04
-25.07
-28.02
-31.16
-34.87
-39.37
-44.54
-49.73
-53.88
-55.81
-54.70
-50.35
-43.29
-34.56
-25.31
-16.54
-8.83
-2.41
2.81
7.07
10.65
13.79
16.63
19.16
21.28
22.88
23.94
24.51
24.76
24.87
24.97
25.13
25.37
25.70
26.11
26.49
26.66
26.36
25.33
23.49
20.93
17.96
14.95
12.15
9.62
7.14
4.44
1.26
-2.42
-6.37
-10.26
-13.75
-16.73
-19.35
-21.96
-24.99
-28.78
-33.45
-38.74
-44.02
-48.40
-50.84
-50.52
-47.02
-40.57
-31.92
-22.19
-12.54
-3.83
3.45
9.30
13.96
17.79
21.14
24.17
26.93
29.25
30.96
31.98
32.35
32.36
32.32
32.45
32.83
33.29
33.63
33.69
33.43
32.96
32.36
31.65
30.69
29.33
27.49
25.16
22.53
19.76
17.02
14.36
11.78
9.25
6.66
3.95
1.00
-2.27
-5.87
-9.66
-13.42
-16.92
-20.06
-22.94
-25.86
-29.15
-33.12
-37.87
-43.35
-49.30
-55.23
-60.39
-63.82
-64.57
-61.97
-55.95
-47.16
-36.78
-26.14
-16.28
-7.74
-0.57
5.53
10.90
15.80
20.30
24.41
28.08
31.23
33.82
35.79
37.12
37.88
38.21
38.30
38.34
38.47
38.76
39.16
39.57
39.82
39.67
38.91
37.43
35.27
32.65
29.88
27.29
25.07
23.26
21.70
20.16
18.43
16.43
14.17
11.78
9.39
7.09
4.89
2.72
0.46
-2.01
-4.78
-7.82
-11.05
-14.32
-17.50
-20.53
-23.43
-26.30
-29.33
-32.77
-36.83
-41.59
-46.91
-52.24
-56.67
-59.13
-58.64
-54.72
-47.62
-38.26
-27.99
-18.09
-9.49
-2.55
2.85
7.14
10.78
14.10
17.21
20.08
22.59
24.63
26.17
27.21
27.87
28.23
28.39
28.37
28.21
27.95
27.66
27.45
27.38
27.45
27.47
27.21
26.39
24.85
22.64
19.98
17.21
14.65
12.52
10.83
9.39
7.93
6.13
3.83
1.00
-2.18
-5.40
-8.35
-10.85
-12.94
-14.86
-17.03
-19.83
-23.54
-28.17
-33.48
-38.86
-43.46
-46.30
-46.52
-43.67
-37.90
-29.97
-21.02
-12.18
-4.34
2.11
7.21
11.24
14.53
17.32
19.73
21.80
23.56
25.05
26.27
27.21
27.81
28.04
27.89
27.48
27.01
26.70
26.73
27.10
27.66
28.11
28.12
27.44
26.00
23.94
21.58
19.28
17.34
15.86
14.73
13.65
12.31
10.49
8.18
5.58
2.98
0.60
-1.50
-3.43
-5.41
-7.61
-10.09
-12.79
-15.57
-18.26
-20.79
-23.13
-25.39
-27.79
-30.61
-34.08
-38.28
-43.02
-47.81
-51.88
-54.34
-54.40
-51.61
-46.00
-38.16
-29.09
-19.97
-11.77
-5.05
0.16
4.19
7.54
10.61
13.57
16.39
18.93
21.08
22.82
24.18
25.22
25.97
26.44
26.65
26.65
26.57
26.54
26.63
26.82
26.99
26.97
26.61
25.83
24.68
23.29
21.81
20.38
19.09
17.94
16.88
15.83
14.67
13.30
11.66
9.74
7.56
5.28
3.03
0.98
-0.80
-2.31
-3.65
-5.01
-6.57
-8.44
-10.69
-13.27
-16.04
-18.83
-21.52
-24.01
-26.33
-28.61
-31.11
-34.04
-37.54
-41.51
-45.49
-48.71
-50.23
-49.25
-45.37
-38.85
-30.58
-21.78
-13.62
-6.90
-1.84
1.79
4.50
6.82
9.12
11.52
14.00
16.37
18.45
20.08
21.19
21.78
21.90
21.68
21.24
20.78
20.49
20.51
20.90
21.54
22.18
22.54
22.34
21.49
20.07
18.32
16.56
15.03
13.82
12.83
11.87
10.70
9.19
7.36
5.35
3.34
1.51
-0.11
-1.56
-2.99
-4.59
-6.48
-8.70
-11.19
-13.79
-16.31
-18.62
-20.70
-22.68
-24.81
-27.39
-30.64
-34.53
-38.73
-42.57
-45.17
-45.64
-43.43
-38.50
-31.42
-23.19
-14.88
-7.38
-1.16
3.73
7.52
10.52
12.97
14.98
16.59
17.75
18.44
18.63
18.40
17.87
17.21
16.63
16.29
16.26
16.47
16.75
16.88
16.63
15.86
14.59
13.03
11.51
10.40
9.98
10.33
11.30
12.62
13.91
14.90
15.40
15.32
14.73
13.70
12.40
10.98
9.55
8.19
6.90
5.60
4.22
2.66
0.90
-1.01
-2.98
-4.84
-6.46
-7.83
-8.98
-10.08
-11.32
-12.81
-14.60
-16.63
-18.80
-20.97
-23.07
-25.04
-26.93
-28.89
-31.14
-33.91
-37.28
-41.13
-45.01
-48.19
-49.83
-49.24
-46.10
-40.61
-33.42
-25.45
-17.66
-10.76
-5.12
-0.72
2.70
5.51
8.05
10.51
12.90
15.09
16.89
18.15
18.81
18.98
18.84
18.61
18.46
18.45
18.57
18.76
18.98
19.21
19.43
19.59
19.60
19.38
18.87
18.08
17.09
16.03
14.96
13.90
12.77
11.46
9.92
8.17
6.31
4.49
2.80
1.24
-0.31
-2.00
-3.94
-6.16
-8.62
-11.24
-13.94
-16.68
-19.37
-21.93
-24.29
-26.42
-28.50
-30.86
-33.90
-37.83
-42.47
-47.13
-50.73
-52.18
-50.74
-46.34
-39.59
-31.58
-23.42
-16.00
-9.72
-4.58
-0.38
3.12
6.09
8.64
10.88
12.95
14.94
16.91
18.74
20.27
21.33
21.93
22.19
22.36
22.65
23.12
23.68
24.16
24.39
24.25
23.73
22.88
21.77
20.48
19.09
17.67
16.30
14.99
13.73
12.42
10.95
9.24
7.33
5.31
3.33
1.51
-0.11
-1.59
-3.06
-4.69
-6.56
-8.69
-10.99
-13.30
-15.50
-17.49
-19.34
-21.20
-23.37
-26.12
-29.61
-33.75
-38.08
-41.82
-44.01
-43.81
-40.78
-35.04
-27.32
-18.74
-10.47
-3.41
2.04
5.94
8.71
10.81
12.59
14.22
15.70
16.95
17.92
18.61
19.11
19.44
19.67
19.82
19.89
19.93
20.02
20.22
20.56
20.96
21.26
21.28
20.87
20.00
18.72
17.20
15.56
13.93
12.33
10.73
9.09
7.37
5.57
3.68
1.67
-0.48
-2.84
-5.39
-8.07
-10.72
-13.22
-15.51
-17.64
-19.85
-22.44
-25.69
-29.78
-34.67
-40.02
-45.22
-49.44
-51.79
-51.54
-48.37
-42.49
-34.65
-25.89
-17.31
-9.72
-3.55
1.21
4.84
7.71
10.12
12.26
14.18
15.87
17.34
18.59
19.68
20.61
21.38
21.98
22.41
22.78
23.23
23.91
24.82
25.83
26.64
26.91
26.40
25.10
23.29
21.33
19.56
18.12
16.90
15.64
14.08
12.15
9.93
7.66
5.56
3.74
2.15
0.64
-1.04
-3.03
-5.42
-8.18
-11.20
-14.34
-17.45
-20.48
-23.46
-26.54
-29.99
-34.04
-38.76
-43.90
-48.82
-52.56
-54.11
-52.73
-48.24
-41.17
-32.51
-23.48
-15.10
-7.96
-2.16
2.52
6.41
9.75
12.71
15.32
17.58
19.52
21.17
22.54
23.64
24.47
25.03
25.41
25.72
26.09
26.60
27.24
27.94
28.49
28.69
28.35
27.40
25.93
24.17
22.40
20.86
19.61
18.56
17.47
16.09
14.27
12.05
9.60
7.12
4.83
2.76
0.86
-0.97
-2.84
-4.83
-6.94
-9.19
-11.57
-14.07
-16.69
-19.42
-22.29
-25.40
-28.90
-32.92
-37.39
-41.95
-45.87
-48.29
-48.40
-45.77
-40.54
-33.35
-25.14
-16.87
-9.35
-2.99
2.07
5.95
8.95
11.36
13.43
15.30
16.95
18.31
19.25
19.77
19.94
19.94
19.94
20.10
20.47
21.03
21.72
22.44
23.08
23.52
23.64
23.32
22.48
21.11
19.28
17.18
15.00
12.94
11.07
9.38
7.71
5.91
3.83
1.42
-1.26
-4.11
-6.98
-9.72
-12.22
-14.44
-16.48
-18.54
-20.93
-23.97
-27.82
-32.37
-37.13
-41.26
-43.77
-43.82
-41.00
-35.50
-28.11
-19.91
-11.94
-4.96
0.77
5.32
8.98
12.03
14.66
16.96
18.93
20.62
22.04
23.24
24.24
25.07
25.78
26.40
26.96
27.52
28.12
28.75
29.36
29.82
29.96
29.66
28.85
27.58
25.98
24.24
22.55
21.04
19.75
18.63
17.53
16.26
14.65
12.65
10.35
7.96
5.69
3.70
1.96
0.30
-1.50
-3.62
-6.13
-8.95
-11.90
-14.79
-17.47
-19.94
-22.35
-24.93
-27.95
-31.65
-36.05
-40.94
-45.78
-49.78
-52.01
-51.67
-48.33
-42.13
-33.80
-24.48
-15.39
-7.46
-1.15
3.60
7.20
10.17
12.93
15.69
18.50
21.21
23.65
25.66
27.11
27.95
28.22
28.01
27.50
26.92
26.46
26.30
26.50
26.97
27.52
27.93
28.01
27.64
26.81
25.57
24.03
22.28
20.47
18.70
17.05
15.57
14.18
12.77
11.19
9.38
7.36
5.25
3.18
1.27
-0.46
-2.09
-3.77
-5.65
-7.86
-10.43
-13.29
-16.30
-19.28
-22.08
-24.63
-27.02
-29.44
-32.18
-35.49
-39.40
-43.65
-47.61
-50.38
-51.08
-49.11
-44.45
-37.61
-29.54
-21.26
-13.56
-6.88
-1.32
3.23
6.93
9.97
12.53
14.82
17.02
19.20
21.33
23.21
24.64
25.49
25.81
25.75
25.54
25.36
25.32
25.43
25.66
25.92
26.09
26.05
25.66
24.84
23.60
22.05
20.38
18.75
17.29
15.94
14.59
13.06
11.23
9.10
6.79
4.52
2.47
0.72
-0.80
-2.27
-3.90
-5.79
-7.93
-10.19
-12.40
-14.42
-16.24
-17.94
-19.73
-21.90
-24.67
-28.19
-32.33
-36.63
-40.29
-42.36
-42.04
-38.96
-33.40
-26.18
-18.35
-10.88
-4.39
0.90
5.10
8.42
11.08
13.23
14.97
16.35
17.43
18.20
18.66
18.83
18.76
18.60
18.48
18.53
18.76
19.13
19.56
19.91
20.11
20.06
19.73
19.12
18.22
17.06
15.66
14.03
12.22
10.28
8.24
6.20
4.21
2.31
0.53
-1.12
-2.65
-4.13
-5.67
-7.38
-9.33
-11.52
-13.80
-16.00
-17.98
-19.75
-21.49
-23.45
-25.91
-29.08
-33.02
-37.62
-42.54
-47.19
-50.76
-52.32
-51.17
-47.05
-40.31
-31.88
-22.95
-14.62
-7.59
-2.04
2.22
5.56
8.35
10.89
13.36
15.86
18.39
20.85
23.02
24.66
25.64
25.93
25.70
25.24
24.83
24.70
24.92
25.44
26.10
26.65
26.83
26.45
25.42
23.82
21.87
19.85
18.02
16.50
15.25
14.12
12.90
11.45
9.75
7.86
5.90
3.96
2.05
0.17
-1.75
-3.77
-5.96
-8.35
-10.94
-13.66
-16.40
-18.99
-21.31
-23.42
-25.50
-27.95
-31.16
-35.32
-40.20
-45.08
-48.85
-50.33
-48.75
-44.02
-36.84
-28.36
-19.84
-12.26
-6.06
-1.25
2.45
5.37
7.84
10.12
12.37
14.68
17.00
19.12
20.78
21.78
22.07
21.83
21.35
20.92
20.72
20.79
21.00
21.22
21.28
21.09
20.61
19.86
18.89
17.78
16.62
15.47
14.34
13.13
11.78
10.24
8.51
6.70
4.94
3.29
1.75
0.20
-1.49
-3.37
-5.40
-7.45
-9.40
-11.23
-13.07
-15.16
-17.78
-21.12
-25.21
-29.79
-34.33
-38.09
-40.27
-40.29
-37.89
-33.25
-26.92
-19.69
-12.36
-5.59
0.17
4.76
8.23
10.82
12.82
14.50
15.99
17.29
18.30
18.96
19.31
19.47
19.59
19.77
20.02
20.30
20.58
20.89
21.24
21.57
21.74
21.60
20.99
19.92
18.48
16.80
14.96
13.00
10.90
8.69
6.46
4.33
2.41
0.72
-0.84
-2.42
-4.19
-6.22
-8.51
-10.98
-13.54
-16.07
-18.51
-20.81
-22.98
-25.12
-27.41
-30.14
-33.53
-37.65
-42.20
-46.51
-49.60
-50.50
-48.59
-43.82
-36.82
-28.62
-20.37
-12.93
-6.70
-1.68
2.43
5.98
9.22
12.28
15.15
17.77
20.08
22.01
23.51
24.58
25.23
25.53
25.64
25.75
26.06
26.66
27.48
28.35
28.98
29.16
28.76
27.84
26.49
24.88
23.12
21.32
19.63
18.21
17.16
16.44
15.83
15.03
13.71
11.79
9.39
6.84
4.51
2.60
1.09
-0.26
-1.75
-3.69
-6.16
-9.10
-12.31
-15.50
-18.42
-20.97
-23.20
-25.33
-27.68
-30.57
-34.20
-38.51
-43.13
-47.38
-50.40
-51.37
-49.74
-45.44
-38.88
-30.91
-22.54
-14.69
-7.93
-2.41
2.05
5.78
9.07
12.12
14.97
17.57
19.85
21.71
23.06
23.89
24.24
24.28
24.23
24.29
24.56
25.01
25.52
25.94
26.18
26.19
25.94
25.41
24.57
23.41
22.00
20.49
19.03
17.69
16.46
15.19
13.68
11.83
9.64
7.26
4.95
2.94
1.33
0.06
-1.08
-2.37
-4.07
-6.24
-8.81
-11.53
-14.15
-16.50
-18.50
-20.29
-22.10
-24.25
-26.99
-30.44
-34.42
-38.40
-41.52
-42.83
-41.55
-37.40
-30.79
-22.66
-14.23
-6.56
-0.30
4.41
7.79
10.22
12.05
13.55
14.89
16.19
17.50
18.79
19.95
20.79
21.26
21.36
21.21
21.00
20.83
20.78
20.83
20.94
21.02
21.00
20.74
20.15
19.15
17.78
16.21
14.66
13.33
12.23
11.25
10.14
8.67
6.75
4.46
2.04
-0.26
-2.24
-3.89
-5.35
-6.88
-8.71
-10.91
-13.43
-16.06
-18.56
-20.81
-22.83
-24.78
-26.96
-29.64
-33.02
-37.10
-41.60
-45.92
-49.21
-50.54
-49.21
-45.02
-38.38
-30.26
-21.83
-14.10
-7.71
-2.78
0.94
3.87
6.44
8.97
11.58
14.23
16.76
18.96
20.61
21.60
21.97
21.90
21.63
21.44
21.51
21.91
22.62
23.53
24.43
25.10
25.32
24.95
23.96
22.46
20.68
18.90
17.35
16.13
15.19
14.37
13.42
12.16
10.52
8.62
6.66
4.87
3.34
2.03
0.75
-0.73
-2.57
-4.81
-7.35
-10.07
-12.85
-15.65
-18.45
-21.24
-24.02
-26.80
-29.70
-32.93
-36.70
-41.03
-45.58
-49.59
-52.06
-52.08
-49.17
-43.57
-36.11
-27.92
-20.07
-13.19
-7.46
-2.71
1.35
4.91
8.10
10.92
13.47
15.85
18.14
20.29
22.13
23.43
24.05
24.06
23.73
23.43
23.42
23.77
24.37
25.01
25.51
25.77
25.75
25.45
24.85
23.94
22.70
21.19
19.56
17.95
16.46
15.13
13.82
12.40
10.70
8.74
6.64
4.66
3.00
1.68
0.53
-0.72
-2.34
-4.42
-6.84
-9.36
-11.74
-13.85
-15.72
-17.46
-19.25
-21.28
-23.72
-26.71
-30.33
-34.41
-38.56
-42.09
-44.22
-44.25
-41.85
-37.11
-30.59
-23.11
-15.53
-8.55
-2.60
2.17
5.85
8.63
10.80
12.61
14.23
15.71
17.01
18.03
18.67
18.96
19.01
19.01
19.11
19.44
20.04
20.83
21.69
22.44
22.87
22.82
22.20
21.04
19.49
17.82
16.23
14.82
13.57
12.34
10.98
9.42
7.71
5.97
4.27
2.63
0.94
-0.92
-3.01
-5.37
-7.92
-10.57
-13.24
-15.83
-18.27
-20.53
-22.69
-25.00
-27.80
-31.36
-35.73
-40.52
-44.94
-47.98
-48.75
-46.76
-42.12
-35.44
-27.65
-19.73
-12.47
-6.31
-1.40
2.39
5.34
7.77
9.98
12.16
14.40
16.62
18.65
20.28
21.37
21.90
21.97
21.83
21.72
21.79
22.11
22.61
23.15
23.60
23.83
23.80
23.49
22.88
22.02
20.90
19.56
18.03
16.39
14.72
13.10
11.58
10.14
8.69
7.12
5.33
3.31
1.14
-1.05
-3.08
-4.86
-6.42
-7.88
-9.44
-11.30
-13.53
-16.07
-18.74
-21.29
-23.59
-25.67
-27.77
-30.26
-33.51
-37.57
-42.17
-46.58
-49.83
-50.96
-49.35
-44.94
-38.27
-30.30
-22.10
-14.60
-8.31
-3.33
0.56
3.74
6.56
9.27
12.01
14.82
17.65
20.37
22.76
24.51
25.41
25.39
24.62
23.48
22.40
21.73
21.62
21.98
22.59
23.14
23.34
23.03
22.14
20.79
19.19
17.58
16.15
14.94
13.86
12.77
11.55
10.14
8.58
6.92
5.17
3.29
1.22
-1.09
-3.64
-6.39
-9.27
-12.19
-15.04
-17.70
-20.10
-22.26
-24.34
-26.64
-29.50
-33.05
-37.07
-40.92
-43.63
-44.23
-42.10
-37.26
-30.34
-22.38
-14.47
-7.42
-1.63
2.88
6.29
8.87
10.82
12.39
13.76
15.08
16.38
17.61
18.68
19.49
20.05
20.43
20.70
20.95
21.17
21.36
21.46
21.44
21.24
20.78
19.95
18.69
17.01
15.00
12.77
10.42
7.98
5.42
2.73
-0.06
-2.83
-5.49
-7.99
-10.41
-12.95
-15.86
-19.32
-23.34
-27.68
-31.83
-35.12
-36.86
-36.53
-33.96
-29.33
-23.20
-16.32
-9.44
-3.17
2.13
6.33
9.50
11.77
13.26
14.13
14.53
14.55
14.29
13.83
13.25
12.64
12.08
11.68
11.52
11.68
12.09
12.64
13.11
13.21
12.70
11.42
9.33
6.51
3.18
-0.42
-3.97
-7.27
-10.24
-13.00
-15.86
-19.22
-23.39
-28.41
-33.94
-39.27
-43.50
-45.75
-45.47
-42.60
-37.59
-31.29
-24.63
-18.44
-13.17
-8.89
-5.39
-2.35
0.49
3.23
5.85
8.23
10.24
11.77
12.79
13.31
13.44
13.36
13.28
13.42
13.91
14.74
15.78
16.77
17.49
17.77
17.53
16.81
15.70
14.29
12.64
10.81
8.85
6.84
4.86
2.95
1.10
-0.79
-2.86
-5.29
-8.25
-11.83
-16.10
-20.98
-26.22
-31.31
-35.52
-37.98
-38.01
-35.29
-30.06
-23.04
-15.23
-7.56
-0.64
5.26
10.19
14.35
17.95
21.11
23.92
26.42
28.62
30.46
31.84
32.69
32.94
32.67
32.06
31.34
30.71
30.26
30.00
29.85
29.73
29.57
29.30
28.80
27.96
26.72
25.09
23.24
21.38
19.73
18.34
17.16
16.01
14.72
13.23
11.59
9.93
8.32
6.76
5.16
3.37
1.33
-0.97
-3.36
-5.70
-7.81
-9.69
-11.43
-13.18
-15.14
-17.44
-20.24
-23.63
-27.64
-32.10
-36.52
-40.10
-41.88
-41.11
-37.54
-31.61
-24.34
-16.94
-10.37
-5.06
-0.85
2.74
6.20
9.75
13.33
16.74
19.78
22.39
24.61
26.47
27.92
28.85
29.15
28.87
28.19
27.44
26.91
26.81
27.14
27.77
28.53
29.21
29.63
29.67
29.28
28.47
27.32
25.92
24.39
22.81
21.24
19.68
18.06
16.26
14.13
11.57
8.55
5.21
1.83
-1.28
-3.91
-6.08
-8.02
-10.14
-12.82
-16.27
-20.42
-24.88
-29.01
-32.13
-33.64
-33.28
-31.09
-27.50
-23.09
-18.47
-14.13
-10.34
-7.18
-4.54
-2.25
-0.16
1.83
3.68
5.27
6.46
7.14
7.32
7.13
6.74
6.33
6.00
5.77
5.58
5.38
5.12
4.80
4.45
4.04
3.58
3.06
2.50
1.95
1.47
1.09
0.78
0.46
-0.01
-0.75
-1.78
-3.09
-4.58
-6.18
-7.89
-9.80
-12.07
-14.83
-18.09
-21.58
-24.79
-27.01
-27.54
-26.01
-22.51
-17.66
-12.37
-7.51
-3.60
-0.66
1.68
3.83
6.07
8.31
10.31
11.74
12.49
12.64
12.43
12.06
11.67
11.28
10.94
10.74
10.83
11.28
11.98
12.62
12.83
12.31
11.00
9.08
6.85
4.61
2.48
0.51
-1.33
-3.02
-4.50
-5.71
-6.70
-7.63
-8.68
-10.01
-11.63
-13.54
-15.68
-18.08
-20.78
-23.81
-27.02
-30.02
-32.29
-33.29
-32.66
-30.34
-26.61
-22.02
-17.15
-12.52
-8.35
-4.68
-1.39
1.68
4.61
7.40
9.95
12.11
13.75
14.76
15.09
14.83
14.23
13.60
13.31
13.61
14.55
15.99
17.62
19.14
20.31
20.98
21.15
20.86
20.20
19.26
18.09
16.78
15.38
13.93
12.40
10.77
9.00
7.08
5.03
2.85
0.59
-1.70
-3.96
-6.12
-8.11
-9.89
-11.47
-12.92
-14.37
-15.94
-17.75
-19.87
-22.36
-25.26
-28.49
-31.75
-34.57
-36.29
-36.33
-34.44
-30.78
-25.91
-20.61
-15.54
-11.10
-7.34
-4.15
-1.34
1.23
3.63
5.94
8.26
10.68
13.11
15.34
17.01
17.83
17.74
16.94
15.87
15.00
14.62
14.77
15.21
15.61
15.68
15.25
14.36
13.16
11.83
10.57
9.45
8.49
7.65
6.84
6.00
5.03
3.95
2.77
1.59
0.52
-0.37
-1.05
-1.64
-2.32
-3.29
-4.63
-6.32
-8.19
-10.06
-11.83
-13.50
-15.16
-16.88
-18.72
-20.68
-22.78
-25.02
-27.37
-29.65
-31.49
-32.40
-31.88
-29.71
-26.06
-21.44
-16.54
-11.96
-8.04
-4.78
-1.98
0.61
3.16
5.72
8.23
10.54
12.51
14.00
14.88
15.10
14.70
13.86
12.84
11.93
11.35
11.17
11.30
11.57
11.78
11.77
11.44
10.73
9.65
8.25
6.64
5.00
3.52
2.28
1.27
0.33
-0.70
-1.97
-3.46
-5.08
-6.70
-8.26
-9.79
-11.40
-13.22
-15.36
-17.86
-20.76
-23.96
-27.19
-30.02
-31.86
-32.19
-30.70
-27.49
-23.01
-17.92
-12.91
-8.43
-4.67
-1.56
1.09
3.45
5.69
7.88
10.01
11.98
13.62
14.70
15.08
14.75
13.88
12.78
11.82
11.26
11.19
11.55
12.11
12.65
12.96
12.93
12.53
11.82
10.88
9.81
8.68
7.53
6.42
5.32
4.23
3.09
1.81
0.34
-1.36
-3.26
-5.24
-7.18
-9.00
-10.70
-12.37
-14.10
-15.94
-17.83
-19.72
-21.62
-23.65
-26.03
-28.97
-32.45
-36.13
-39.35
-41.31
-41.37
-39.33
-35.47
-30.49
-25.19
-20.19
-15.78
-11.92
-8.38
-4.97
-1.57
1.79
5.07
8.23
11.26
14.15
16.79
19.05
20.76
21.85
22.40
22.62
22.79
23.09
23.61
24.30
25.04
25.72
26.25
26.58
26.66
26.38
25.65
24.42
22.80
21.00
19.29
17.92
16.96
16.35
15.89
15.38
14.62
13.54
12.13
10.47
8.68
6.83
4.98
3.09
1.10
-1.06
-3.37
-5.79
-8.23
-10.63
-12.92
-15.10
-17.14
-19.06
-20.90
-22.80
-25.03
-27.81
-31.27
-35.28
-39.37
-42.79
-44.77
-44.69
-42.34
-37.99
-32.28
-26.00
-19.86
-14.30
-9.45
-5.26
-1.58
1.74
4.81
7.77
10.72
13.71
16.68
19.42
21.71
23.34
24.27
24.64
24.71
24.77
25.00
25.42
25.93
26.35
26.50
26.29
25.73
24.90
23.92
22.90
21.89
20.90
19.90
18.89
17.86
16.81
15.69
14.42
12.92
11.14
9.15
7.06
4.99
3.10
1.41
-0.13
-1.65
-3.34
-5.33
-7.65
-10.20
-12.78
-15.15
-17.20
-18.99
-20.77
-22.92
-25.76
-29.37
-33.45
-37.40
-40.42
-41.75
-40.90
-37.80
-32.80
-26.60
-19.99
-13.68
-8.12
-3.50
0.24
3.31
5.97
8.49
11.05
13.71
16.36
18.77
20.62
21.68
21.91
21.47
20.77
20.25
20.25
20.92
22.10
23.47
24.65
25.33
25.41
24.91
23.98
22.75
21.35
19.87
18.37
16.93
15.56
14.23
12.80
11.12
9.08
6.73
4.26
1.95
-0.00
-1.57
-2.93
-4.37
-6.14
-8.34
-10.86
-13.46
-15.92
-18.19
-20.40
-22.83
-25.80
-29.48
-33.81
-38.42
-42.68
-45.76
-46.89
-45.55
-41.68
-35.72
-28.51
-21.07
-14.25
-8.52
-3.87
0.01
3.55
7.08
10.69
14.31
17.75
20.85
23.52
25.68
27.27
28.20
28.45
28.09
27.40
26.72
26.42
26.66
27.32
28.12
28.66
28.64
27.97
26.79
25.33
23.83
22.43
21.16
19.99
18.84
17.64
16.35
14.91
13.26
11.45
9.52
7.57
5.68
3.88
2.19
0.60
-0.91
-2.39
-3.96
-5.79
-8.06
-10.78
-13.82
-16.87
-19.62
-21.92
-23.87
-25.74
-27.91
-30.67
-34.15
-38.26
-42.67
-46.84
-50.05
-51.51
-50.60
-47.11
-41.29
-33.87
-25.82
-18.03
-11.11
-5.27
-0.41
3.76
7.50
11.01
14.34
17.47
20.35
22.88
24.98
26.54
27.50
27.89
27.84
27.58
27.34
27.30
27.49
27.83
28.16
28.31
28.15
27.66
26.85
25.79
24.53
23.13
21.61
20.00
18.35
16.70
15.11
13.57
12.07
10.53
8.91
7.23
5.52
3.86
2.27
0.73
-0.82
-2.47
-4.30
-6.36
-8.67
-11.18
-13.77
-16.30
-18.59
-20.59
-22.36
-24.11
-26.16
-28.79
-32.11
-35.98
-39.94
-43.29
-45.20
-44.99
-42.30
-37.33
-30.72
-23.40
-16.24
-9.86
-4.49
-0.05
3.68
6.89
9.69
12.17
14.38
16.39
18.15
19.60
20.58
21.08
21.19
21.18
21.33
21.75
22.38
22.96
23.25
23.13
22.65
21.96
21.21
20.40
19.41
18.11
16.43
14.44
12.34
10.32
8.51
6.89
5.34
3.68
1.79
-0.34
-2.60
-4.84
-6.96
-8.94
-10.82
-12.67
-14.52
-16.38
-18.31
-20.45
-23.07
-26.37
-30.35
-34.62
-38.37
-40.65
-40.62
-37.90
-32.76
-25.98
-18.60
-11.55
-5.39
-0.28
3.93
7.47
10.54
13.22
15.51
17.46
19.15
20.69
22.14
23.46
24.51
25.14
25.29
25.04
24.58
24.12
23.82
23.75
23.84
23.94
23.86
23.38
22.40
20.91
19.03
17.00
15.04
13.30
11.79
10.41
9.02
7.47
5.74
3.88
2.04
0.30
-1.27
-2.70
-4.10
-5.61
-7.39
-9.49
-11.92
-14.58
-17.31
-19.98
-22.47
-24.76
-26.94
-29.19
-31.81
-34.98
-38.69
-42.61
-46.06
-48.15
-48.09
-45.44
-40.36
-33.47
-25.76
-18.19
-11.47
-5.93
-1.53
1.96
4.90
7.55
10.11
12.63
15.04
17.18
18.89
20.04
20.66
20.87
20.84
20.76
20.72
20.74
20.82
20.96
21.13
21.35
21.58
21.71
21.57
20.99
19.86
18.28
16.43
14.61
13.09
11.99
11.25
10.66
9.94
8.85
7.32
5.42
3.41
1.57
0.06
-1.12
-2.17
-3.34
-4.84
-6.73
-8.91
-11.22
-13.53
-15.80
-18.07
-20.40
-22.80
-25.29
-27.94
-30.93
-34.43
-38.46
-42.63
-46.16
-48.04
-47.40
-43.91
-37.95
-30.47
-22.62
-15.41
-9.33
-4.46
-0.53
2.72
5.53
8.01
10.21
12.16
13.91
15.48
16.82
17.88
18.59
18.97
19.11
19.21
19.42
19.85
20.52
21.30
22.00
22.40
22.32
21.72
20.63
19.15
17.43
15.59
13.74
11.95
10.28
8.69
7.17
5.64
4.09
2.53
0.95
-0.63
-2.25
-3.96
-5.77
-7.67
-9.60
-11.47
-13.21
-14.83
-16.43
-18.23
-20.53
-23.56
-27.39
-31.75
-36.05
-39.42
-40.99
-40.17
-36.87
-31.54
-24.99
-18.13
-11.68
-6.06
-1.33
2.58
5.81
8.45
10.55
12.18
13.48
14.62
15.73
16.87
17.92
18.74
19.20
19.32
19.30
19.40
19.82
20.55
21.40
22.04
22.18
21.71
20.73
19.48
18.19
16.98
15.80
14.51
12.98
11.19
9.19
7.13
5.15
3.29
1.54
-0.22
-2.13
-4.28
-6.72
-9.38
-12.12
-14.78
-17.23
-19.45
-21.54
-23.71
-26.19
-29.22
-32.92
-37.22
-41.86
-46.28
-49.73
-51.39
-50.57
-47.04
-41.08
-33.52
-25.43
-17.83
-11.39
-6.29
-2.26
1.14
4.34
7.55
10.78
13.86
16.58
18.80
20.47
21.63
22.38
22.83
23.14
23.44
23.86
24.49
25.35
26.37
27.39
28.19
28.58
28.41
27.65
26.41
24.85
23.19
21.60
20.16
18.81
17.44
15.89
14.09
12.02
9.79
7.51
5.29
3.15
1.08
-1.00
-3.19
-5.55
-8.13
-10.94
-13.92
-16.99
-20.02
-22.94
-25.72
-28.49
-31.51
-35.08
-39.42
-44.48
-49.80
-54.49
-57.45
-57.72
-54.81
-48.90
-40.81
-31.69
-22.70
-14.63
-7.83
-2.23
2.46
6.55
10.30
13.83
17.16
20.21
22.87
25.02
26.59
27.59
28.12
28.29
28.25
28.10
27.95
27.94
28.20
28.77
29.56
30.29
30.59
30.19
29.05
27.37
25.56
23.98
22.81
21.97
21.20
20.21
18.80
16.97
14.78
12.41
10.06
7.88
5.94
4.26
2.71
1.10
-0.78
-3.13
-6.00
-9.32
-12.91
-16.55
-20.02
-23.16
-25.98
-28.64
-31.46
-34.83
-39.04
-44.08
-49.49
-54.36
-57.58
-58.14
-55.51
-49.83
-41.86
-32.74
-23.60
-15.26
-8.11
-2.12
2.94
7.26
10.98
14.13
16.77
19.00
20.91
22.59
23.98
25.00
25.60
25.84
25.96
26.20
26.78
27.67
28.73
29.64
30.15
30.08
29.41
28.23
26.71
24.99
23.17
21.30
19.36
17.33
15.23
13.11
11.09
9.24
7.53
5.82
3.92
1.66
-0.95
-3.79
-6.63
-9.29
-11.69
-13.92
-16.12
-18.47
-21.15
-24.32
-28.16
-32.75
-37.94
-43.20
-47.62
-50.12
-49.74
-46.05
-39.34
-30.59
-21.08
-12.03
-4.21
2.09
7.05
11.01
14.31
17.11
19.45
21.28
22.60
23.50
24.09
24.53
24.94
25.40
25.94
26.53
27.15
27.76
28.33
28.79
29.02
28.90
28.32
27.28
25.86
24.25
22.58
20.94
19.29
17.50
15.48
13.17
10.67
8.09
5.58
3.19
0.90
-1.41
-3.87
-6.52
-9.34
-12.15
-14.81
-17.18
-19.34
-21.51
-24.00
-27.18
-31.29
-36.40
-42.35
-48.68
-54.64
-59.29
-61.62
-60.87
-56.73
-49.53
-40.16
-29.87
-19.93
-11.25
-4.28
1.06
5.21
8.69
12.01
15.43
19.03
22.66
26.01
28.78
30.71
31.78
32.13
32.07
31.96
32.08
32.60
33.51
34.70
35.97
37.08
37.75
37.72
36.82
35.03
32.50
29.57
26.65
24.03
21.82
19.95
18.16
16.21
13.91
11.25
8.36
5.43
2.64
0.09
-2.29
-4.67
-7.30
-10.35
-13.84
-17.61
-21.37
-24.85
-27.96
-30.78
-33.63
-36.87
-40.85
-45.79
-51.62
-57.92
-63.83
-68.22
-69.92
-68.13
-62.71
-54.24
-43.87
-32.87
-22.27
-12.69
-4.31
2.90
9.09
14.40
18.95
22.89
26.38
29.45
32.05
34.02
35.24
35.71
35.61
35.25
34.95
34.92
35.20
35.70
36.23
36.59
36.60
36.11
34.99
33.16
30.69
27.78
24.72
21.81
19.27
17.10
15.16
13.27
11.27
9.13
6.85
4.44
1.82
-1.09
-4.35
-7.85
-11.40
-14.73
-17.72
-20.48
-23.35
-26.74
-31.00
-36.26
-42.28
-48.48
-53.99
-57.75
-58.81
-56.57
-51.00
-42.67
-32.63
-22.13
-12.25
-3.68
3.33
8.92
13.44
17.25
20.60
23.62
26.33
28.64
30.49
31.85
32.73
33.23
33.48
33.58
33.65
33.78
33.99
34.25
34.44
34.39
33.96
33.02
31.52
29.53
27.23
24.81
22.43
20.18
18.02
15.83
13.50
11.01
8.39
5.75
3.18
0.67
-1.88
-4.64
-7.72
-11.19
-14.99
-18.98
-23.02
-26.96
-30.75
-34.43
-38.19
-42.39
-47.32
-53.12
-59.47
-65.52
-70.03
-71.67
-69.52
-63.41
-54.05
-42.76
-31.05
-20.21
-10.98
-3.50
2.48
7.49
12.01
16.39
20.77
25.10
29.15
32.62
35.28
37.03
37.92
38.16
38.05
37.87
37.87
38.18
38.79
39.62
40.47
41.12
41.35
40.94
39.80
37.95
35.54
32.89
30.33
28.08
26.17
24.39
22.42
19.99
17.07
13.85
10.69
7.91
5.63
3.73
1.92
-0.17
-2.80
-6.06
-9.85
-13.95
-18.07
-21.99
-25.60
-28.96
-32.26
-35.80
-39.90
-44.84
-50.68
-57.15
-63.55
-68.80
-71.60
-70.88
-66.18
-57.83
-46.92
-34.99
-23.47
-13.40
-5.17
1.35
6.57
10.99
14.97
18.72
22.27
25.52
28.35
30.63
32.29
33.34
33.86
34.01
34.04
34.20
34.65
35.43
36.39
37.23
37.61
37.27
36.18
34.46
32.38
30.17
27.94
25.68
23.32
20.80
18.12
15.37
12.65
10.05
7.56
5.11
2.61
-0.08
-3.04
-6.29
-9.77
-13.37
-16.90
-20.20
-23.22
-26.06
-29.01
-32.45
-36.71
-41.90
-47.78
-53.66
-58.53
-61.28
-60.92
-56.94
-49.51
-39.46
-28.10
-16.81
-6.74
1.48
7.77
12.44
15.95
18.75
21.13
23.19
24.98
26.50
27.73
28.65
29.27
29.58
29.60
29.43
29.17
28.95
28.87
28.97
29.18
29.34
29.18
28.43
26.87
24.47
21.36
17.89
14.46
11.39
8.81
6.58
4.43
2.05
-0.74
-3.94
-7.39
-10.84
-14.11
-17.10
-19.86
-22.57
-25.49
-28.93
-33.11
-38.11
-43.76
-49.49
-54.42
-57.50
-57.73
-54.57
-48.08
-38.97
-28.43
-17.73
-7.93
0.39
7.12
12.47
16.79
20.35
23.33
25.80
27.83
29.48
30.83
31.94
32.80
33.33
33.44
33.14
32.60
32.10
31.98
32.36
33.11
33.83
33.99
33.20
31.39
28.79
25.80
22.85
20.16
17.72
15.42
13.10
10.71
8.31
5.93
3.62
1.32
-1.03
-3.50
-6.18
-9.08
-12.26
-15.73
-19.39
-23.08
-26.55
-29.66
-32.35
-34.85
-37.55
-40.92
-45.30
-50.70
-56.67
-62.25
-66.18
-67.20
-64.47
-57.89
-48.23
-36.83
-25.21
-14.58
-5.60
1.66
7.47
12.23
16.24
19.72
22.87
25.81
28.61
31.22
33.44
35.02
35.76
35.70
35.08
34.27
33.69
33.59
33.99
34.73
35.47
35.88
35.68
34.78
33.23
31.21
28.91
26.52
24.16
21.89
19.76
17.78
15.92
14.09
12.16
10.02
7.63
5.10
2.61
0.32
-1.71
-3.59
-5.58
-7.95
-10.87
-14.33
-18.14
-22.02
-25.66
-28.88
-31.68
-34.23
-36.90
-40.16
-44.45
-49.88
-56.09
-62.13
-66.67
-68.37
-66.32
-60.39
-51.27
-40.22
-28.70
-17.96
-8.78
-1.38
4.42
9.05
13.00
16.65
20.22
23.73
27.02
29.88
32.09
33.54
34.25
34.35
34.05
33.60
33.18
32.93
32.93
33.13
33.45
33.75
33.86
33.58
32.77
31.35
29.35
26.92
24.30
21.71
19.30
17.13
15.11
13.08
10.89
8.44
5.76
2.98
0.27
-2.22
-4.44
-6.49
-8.54
-10.77
-13.27
-16.05
-18.99
-21.92
-24.71
-27.32
-29.81
-32.34
-35.16
-38.55
-42.72
-47.69
-53.11
-58.25
-62.06
-63.46
-61.64
-56.34
-48.01
-37.68
-26.67
-16.25
-7.30
-0.17
5.29
9.52
13.05
16.24
19.23
21.90
24.07
25.59
26.47
26.88
27.02
27.06
27.02
26.88
26.63
26.34
26.17
26.25
26.58
26.98
27.13
26.70
25.55
23.76
21.61
19.44
17.45
15.64
13.81
11.74
9.32
6.66
3.96
1.48
-0.74
-2.80
-4.98
-7.53
-10.51
-13.77
-16.99
-19.88
-22.28
-24.31
-26.28
-28.64
-31.76
-35.87
-40.86
-46.26
-51.23
-54.71
-55.62
-53.25
-47.49
-38.94
-28.74
-18.25
-8.65
-0.66
5.54
10.18
13.64
16.31
18.45
20.21
21.63
22.75
23.57
24.17
24.63
25.01
25.38
25.76
26.13
26.47
26.76
27.02
27.23
27.34
27.25
26.82
25.91
24.47
22.60
20.52
18.48
16.63
14.98
13.35
11.49
9.23
6.59
3.77
1.07
-1.31
-3.41
-5.43
-7.69
-10.37
-13.45
-16.75
-20.06
-23.20
-26.17
-29.00
-31.76
-34.54
-37.49
-40.89
-45.03
-50.01
-55.48
-60.53
-63.87
-64.23
-60.83
-53.77
-43.98
-32.92
-22.07
-12.50
-4.69
1.43
6.24
10.15
13.53
16.53
19.28
21.81
24.16
26.31
28.17
29.61
30.49
30.78
30.56
30.05
29.55
29.29
29.41
29.87
30.44
30.77
30.58
29.67
28.05
25.90
23.49
21.09
18.88
16.89
15.02
13.13
11.10
8.88
6.56
4.25
2.05
-0.01
-2.05
-4.24
-6.76
-9.70
-13.01
-16.49
-19.91
-23.03
-25.80
-28.27
-30.66
-33.31
-36.53
-40.55
-45.28
-50.27
-54.68
-57.44
-57.56
-54.46
-48.21
-39.56
-29.68
-19.86
-11.08
-3.83
1.87
6.33
9.97
13.12
15.98
18.63
21.03
23.10
24.77
25.96
26.70
27.06
27.18
27.20
27.23
27.32
27.43
27.47
27.39
27.12
26.65
25.95
25.01
23.76
22.14
20.10
17.69
15.03
12.32
9.73
7.41
5.34
3.45
1.56
-0.44
-2.62
-4.98
-7.51
-10.15
-12.88
-15.67
-18.48
-21.35
-24.37
-27.73
-31.67
-36.33
-41.56
-46.81
-51.14
-53.43
-52.78
-48.79
-41.81
-32.81
-23.08
-13.84
-5.88
0.51
5.47
9.37
12.59
15.37
17.77
19.75
21.21
22.07
22.33
22.09
21.49
20.76
20.07
19.55
19.28
19.26
19.39
19.54
19.49
19.10
18.34
17.32
16.29
15.54
15.33
15.75
16.71
17.95
19.16
20.05
20.41
20.17
19.42
18.31
16.97
15.51
13.92
12.15
10.17
8.02
5.84
3.79
1.95
0.33
-1.21
-2.90
-4.90
-7.33
-10.13
-13.13
-16.10
-18.89
-21.42
-23.75
-26.09
-28.69
-31.85
-35.76
-40.49
-45.82
-51.21
-55.76
-58.43
-58.23
-54.63
-47.75
-38.41
-27.91
-17.61
-8.60
-1.33
4.27
8.70
12.49
16.04
19.47
22.72
25.61
28.00
29.85
31.16
31.96
32.25
32.05
31.45
30.61
29.79
29.25
29.10
29.31
29.62
29.72
29.35
28.36
26.83
24.95
22.93
20.98
19.18
17.58
16.14
14.80
13.43
11.94
10.27
8.39
6.41
4.42
2.47
0.55
-1.45
-3.65
-6.14
-8.94
-11.97
-15.10
-18.17
-21.06
-23.69
-26.08
-28.37
-30.78
-33.60
-37.06
-41.23
-45.91
-50.55
-54.31
-56.18
-55.32
-51.32
-44.38
-35.35
-25.45
-15.98
-7.83
-1.43
3.37
7.03
10.11
13.07
16.13
19.31
22.49
25.44
27.93
29.71
30.64
30.73
30.13
29.15
28.18
27.53
27.34
27.59
28.02
28.35
28.33
27.83
26.82
25.39
23.66
21.76
19.85
18.11
16.64
15.49
14.58
13.68
12.57
11.08
9.18
6.99
4.74
2.63
0.79
-0.80
-2.30
-3.89
-5.77
-8.04
-10.63
-13.38
-16.04
-18.44
-20.54
-22.52
-24.71
-27.46
-30.97
-35.20
-39.70
-43.74
-46.39
-46.83
-44.51
-39.45
-32.23
-23.85
-15.44
-7.92
-1.84
2.77
6.18
8.80
10.98
12.94
14.77
16.49
18.10
19.54
20.72
21.52
21.87
21.75
21.29
20.72
20.28
20.16
20.36
20.75
21.13
21.30
21.15
20.67
19.87
18.79
17.46
15.96
14.36
12.74
11.12
9.45
7.66
5.71
3.66
1.65
-0.16
-1.70
-3.03
-4.34
-5.87
-7.76
-10.04
-12.62
-15.32
-17.94
-20.35
-22.49
-24.42
-26.31
-28.40
-30.99
-34.24
-38.11
-42.24
-45.94
-48.29
-48.45
-45.94
-40.82
-33.73
-25.65
-17.63
-10.48
-4.59
0.02
3.58
6.39
8.71
10.77
12.79
14.92
17.21
19.53
21.57
23.00
23.60
23.44
22.83
22.18
21.85
21.92
22.27
22.68
22.96
23.04
22.92
22.61
22.04
21.08
19.67
17.87
15.83
13.82
12.10
10.76
9.75
8.86
7.84
6.49
4.76
2.76
0.73
-1.10
-2.64
-4.00
-5.41
-7.16
-9.41
-12.09
-15.00
-17.84
-20.40
-22.59
-24.49
-26.27
-28.16
-30.41
-33.22
-36.72
-40.83
-45.20
-49.19
-51.94
-52.61
-50.62
-45.87
-38.83
-30.41
-21.74
-13.80
-7.25
-2.25
1.39
4.12
6.42
8.65
11.00
13.50
16.05
18.48
20.65
22.38
23.53
24.03
23.94
23.44
22.84
22.43
22.40
22.78
23.37
23.90
24.08
23.77
22.98
21.86
20.60
19.32
18.11
16.98
15.89
14.82
13.73
12.59
11.32
9.86
8.16
6.22
4.14
2.04
0.01
-1.90
-3.74
-5.62
-7.69
-9.99
-12.50
-15.07
-17.54
-19.80
-21.88
-23.88
-26.01
-28.46
-31.40
-34.92
-39.01
-43.41
-47.52
-50.54
-51.55
-49.91
-45.47
-38.72
-30.60
-22.19
-14.38
-7.65
-2.12
2.32
5.90
8.82
11.27
13.40
15.33
17.08
18.61
19.89
20.89
21.65
22.24
22.73
23.16
23.55
23.93
24.34
24.78
25.20
25.40
25.20
24.47
23.22
21.64
19.93
18.31
16.78
15.28
13.67
11.84
9.81
7.68
5.60
3.68
1.95
0.31
-1.41
-3.37
-5.70
-8.43
-11.44
-14.47
-17.28
-19.63
-21.51
-23.09
-24.70
-26.79
-29.73
-33.67
-38.41
-43.36
-47.62
-50.20
-50.26
-47.38
-41.77
-34.11
-25.51
-17.01
-9.45
-3.24
1.59
5.29
8.24
10.80
13.24
15.70
18.14
20.41
22.32
23.70
24.51
24.83
24.82
24.66
24.52
24.55
24.89
25.57
26.56
27.66
28.52
28.76
28.15
26.68
24.59
22.23
19.94
17.91
16.20
14.74
13.39
12.03
10.50
8.74
6.73
4.57
2.38
0.22
-1.89
-4.02
-6.25
-8.61
-11.07
-13.59
-16.15
-18.77
-21.49
-24.30
-27.17
-30.11
-33.21
-36.72
-40.86
-45.64
-50.66
-55.09
-57.83
-57.92
-54.89
-48.97
-40.97
-32.00
-23.10
-14.95
-7.86
-1.84
3.19
7.36
10.79
13.65
16.11
18.36
20.49
22.48
24.21
25.59
26.60
27.33
27.92
28.49
29.11
29.79
30.48
31.13
31.65
31.94
31.85
31.28
30.18
28.62
26.75
24.80
22.95
21.27
19.69
18.01
16.05
13.74
11.16
8.51
6.02
3.83
1.91
0.10
-1.81
-3.99
-6.53
-9.37
-12.40
-15.43
-18.34
-21.06
-23.57
-26.02
-28.66
-31.85
-35.89
-40.82
-46.26
-51.34
-54.91
-55.89
-53.62
-48.14
-40.14
-30.82
-21.40
-12.85
-5.72
-0.08
4.28
7.74
10.70
13.49
16.27
19.07
21.73
24.01
25.72
26.74
27.15
27.13
26.94
26.81
26.86
27.12
27.55
28.05
28.48
28.69
28.52
27.87
26.66
24.95
22.87
20.62
18.37
16.17
14.04
11.90
9.72
7.51
5.34
3.22
1.15
-0.99
-3.31
-5.83
-8.48
-11.13
-13.65
-16.07
-18.57
-21.43
-24.93
-29.18
-33.96
-38.75
-42.73
-44.97
-44.71
-41.58
-35.75
-27.94
-19.20
-10.66
-3.22
2.64
6.87
9.81
11.94
13.76
15.62
17.62
19.64
21.46
22.82
23.62
23.90
23.82
23.54
23.19
22.86
22.62
22.57
22.81
23.33
23.99
24.51
24.52
23.75
22.14
19.86
17.21
14.55
12.16
10.17
8.51
7.04
5.52
3.73
1.59
-0.90
-3.62
-6.40
-9.12
-11.70
-14.16
-16.53
-18.85
-21.15
-23.52
-26.11
-29.23
-33.19
-38.12
-43.85
-49.71
-54.63
-57.43
-57.19
-53.59
-47.03
-38.49
-29.20
-20.25
-12.35
-5.75
-0.31
4.26
8.28
12.01
15.57
18.99
22.17
24.98
27.23
28.80
29.62
29.77
29.43
28.84
28.28
27.95
28.01
28.44
29.11
29.72
29.98
29.64
28.58
26.90
24.87
22.81
20.91
19.28
17.79
16.27
14.54
12.50
10.18
7.67
5.15
2.74
0.53
-1.51
-3.49
-5.55
-7.83
-10.37
-13.08
-15.81
-18.44
-20.94
-23.45
-26.24
-29.57
-33.65
-38.42
-43.50
-48.19
-51.54
-52.63
-50.84
-46.07
-38.79
-29.96
-20.73
-12.11
-4.76
1.09
5.66
9.34
12.60
15.78
19.02
22.23
25.18
27.57
29.19
30.01
30.15
29.79
29.15
28.41
27.67
27.02
26.51
26.17
25.95
25.76
25.46
24.86
23.86
22.41
20.60
18.56
16.45
14.37
12.32
10.18
7.81
5.05
1.84
-1.69
-5.28
-8.60
-11.37
-13.51
-15.23
-16.92
-19.10
-22.18
-26.26
-31.04
-35.79
-39.55
-41.37
-40.62
-37.14
-31.33
-23.98
-16.05
-8.43
-1.74
3.76
8.15
11.66
14.61
17.20
19.52
21.47
22.88
23.61
23.63
23.08
22.21
21.27
20.48
19.91
19.55
19.27
18.95
18.50
17.90
17.17
16.33
15.37
14.20
12.70
10.76
8.43
5.83
3.16
0.57
-1.87
-4.20
-6.52
-8.93
-11.50
-14.27
-17.34
-20.80
-24.68
-28.82
-32.74
-35.70
-36.87
-35.66
-31.88
-25.94
-18.65
-11.03
-3.99
1.89
6.43
9.80
12.40
14.63
16.76
18.88
20.86
22.43
23.36
23.53
23.02
22.07
20.97
19.98
19.21
18.64
18.18
17.68
17.06
16.22
15.12
13.73
12.08
10.19
8.17
6.10
4.05
1.98
-0.19
-2.57
-5.21
-8.03
-10.89
-13.60
-16.11
-18.52
-21.09
-24.14
-27.85
-32.09
-36.32
-39.72
-41.38
-40.65
-37.33
-31.77
-24.73
-17.14
-9.81
-3.27
2.27
6.83
10.60
13.82
16.71
19.49
22.20
24.80
27.08
28.75
29.56
29.41
28.40
26.78
24.95
23.29
22.08
21.48
21.42
21.68
21.92
21.79
21.05
19.62
17.59
15.15
12.44
9.55
6.51
3.35
0.09
-3.15
-6.25
-9.12
-11.72
-14.13
-16.54
-19.15
-22.21
-25.85
-30.07
-34.57
-38.77
-41.88
-43.06
-41.75
-37.81
-31.64
-24.08
-16.14
-8.75
-2.46
2.54
6.46
9.66
12.49
15.18
17.84
20.40
22.77
24.81
26.41
27.45
27.87
27.61
26.71
25.33
23.68
22.02
20.55
19.39
18.50
17.70
16.80
15.59
13.89
11.65
8.91
5.83
2.63
-0.44
-3.20
-5.61
-7.80
-10.07
-12.75
-16.10
-20.17
-24.74
-29.24
-32.94
-35.08
-35.14
-32.96
-28.84
-23.45
-17.55
-11.84
-6.71
-2.30
1.44
4.66
7.49
10.00
12.24
14.28
16.11
17.62
18.69
19.17
18.99
18.22
17.08
15.81
14.62
13.61
12.74
11.99
11.33
10.72
10.10
9.26
7.97
6.04
3.50
0.59
-2.32
-4.84
-6.84
-8.43
-9.93
-11.73
-14.13
-17.27
-20.98
-24.89
-28.39
-30.79
-31.50
-30.17
-26.87
-22.04
-16.38
-10.67
-5.45
-1.04
2.57
5.51
8.01
10.27
12.39
14.42
16.31
17.89
18.99
19.48
19.36
18.76
17.98
17.29
16.88
16.77
16.81
16.78
16.49
15.80
14.71
13.22
11.39
9.25
6.86
4.30
1.65
-0.97
-3.49
-5.84
-7.99
-9.94
-11.69
-13.35
-15.10
-17.16
-19.81
-23.13
-27.02
-31.05
-34.54
-36.75
-37.06
-35.19
-31.27
-25.83
-19.58
-13.23
-7.32
-2.16
2.17
5.74
8.68
11.13
13.21
15.06
16.72
18.23
19.53
20.54
21.14
21.29
20.99
20.36
19.56
18.78
18.15
17.73
17.51
17.40
17.25
16.91
16.26
15.29
14.04
12.64
11.22
9.86
8.59
7.35
6.08
4.68
3.13
1.45
-0.28
-1.95
-3.44
-4.75
-5.95
-7.19
-8.66
-10.42
-12.44
-14.56
-16.58
-18.32
-19.77
-21.02
-22.33
-24.03
-26.46
-29.75
-33.72
-37.77
-40.95
-42.28
-41.08
-37.29
-31.50
-24.72
-17.96
-11.98
-7.08
-3.19
-0.04
2.62
5.04
7.39
9.77
12.16
14.42
16.27
17.45
17.83
17.49
16.72
15.93
15.43
15.40
15.78
16.39
17.00
17.42
17.55
17.37
16.94
16.34
15.66
14.96
14.27
13.59
12.80
11.79
10.40
8.59
6.43
4.12
1.91
-0.01
-1.54
-2.77
-3.84
-4.96
-6.25
-7.76
-9.46
-11.24
-13.02
-14.72
-16.37
-18.07
-19.93
-22.06
-24.52
-27.32
-30.31
-33.18
-35.43
-36.44
-35.69
-32.92
-28.33
-22.48
-16.22
-10.30
-5.26
-1.25
1.82
4.21
6.18
7.95
9.66
11.35
13.00
14.48
15.62
16.26
16.36
16.03
15.49
14.99
14.71
14.71
14.90
15.11
15.16
14.96
14.47
13.73
12.79
11.72
10.51
9.16
7.62
5.91
4.06
2.19
0.41
-1.20
-2.62
-3.92
-5.23
-6.64
-8.18
-9.84
-11.51
-13.08
-14.46
-15.66
-16.78
-18.01
-19.64
-21.92
-24.97
-28.57
-32.13
-34.77
-35.63
-34.16
-30.38
-24.86
-18.53
-12.31
-6.85
-2.43
1.00
3.63
5.70
7.39
8.88
10.29
11.72
13.19
14.60
15.78
16.55
16.81
16.59
16.04
15.37
14.83
14.64
14.86
15.47
16.29
17.08
17.53
17.45
16.71
15.37
13.62
11.75
10.13
8.96
8.29
7.93
7.52
6.76
5.45
3.70
1.78
0.05
-1.29
-2.28
-3.16
-4.26
-5.80
-7.81
-10.12
-12.46
-14.61
-16.45
-18.01
-19.45
-20.96
-22.76
-25.06
-27.96
-31.37
-34.93
-37.95
-39.62
-39.25
-36.55
-31.75
-25.59
-18.99
-12.84
-7.67
-3.60
-0.42
2.24
4.72
7.23
9.71
12.03
13.99
15.46
16.48
17.11
17.48
17.65
17.62
17.39
17.02
16.60
16.30
16.24
16.45
16.84
17.28
17.56
17.51
17.04
16.13
14.89
13.52
12.27
11.27
10.49
9.76
8.82
7.50
5.80
3.91
2.09
0.55
-0.66
-1.68
-2.73
-4.00
-5.63
-7.58
-9.73
-11.94
-14.09
-16.11
-18.00
-19.85
-21.76
-23.91
-26.46
-29.51
-32.97
-36.51
-39.55
-41.35
-41.30
-39.07
-34.75
-28.85
-22.14
-15.42
-9.32
-4.17
-0.04
3.27
6.02
8.51
10.90
13.18
15.24
16.90
18.02
18.62
18.79
18.71
18.51
18.25
17.99
17.74
17.58
17.59
17.81
18.17
18.47
18.46
17.96
16.92
15.45
13.74
11.95
10.15
8.38
6.64
4.95
3.39
1.96
0.62
-0.78
-2.34
-4.17
-6.20
-8.35
-10.51
-12.64
-14.78
-17.04
-19.56
-22.50
-25.92
-29.74
-33.62
-37.00
-39.13
-39.34
-37.30
-33.07
-27.18
-20.44
-13.65
-7.39
-1.99
2.52
6.26
9.40
12.11
14.47
16.46
18.01
19.03
19.52
19.60
19.45
19.32
19.35
19.61
20.06
20.62
21.22
21.79
22.24
22.48
22.36
21.82
20.82
19.44
17.81
16.09
14.39
12.75
11.15
9.50
7.72
5.77
3.65
1.47
-0.70
-2.83
-4.96
-7.16
-9.46
-11.83
-14.15
-16.35
-18.44
-20.53
-22.85
-25.65
-29.11
-33.26
-37.93
-42.69
-46.87
-49.66
-50.28
-48.26
-43.56
-36.65
-28.43
-19.93
-12.06
-5.35
0.06
4.38
7.99
11.20
14.21
17.03
19.57
21.72
23.38
24.50
25.11
25.26
25.08
24.72
24.36
24.21
24.37
24.87
25.61
26.37
26.88
26.95
26.48
25.50
24.09
22.39
20.54
18.68
16.93
15.33
13.85
12.35
10.68
8.77
6.68
4.59
2.65
0.94
-0.67
-2.40
-4.47
-6.94
-9.69
-12.50
-15.20
-17.72
-20.16
-22.67
-25.48
-28.78
-32.67
-37.14
-41.92
-46.40
-49.71
-50.95
-49.46
-45.10
-38.32
-30.05
-21.36
-13.11
-5.85
0.26
5.28
9.38
12.75
15.54
17.85
19.78
21.32
22.43
23.09
23.33
23.29
23.14
23.09
23.18
23.41
23.68
23.90
24.06
24.16
24.19
24.11
23.80
23.12
21.96
20.35
18.42
16.38
14.38
12.50
10.69
8.82
6.76
4.46
1.99
-0.53
-2.94
-5.15
-7.13
-8.94
-10.67
-12.46
-14.43
-16.76
-19.60
-23.10
-27.33
-32.04
-36.67
-40.36
-42.16
-41.35
-37.70
-31.63
-24.01
-15.92
-8.31
-1.74
3.64
7.96
11.44
14.23
16.38
17.86
18.71
19.04
19.04
18.93
18.88
18.94
19.12
19.36
19.67
20.04
20.50
21.02
21.51
21.88
21.99
21.74
21.03
19.81
18.09
15.93
13.54
11.14
8.92
6.98
5.23
3.48
1.48
-0.88
-3.60
-6.51
-9.38
-12.09
-14.59
-16.99
-19.37
-21.83
-24.42
-27.22
-30.38
-34.07
-38.35
-42.99
-47.32
-50.37
-51.14
-49.00
-43.93
-36.58
-28.03
-19.44
-11.70
-5.24
-0.09
4.00
7.40
10.39
13.18
15.82
18.28
20.52
22.45
24.01
25.19
25.96
26.38
26.54
26.57
26.60
26.72
26.98
27.27
27.47
27.39
26.88
25.94
24.63
23.17
21.75
20.49
19.37
18.21
16.75
14.79
12.30
9.46
6.59
3.98
1.78
-0.06
-1.77
-3.62
-5.82
-8.42
-11.36
-14.49
-17.61
-20.54
-23.20
-25.61
-27.90
-30.39
-33.42
-37.27
-41.96
-47.12
-51.93
-55.31
-56.23
-54.01
-48.67
-40.86
-31.74
-22.53
-14.21
-7.25
-1.65
2.92
6.87
10.49
13.90
17.06
19.87
22.28
24.29
25.92
27.16
27.91
28.12
27.80
27.18
26.64
26.58
27.23
28.48
29.91
30.95
31.12
30.28
28.61
26.51
24.38
22.46
20.78
19.23
17.68
15.99
14.10
12.01
9.76
7.47
5.30
3.41
1.84
0.45
-1.01
-2.88
-5.33
-8.34
-11.68
-14.97
-17.97
-20.59
-22.99
-25.52
-28.58
-32.45
-37.14
-42.30
-47.19
-50.84
-52.24
-50.70
-46.06
-38.83
-30.03
-20.86
-12.41
-5.33
0.26
4.60
8.10
11.10
13.76
16.11
18.11
19.78
21.17
22.36
23.39
24.20
24.74
24.97
24.95
24.81
24.75
24.92
25.38
26.05
26.72
27.08
26.86
25.89
24.20
21.97
19.48
17.01
14.72
12.69
10.85
9.12
7.33
5.32
2.95
0.11
-3.15
-6.68
-10.25
-13.63
-16.68
-19.41
-21.95
-24.54
-27.49
-31.10
-35.56
-40.81
-46.37
-51.34
-54.58
-55.05
-52.12
-45.92
-37.25
-27.37
-17.58
-8.92
-1.88
3.50
7.59
10.89
13.88
16.84
19.84
22.74
25.30
27.25
28.49
29.07
29.13
28.93
28.68
28.58
28.74
29.22
29.99
30.96
31.96
32.73
33.00
32.52
31.22
29.19
26.72
24.22
22.03
20.28
18.87
17.43
15.61
13.21
10.38
7.49
4.93
2.92
1.30
-0.35
-2.49
-5.38
-8.97
-12.91
-16.80
-20.30
-23.32
-25.98
-28.56
-31.43
-34.92
-39.32
-44.70
-50.84
-57.11
-62.44
-65.61
-65.52
-61.67
-54.29
-44.41
-33.44
-22.81
-13.52
-5.96
0.03
4.91
9.20
13.20
17.05
20.70
24.03
26.97
29.45
31.45
32.90
33.78
34.08
33.87
33.34
32.78
32.48
32.65
33.27
34.13
34.85
35.02
34.42
33.01
31.02
28.78
26.67
24.90
23.52
22.40
21.24
19.79
17.86
15.41
12.61
9.67
6.87
4.43
2.36
0.53
-1.35
-3.58
-6.37
-9.75
-13.53
-17.42
-21.10
-24.36
-27.23
-29.95
-32.96
-36.72
-41.54
-47.37
-53.65
-59.38
-63.26
-64.10
-61.23
-54.73
-45.45
-34.69
-23.89
-14.09
-5.86
0.78
6.12
10.53
14.33
17.71
20.77
23.53
25.92
27.83
29.11
29.69
29.63
29.16
28.64
28.43
28.77
29.69
31.01
32.38
33.45
33.94
33.73
32.85
31.43
29.62
27.56
25.30
22.90
20.38
17.82
15.28
12.83
10.47
8.15
5.78
3.25
0.54
-2.33
-5.26
-8.14
-10.91
-13.56
-16.18
-18.86
-21.75
-25.02
-28.82
-33.32
-38.56
-44.35
-50.14
-55.02
-57.88
-57.73
-54.03
-46.92
-37.27
-26.39
-15.67
-6.19
1.49
7.36
11.76
15.12
17.84
20.15
22.12
23.78
25.11
26.15
26.94
27.58
28.16
28.77
29.44
30.19
30.97
31.74
32.40
32.85
32.96
32.59
31.63
30.08
28.03
25.69
23.28
20.97
18.86
16.92
15.03
13.06
10.86
8.39
5.72
2.98
0.33
-2.14
-4.50
-6.96
-9.72
-12.90
-16.45
-20.10
-23.56
-26.64
-29.39
-32.10
-35.14
-38.91
-43.62
-49.20
-55.21
-60.84
-65.05
-66.77
-65.23
-60.22
-52.14
-41.96
-30.89
-20.14
-10.58
-2.68
3.52
8.28
12.04
15.24
18.22
21.12
23.90
26.40
28.46
29.97
30.95
31.51
31.81
32.01
32.28
32.72
33.40
34.28
35.22
36.00
36.39
36.18
35.29
33.77
31.84
29.71
27.59
25.56
23.61
21.64
19.55
17.28
14.79
12.07
9.17
6.20
3.35
0.81
-1.28
-3.01
-4.64
-6.57
-9.13
-12.45
-16.40
-20.63
-24.73
-28.41
-31.60
-34.46
-37.32
-40.66
-44.86
-50.10
-56.13
-62.21
-67.12
-69.55
-68.45
-63.45
-54.99
-44.26
-32.73
-21.79
-12.31
-4.61
1.51
6.45
10.63
14.33
17.68
20.74
23.50
25.93
27.98
29.54
30.53
30.91
30.78
30.41
30.17
30.39
31.25
32.63
34.18
35.40
35.86
35.37
33.98
32.01
29.77
27.54
25.42
23.36
21.23
18.92
16.38
13.64
10.84
8.10
5.54
3.16
0.88
-1.50
-4.18
-7.31
-10.85
-14.60
-18.24
-21.50
-24.26
-26.65
-29.03
-31.85
-35.55
-40.34
-46.07
-52.18
-57.69
-61.46
-62.38
-59.75
-53.52
-44.32
-33.30
-21.78
-10.94
-1.52
6.24
12.48
17.51
21.63
24.97
27.55
29.33
30.31
30.64
30.53
30.23
29.96
29.85
29.97
30.34
30.98
31.86
32.88
33.84
34.45
34.42
33.58
31.89
29.55
26.88
24.15
21.58
19.17
16.79
14.25
11.40
8.27
5.05
2.01
-0.67
-2.96
-5.04
-7.23
-9.85
-13.06
-16.79
-20.79
-24.76
-28.44
-31.78
-34.91
-38.17
-41.97
-46.67
-52.35
-58.72
-64.99
-70.00
-72.46
-71.37
-66.35
-57.75
-46.62
-34.34
-22.28
-11.51
-2.60
4.39
9.77
14.06
17.79
21.30
24.68
27.87
30.70
33.02
34.79
36.06
36.88
37.34
37.53
37.57
37.65
37.93
38.46
39.15
39.78
40.04
39.68
38.58
36.76
34.40
31.72
29.01
26.40
23.97
21.65
19.27
16.68
13.84
10.84
7.86
5.08
2.58
0.26
-2.12
-4.79
-7.90
-11.42
-15.16
-18.92
-22.50
-25.88
-29.12
-32.43
-36.09
-40.41
-45.69
-52.00
-59.03
-65.92
-71.42
-74.10
-72.89
-67.43
-58.22
-46.50
-33.81
-21.60
-10.85
-2.00
5.00
10.50
14.97
18.83
22.41
25.85
29.10
32.01
34.36
36.04
37.02
37.44
37.48
37.35
37.20
37.18
37.35
37.74
38.28
38.80
39.08
38.89
38.07
36.58
34.56
32.24
29.89
27.68
25.74
24.00
22.33
20.52
18.38
15.81
12.83
9.62
6.41
3.41
0.68
-1.91
-4.62
-7.73
-11.38
-15.45
-19.64
-23.61
-27.18
-30.38
-33.52
-37.01
-41.24
-46.40
-52.39
-58.73
-64.53
-68.67
-69.98
-67.62
-61.39
-51.85
-40.19
-27.91
-16.36
-6.41
1.65
7.96
12.94
17.01
20.48
23.53
26.20
28.47
30.27
31.59
32.44
32.90
33.09
33.17
33.29
33.57
34.07
34.73
35.41
35.88
35.90
35.31
34.07
32.28
30.15
27.91
25.73
23.62
21.53
19.32
16.88
14.18
11.27
8.27
5.26
2.34
-0.56
-3.50
-6.62
-10.00
-13.60
-17.37
-21.13
-24.73
-28.07
-31.19
-34.29
-37.72
-41.85
-46.89
-52.63
-58.35
-62.86
-64.84
-63.26
-57.76
-48.86
-37.77
-26.00
-14.89
-5.26
2.65
9.01
14.13
18.32
21.77
24.60
26.91
28.79
30.33
31.54
32.37
32.81
32.89
32.72
32.50
32.40
32.52
32.87
33.34
33.73
33.83
33.49
32.62
31.25
29.51
27.57
25.56
23.51
21.35
18.96
16.27
13.30
10.16
6.99
3.94
1.09
-1.53
-3.98
-6.36
-8.83
-11.57
-14.67
-18.14
-21.83
-25.52
-28.99
-32.16
-35.16
-38.31
-42.01
-46.62
-52.23
-58.51
-64.62
-69.37
-71.49
-70.03
-64.68
-55.92
-44.89
-33.00
-21.59
-11.56
-3.27
3.35
8.61
12.90
16.54
19.75
22.72
25.54
28.22
30.70
32.80
34.33
35.15
35.29
34.94
34.45
34.17
34.26
34.68
35.16
35.31
34.85
33.64
31.83
29.69
27.54
25.58
23.83
22.15
20.34
18.28
15.94
13.39
10.75
8.13
5.60
3.19
0.87
-1.41
-3.73
-6.26
-9.09
-12.29
-15.75
-19.30
-22.69
-25.74
-28.45
-31.01
-33.85
-37.44
-42.13
-47.88
-54.12
-59.75
-63.42
-63.88
-60.46
-53.29
-43.31
-31.96
-20.70
-10.64
-2.32
4.28
9.47
13.67
17.19
20.20
22.76
24.86
26.50
27.73
28.58
29.10
29.33
29.32
29.17
28.97
28.89
29.05
29.50
30.15
30.75
30.99
30.60
29.47
27.65
25.38
22.95
20.61
18.49
16.55
14.64
12.58
10.23
7.58
4.79
2.04
-0.44
-2.51
-4.20
-5.69
-7.27
-9.20
-11.68
-14.69
-18.10
-21.66
-25.13
-28.34
-31.20
-33.84
-36.54
-39.69
-43.68
-48.68
-54.47
-60.28
-64.95
-67.18
-65.96
-60.94
-52.61
-42.08
-30.79
-20.03
-10.60
-2.76
3.69
9.13
13.92
18.27
22.29
26.00
29.38
32.36
34.82
36.57
37.43
37.41
36.68
35.60
34.57
33.91
33.69
33.79
33.98
33.99
33.69
32.98
31.84
30.27
28.33
26.13
23.88
21.78
19.95
18.32
16.70
14.81
12.48
9.71
6.70
3.75
1.15
-0.94
-2.55
-3.90
-5.32
-7.18
-9.75
-13.10
-17.06
-21.25
-25.22
-28.70
-31.68
-34.39
-37.28
-40.80
-45.29
-50.80
-56.99
-63.13
-68.09
-70.65
-69.78
-65.00
-56.63
-45.69
-33.66
-22.00
-11.80
-3.59
2.67
7.41
11.18
14.49
17.71
21.00
24.29
27.39
30.04
31.98
33.12
33.50
33.32
32.84
32.36
32.04
31.99
32.24
32.74
33.39
34.04
34.47
34.43
33.71
32.25
30.15
27.70
25.23
23.00
21.12
19.49
17.90
16.14
14.09
11.77
9.31
6.90
4.69
2.70
0.82
-1.18
-3.52
-6.36
-9.66
-13.23
-16.80
-20.14
-23.13
-25.85
-28.55
-31.61
-35.40
-40.16
-45.84
-51.93
-57.48
-61.26
-62.15
-59.47
-53.27
-44.34
-33.93
-23.36
-13.63
-5.33
1.40
6.67
10.74
13.90
16.46
18.69
20.80
22.82
24.69
26.23
27.33
28.00
28.33
28.45
28.46
28.46
28.49
28.58
28.77
29.05
29.30
29.30
28.86
27.81
26.15
24.00
21.60
19.16
16.81
14.58
12.44
10.31
8.16
5.94
3.60
1.10
-1.65
-4.67
-7.95
-11.37
-14.75
-17.97
-20.98
-23.83
-26.71
-29.89
-33.62
-38.05
-43.12
-48.40
-53.12
-56.25
-56.80
-54.13
-48.25
-39.83
-30.03
-20.11
-11.07
-3.43
2.75
7.69
11.74
15.17
18.13
20.70
22.84
24.52
25.69
26.38
26.67
26.73
26.73
26.78
26.95
27.26
27.72
28.33
29.04
29.69
30.01
29.75
28.72
26.99
24.82
22.57
20.53
18.74
17.09
15.31
13.19
10.66
7.79
4.80
1.92
-0.67
-2.92
-4.92
-6.86
-8.96
-11.40
-14.21
-17.29
-20.43
-23.41
-26.03
-28.26
-30.25
-32.32
-34.90
-38.36
-42.87
-48.20
-53.70
-58.37
-61.05
-60.79
-57.17
-50.42
-41.42
-31.36
-21.46
-12.62
-5.26
0.62
5.30
9.19
12.65
15.89
19.01
21.94
24.57
26.75
28.35
29.34
29.77
29.78
29.54
29.27
29.10
29.10
29.24
29.43
29.51
29.31
28.68
27.54
25.93
23.97
21.83
19.63
17.47
15.38
13.30
11.19
9.04
6.90
4.86
3.01
1.41
-0.00
-1.39
-2.93
-4.77
-6.97
-9.46
-12.08
-14.66
-17.08
-19.34
-21.56
-23.98
-26.86
-30.37
-34.50
-38.97
-43.15
-46.20
-47.21
-45.49
-40.84
-33.61
-24.75
-15.44
-6.86
0.20
5.44
9.06
11.54
13.40
15.01
16.52
17.90
19.08
20.02
20.72
21.28
21.74
22.12
22.40
22.58
22.70
22.86
23.18
23.70
24.32
24.80
24.77
23.95
22.24
19.82
17.10
14.53
12.42
10.79
9.39
7.88
6.01
3.74
1.30
-1.04
-3.05
-4.75
-6.33
-8.10
-10.31
-13.04
-16.21
-19.58
-22.88
-25.87
-28.50
-30.87
-33.28
-36.15
-39.84
-44.49
-49.82
-55.09
-59.22
-61.07
-59.80
-55.11
-47.46
-37.88
-27.68
-18.15
-10.08
-3.71
1.22
5.22
8.82
12.35
15.94
19.54
23.01
26.17
28.79
30.64
31.59
31.66
31.06
30.14
29.24
28.57
28.16
27.95
27.84
27.75
27.62
27.35
26.80
25.84
24.40
22.59
20.60
18.69
16.98
15.46
14.00
12.42
10.62
8.57
6.36
4.15
2.05
0.14
-1.55
-3.12
-4.71
-6.50
-8.66
-11.28
-14.32
-17.58
-20.81
-23.83
-26.53
-29.03
-31.57
-34.48
-38.04
-42.38
-47.35
-52.47
-56.96
-59.84
-60.23
-57.58
-51.92
-43.88
-34.48
-24.81
-15.77
-7.92
-1.43
3.77
7.90
11.23
14.08
16.72
19.35
22.00
24.53
26.69
28.24
29.06
29.23
29.01
28.69
28.49
28.53
28.75
29.04
29.15
28.88
28.10
26.81
25.19
23.48
21.93
20.62
19.48
18.29
16.88
15.17
13.29
11.41
9.68
8.12
6.62
4.98
3.09
0.91
-1.47
-3.94
-6.40
-8.80
-11.12
-13.37
-15.56
-17.74
-20.06
-22.78
-26.11
-30.17
-34.73
-39.18
-42.61
-44.04
-42.77
-38.64
-32.07
-24.03
-15.61
-7.77
-1.09
4.27
8.43
11.64
14.13
16.14
17.80
19.25
20.51
21.56
22.32
22.73
22.82
22.71
22.59
22.60
22.83
23.23
23.71
24.13
24.36
24.28
23.79
22.88
21.62
20.13
18.57
17.01
15.47
13.87
12.12
10.20
8.13
5.98
3.83
1.71
-0.36
-2.41
-4.46
-6.57
-8.77
-11.09
-13.57
-16.18
-18.85
-21.51
-24.06
-26.50
-28.92
-31.57
-34.73
-38.58
-42.99
-47.39
-50.87
-52.35
-51.04
-46.72
-39.85
-31.46
-22.73
-14.68
-7.87
-2.39
2.02
5.76
9.17
12.45
15.64
18.70
21.46
23.77
25.49
26.57
27.06
27.08
26.79
26.33
25.82
25.39
25.14
25.13
25.33
25.59
25.65
25.27
24.27
22.71
20.78
18.79
16.98
15.47
14.25
13.20
12.20
11.12
9.88
8.43
6.76
4.95
3.04
1.17
-0.61
-2.28
-3.95
-5.76
-7.85
-10.32
-13.11
-16.05
-18.91
-21.50
-23.73
-25.73
-27.73
-30.08
-33.07
-36.81
-41.13
-45.54
-49.31
-51.62
-51.75
-49.28
-44.25
-37.14
-28.84
-20.34
-12.54
-5.97
-0.80
3.17
6.29
8.93
11.34
13.63
15.79
17.78
19.52
20.98
22.11
22.89
23.34
23.50
23.51
23.47
23.46
23.49
23.53
23.53
23.43
23.19
22.76
22.08
21.12
19.90
18.55
17.20
15.92
14.71
13.46
12.05
10.44
8.66
6.81
5.02
3.33
1.78
0.32
-1.08
-2.52
-4.07
-5.80
-7.72
-9.80
-11.94
-14.07
-16.22
-18.43
-20.79
-23.38
-26.21
-29.32
-32.70
-36.29
-39.84
-42.89
-44.71
-44.61
-42.10
-37.19
-30.43
-22.73
-15.11
-8.31
-2.70
1.77
5.38
8.43
11.10
13.44
15.42
17.03
18.32
19.36
20.27
21.05
21.64
21.94
21.88
21.52
21.07
20.79
20.84
21.22
21.66
21.79
21.31
20.13
18.45
16.61
14.98
13.74
12.83
11.98
10.88
9.32
7.27
4.91
2.50
0.29
-1.60
-3.21
-4.69
-6.23
-8.00
-10.06
-12.38
-14.90
-17.56
-20.34
-23.28
-26.41
-29.80
-33.49
-37.48
-41.58
-45.42
-48.36
-49.66
-48.65
-45.02
-38.96
-31.17
-22.69
-14.54
-7.49
-1.88
2.34
5.53
8.10
10.39
12.60
14.75
16.76
18.49
19.86
20.83
21.45
21.87
22.21
22.58
23.03
23.61
24.30
25.07
25.84
26.50
26.88
26.83
26.25
25.17
23.66
21.90
20.05
18.23
16.51
14.88
13.29
11.67
9.95
8.11
6.14
4.12
2.17
0.40
-1.14
-2.51
-3.91
-5.56
-7.67
-10.29
-13.33
-16.55
-19.68
-22.53
-25.06
-27.36
-29.66
-32.25
-35.38
-39.23
-43.81
-48.85
-53.75
-57.59
-59.37
-58.25
-53.88
-46.63
-37.49
-27.78
-18.70
-11.03
-4.92
-0.09
3.90
7.44
10.68
13.63
16.26
18.56
20.57
22.32
23.78
24.88
25.58
25.88
25.93
25.95
26.18
26.72
27.53
28.44
29.24
29.68
29.62
29.01
27.84
26.22
24.30
22.34
20.56
19.14
18.17
17.50
16.85
15.92
14.47
12.49
10.12
7.64
5.27
3.11
1.11
-0.89
-3.06
-5.51
-8.25
-11.24
-14.40
-17.59
-20.70
-23.59
-26.22
-28.63
-31.05
-33.80
-37.21
-41.45
-46.38
-51.46
-55.80
-58.37
-58.27
-55.08
-48.95
-40.62
-31.16
-21.72
-13.16
-5.97
-0.23
4.27
7.86
10.87
13.56
16.10
18.57
20.96
23.18
25.15
26.75
27.93
28.69
29.09
29.23
29.27
29.39
29.70
30.22
30.79
31.14
30.96
30.10
28.61
26.74
24.84
23.21
21.91
20.75
19.42
17.63
15.28
12.55
9.84
7.54
5.89
4.82
4.01
2.99
1.40
-0.91
-3.81
-6.98
-10.04
-12.77
-15.13
-17.29
-19.55
-22.27
-25.75
-30.08
-35.06
-40.08
-44.24
-46.52
-46.08
-42.64
-36.48
-28.45
-19.68
-11.19
-3.72
2.40
7.18
10.81
13.53
15.61
17.22
18.53
19.58
20.40
20.97
21.31
21.53
21.76
22.16
22.80
23.66
24.63
25.57
26.38
26.97
27.28
27.21
26.65
25.53
23.90
21.93
19.85
17.90
16.18
14.60
12.97
11.10
8.91
6.52
4.17
2.09
0.38
-1.05
-2.47
-4.19
-6.46
-9.32
-12.62
-16.06
-19.33
-22.22
-24.72
-26.98
-29.33
-32.11
-35.68
-40.24
-45.64
-51.39
-56.60
-60.21
-61.21
-58.99
-53.54
-45.51
-35.97
-26.11
-16.93
-9.03
-2.60
2.48
6.49
9.81
12.80
15.75
18.82
21.99
25.06
27.70
29.61
30.59
30.70
30.17
29.37
28.69
28.41
28.66
29.36
30.26
31.05
31.44
31.23
30.36
28.90
27.02
24.90
22.73
20.64
18.73
17.01
15.48
14.07
12.68
11.21
9.54
7.60
5.43
3.13
0.86
-1.26
-3.23
-5.20
-7.43
-10.18
-13.52
-17.29
-21.14
-24.68
-27.68
-30.15
-32.44
-35.09
-38.60
-43.26
-48.89
-54.80
-59.88
-62.95
-63.07
-59.91
-53.79
-45.64
-36.63
-27.86
-20.14
-13.80
-8.83
-4.82
-1.17
2.75
7.43
13.03
19.32
25.76
31.69
36.57
40.12
42.33
43.41
43.67
43.41
42.85
42.16
41.45
40.70
39.83
38.69
37.14
35.11
32.66
29.96
27.25
24.73
22.52
20.61
18.86
17.09
15.19
13.12
10.93
8.73
6.60
4.54
2.50
0.39
-1.92
-4.48
-7.26
-10.16
-12.98
-15.57
-17.89
-20.09
-22.46
-25.37
-29.08
-33.59
-38.58
-43.35
-47.05
-48.79
-47.93
-44.29
-38.18
-30.35
-21.73
-13.25
-5.59
0.84
5.92
9.71
12.42
14.28
15.60
16.61
17.51
18.34
19.13
19.81
20.35
20.79
21.19
21.62
22.10
22.61
23.15
23.68
24.17
24.56
24.73
24.55
23.88
22.72
21.15
19.37
17.59
15.95
14.44
12.91
11.20
9.15
6.83
4.36
1.97
-0.18
-2.03
-3.70
-5.39
-7.37
-9.82
-12.81
-16.24
-19.85
-23.31
-26.33
-28.81
-30.97
-33.25
-36.21
-40.21
-45.19
-50.57
-55.34
-58.40
-58.81
-56.19
-50.71
-43.08
-34.29
-25.33
-17.01
-9.76
-3.70
1.32
5.55
9.24
12.60
15.74
18.70
21.43
23.89
25.95
27.54
28.61
29.26
29.67
30.07
30.61
31.32
32.11
32.82
33.35
33.63
33.61
33.25
32.46
31.17
29.38
27.22
24.95
22.85
21.08
19.67
18.48
17.25
15.75
13.86
11.63
9.25
6.92
4.85
3.12
1.63
0.16
-1.59
-3.85
-6.72
-10.13
-13.79
-17.42
-20.72
-23.59
-26.14
-28.64
-31.47
-34.99
-39.41
-44.62
-50.12
-55.04
-58.32
-59.02
-56.59
-51.12
-43.28
-34.15
-24.88
-16.36
-9.08
-3.08
1.88
6.17
10.10
13.83
17.36
20.59
23.38
25.69
27.47
28.77
29.64
30.11
30.25
30.17
30.07
30.13
30.49
31.15
31.88
32.38
32.33
31.55
30.08
28.13
26.01
23.98
22.18
20.60
19.15
17.69
16.12
14.42
12.61
10.74
8.85
6.93
4.99
3.00
0.91
-1.27
-3.54
-5.94
-8.47
-11.17
-14.02
-16.97
-19.93
-22.84
-25.70
-28.59
-31.72
-35.28
-39.35
-43.67
-47.64
-50.34
-50.86
-48.60
-43.52
-36.21
-27.66
-18.97
-10.97
-4.12
1.49
6.00
9.62
12.55
14.97
17.00
18.74
20.21
21.31
21.99
22.23
22.17
22.04
22.09
22.46
23.12
23.92
24.68
25.29
25.70
25.86
25.72
25.20
24.21
22.71
20.81
18.67
16.49
14.36
12.33
10.36
8.42
6.53
4.71
2.95
1.13
-0.86
-3.18
-5.81
-8.64
-11.48
-14.17
-16.65
-19.00
-21.45
-24.27
-27.73
-31.87
-36.48
-40.96
-44.46
-46.03
-44.91
-40.88
-34.29
-26.05
-17.28
-9.06
-2.07
3.41
7.52
10.59
13.02
15.11
17.04
18.80
20.32
21.54
22.44
23.09
23.62
24.08
24.52
24.90
25.15
25.26
25.24
25.13
24.97
24.76
24.46
23.99
23.25
22.16
20.73
19.06
17.31
15.68
14.25
12.95
11.58
9.93
7.93
5.70
3.50
1.58
0.02
-1.31
-2.70
-4.45
-6.69
-9.40
-12.40
-15.43
-18.28
-20.85
-23.17
-25.39
-27.74
-30.50
-33.91
-38.06
-42.73
-47.40
-51.24
-53.36
-53.01
-49.85
-44.09
-36.40
-27.80
-19.29
-11.66
-5.36
-0.45
3.30
6.31
8.98
11.63
14.40
17.24
19.94
22.28
24.08
25.25
25.86
26.09
26.11
26.09
26.13
26.25
26.42
26.55
26.55
26.30
25.76
24.90
23.78
22.53
21.26
20.06
18.98
17.96
16.89
15.69
14.32
12.79
11.14
9.43
7.67
5.88
4.10
2.39
0.81
-0.66
-2.13
-3.80
-5.85
-8.36
-11.28
-14.39
-17.47
-20.29
-22.80
-25.03
-27.18
-29.47
-32.21
-35.60
-39.71
-44.26
-48.65
-51.92
-53.13
-51.55
-47.03
-40.07
-31.62
-22.85
-14.72
-7.80
-2.19
2.29
5.95
9.07
11.83
14.35
16.69
18.83
20.72
22.25
23.31
23.88
24.06
24.04
24.06
24.32
24.90
25.72
26.61
27.28
27.46
26.93
25.63
23.66
21.32
18.98
17.00
15.53
14.53
13.70
12.70
11.26
9.34
7.10
4.82
2.73
0.90
-0.77
-2.49
-4.43
-6.62
-8.96
-11.27
-13.36
-15.17
-16.77
-18.33
-20.07
-22.20
-24.87
-28.07
-31.63
-35.10
-37.80
-38.94
-37.88
-34.34
-28.61
-21.47
-13.93
-6.94
-1.07
3.59
7.21
10.09
12.41
14.22
15.51
16.31
16.75
16.99
17.12
17.20
17.18
17.08
16.94
16.87
17.00
17.39
18.00
18.75
19.41
19.80
19.73
19.12
17.99
16.47
14.78
13.12
11.60
10.24
9.01
7.80
6.52
5.09
3.43
1.55
-0.50
-2.57
-4.47
-6.11
-7.54
-9.00
-10.80
-13.18
-16.09
-19.25
-22.21
-24.60
-26.37
-27.80
-29.44
-31.88
-35.46
-40.15
-45.46
-50.54
-54.40
-56.08
-54.94
-50.81
-44.05
-35.51
-26.30
-17.53
-9.98
-4.02
0.46
3.85
6.67
9.35
12.13
15.05
17.99
20.75
23.12
24.92
26.04
26.51
26.39
25.90
25.26
24.72
24.45
24.50
24.82
25.23
25.53
25.58
25.27
24.58
23.52
22.12
20.46
18.64
16.83
15.18
13.80
12.65
11.57
10.38
8.92
7.18
5.28
3.37
1.59
-0.06
-1.68
-3.46
-5.53
-7.92
-10.55
-13.27
-15.92
-18.44
-20.82
-23.12
-25.42
-27.84
-30.57
-33.85
-37.86
-42.58
-47.61
-52.14
-55.10
-55.53
-52.89
-47.31
-39.59
-30.88
-22.36
-14.83
-8.67
-3.81
0.06
3.31
6.26
9.14
12.05
14.99
17.80
20.30
22.28
23.61
24.30
24.51
24.45
24.36
24.46
24.88
25.64
26.62
27.56
28.16
28.17
27.50
26.24
24.59
22.76
20.85
18.87
16.80
14.66
12.61
10.75
9.18
7.82
6.45
4.84
2.79
0.24
-2.68
-5.79
-8.86
-11.72
-14.29
-16.59
-18.73
-20.90
-23.32
-26.25
-29.84
-34.07
-38.64
-42.91
-46.04
-47.14
-45.62
-41.36
-34.79
-26.76
-18.30
-10.34
-3.46
2.11
6.51
10.04
13.05
15.74
18.21
20.41
22.25
23.65
24.59
25.12
25.32
25.35
25.32
25.35
25.51
25.86
26.33
26.84
27.26
27.42
27.17
26.42
25.17
23.50
21.62
19.75
18.07
16.67
15.45
14.24
12.85
11.16
9.18
7.03
4.84
2.76
0.81
-1.03
-2.86
-4.82
-7.02
-9.55
-12.42
-15.58
-18.90
-22.26
-25.57
-28.82
-32.13
-35.69
-39.72
-44.37
-49.53
-54.78
-59.33
-62.23
-62.56
-59.74
-53.81
-45.41
-35.64
-25.74
-16.77
-9.31
-3.47
1.12
4.96
8.60
12.31
16.15
19.93
23.34
26.13
28.16
29.43
30.07
30.25
30.18
30.05
30.05
30.28
30.78
31.44
32.05
32.39
32.28
31.68
30.63
29.25
27.65
25.90
24.03
22.10
20.19
18.38
16.71
15.13
13.52
11.71
9.56
7.06
4.32
1.54
-1.09
-3.45
-5.56
-7.46
-9.25
-10.98
-12.67
-14.33
-15.95
-17.58
-19.23
-20.91
-22.63
-24.47
-26.59
-29.28
-32.84
-37.38
-42.70
-48.11
-52.54
-54.81
-54.01
-49.85
-42.77
-33.84
-24.33
-15.38
-7.71
-1.52
3.27
6.98
9.93
12.43
14.77
17.17
19.74
22.39
24.86
26.86
28.17
28.82
29.04
29.14
29.35
29.73
30.23
30.75
31.18
31.43
31.38
30.89
29.84
28.22
26.20
24.05
22.01
20.22
18.63
17.05
15.31
13.34
11.22
9.13
7.17
5.37
3.64
1.81
-0.22
-2.49
-4.97
-7.56
-10.14
-12.57
-14.76
-16.66
-18.37
-20.18
-22.52
-25.81
-30.21
-35.40
-40.57
-44.60
-46.36
-45.20
-41.04
-34.42
-26.26
-17.58
-9.28
-2.01
3.83
8.17
11.13
13.07
14.44
15.64
16.89
18.19
19.40
20.34
20.94
21.25
21.43
21.60
21.85
22.23
22.79
23.58
24.55
25.55
26.30
26.46
25.80
24.30
22.16
19.76
17.48
15.58
14.15
13.10
12.21
11.21
9.85
8.02
5.77
3.27
0.76
-1.58
-3.71
-5.75
-7.90
-10.34
-13.14
-16.21
-19.38
-22.45
-25.33
-28.02
-30.65
-33.47
-36.72
-40.65
-45.31
-50.45
-55.48
-59.44
-61.28
-60.16
-55.79
-48.55
-39.41
-29.58
-20.16
-11.87
-4.97
0.59
5.07
8.76
11.98
14.97
17.91
20.86
23.71
26.24
28.21
29.49
30.12
30.30
30.32
30.43
30.78
31.36
32.06
32.68
33.00
32.88
32.27
31.20
29.80
28.22
26.59
24.99
23.47
22.05
20.73
19.46
18.14
16.63
14.81
12.63
10.20
7.67
5.30
3.21
1.39
-0.32
-2.14
-4.33
-6.98
-10.06
-13.37
-16.66
-19.71
-22.39
-24.76
-26.99
-29.38
-32.24
-35.87
-40.41
-45.74
-51.35
-56.33
-59.57
-60.04
-57.13
-50.99
-42.42
-32.65
-22.94
-14.20
-6.86
-0.96
3.74
7.52
10.66
13.42
15.99
18.48
20.93
23.25
25.30
26.97
28.19
28.95
29.31
29.34
29.13
28.79
28.43
28.11
27.82
27.47
26.94
26.14
25.07
23.83
22.49
21.05
19.44
17.55
15.38
13.01
10.62
8.41
6.47
4.73
3.08
1.30
-0.69
-2.92
-5.30
-7.69
-9.98
-12.11
-14.14
-16.21
-18.55
-21.43
-25.03
-29.34
-33.99
-38.36
-41.54
-42.67
-41.14
-36.87
-30.31
-22.31
-13.95
-6.15
0.45
5.60
9.42
12.26
14.49
16.38
18.05
19.43
20.44
21.08
21.44
21.67
21.89
22.11
22.25
22.25
22.16
22.13
22.33
22.79
23.32
23.63
23.39
22.51
21.08
19.39
17.74
16.23
14.80
13.24
11.35
9.08
6.55
4.01
1.69
-0.28
-1.95
-3.47
-5.05
-6.86
-9.00
-11.45
-14.16
-16.99
-19.81
-22.51
-25.04
-27.50
-30.14
-33.30
-37.28
-42.11
-47.43
-52.46
-56.17
-57.53
-55.92
-51.25
-44.06
-35.30
-26.04
-17.24
-9.50
-3.08
2.05
6.11
9.43
12.31
15.03
17.71
20.32
22.76
24.89
26.60
27.85
28.65
29.03
29.06
28.84
28.51
28.23
28.14
28.24
28.45
28.56
28.32
27.56
26.26
24.54
22.60
20.66
18.82
17.14
15.55
13.94
12.22
10.32
8.23
5.99
3.71
1.53
-0.43
-2.09
-3.58
-5.10
-6.95
-9.35
-12.28
-15.55
-18.78
-21.64
-24.00
-26.00
-27.98
-30.38
-33.54
-37.56
-42.27
-47.18
-51.50
-54.32
-54.75
-52.29
-46.93
-39.29
-30.43
-21.54
-13.58
-7.02
-1.88
2.18
5.59
8.71
11.75
14.75
17.64
20.30
22.57
24.31
25.38
25.73
25.42
24.59
23.54
22.60
22.06
22.05
22.52
23.23
23.85
24.08
23.74
22.79
21.30
19.36
17.08
14.64
12.22
10.02
8.18
6.67
5.34
3.90
2.10
-0.19
-2.92
-5.90
-8.88
-11.65
-14.13
-16.34
-18.46
-20.74
-23.47
-26.89
-31.05
-35.70
-40.23
-43.80
-45.51
-44.72
-41.20
-35.34
-27.92
-19.88
-12.09
-5.14
0.72
5.47
9.22
12.16
14.42
16.17
17.58
18.82
19.99
21.11
22.09
22.80
23.14
23.13
22.87
22.55
22.34
22.32
22.47
22.70
22.88
22.88
22.55
21.76
20.42
18.52
16.17
13.58
11.02
8.68
6.61
4.74
2.92
1.04
-0.93
-2.96
-5.02
-7.08
-9.23
-11.52
-13.99
-16.62
-19.31
-21.99
-24.65
-27.42
-30.55
-34.34
-38.94
-44.18
-49.50
-53.91
-56.31
-55.79
-52.03
-45.36
-36.74
-27.43
-18.56
-10.90
-4.78
-0.07
3.57
6.62
9.53
12.61
15.98
19.52
22.94
25.89
28.06
29.34
29.80
29.69
29.28
28.80
28.45
28.31
28.39
28.63
28.89
28.95
28.60
27.73
26.36
24.68
22.91
21.22
19.64
18.04
16.22
14.03
11.47
8.70
5.94
3.41
1.23
-0.65
-2.37
-4.15
-6.16
-8.47
-11.04
-13.74
-16.43
-19.03
-21.57
-24.20
-27.15
-30.65
-34.80
-39.48
-44.26
-48.41
-51.05
-51.35
-48.85
-43.62
-36.31
-27.94
-19.54
-11.89
-5.36
0.11
4.75
8.86
12.64
16.18
19.47
22.45
25.02
27.04
28.38
28.95
28.78
28.02
26.97
25.94
25.16
24.76
24.75
25.04
25.45
25.78
25.80
25.29
24.11
22.31
20.08
17.71
15.41
13.26
11.11
8.69
5.81
2.42
-1.27
-4.90
-8.13
-10.78
-12.88
-14.71
-16.63
-18.97
-21.99
-25.74
-30.09
-34.68
-38.93
-42.14
-43.56
-42.66
-39.22
-33.49
-26.19
-18.26
-10.70
-4.21
0.94
4.91
8.14
11.06
13.89
16.58
18.88
20.53
21.39
21.54
21.20
20.63
20.08
19.67
19.43
19.33
19.30
19.25
19.07
18.66
17.96
16.93
15.59
13.93
11.97
9.69
7.07
4.19
1.15
-1.84
-4.63
-7.11
-9.31
-11.39
-13.61
-16.23
-19.47
-23.43
-27.98
-32.72
-37.03
-40.12
-41.20
-39.76
-35.71
-29.46
-21.84
-13.87
-6.47
-0.24
4.68
8.49
11.60
14.39
17.07
19.61
21.81
23.49
24.56
25.08
25.23
25.14
24.89
24.49
23.95
23.34
22.76
22.34
22.09
21.94
21.66
20.98
19.69
17.73
15.24
12.49
9.81
7.47
5.56
3.98
2.45
0.64
-1.68
-4.53
-7.75
-11.05
-14.17
-16.97
-19.48
-21.93
-24.61
-27.85
-31.86
-36.64
-41.83
-46.73
-50.37
-51.78
-50.32
-45.89
-39.03
-30.69
-21.96
-13.71
-6.48
-0.45
4.45
8.46
11.85
14.95
18.04
21.28
24.58
27.67
30.14
31.69
32.20
31.80
30.81
29.62
28.55
27.83
27.55
27.67
28.09
28.60
28.96
28.96
28.43
27.37
25.90
24.20
22.53
21.06
19.85
18.84
17.85
16.69
15.19
13.28
11.00
8.48
5.86
3.31
0.95
-1.11
-2.88
-4.47
-6.07
-7.89
-10.10
-12.68
-15.51
-18.35
-21.01
-23.42
-25.64
-27.89
-30.42
-33.49
-37.24
-41.61
-46.28
-50.60
-53.76
-54.89
-53.40
-49.17
-42.60
-34.55
-26.07
-18.09
-11.19
-5.57
-1.06
2.63
5.86
8.91
11.98
15.18
18.52
21.84
24.86
27.24
28.70
29.13
28.71
27.79
26.76
25.94
25.47
25.29
25.25
25.17
24.88
24.30
23.41
22.23
20.82
19.16
17.27
15.19
13.01
10.87
8.91
7.16
5.56
3.91
2.00
-0.31
-3.02
-6.03
-9.13
-12.08
-14.70
-16.94
-18.86
-20.68
-22.69
-25.18
-28.32
-32.05
-36.03
-39.62
-42.08
-42.67
-40.94
-36.83
-30.75
-23.43
-15.78
-8.56
-2.35
2.61
6.36
9.15
11.38
13.45
15.65
18.03
20.41
22.40
23.63
23.96
23.53
22.69
21.87
21.37
21.26
21.46
21.76
22.03
22.20
22.20
21.91
21.15
19.78
17.72
15.12
12.27
9.51
7.12
5.18
3.63
2.24
0.82
-0.79
-2.65
-4.74
-7.02
-9.43
-11.89
-14.35
-16.74
-19.05
-21.32
-23.66
-26.25
-29.31
-33.01
-37.36
-42.05
-46.45
-49.64
-50.72
-49.03
-44.51
-37.65
-29.41
-20.91
-13.06
-6.40
-1.03
3.28
6.89
10.14
13.29
16.43
19.53
22.45
24.97
26.90
28.13
28.67
28.70
28.42
28.03
27.70
27.47
27.37
27.35
27.35
27.28
27.03
26.47
25.52
24.20
22.59
20.83
19.03
17.26
15.54
13.90
12.37
10.97
9.66
8.35
6.92
5.26
3.43
1.53
-0.26
-1.86
-3.34
-4.92
-6.84
-9.22
-12.00
-14.92
-17.66
-20.03
-22.00
-23.77
-25.68
-28.07
-31.16
-35.05
-39.60
-44.44
-48.93
-52.30
-53.70
-52.52
-48.56
-42.13
-34.04
-25.32
-16.97
-9.69
-3.75
0.94
4.68
7.82
10.63
13.28
15.84
18.32
20.68
22.83
24.63
25.91
26.56
26.58
26.12
25.49
25.03
24.99
25.39
26.03
26.52
26.52
25.83
24.51
22.79
20.96
19.23
17.68
16.29
14.99
13.72
12.44
11.08
9.56
7.80
5.79
3.62
1.39
-0.79
-2.96
-5.23
-7.71
-10.44
-13.27
-15.96
-18.24
-20.00
-21.34
-22.57
-24.14
-26.49
-29.88
-34.28
-39.25
-44.03
-47.61
-49.07
-47.80
-43.76
-37.43
-29.65
-21.40
-13.49
-6.45
-0.56
4.17
7.85
10.70
12.93
14.78
16.33
17.62
18.59
19.16
19.35
19.31
19.22
19.26
19.52
19.95
20.40
20.75
20.88
20.77
20.44
19.96
19.34
18.57
17.61
16.37
14.79
12.84
10.56
8.06
5.48
2.95
0.57
-1.63
-3.72
-5.76
-7.85
-10.01
-12.18
-14.31
-16.34
-18.30
-20.26
-22.34
-24.69
-27.45
-30.75
-34.64
-38.97
-43.35
-47.11
-49.43
-49.51
-46.89
-41.59
-34.14
-25.49
-16.66
-8.58
-1.83
3.44
7.41
10.48
13.14
15.72
18.39
21.11
23.66
25.81
27.38
28.32
28.71
28.70
28.47
28.20
28.01
27.99
28.15
28.40
28.57
28.45
27.81
26.60
24.91
22.98
21.09
19.39
17.84
16.24
14.38
12.14
9.59
6.99
4.59
2.48
0.52
-1.56
-4.08
-7.18
-10.75
-14.45
-17.93
-20.92
-23.40
-25.58
-27.82
-30.51
-33.94
-38.19
-43.02
-47.86
-51.83
-53.99
-53.55
-50.17
-44.01
-35.79
-26.50
-17.18
-8.66
-1.42
4.43
9.06
12.83
16.07
19.05
21.88
24.49
26.75
28.52
29.74
30.44
30.68
30.50
29.95
29.10
28.07
27.04
26.22
25.68
25.31
24.83
23.84
22.04
19.38
16.05
12.49
9.14
6.33
4.09
2.25
0.45
-1.64
-4.22
-7.28
-10.63
-14.00
-17.17
-20.04
-22.69
-25.30
-28.16
-31.58
-35.78
-40.77
-46.26
-51.56
-55.68
-57.59
-56.51
-52.20
-45.08
-36.14
-26.56
-17.42
-9.44
-2.88
2.35
6.49
9.83
12.55
14.76
16.43
17.49
17.96
17.93
17.71
17.67
18.21
19.52
21.51
23.87
26.22
28.26
29.91
31.18
32.08
32.49
32.15
30.84
28.49
25.31
21.66
17.96
14.45
11.13
7.83
4.27
0.23
-4.43
-9.68
-15.39
-21.22
-26.64
-30.98
-33.51
-33.66
-31.19
-26.29
-19.53
-11.76
-3.85
3.47
9.71
14.61
18.12
20.31
21.37
21.52
20.99
19.96
18.53
16.76
14.67
12.34
9.90
7.55
5.47
3.71
2.24
0.96
-0.33
-1.75
-3.44
-5.51
-8.00
-10.97
-14.36
-18.05
-21.82
-25.42
-28.71
-31.73
-34.79
-38.31
-42.71
-48.01
-53.76
-58.99
-62.44
-63.01
-60.08
-53.79
-44.96
-34.79
-24.53
-15.09
-6.94
-0.12
5.62
10.56
14.90
18.67
21.78
24.11
25.60
26.33
26.46
26.29
26.07
25.99
26.11
26.40
26.77
27.14
27.47
27.70
27.74
27.42
26.49
24.75
22.14
18.75
14.86
10.78
6.75
2.90
-0.77
-4.31
-7.84
-11.56
-15.75
-20.70
-26.57
-33.23
-40.05
-46.04
-50.02
-50.97
-48.43
-42.59
-34.30
-24.76
-15.13
-6.27
1.42
7.94
13.53
18.48
22.99
27.18
31.06
34.54
37.51
39.81
41.34
42.08
42.16
41.80
41.29
40.86
40.63
40.61
40.73
40.84
40.84
40.58
39.98
38.96
37.45
35.41
32.85
29.88
26.65
23.37
20.23
17.34
14.69
12.15
9.52
6.58
3.20
-0.61
-4.73
-8.93
-12.98
-16.74
-20.25
-23.67
-27.31
-31.47
-36.40
-42.09
-48.20
-53.95
-58.30
-60.10
-58.53
-53.40
-45.21
-35.11
-24.48
-14.50
-5.89
1.16
6.86
11.59
15.68
19.42
22.94
26.28
29.33
31.95
33.95
35.22
35.73
35.60
35.00
34.12
33.18
32.35
31.78
31.53
31.58
31.72
31.60
30.87
29.27
26.80
23.68
20.28
16.93
13.83
10.95
8.16
5.28
2.27
-0.84
-3.91
-6.85
-9.60
-12.18
-14.70
-17.32
-20.28
-23.84
-28.15
-33.08
-38.10
-42.25
-44.43
-43.75
-39.94
-33.47
-25.40
-16.96
-9.09
-2.25
3.55
8.56
12.97
16.83
20.08
22.66
24.60
26.01
26.96
27.53
27.68
27.43
26.87
26.15
25.45
24.89
24.47
24.13
23.70
22.99
21.84
20.18
18.04
15.55
12.89
10.25
7.70
5.18
2.60
-0.18
-3.16
-6.22
-9.17
-11.83
-14.11
-16.10
-18.01
-20.15
-22.80
-26.17
-30.29
-34.91
-39.51
-43.28
-45.32
-44.88
-41.68
-35.97
-28.58
-20.59
-13.02
-6.54
-1.37
2.70
6.07
9.13
12.13
15.10
17.90
20.30
22.11
23.22
23.65
23.58
23.23
22.84
22.58
22.53
22.66
22.91
23.18
23.33
23.27
22.87
22.05
20.78
19.11
17.19
15.23
13.44
11.92
10.64
9.42
8.09
6.52
4.70
2.77
0.84
-1.00
-2.79
-4.67
-6.76
-9.14
-11.74
-14.39
-16.93
-19.20
-21.23
-23.13
-25.08
-27.28
-29.92
-33.12
-36.85
-40.83
-44.48
-47.00
-47.58
-45.66
-41.17
-34.59
-26.83
-18.91
-11.67
-5.55
-0.64
3.23
6.32
8.91
11.22
13.43
15.64
17.83
19.89
21.62
22.86
23.57
23.82
23.77
23.61
23.41
23.18
22.91
22.60
22.27
21.95
21.57
20.99
20.07
18.73
17.04
15.19
13.39
11.79
10.39
9.05
7.65
6.11
4.44
2.73
1.05
-0.55
-2.06
-3.53
-4.98
-6.42
-7.89
-9.42
-11.08
-12.85
-14.69
-16.44
-17.98
-19.21
-20.26
-21.37
-22.87
-25.05
-27.98
-31.49
-35.07
-38.03
-39.60
-39.19
-36.54
-31.82
-25.64
-18.83
-12.24
-6.50
-1.92
1.52
4.02
5.91
7.47
8.93
10.45
12.08
13.75
15.31
16.53
17.26
17.47
17.25
16.84
16.45
16.19
16.07
16.00
15.87
15.63
15.29
14.86
14.28
13.47
12.35
10.93
9.37
7.86
6.56
5.48
4.49
3.41
2.10
0.56
-1.14
-2.91
-4.69
-6.48
-8.28
-10.09
-11.83
-13.45
-14.90
-16.27
-17.70
-19.42
-21.58
-24.22
-27.13
-29.86
-31.76
-32.18
-30.64
-27.12
-22.04
-16.15
-10.31
-5.21
-1.21
1.71
3.78
5.30
6.51
7.55
8.46
9.22
9.83
10.22
10.36
10.26
9.97
9.64
9.42
9.40
9.63
10.01
10.41
10.73
10.92
10.96
10.85
10.49
9.80
8.71
7.25
5.55
3.85
2.34
1.14
0.20
-0.62
-1.48
-2.54
-3.90
-5.57
-7.51
-9.59
-11.67
-13.58
-15.22
-16.58
-17.82
-19.17
-20.97
-23.44
-26.67
-30.48
-34.41
-37.74
-39.71
-39.71
-37.48
-33.19
-27.40
-20.91
-14.45
-8.57
-3.60
0.41
3.53
5.92
7.78
9.29
10.63
11.87
13.07
14.17
15.11
15.78
16.14
16.19
16.02
15.76
15.58
15.59
15.76
15.99
16.08
15.88
15.29
14.40
13.35
12.30
11.36
10.54
9.78
8.97
8.02
6.88
5.52
3.93
2.17
0.36
-1.33
-2.76
-3.89
-4.80
-5.71
-6.83
-8.31
-10.15
-12.22
-14.31
-16.29
-18.12
-19.88
-21.80
-24.08
-26.93
-30.34
-34.08
-37.62
-40.22
-41.12
-39.81
-36.24
-30.80
-24.25
-17.46
-11.11
-5.63
-1.12
2.51
5.42
7.80
9.82
11.57
13.15
14.55
15.70
16.51
16.97
17.11
17.06
17.02
17.11
17.36
17.70
18.04
18.28
18.37
18.30
18.02
17.50
16.68
15.53
14.08
12.38
10.55
8.70
6.95
5.35
3.86
2.43
0.91
-0.78
-2.64
-4.63
-6.62
-8.55
-10.40
-12.25
-14.17
-16.23
-18.49
-20.99
-23.82
-27.12
-30.89
-34.93
-38.71
-41.44
-42.32
-40.79
-36.78
-30.74
-23.55
-16.17
-9.41
-3.70
0.89
4.58
7.62
10.19
12.32
13.95
15.03
15.62
15.91
16.15
16.56
17.21
18.03
18.86
19.58
20.16
20.65
21.08
21.43
21.59
21.39
20.71
19.54
17.92
15.97
13.75
11.32
8.77
6.26
3.96
2.01
0.43
-0.94
-2.35
-4.01
-6.01
-8.31
-10.79
-13.36
-15.96
-18.57
-21.18
-23.80
-26.52
-29.55
-33.13
-37.41
-42.24
-47.00
-50.75
-52.49
-51.48
-47.55
-41.14
-33.16
-24.66
-16.55
-9.43
-3.55
1.12
4.79
7.73
10.23
12.56
14.86
17.16
19.34
21.21
22.66
23.67
24.35
24.88
25.41
26.02
26.70
27.42
28.13
28.78
29.26
29.42
29.09
28.18
26.73
24.91
22.96
21.12
19.48
18.01
16.60
15.05
13.25
11.13
8.72
6.02
3.07
-0.14
-3.63
-7.34
-11.15
-14.89
-18.40
-21.62
-24.65
-27.73
-31.21
-35.39
-40.40
-46.01
-51.61
-56.30
-59.03
-58.96
-55.72
-49.55
-41.27
-31.96
-22.69
-14.24
-6.98
-0.94
4.06
8.27
11.91
15.16
18.16
20.94
23.40
25.40
26.76
27.44
27.52
27.27
26.95
26.79
26.86
27.13
27.50
27.88
28.20
28.37
28.25
27.69
26.60
24.96
22.91
20.67
18.45
16.34
14.31
12.20
9.85
7.13
3.99
0.55
-3.01
-6.41
-9.40
-11.83
-13.75
-15.46
-17.45
-20.20
-24.04
-28.97
-34.66
-40.48
-45.61
-49.13
-50.23
-48.37
-43.44
-35.90
-26.71
-17.04
-8.00
-0.32
5.77
10.41
13.94
16.66
18.78
20.35
21.43
22.07
22.36
22.45
22.48
22.60
22.90
23.44
24.16
24.97
25.71
26.27
26.58
26.65
26.43
25.88
24.94
23.53
21.64
19.37
16.85
14.24
11.70
9.26
6.89
4.46
1.78
-1.29
-4.84
-8.79
-12.89
-16.87
-20.45
-23.53
-26.27
-29.01
-32.22
-36.27
-41.36
-47.27
-53.39
-58.78
-62.28
-62.89
-60.02
-53.70
-44.67
-34.10
-23.32
-13.37
-4.88
2.05
7.67
12.34
16.41
20.02
23.25
26.06
28.38
30.18
31.45
32.24
32.65
32.82
32.93
33.17
33.66
34.41
35.29
36.04
36.35
36.01
34.94
33.24
31.13
28.82
26.48
24.15
21.82
19.39
16.79
14.00
11.08
8.13
5.25
2.49
-0.22
-3.00
-5.98
-9.22
-12.72
-16.37
-20.08
-23.80
-27.55
-31.42
-35.61
-40.37
-45.90
-52.26
-59.14
-65.78
-71.02
-73.59
-72.55
-67.67
-59.52
-49.25
-38.24
-27.58
-17.83
-9.05
-1.01
6.54
13.65
20.17
25.89
30.63
34.37
37.18
39.20
40.50
41.16
41.28
41.04
40.70
40.58
40.88
41.67
42.73
43.74
44.28
44.05
42.95
41.10
38.78
36.34
34.03
31.94
29.99
27.98
25.71
23.05
20.00
16.69
13.31
10.02
6.90
3.89
0.85
-2.43
-6.11
-10.24
-14.69
-19.22
-23.54
-27.49
-31.12
-34.77
-38.88
-43.94
-50.13
-57.13
-64.08
-69.62
-72.29
-70.96
-65.27
-55.73
-43.65
-30.67
-18.28
-7.42
1.58
8.89
14.86
19.82
23.99
27.53
30.53
33.07
35.17
36.79
37.93
38.61
38.94
39.05
39.11
39.19
39.30
39.42
39.51
39.54
39.43
39.07
38.22
36.68
34.33
31.27
27.78
24.23
20.97
18.15
15.70
13.35
10.78
7.75
4.19
0.24
-3.84
-7.78
-11.37
-14.56
-17.46
-20.33
-23.53
-27.43
-32.33
-38.30
-45.12
-52.11
-58.21
-62.13
-62.69
-59.20
-51.77
-41.26
-29.08
-16.72
-5.39
4.20
11.92
17.97
22.72
26.53
29.63
32.10
33.94
35.09
35.55
35.47
35.08
34.71
34.63
34.95
35.63
36.46
37.26
37.84
38.06
37.80
36.93
35.36
33.10
30.32
27.24
24.15
21.21
18.47
15.86
13.24
10.54
7.73
4.86
1.94
-1.08
-4.28
-7.78
-11.62
-15.75
-20.03
-24.25
-28.26
-31.99
-35.50
-38.99
-42.75
-47.15
-52.51
-58.92
-66.03
-72.97
-78.36
-80.69
-78.80
-72.28
-61.72
-48.51
-34.41
-21.00
-9.36
0.11
7.53
13.32
18.01
22.07
25.82
29.42
32.85
35.98
38.60
40.53
41.68
42.13
42.06
41.74
41.42
41.28
41.39
41.67
41.97
42.09
41.85
41.14
39.90
38.18
36.09
33.80
31.46
29.14
26.82
24.40
21.76
18.80
15.54
12.05
8.51
5.07
1.82
-1.23
-4.20
-7.28
-10.62
-14.27
-18.14
-22.03
-25.75
-29.20
-32.48
-35.84
-39.70
-44.42
-50.23
-57.00
-64.19
-70.74
-75.31
-76.51
-73.46
-66.01
-55.03
-42.04
-28.79
-16.73
-6.63
1.45
7.92
13.32
18.08
22.42
26.34
29.78
32.67
34.95
36.59
37.54
37.88
37.78
37.50
37.33
37.43
37.82
38.34
38.80
38.95
38.64
37.79
36.38
34.43
32.02
29.25
26.27
23.19
20.17
17.29
14.58
12.02
9.57
7.13
4.55
1.70
-1.54
-5.23
-9.25
-13.40
-17.40
-21.04
-24.27
-27.26
-30.41
-34.18
-38.94
-44.76
-51.24
-57.54
-62.49
-64.88
-63.82
-59.03
-50.94
-40.54
-29.05
-17.58
-6.96
2.34
10.13
16.38
21.17
24.69
27.17
28.85
29.87
30.33
30.30
29.89
29.31
28.83
28.71
29.08
29.98
31.28
32.75
34.10
35.07
35.42
35.06
33.98
32.33
30.26
27.96
25.50
22.96
20.33
17.56
14.62
11.52
8.26
4.92
1.62
-1.58
-4.71
-7.90
-11.30
-15.06
-19.16
-23.41
-27.52
-31.24
-34.45
-37.29
-40.17
-43.64
-48.24
-54.23
-61.33
-68.65
-74.79
-78.17
-77.49
-72.23
-62.82
-50.52
-37.02
-23.95
-12.45
-3.03
4.40
10.25
15.08
19.34
23.32
27.09
30.54
33.49
35.75
37.25
38.05
38.34
38.35
38.31
38.40
38.70
39.23
39.89
40.49
40.80
40.51
39.43
37.51
34.90
31.90
28.84
25.95
23.28
20.71
18.09
15.31
12.39
9.48
6.70
4.09
1.52
-1.23
-4.39
-8.07
-12.22
-16.63
-21.02
-25.17
-28.95
-32.45
-35.93
-39.76
-44.36
-49.99
-56.57
-63.54
-69.84
-74.09
-75.00
-71.76
-64.36
-53.62
-40.97
-27.98
-15.97
-5.69
2.64
9.22
14.40
18.57
22.02
24.95
27.46
29.62
31.45
32.95
34.12
34.96
35.48
35.74
35.81
35.86
36.01
36.37
36.92
37.45
37.68
37.32
36.19
34.31
31.86
29.14
26.41
23.85
21.47
19.18
16.83
14.32
11.58
8.64
5.63
2.60
-0.36
-3.30
-6.33
-9.58
-13.15
-17.03
-21.10
-25.14
-28.91
-32.30
-35.41
-38.61
-42.42
-47.28
-53.31
-60.06
-66.52
-71.27
-72.91
-70.48
-63.84
-53.66
-41.30
-28.38
-16.32
-6.06
2.06
8.18
12.74
16.21
19.03
21.46
23.65
25.60
27.23
28.42
29.08
29.27
29.14
28.90
28.75
28.81
29.10
29.51
29.90
30.17
30.18
29.84
29.02
27.66
25.74
23.33
20.59
17.67
14.74
11.83
8.98
6.13
3.20
0.09
-3.29
-6.99
-10.95
-15.02
-18.97
-22.59
-25.80
-28.71
-31.60
-34.88
-38.93
-43.93
-49.79
-55.99
-61.64
-65.61
-66.80
-64.53
-58.70
-49.95
-39.46
-28.58
-18.47
-9.88
-3.04
2.16
5.96
8.57
10.10
10.71
10.68
10.52
10.80
12.06
14.49
17.90
21.79
25.57
28.75
31.17
32.85
33.96
34.56
34.67
34.23
33.27
32.00
30.74
29.91
29.80
30.46
31.69
33.02
33.94
34.07
33.26
31.66
29.58
27.35
25.12
22.84
20.37
17.54
14.36
10.95
7.53
4.28
1.27
-1.56
-4.39
-7.37
-10.63
-14.20
-18.00
-21.92
-25.77
-29.44
-32.91
-36.31
-39.92
-44.11
-49.18
-55.14
-61.55
-67.45
-71.48
-72.32
-69.08
-61.66
-50.90
-38.25
-25.40
-13.74
-4.03
3.59
9.47
14.13
18.08
21.64
24.97
28.10
30.96
33.43
35.36
36.64
37.24
37.27
36.95
36.56
36.36
36.53
37.02
37.66
38.12
38.04
37.16
35.40
32.94
30.10
27.27
24.69
22.36
20.08
17.59
14.70
11.46
8.05
4.72
1.63
-1.23
-3.97
-6.80
-9.86
-13.21
-16.81
-20.56
-24.31
-27.92
-31.39
-34.86
-38.64
-43.13
-48.62
-55.12
-62.13
-68.66
-73.40
-75.05
-72.72
-66.24
-56.18
-43.76
-30.47
-17.68
-6.31
3.22
10.93
17.12
22.11
26.20
29.58
32.40
34.81
36.89
38.71
40.22
41.29
41.77
41.58
40.85
39.83
38.86
38.19
37.86
37.66
37.22
36.18
34.37
31.89
29.01
26.06
23.26
20.66
18.18
15.72
13.31
11.07
9.17
7.69
6.49
5.29
3.72
1.44
-1.67
-5.55
-9.94
-14.44
-18.67
-22.33
-25.33
-27.86
-30.42
-33.65
-38.19
-44.27
-51.50
-58.81
-64.64
-67.43
-66.09
-60.39
-51.00
-39.27
-26.80
-14.97
-4.68
3.70
10.33
15.61
20.11
24.31
28.48
32.63
36.53
39.90
42.56
44.59
46.27
47.99
50.08
52.73
55.92
59.61
63.70
68.11
72.69
77.20
81.29
84.65
87.13
88.72
89.61
90.10
90.48
90.98
91.81
93.08
94.85
97.05
99.54
102.07
104.38
106.28
107.72
108.75
109.39
109.47
108.55
106.04
101.39
94.42
85.50
75.67
66.42
59.38
55.99
57.21
63.26
73.51
86.37
99.43
109.86
115.02
113.19
104.09
88.90
69.78
49.14
28.97
10.52
-5.61
-19.27
-30.53
-39.64
-47.13
-53.73
-60.33
-67.71
-76.48
-87.06
-99.85
-115.25
-133.64
-155.11
-179.21
-204.84
-230.31
-253.72
-273.38
-288.32
-298.48
-304.68
-308.09
-309.54
-309.06
-305.73
-298.21
-285.55
-267.88
-246.55
-223.76
-201.66
-181.67
-164.15
-148.75
-134.91
-122.42
-111.48
-102.63
-96.38
-92.88
-91.87
-92.51
-93.62
-93.76
-91.54
-85.96
-76.67
-64.06
-49.09
-33.03
-17.07
-2.12
11.28
22.89
32.62
40.62
47.12
52.54
57.32
61.81
66.11
70.18
73.88
77.17
80.07
82.69
85.01
86.89
88.12
88.59
88.35
87.59
86.50
85.11
83.32
80.98
78.06
74.78
71.44
68.26
65.18
61.88
57.93
53.03
47.19
40.75
34.18
27.92
22.21
16.99
12.06
7.12
1.99
-3.31
-8.60
-13.62
-18.18
-22.32
-26.27
-30.44
-35.33
-41.30
-48.41
-56.29
-63.98
-70.14
-73.29
-72.27
-66.64
-56.86
-44.20
-30.32
-16.79
-4.72
5.37
13.53
20.09
25.52
30.22
34.48
38.44
42.11
45.37
48.03
49.95
51.07
51.50
51.44
51.12
50.74
50.43
50.23
50.16
50.17
50.11
49.74
48.75
46.90
44.08
40.43
36.31
32.18
28.44
25.23
22.43
19.69
16.60
12.86
8.40
3.47
-1.51
-6.11
-10.06
-13.37
-16.30
-19.33
-22.98
-27.73
-33.76
-40.90
-48.44
-55.22
-59.87
-61.13
-58.28
-51.35
-41.11
-28.78
-15.76
-3.21
8.04
17.61
25.41
31.63
36.54
40.45
43.60
46.12
48.02
49.28
49.93
50.04
49.84
49.56
49.38
49.41
49.60
49.81
49.88
49.67
49.10
48.11
46.72
44.93
42.76
40.19
37.24
33.97
30.48
26.90
23.39
20.03
16.84
13.80
10.82
7.82
4.75
1.56
-1.78
-5.27
-8.97
-12.86
-16.88
-20.92
-24.90
-28.80
-32.78
-37.11
-42.13
-48.07
-54.82
-61.75
-67.71
-71.32
-71.29
-66.97
-58.53
-47.05
-34.12
-21.38
-10.01
-0.51
7.26
13.78
19.61
25.06
30.24
35.10
39.50
43.34
46.50
48.91
50.49
51.22
51.21
50.70
49.96
49.26
48.78
48.55
48.48
48.37
48.02
47.19
45.78
43.79
41.39
38.84
36.42
34.28
32.40
30.63
28.76
26.59
24.09
21.29
18.32
15.32
12.39
9.56
6.86
4.17
1.36
-1.71
-5.15
-8.90
-12.83
-16.65
-20.16
-23.32
-26.29
-29.40
-33.06
-37.62
-43.14
-49.40
-55.75
-61.20
-64.61
-64.95
-61.68
-54.91
-45.43
-34.49
-23.41
-13.19
-4.40
2.88
8.80
13.63
17.63
21.00
23.95
26.56
28.87
30.75
32.07
32.66
32.55
31.87
30.89
29.93
29.25
29.01
29.19
29.60
29.97
30.01
29.46
28.18
26.15
23.48
20.38
17.17
14.12
11.45
9.24
7.36
5.58
3.57
1.06
-2.03
-5.54
-9.16
-12.50
-15.30
-17.52
-19.43
-21.48
-24.23
-28.01
-32.82
-38.16
-43.10
-46.50
-47.34
-45.07
-39.78
-32.18
-23.33
-14.38
-6.20
0.68
6.16
10.37
13.61
16.16
18.29
20.15
21.80
23.22
24.35
25.08
25.39
25.30
24.95
24.54
24.26
24.27
24.62
25.19
25.73
25.93
25.52
24.38
22.61
20.42
18.09
15.84
13.74
11.76
9.83
7.88
5.90
3.95
2.07
0.27
-1.49
-3.33
-5.38
-7.76
-10.52
-13.56
-16.73
-19.81
-22.63
-25.16
-27.46
-29.75
-32.30
-35.36
-39.15
-43.67
-48.66
-53.47
-57.13
-58.51
-56.73
-51.53
-43.40
-33.55
-23.42
-14.29
-6.86
-1.24
2.98
6.35
9.36
12.30
15.22
18.02
20.53
22.60
24.12
25.09
25.57
25.65
25.45
25.08
24.65
24.32
24.27
24.56
25.17
25.82
26.15
25.79
24.55
22.56
20.18
17.87
15.98
14.58
13.49
12.42
11.07
9.33
7.26
5.03
2.86
0.90
-0.80
-2.30
-3.75
-5.30
-7.13
-9.34
-11.92
-14.76
-17.66
-20.37
-22.72
-24.65
-26.36
-28.23
-30.73
-34.22
-38.73
-43.80
-48.50
-51.68
-52.35
-49.96
-44.69
-37.30
-28.93
-20.71
-13.42
-7.40
-2.53
1.50
5.01
8.19
11.02
13.42
15.33
16.73
17.71
18.37
18.76
18.90
18.80
18.51
18.17
17.91
17.88
18.10
18.48
18.82
18.88
18.44
17.38
15.65
13.38
10.76
8.05
5.52
3.35
1.58
0.09
-1.38
-3.09
-5.26
-7.90
-10.84
-13.74
-16.24
-18.12
-19.38
-20.29
-21.28
-22.83
-25.30
-28.84
-33.28
-38.09
-42.48
-45.49
-46.26
-44.23
-39.43
-32.41
-24.21
-15.94
-8.55
-2.57
1.94
5.22
7.69
9.67
11.46
13.16
14.83
16.41
17.82
18.90
19.57
19.81
19.77
19.64
19.65
19.93
20.46
21.12
21.64
21.80
21.41
20.36
18.71
16.63
14.39
12.31
10.59
9.25
8.14
6.95
5.44
3.52
1.31
-0.96
-3.07
-4.96
-6.71
-8.48
-10.44
-12.66
-15.08
-17.57
-19.98
-22.21
-24.21
-26.06
-27.91
-29.99
-32.60
-36.02
-40.42
-45.63
-51.07
-55.74
-58.45
-58.17
-54.46
-47.65
-38.79
-29.27
-20.38
-12.87
-6.88
-2.13
1.84
5.36
