1626189125.00
64.000000
-0.00
-0.00
-0.00
-0.00
-0.00
-0.00
-0.00
-0.00
-0.00
-0.00
0.00
0.01
0.01
-0.00
-0.03
-0.05
-0.05
0.00
0.13
0.36
0.66
1.01
1.37
1.72
2.06
2.40
2.79
3.24
3.80
4.42
5.06
5.66
6.20
6.68
7.15
7.68
8.31
9.14
10.09
11.04
11.88
12.56
13.14
13.76
14.65
15.96
17.91
20.32
22.90
25.38
27.58
29.57
31.68
34.32
37.81
42.54
48.15
54.10
59.83
64.97
69.58
74.14
79.34
85.71
93.76
103.00
112.62
121.73
129.77
136.75
143.30
150.75
157.77
166.64
177.95
191.79
206.97
220.57
228.25
225.36
208.53
176.87
132.76
80.05
23.07
-34.94
-92.44
-149.16
-205.23
-260.37
-313.74
-363.87
-409.83
-450.91
-486.50
-515.74
-537.23
-549.22
-549.96
-538.37
-514.21
-478.67
-433.88
-382.45
-327.02
-269.84
-212.63
-156.66
-102.95
-52.37
-5.90
35.58
71.43
101.35
125.50
144.38
158.69
169.15
176.37
180.75
182.57
182.07
179.51
175.23
169.65
163.18
156.15
148.81
141.30
133.69
126.02
118.33
110.69
103.16
95.80
88.68
81.83
75.25
68.95
62.95
57.25
51.86
46.78
42.03
37.59
33.45
29.61
26.07
22.81
19.83
17.11
14.67
12.48
10.54
8.83
7.35
6.07
4.97
4.05
3.27
2.62
2.08
1.65
1.29
1.02
0.81
0.64
0.51
0.37
0.23
0.10
-0.02
-0.11
-0.16
-0.17
-0.14
-0.12
-0.12
-0.15
-0.20
-0.26
-0.28
-0.27
-0.21
-0.14
-0.10
-0.12
-0.22
-0.38
-0.54
-0.63
-0.61
-0.49
-0.33
-0.25
-0.33
-0.62
-1.06
-1.50
-1.79
-1.81
-1.58
-1.26
-1.06
-1.20
-1.75
-2.58
-3.42
-3.95
-3.97
-3.51
-2.83
-2.34
-2.37
-3.05
-4.20
-5.40
-6.18
-6.30
-5.77
-4.88
-4.02
-3.52
-3.64
-4.56
-6.39
-8.98
-11.59
-12.88
-11.23
-5.48
4.27
16.39
28.22
37.09
41.45
41.40
38.07
33.03
27.40
21.60
15.60
9.44
3.51
-1.52
-5.13
-7.33
-8.57
-9.57
-10.81
-12.39
-13.97
-15.10
-15.45
-15.09
-14.40
-13.85
-13.78
-14.14
-14.48
-14.06
-12.13
-8.20
-2.32
4.95
12.53
19.27
24.17
26.69
26.86
25.09
22.03
18.25
14.19
10.05
5.98
2.15
-1.27
-4.04
-5.97
-7.01
-7.26
-6.92
-6.29
-5.62
-5.03
-4.57
-4.20
-3.95
-3.82
-3.97
-4.47
-5.43
-6.79
-8.44
-10.23
-12.05
-13.90
-15.85
-18.08
-20.38
-22.80
-25.42
-28.40
-31.92
-36.08
-40.81
-45.72
-49.99
-52.47
-51.96
-47.45
-38.48
-25.39
-9.21
8.51
26.17
42.43
56.37
67.43
75.29
79.83
80.98
78.96
74.27
67.71
60.25
52.79
45.96
40.05
35.07
30.84
27.17
23.92
21.00
18.31
15.75
13.17
10.49
7.63
4.56
1.19
-2.58
-6.86
-11.63
-16.74
-21.87
-26.73
-31.08
-34.88
-38.29
-41.64
-45.32
-49.67
-54.82
-60.60
-66.36
-70.96
-73.04
-71.31
-65.01
-54.18
-39.61
-22.68
-4.95
12.12
27.37
39.93
49.21
54.86
56.86
55.58
51.76
46.34
40.27
34.33
28.91
24.10
19.85
16.09
12.81
10.12
8.06
6.54
5.29
3.93
2.03
-0.67
-4.21
-8.40
-12.88
-17.28
-21.32
-24.89
-28.14
-31.36
-34.90
-39.08
-44.03
-49.54
-55.04
-59.54
-61.84
-60.79
-55.58
-46.07
-32.85
-17.10
-0.36
15.87
30.36
42.22
50.94
56.26
58.21
57.09
53.48
48.18
42.08
36.02
30.59
26.05
22.38
19.35
16.72
14.31
12.02
9.79
7.54
5.11
2.25
-1.24
-5.45
-10.29
-15.50
-20.78
-25.84
-30.56
-35.08
-39.71
-44.84
-50.78
-57.52
-64.57
-70.95
-75.37
-76.47
-73.28
-65.41
-53.24
-37.76
-20.34
-2.40
14.78
30.23
43.23
53.32
60.17
63.67
63.96
61.49
57.02
51.50
45.82
40.61
36.13
32.32
28.94
25.79
22.78
19.96
17.34
14.83
12.18
9.10
5.34
0.85
-4.21
-9.53
-14.79
-19.78
-24.47
-29.00
-33.67
-38.83
-44.79
-51.62
-59.04
-66.27
-72.12
-75.21
-74.30
-68.74
-58.57
-44.52
-27.81
-9.77
8.33
25.38
40.45
52.75
61.72
67.06
68.91
67.79
64.47
59.81
54.58
49.31
44.33
39.82
35.81
32.29
29.23
26.54
24.15
21.96
19.83
17.58
14.95
11.72
7.72
2.95
-2.43
-8.11
-13.80
-19.29
-24.58
-29.81
-35.23
-41.11
-47.61
-54.65
-61.79
-68.22
-72.80
-74.28
-71.62
-64.28
-52.44
-36.93
-19.14
-0.60
17.19
33.01
45.97
55.52
61.41
63.72
62.83
59.39
54.29
48.47
42.77
37.75
33.63
30.30
27.52
25.05
22.76
20.61
18.57
16.53
14.26
11.48
7.97
3.69
-1.22
-6.46
-11.71
-16.76
-21.59
-26.36
-31.38
-36.98
-43.38
-50.47
-57.73
-64.15
-68.47
-69.38
-65.95
-57.88
-45.59
-30.15
-13.00
4.29
20.33
33.98
44.45
51.27
54.37
54.07
51.05
46.25
40.63
34.98
29.84
25.46
21.88
19.09
17.04
15.66
14.77
14.07
13.13
11.54
9.00
5.45
1.09
-3.72
-8.63
-13.40
-18.01
-22.59
-27.46
-33.00
-39.45
-46.77
-54.50
-61.70
-67.08
-69.23
-67.06
-60.03
-48.42
-33.20
-15.86
1.98
18.92
33.86
46.11
55.28
61.25
64.05
63.98
61.56
57.52
52.65
47.65
42.93
38.59
34.58
30.78
27.24
24.07
21.40
19.22
17.27
15.13
12.34
8.63
3.98
-1.32
-6.88
-12.31
-17.44
-22.32
-27.23
-32.57
-38.72
-45.88
-53.94
-62.29
-69.91
-75.46
-77.56
-75.16
-67.84
-55.94
-40.52
-23.03
-5.02
12.22
27.74
40.93
51.40
58.87
63.22
64.47
62.94
59.20
54.05
48.31
42.64
37.42
32.75
28.46
24.34
20.21
16.04
11.89
7.82
3.82
-0.26
-4.64
-9.53
-14.96
-20.87
-27.11
-33.53
-40.07
-46.76
-53.62
-60.62
-67.68
-74.73
-81.73
-88.62
-95.19
-100.91
-104.77
-105.43
-101.54
-92.11
-76.91
-56.60
-32.59
-6.73
19.07
43.13
64.20
81.41
94.26
102.57
106.42
106.25
102.76
96.88
89.60
81.83
74.25
67.23
60.95
55.36
50.33
45.68
41.26
36.98
32.79
28.65
24.52
20.29
15.81
10.90
5.46
-0.52
-6.91
-13.44
-19.80
-25.68
-30.86
-35.34
-39.30
-43.08
-47.10
-51.67
-56.87
-62.44
-67.68
-71.53
-72.76
-70.24
-63.19
-51.42
-35.35
-15.85
6.12
29.72
54.32
79.39
104.19
127.66
148.36
164.76
175.68
180.48
179.23
172.49
161.04
145.72
127.28
106.61
84.75
62.95
42.47
24.23
8.58
-4.77
-16.59
-27.77
-38.95
-50.36
-61.80
-72.82
-82.97
-91.96
-99.67
-106.08
-111.28
-115.35
-118.53
-121.15
-123.52
-125.80
-127.64
-128.15
-125.92
-119.46
-107.67
-90.37
-68.51
-43.94
-19.00
4.08
23.73
39.22
50.57
58.25
62.84
64.85
64.66
62.66
59.29
55.08
50.56
46.17
42.21
38.83
36.11
34.08
32.73
31.90
31.30
30.47
28.89
26.22
22.31
17.33
11.65
5.67
-0.35
-6.33
-12.33
-18.42
-24.62
-30.81
-36.88
-42.77
-48.53
-54.27
-60.06
-65.82
-71.30
-76.03
-79.35
-80.41
-78.28
-72.13
-61.53
-46.69
-28.56
-8.70
11.05
29.04
44.09
55.64
63.63
68.34
70.11
69.26
66.14
61.15
54.90
48.13
41.62
36.02
31.69
28.61
26.53
25.03
23.76
22.52
21.23
19.81
18.17
16.12
13.48
10.19
6.25
1.81
-2.98
-8.04
-13.37
-19.02
-25.01
-31.22
-37.41
-43.33
-48.77
-53.74
-58.42
-63.18
-68.41
-74.34
-80.88
-87.49
-93.17
-96.64
-96.63
-92.20
-83.08
-69.69
-53.04
-34.57
-15.71
2.21
18.21
31.60
42.01
49.32
53.66
55.35
54.84
52.64
49.27
45.24
41.00
36.94
33.40
30.58
28.57
27.28
26.51
25.97
25.38
24.51
23.19
21.35
19.02
16.29
13.29
10.19
7.08
3.97
0.77
-2.67
-6.47
-10.68
-15.26
-20.05
-24.93
-29.80
-34.71
-39.83
-45.37
-51.40
-57.69
-63.53
-67.79
-69.11
-66.37
-58.95
-47.10
-31.76
-14.40
3.44
20.40
35.46
47.85
57.04
62.68
64.70
63.43
59.59
54.25
48.51
43.23
38.90
35.56
32.97
30.78
28.80
26.95
25.31
23.96
22.83
21.68
20.12
17.81
14.53
10.33
5.45
0.18
-5.20
-10.58
-15.91
-21.20
-26.46
-31.76
-37.22
-43.04
-49.40
-56.20
-62.92
-68.57
-71.88
-71.59
-66.85
-57.48
-44.01
-27.56
-9.62
8.37
25.16
39.78
51.61
60.19
65.28
66.85
65.17
60.91
54.99
48.48
42.29
37.01
32.83
29.64
27.11
24.93
22.88
20.82
18.72
16.54
14.25
11.77
8.99
5.75
1.92
-2.56
-7.62
-13.07
-18.68
-24.25
-29.70
-35.02
-40.35
-45.86
-51.72
-58.12
-65.11
-72.51
-79.71
-85.59
-88.66
-87.44
-80.94
-69.01
-52.45
-32.82
-11.96
8.46
27.14
43.28
56.36
66.10
72.36
75.17
74.81
71.87
67.19
61.67
56.16
51.21
47.06
43.64
40.75
38.14
35.65
33.21
30.78
28.29
25.64
22.67
19.25
15.27
10.70
5.58
-0.04
-6.04
-12.22
-18.37
-24.30
-29.95
-35.39
-40.82
-46.51
-52.71
-59.55
-66.95
-74.44
-81.13
-85.74
-86.82
-83.10
-73.94
-59.58
-41.14
-20.43
0.65
20.39
37.60
51.58
61.99
68.74
71.91
71.79
68.96
64.22
58.47
52.52
46.95
42.07
37.95
34.57
31.83
29.61
27.73
25.96
24.04
21.82
19.21
16.21
12.80
8.98
4.69
-0.09
-5.31
-10.89
-16.66
-22.50
-28.28
-33.95
-39.47
-44.89
-50.32
-55.97
-62.08
-68.75
-75.76
-82.42
-87.58
-89.83
-87.85
-80.80
-68.60
-51.95
-32.16
-10.95
10.00
29.19
45.45
58.02
66.48
70.80
71.27
68.53
63.48
57.13
50.50
44.40
39.30
35.35
32.40
30.16
28.31
26.62
24.95
23.18
21.20
18.88
16.02
12.48
8.16
3.08
-2.61
-8.64
-14.69
-20.52
-26.03
-31.40
-36.96
-43.13
-50.17
-57.95
-65.81
-72.60
-76.83
-77.09
-72.35
-62.37
-47.69
-29.55
-9.59
10.49
29.22
45.40
58.12
66.70
70.82
70.56
66.54
59.88
52.00
44.21
37.47
32.14
28.11
24.96
22.31
19.89
17.64
15.58
13.69
11.76
9.45
6.38
2.22
-3.12
-9.40
-16.15
-22.80
-28.97
-34.57
-39.87
-45.38
-51.67
-59.15
-67.85
-77.30
-86.48
-93.85
-97.64
-96.21
-88.54
-74.59
-55.36
-32.73
-8.90
14.10
34.76
52.17
65.93
75.92
82.15
84.77
84.14
80.88
75.82
69.92
64.03
58.76
54.38
50.90
48.18
46.01
44.17
42.47
40.65
38.45
35.62
32.01
27.64
22.69
17.39
11.94
6.34
0.45
-5.93
-12.91
-20.35
-27.91
-35.17
-41.82
-47.76
-53.23
-58.66
-64.58
-71.38
-79.22
-87.80
-96.29
-103.33
-107.19
-106.12
-98.90
-85.21
-65.87
-42.64
-17.75
6.66
28.96
48.18
63.87
75.86
84.11
88.73
89.97
88.37
84.69
79.81
74.50
69.33
64.62
60.49
56.98
54.03
51.58
49.52
47.77
46.19
44.61
42.77
40.37
37.08
32.72
27.34
21.22
14.81
8.52
2.54
-3.24
-9.13
-15.42
-22.22
-29.31
-36.31
-42.82
-48.58
-53.60
-58.10
-62.40
-66.91
-72.03
-78.03
-84.89
-92.05
-98.34
-102.12
-101.57
-95.33
-82.88
-64.82
-42.72
-18.65
5.28
27.37
46.49
62.05
73.78
81.61
85.64
86.13
83.63
78.92
73.00
66.82
61.13
56.29
52.36
49.14
46.40
43.99
41.86
40.04
38.48
37.00
35.27
32.92
29.64
25.33
20.16
14.52
8.89
3.62
-1.20
-5.80
-10.58
-15.86
-21.69
-27.82
-33.78
-39.12
-43.67
-47.59
-51.28
-55.29
-60.05
-65.72
-72.16
-78.80
-84.68
-88.50
-88.89
-84.68
-75.30
-61.00
-42.80
-22.33
-1.39
18.40
35.85
50.18
60.99
68.06
71.34
71.00
67.53
61.79
54.89
48.01
42.08
37.55
34.42
32.35
30.88
29.65
28.48
27.29
26.01
24.49
22.51
19.86
16.40
12.14
7.24
1.90
-3.66
-9.28
-14.83
-20.27
-25.56
-30.73
-35.91
-41.32
-47.15
-53.45
-59.97
-65.99
-70.44
-72.10
-69.88
-63.14
-51.87
-36.75
-19.05
-0.35
17.71
33.69
46.54
55.66
60.88
62.37
60.57
56.15
50.03
43.25
36.84
31.55
27.73
25.24
23.63
22.35
21.01
19.50
17.89
16.29
14.64
12.73
10.24
6.89
2.57
-2.63
-8.45
-14.55
-20.63
-26.44
-31.88
-37.00
-41.99
-47.17
-52.96
-59.64
-67.21
-75.22
-82.65
-88.08
-89.94
-86.96
-78.51
-64.87
-47.14
-27.02
-6.31
13.38
30.95
45.72
57.38
65.79
70.94
72.95
72.14
69.08
64.49
59.08
53.47
48.07
43.11
38.76
35.11
32.22
30.04
28.42
27.05
25.56
23.64
21.11
17.93
14.14
9.82
4.98
-0.37
-6.22
-12.49
-18.98
-25.39
-31.43
-36.93
-41.90
-46.56
-51.27
-56.43
-62.33
-68.98
-75.89
-82.11
-86.28
-86.94
-82.95
-73.83
-59.96
-42.48
-22.97
-3.14
15.56
32.01
45.52
55.78
62.72
66.59
67.77
66.78
64.19
60.59
56.52
52.42
48.58
45.14
42.12
39.48
37.26
35.52
34.27
33.36
32.45
31.05
28.75
25.39
21.13
16.37
11.56
7.03
2.89
-1.01
-4.90
-9.07
-13.65
-18.61
-23.77
-28.82
-33.49
-37.63
-41.34
-44.98
-49.04
-54.00
-60.05
-66.89
-73.70
-79.19
-81.90
-80.58
-74.52
-63.80
-49.28
-32.38
-14.74
2.14
17.12
29.50
38.92
45.30
48.76
49.59
48.26
45.40
41.72
37.83
34.25
31.26
29.00
27.50
26.71
26.47
26.59
26.79
26.81
26.48
25.70
24.44
22.69
20.42
17.57
14.08
9.98
5.38
0.48
-4.46
-9.19
-13.57
-17.60
-21.41
-25.28
-29.46
-34.18
-39.48
-45.28
-51.21
-56.66
-60.75
-62.46
-60.88
-55.45
-46.20
-33.83
-19.53
-4.71
9.40
21.82
31.98
39.52
44.24
46.05
45.07
41.73
36.81
31.32
26.27
22.41
20.05
19.02
18.84
18.89
18.74
18.14
17.13
15.80
14.22
12.36
10.06
7.18
3.62
-0.63
-5.54
-11.11
-17.28
-24.04
-31.23
-38.68
-46.20
-53.68
-61.16
-68.63
-75.87
-82.29
-86.83
-88.29
-85.60
-78.31
-66.64
-51.51
-34.31
-16.51
0.59
15.97
28.97
39.25
46.72
51.50
53.88
54.26
53.09
50.86
47.99
44.84
41.71
38.82
36.27
34.11
32.26
30.61
29.03
27.35
25.47
23.32
20.87
18.08
14.90
11.24
7.03
2.23
-3.07
-8.68
-14.38
-19.93
-25.20
-30.23
-35.15
-40.23
-45.74
-51.84
-58.49
-65.31
-71.55
-76.10
-77.71
-75.31
-68.36
-57.05
-42.34
-25.67
-8.61
7.53
21.90
34.09
43.92
51.35
56.34
58.92
59.25
57.69
54.80
51.19
47.42
43.92
40.90
38.44
36.52
35.03
33.85
32.82
31.73
30.39
28.64
26.37
23.59
20.34
16.68
12.67
8.27
3.48
-1.70
-7.13
-12.60
-17.87
-22.80
-27.36
-31.72
-36.12
-40.86
-46.19
-52.19
-58.68
-65.11
-70.53
-73.74
-73.58
-69.29
-60.76
-48.63
-34.07
-18.45
-3.01
11.33
24.01
34.69
43.16
49.25
52.89
54.13
53.22
50.58
46.80
42.51
38.28
34.54
31.54
29.30
27.68
26.43
25.27
23.93
22.22
20.02
17.31
14.17
10.69
7.02
3.24
-0.54
-4.29
-7.98
-11.59
-15.16
-18.73
-22.38
-26.18
-30.23
-34.60
-39.40
-44.69
-50.44
-56.40
-61.93
-66.12
-67.78
-65.88
-59.81
-49.69
-36.37
-21.19
-5.68
8.83
21.41
31.53
38.91
43.44
45.10
44.09
40.91
36.35
31.40
26.91
23.45
21.12
19.69
18.76
17.99
17.25
16.52
15.84
15.13
14.19
12.67
10.32
7.01
2.84
-1.92
-6.93
-11.89
-16.63
-21.15
-25.66
-30.44
-35.83
-42.02
-48.91
-56.01
-62.37
-66.80
-68.13
-65.54
-58.79
-48.24
-34.78
-19.57
-3.83
11.35
25.08
36.72
45.85
52.24
55.81
56.67
55.14
51.75
47.22
42.33
37.79
34.02
31.13
28.90
27.05
25.28
23.47
21.63
19.80
17.92
15.85
13.37
10.26
6.41
1.87
-3.16
-8.44
-13.71
-18.78
-23.60
-28.24
-32.88
-37.76
-43.23
-49.50
-56.69
-64.51
-72.22
-78.66
-82.44
-82.26
-77.39
-67.81
-54.23
-37.87
-20.16
-2.44
14.25
29.14
41.71
51.65
58.83
63.27
65.20
64.99
63.12
60.09
56.37
52.39
48.49
44.95
42.00
39.73
38.04
36.71
35.38
33.73
31.55
28.83
25.71
22.32
18.74
14.93
10.75
6.07
0.84
-4.84
-10.77
-16.67
-22.34
-27.63
-32.60
-37.40
-42.34
-47.68
-53.67
-60.30
-67.29
-73.93
-79.14
-81.63
-80.18
-74.08
-63.31
-48.64
-31.44
-13.28
4.43
20.65
34.77
46.46
55.49
61.74
65.20
66.05
64.78
62.07
58.67
55.24
52.19
49.68
47.69
46.08
44.73
43.57
42.56
41.66
40.84
39.96
38.82
37.19
34.91
31.93
28.38
24.49
20.50
16.52
12.48
8.25
3.69
-1.14
-6.02
-10.64
-14.76
-18.30
-21.41
-24.40
-27.58
-31.15
-35.10
-39.26
-43.38
-47.22
-50.62
-53.61
-56.42
-59.42
-63.13
-67.93
-73.91
-80.66
-87.21
-92.11
-93.84
-91.11
-83.32
-70.67
-54.14
-35.16
-15.36
3.76
21.03
35.65
47.22
55.63
60.99
63.56
63.73
61.95
58.77
54.86
50.84
47.24
44.34
42.18
40.60
39.38
38.36
37.46
36.62
35.72
34.55
32.86
30.49
27.41
23.82
19.94
16.00
12.10
8.15
3.97
-0.57
-5.50
-10.68
-15.82
-20.66
-25.00
-28.90
-32.66
-36.71
-41.44
-47.04
-53.31
-59.62
-65.02
-68.33
-68.46
-64.63
-56.59
-44.74
-30.02
-13.77
2.61
17.87
31.08
41.63
49.23
53.84
55.62
54.94
52.35
48.53
44.20
39.99
36.36
33.54
31.54
30.23
29.39
28.80
28.29
27.69
26.84
25.59
23.79
21.35
18.26
14.64
10.70
6.63
2.55
-1.56
-5.80
-10.30
-15.08
-20.10
-25.20
-30.19
-34.95
-39.46
-43.80
-48.22
-53.02
-58.50
-64.78
-71.66
-78.49
-84.18
-87.39
-86.88
-81.85
-72.23
-58.66
-42.33
-24.63
-6.91
9.79
24.70
37.32
47.30
54.46
58.75
60.38
59.75
57.52
54.36
50.89
47.49
44.31
41.41
38.78
36.55
34.86
33.79
33.26
32.95
32.40
31.18
29.02
25.92
22.14
18.01
13.86
9.87
6.06
2.28
-1.66
-5.96
-10.68
-15.73
-20.89
-25.87
-30.46
-34.61
-38.46
-42.32
-46.56
-51.53
-57.40
-64.08
-71.05
-77.37
-81.71
-82.68
-79.15
-70.70
-57.74
-41.48
-23.56
-5.63
11.06
25.73
38.02
47.74
54.79
59.08
60.73
60.09
57.80
54.61
51.19
47.97
45.13
42.67
40.57
38.88
37.66
36.90
36.46
35.99
35.11
33.49
30.99
27.65
23.68
19.33
14.80
10.22
5.69
1.20
-3.30
-7.89
-12.69
-17.71
-22.85
-27.85
-32.41
-36.34
-39.67
-42.72
-46.05
-50.20
-55.56
-62.00
-68.87
-74.91
-78.59
-78.52
-73.79
-64.30
-50.78
-34.52
-17.06
0.16
16.04
29.81
41.00
49.30
54.56
56.81
56.30
53.53
49.23
44.24
39.29
34.99
31.59
29.12
27.40
26.17
25.21
24.35
23.53
22.67
21.70
20.44
18.71
16.33
13.19
9.35
5.00
0.43
-4.08
-8.38
-12.46
-16.45
-20.51
-24.83
-29.52
-34.66
-40.28
-46.33
-52.53
-58.30
-62.66
-64.46
-62.67
-56.70
-46.69
-33.49
-18.39
-2.83
12.05
25.38
36.62
45.37
51.31
54.25
54.26
51.77
47.52
42.46
37.50
33.31
30.22
28.22
27.04
26.25
25.42
24.22
22.48
20.22
17.54
14.54
11.23
7.49
3.17
-1.81
-7.39
-13.35
-19.40
-25.31
-30.94
-36.32
-41.50
-46.64
-51.90
-57.53
-63.73
-70.48
-77.37
-83.42
-87.30
-87.57
-83.20
-73.87
-60.16
-43.31
-24.91
-6.49
10.74
25.97
38.75
48.81
56.05
60.51
62.36
62.04
60.10
57.21
53.93
50.66
47.61
44.81
42.23
39.87
37.76
35.90
34.22
32.54
30.59
28.15
25.05
21.28
16.88
11.97
6.67
1.09
-4.69
-10.54
-16.34
-22.01
-27.49
-32.83
-38.11
-43.55
-49.35
-55.75
-62.79
-70.23
-77.39
-83.14
-86.12
-85.06
-79.19
-68.52
-53.83
-36.49
-18.03
0.22
17.22
32.32
45.05
55.06
62.09
66.10
67.35
66.37
63.93
60.76
57.43
54.22
51.21
48.38
45.74
43.41
41.53
40.16
39.18
38.23
36.86
34.65
31.38
27.15
22.26
17.10
12.01
7.16
2.48
-2.21
-7.15
-12.46
-18.15
-24.08
-30.00
-35.66
-40.94
-45.92
-50.90
-56.28
-62.42
-69.38
-76.80
-83.77
-89.02
-91.09
-88.76
-81.42
-69.19
-53.00
-34.28
-14.64
4.45
21.91
37.03
49.44
58.95
65.45
68.97
69.74
68.27
65.27
61.52
57.72
54.26
51.26
48.63
46.24
44.02
41.95
39.99
38.02
35.84
33.25
30.16
26.64
22.84
18.93
14.94
10.80
6.32
1.34
-4.16
-10.11
-16.28
-22.40
-28.27
-33.75
-38.95
-44.11
-49.58
-55.59
-62.08
-68.51
-73.92
-77.02
-76.57
-71.71
-62.25
-48.73
-32.30
-14.43
3.44
20.01
34.34
45.71
53.68
58.08
59.06
57.16
53.25
48.35
43.43
39.18
35.87
33.42
31.56
29.98
28.44
26.86
25.20
23.43
21.48
19.19
16.42
13.03
8.98
4.30
-0.89
-6.40
-12.00
-17.50
-22.76
-27.84
-32.93
-38.36
-44.48
-51.48
-59.18
-66.94
-73.68
-78.01
-78.67
-74.75
-66.03
-53.03
-36.83
-18.83
-0.48
16.97
32.57
45.64
55.78
62.80
66.78
67.98
66.87
64.05
60.12
55.69
51.23
47.11
43.54
40.61
38.28
36.42
34.80
33.15
31.19
28.72
25.65
22.06
18.10
13.90
9.53
4.92
-0.04
-5.45
-11.30
-17.43
-23.60
-29.59
-35.27
-40.63
-45.83
-51.13
-56.79
-63.07
-69.97
-77.19
-83.98
-89.19
-91.46
-89.55
-82.69
-70.87
-54.90
-36.17
-16.34
3.14
21.17
37.08
50.48
61.12
68.78
73.33
74.91
73.89
70.99
66.98
62.59
58.24
54.19
50.48
47.15
44.25
41.78
39.75
38.00
36.30
34.34
31.82
28.56
24.52
19.85
14.82
9.73
4.78
-0.02
-4.83
-9.93
-15.50
-21.54
-27.78
-33.87
-39.49
-44.51
-49.09
-53.60
-58.51
-64.21
-70.81
-77.92
-84.61
-89.46
-90.87
-87.51
-78.75
-64.97
-47.39
-27.76
-7.85
10.95
27.75
42.07
53.62
62.23
67.72
70.15
69.83
67.36
63.57
59.24
55.01
51.18
47.81
44.83
42.16
39.79
37.80
36.22
34.97
33.79
32.29
30.09
26.97
22.97
18.42
13.74
9.30
5.18
1.18
-3.10
-8.01
-13.71
-20.01
-26.48
-32.57
-37.90
-42.34
-46.09
-49.62
-53.50
-58.30
-64.30
-71.32
-78.68
-85.13
-89.16
-89.28
-84.50
-74.57
-60.12
-42.46
-23.22
-3.95
14.16
30.42
44.58
56.57
66.39
73.91
78.87
80.90
79.73
75.40
68.30
59.22
49.13
38.97
29.42
20.88
13.48
7.26
2.27
-1.46
-3.99
-5.61
-6.83
-8.27
-10.42
-13.50
-17.37
-21.66
-25.88
-29.70
-32.97
-35.83
-38.58
-41.61
-45.24
-49.59
-54.53
-59.56
-63.87
-66.45
-66.31
-62.65
-55.14
-43.98
-29.89
-13.93
2.67
18.71
33.13
45.07
53.91
59.28
61.13
59.81
56.00
50.65
44.75
39.14
34.35
30.50
27.44
24.85
22.48
20.14
17.81
15.52
13.25
10.88
8.17
4.89
0.86
-3.91
-9.28
-14.96
-20.66
-26.17
-31.41
-36.41
-41.37
-46.58
-52.37
-58.99
-66.37
-73.98
-80.78
-85.35
-86.25
-82.42
-73.51
-59.99
-43.03
-24.15
-4.94
13.27
29.53
43.22
53.98
61.65
66.28
68.06
67.39
64.83
61.05
56.69
52.28
48.18
44.59
41.53
38.89
36.52
34.20
31.82
29.26
26.46
23.33
19.75
15.56
10.64
4.98
-1.28
-7.89
-14.54
-20.98
-27.03
-32.68
-38.09
-43.55
-49.43
-56.06
-63.51
-71.46
-79.13
-85.31
-88.64
-87.88
-82.27
-71.75
-57.02
-39.34
-20.27
-1.29
16.41
32.06
45.21
55.58
63.02
67.45
68.97
67.94
64.98
60.83
56.23
51.74
47.70
44.21
41.22
38.60
36.20
33.89
31.52
29.04
26.43
23.65
20.66
17.35
13.59
9.25
4.31
-1.13
-6.86
-12.65
-18.30
-23.77
-29.13
-34.50
-40.08
-46.05
-52.59
-59.76
-67.41
-75.00
-81.54
-85.73
-86.24
-82.13
-73.11
-59.65
-42.89
-24.25
-5.22
12.93
29.21
42.92
53.65
61.28
65.92
67.88
67.63
65.66
62.43
58.39
53.95
49.53
45.49
42.13
39.52
37.59
36.08
34.69
33.13
31.21
28.85
26.03
22.78
19.09
14.97
10.43
5.50
0.26
-5.22
-10.83
-16.52
-22.21
-27.86
-33.39
-38.75
-43.93
-49.05
-54.36
-60.14
-66.51
-73.24
-79.48
-83.97
-85.21
-81.96
-73.70
-60.80
-44.39
-26.05
-7.32
10.54
26.67
40.55
51.71
59.79
64.53
65.97
64.52
60.94
56.26
51.42
47.10
43.62
40.92
38.73
36.77
34.80
32.73
30.54
28.27
25.92
23.41
20.57
17.22
13.22
8.58
3.50
-1.72
-6.79
-11.53
-16.02
-20.51
-25.27
-30.51
-36.32
-42.60
-49.15
-55.64
-61.50
-65.95
-68.00
-66.65
-61.24
-51.63
-38.39
-22.60
-5.64
11.15
26.64
40.01
50.65
58.15
62.28
63.06
60.89
56.49
50.85
44.97
39.65
35.37
32.21
29.98
28.36
27.02
25.73
24.29
22.59
20.53
18.05
15.13
11.74
7.85
3.46
-1.42
-6.71
-12.28
-17.94
-23.52
-28.96
-34.24
-39.46
-44.75
-50.27
-56.19
-62.58
-69.42
-76.29
-82.41
-86.55
-87.30
-83.53
-74.70
-61.14
-43.98
-24.84
-5.40
12.96
29.34
43.22
54.34
62.59
67.92
70.42
70.39
68.34
64.90
60.73
56.34
52.09
48.19
44.68
41.58
38.87
36.52
34.43
32.52
30.60
28.46
25.90
22.75
18.95
14.51
9.53
4.11
-1.65
-7.64
-13.73
-19.78
-25.61
-31.12
-36.29
-41.25
-46.30
-51.74
-57.79
-64.31
-70.75
-76.03
-78.84
-77.89
-72.31
-62.00
-47.62
-30.46
-12.03
6.24
23.28
38.37
51.04
60.95
67.92
71.84
72.89
71.53
68.40
64.24
59.64
54.99
50.41
45.98
41.74
37.80
34.29
31.23
28.49
25.83
22.97
19.71
16.02
12.03
7.93
3.92
0.08
-3.63
-7.42
-11.52
-16.10
-21.17
-26.52
-31.81
-36.70
-41.08
-45.09
-49.06
-53.41
-58.42
-64.17
-70.53
-77.08
-83.11
-87.65
-89.52
-87.60
-81.15
-70.12
-55.20
-37.72
-19.22
-1.15
15.40
29.77
41.57
50.64
56.89
60.35
61.22
59.91
57.05
53.36
49.50
45.96
42.94
40.44
38.28
36.27
34.29
32.33
30.40
28.50
26.53
24.37
21.88
19.01
15.77
12.24
8.48
4.52
0.35
-4.08
-8.78
-13.68
-18.66
-23.54
-28.23
-32.72
-37.14
-41.75
-46.80
-52.40
-58.40
-64.29
-69.20
-72.07
-71.87
-67.85
-59.78
-48.08
-33.67
-17.81
-1.83
13.12
26.17
36.72
44.43
49.15
50.98
50.27
47.62
43.79
39.56
35.57
32.25
29.76
28.06
26.98
26.28
25.69
24.98
23.95
22.47
20.44
17.83
14.58
10.74
6.40
1.72
-3.11
-7.90
-12.58
-17.14
-21.66
-26.33
-31.36
-36.96
-43.32
-50.38
-57.80
-64.82
-70.30
-72.99
-71.87
-66.41
-56.84
-44.01
-29.17
-13.65
1.36
15.05
26.85
36.47
43.71
48.45
50.70
50.63
48.67
45.41
41.55
37.75
34.42
31.76
29.72
28.12
26.79
25.56
24.28
22.83
21.05
18.81
16.03
12.72
8.96
4.86
0.50
-4.09
-8.92
-14.01
-19.36
-24.88
-30.42
-35.79
-40.90
-45.80
-50.72
-56.00
-61.87
-68.32
-74.87
-80.59
-84.27
-84.68
-80.99
-72.93
-60.93
-45.97
-29.30
-12.18
4.32
19.42
32.52
43.25
51.35
56.73
59.52
60.03
58.73
56.13
52.69
48.84
44.93
41.30
38.18
35.72
33.90
32.51
31.23
29.69
27.59
24.76
21.23
17.15
12.75
8.20
3.61
-1.05
-5.86
-10.90
-16.16
-21.51
-26.78
-31.76
-36.32
-40.42
-44.25
-48.12
-52.44
-57.57
-63.55
-69.95
-75.77
-79.65
-80.15
-76.30
-67.84
-55.33
-39.95
-23.15
-6.33
9.43
23.38
35.08
44.31
51.00
55.26
57.28
57.40
56.00
53.49
50.27
46.73
43.21
40.00
37.28
35.13
33.48
32.19
31.02
29.77
28.18
26.05
23.23
19.63
15.34
10.55
5.57
0.65
-4.08
-8.63
-13.22
-18.12
-23.55
-29.56
-35.95
-42.40
-48.56
-54.25
-59.53
-64.76
-70.42
-76.91
-84.25
-91.91
-98.76
-103.34
-104.23
-100.47
-91.81
-78.81
-62.62
-44.63
-26.19
-8.41
7.95
22.37
34.45
43.93
50.65
54.66
56.25
55.98
54.48
52.37
50.16
48.11
46.38
45.00
43.97
43.20
42.56
41.80
40.66
38.90
36.35
33.00
28.92
24.23
19.03
13.41
7.45
1.25
-5.04
-11.21
-17.08
-22.54
-27.59
-32.35
-37.04
-41.91
-47.22
-53.05
-59.27
-65.36
-70.39
-73.16
-72.41
-67.26
-57.48
-43.65
-27.04
-9.24
8.21
24.09
37.57
48.11
55.43
59.39
60.15
58.14
54.14
49.10
44.00
39.64
36.50
34.77
34.37
35.08
36.61
38.60
40.71
42.64
44.08
44.84
44.77
43.80
41.87
38.90
34.83
29.68
23.61
16.95
10.11
3.44
-2.93
-9.15
-15.53
-22.48
-30.26
-38.87
-47.96
-56.78
-64.23
-69.01
-69.79
-65.59
-56.12
-41.84
-23.98
-4.21
15.77
34.54
51.09
64.81
75.33
82.46
86.15
86.61
84.29
79.91
74.23
68.02
61.84
56.02
50.76
46.11
42.07
38.56
35.40
32.37
29.19
25.62
21.47
16.68
11.24
5.23
-1.21
-7.93
-14.77
-21.61
-28.40
-35.17
-41.88
-48.48
-54.80
-60.62
-65.79
-70.32
-74.47
-78.66
-83.40
-89.03
-95.57
-102.46
-108.59
-112.38
-112.17
-106.70
-95.43
-78.85
-58.28
-35.55
-12.52
9.30
28.92
45.75
59.44
69.73
76.40
79.49
79.35
76.67
72.42
67.58
62.92
58.87
55.58
52.95
50.81
49.07
47.64
46.51
45.57
44.57
43.18
41.01
37.80
33.54
28.47
23.01
17.54
12.26
7.09
1.76
-4.03
-10.39
-17.22
-24.19
-30.97
-37.33
-43.24
-48.88
-54.53
-60.55
-67.22
-74.72
-82.99
-91.61
-99.70
-105.95
-108.78
-106.73
-98.91
-85.26
-66.66
-44.69
-21.26
1.84
23.14
41.63
56.69
67.97
75.38
79.07
79.45
77.14
73.00
67.91
62.64
57.76
53.55
50.05
47.14
44.67
42.51
40.59
38.81
36.99
34.87
32.16
28.68
24.38
19.43
14.05
8.43
2.66
-3.31
-9.55
-16.09
-22.84
-29.60
-36.19
-42.46
-48.39
-54.16
-59.99
-66.24
-73.11
-80.54
-87.99
-94.43
-98.42
-98.54
-93.69
-83.49
-68.33
-49.32
-27.95
-5.86
15.34
34.20
49.56
60.62
67.11
69.44
68.50
65.57
61.87
58.34
55.50
53.44
51.97
50.81
49.67
48.39
46.86
45.07
43.03
40.72
38.02
34.73
30.61
25.52
19.49
12.73
5.56
-1.72
-8.92
-16.01
-23.05
-30.21
-37.64
-45.50
-53.84
-62.46
-70.76
-77.66
-81.70
-81.44
-75.83
-64.64
-48.53
-28.95
-7.69
13.45
33.00
49.91
63.45
73.19
78.92
80.73
78.99
74.43
67.99
60.66
53.30
46.47
40.51
35.50
31.42
28.15
25.49
23.13
20.73
17.95
14.57
10.60
6.20
1.62
-2.93
-7.36
-11.76
-16.28
-21.10
-26.34
-31.95
-37.76
-43.46
-48.66
-53.10
-56.74
-59.90
-63.15
-67.18
-72.48
-79.05
-86.26
-92.85
-97.18
-97.54
-92.63
-81.81
-65.34
-44.35
-20.63
3.80
27.06
47.74
65.01
78.52
88.24
94.32
97.01
96.74
94.12
89.90
84.88
79.66
74.61
69.87
65.46
61.44
57.96
55.19
53.17
51.74
50.54
49.13
47.15
44.46
41.12
37.32
33.22
28.95
24.53
19.93
15.16
10.21
5.12
-0.04
-5.17
-10.13
-14.80
-19.16
-23.28
-27.36
-31.60
-36.13
-40.92
-45.81
-50.56
-54.95
-58.88
-62.41
-65.84
-69.64
-74.39
-80.53
-88.11
-96.56
-104.61
-110.43
-112.12
-108.15
-97.82
-81.46
-60.37
-36.42
-11.74
11.82
32.85
50.49
64.33
74.24
80.31
82.81
82.23
79.30
74.93
69.99
65.18
60.91
57.30
54.31
51.85
49.81
48.10
46.58
45.08
43.39
41.37
38.88
35.87
32.30
28.21
23.66
18.77
13.66
8.43
3.14
-2.17
-7.44
-12.59
-17.57
-22.31
-26.84
-31.20
-35.42
-39.53
-43.51
-47.40
-51.35
-55.63
-60.59
-66.45
-73.16
-80.11
-86.23
-89.99
-89.87
-84.72
-74.17
-58.79
-39.93
-19.36
1.11
19.97
36.16
49.01
58.13
63.42
65.01
63.37
59.24
53.58
47.35
41.40
36.27
32.22
29.29
27.33
26.10
25.29
24.57
23.62
22.23
20.28
17.76
14.69
11.08
6.89
2.10
-3.23
-8.93
-14.68
-20.19
-25.23
-29.79
-34.00
-38.15
-42.48
-47.23
-52.55
-58.53
-65.16
-72.06
-78.42
-82.94
-84.07
-80.45
-71.42
-57.24
-39.06
-18.63
2.21
21.78
38.83
52.55
62.51
68.66
71.28
70.90
68.18
63.85
58.58
53.00
47.69
43.09
39.46
36.78
34.82
33.18
31.51
29.56
27.21
24.48
21.37
17.89
14.02
9.74
5.06
-0.03
-5.52
-11.41
-17.68
-24.24
-30.95
-37.62
-44.08
-50.24
-56.16
-62.10
-68.42
-75.44
-83.12
-90.88
-97.55
-101.50
-101.14
-95.35
-83.84
-67.25
-46.94
-24.70
-2.24
18.94
37.69
53.27
65.26
73.55
78.35
80.05
79.26
76.60
72.73
68.26
63.65
59.25
55.24
51.69
48.60
45.93
43.63
41.63
39.79
37.85
35.54
32.58
28.84
24.39
19.47
14.33
9.15
3.91
-1.52
-7.28
-13.44
-19.86
-26.32
-32.57
-38.45
-43.98
-49.34
-54.83
-60.80
-67.46
-74.78
-82.28
-88.99
-93.59
-94.61
-90.90
-81.93
-68.04
-50.33
-30.36
-9.82
9.85
27.56
42.58
54.46
62.99
68.18
70.34
70.03
67.99
65.00
61.68
58.42
55.32
52.31
49.27
46.18
43.12
40.34
38.06
36.37
35.10
33.86
32.14
29.54
25.96
21.65
17.07
12.65
8.56
4.69
0.66
-3.89
-9.17
-15.12
-21.45
-27.72
-33.54
-38.64
-42.99
-46.77
-50.33
-54.18
-58.77
-64.44
-71.21
-78.66
-85.83
-91.38
-93.78
-91.69
-84.44
-72.15
-55.82
-37.04
-17.56
1.09
17.81
32.00
43.37
51.80
57.20
59.58
59.15
56.45
52.28
47.57
43.14
39.49
36.76
34.83
33.47
32.48
31.74
31.14
30.50
29.59
28.18
26.15
23.53
20.48
17.23
13.89
10.47
6.81
2.75
-1.84
-6.90
-12.24
-17.55
-22.56
-27.17
-31.54
-35.96
-40.81
-46.26
-52.21
-58.16
-63.29
-66.59
-67.09
-64.07
-57.19
-46.67
-33.19
-17.81
-1.76
13.74
27.67
39.25
47.97
53.55
56.00
55.63
53.00
48.88
44.09
39.31
34.99
31.31
28.27
25.76
23.65
21.81
20.15
18.49
16.63
14.35
11.47
7.95
3.82
-0.74
-5.56
-10.53
-15.62
-20.91
-26.53
-32.52
-38.82
-45.27
-51.63
-57.73
-63.47
-68.92
-74.28
-79.80
-85.75
-92.21
-98.91
-105.13
-109.70
-111.27
-108.60
-101.03
-88.67
-72.40
-53.60
-33.83
-14.42
3.62
19.60
33.05
43.61
51.07
55.40
56.85
55.95
53.41
49.91
45.94
41.79
37.54
33.25
29.06
25.20
21.91
19.30
17.35
15.83
14.47
13.03
11.36
9.48
7.47
5.47
3.57
1.80
0.05
-1.87
-4.21
-7.14
-10.62
-14.42
-18.19
-21.63
-24.64
-27.41
-30.35
-33.92
-38.49
-44.19
-50.81
-57.71
-63.85
-67.92
-68.53
-64.61
-55.68
-42.07
-24.86
-5.63
13.93
32.42
48.87
62.80
74.00
82.49
88.31
91.57
92.51
91.52
89.18
86.08
82.80
79.72
77.04
74.81
73.03
71.66
70.73
70.18
69.90
69.69
69.22
68.19
66.36
63.75
60.53
56.99
53.44
49.99
46.65
43.23
39.53
35.43
30.93
26.13
21.22
16.42
11.94
7.84
4.10
0.50
-3.28
-7.65
-12.91
-19.15
-26.06
-32.93
-38.67
-42.08
-42.13
-38.32
-30.78
-20.31
-8.08
4.63
16.66
27.09
35.21
40.55
42.83
42.02
38.35
32.27
24.45
15.67
6.70
-1.70
-8.99
-14.86
-19.26
-22.38
-24.48
-25.81
-26.56
-26.90
-27.01
-27.11
-27.45
-28.21
-29.44
-31.10
-33.05
-35.16
-37.35
-39.56
-41.80
-44.03
-46.24
-48.42
-50.66
-53.15
-56.19
-60.09
-65.00
-70.70
-76.51
-81.30
-83.74
-82.55
-76.97
-66.89
-52.95
-36.33
-18.51
-0.93
15.25
29.20
40.46
48.83
54.31
57.06
57.38
55.69
52.58
48.70
44.77
41.38
38.91
37.45
36.80
36.59
36.36
35.78
34.62
32.80
30.26
26.95
22.90
18.17
12.96
7.56
2.22
-2.93
-7.95
-13.01
-18.27
-23.76
-29.36
-34.85
-40.07
-45.01
-49.93
-55.22
-61.25
-68.08
-75.32
-81.97
-86.67
-87.96
-84.75
-76.59
-63.87
-47.65
-29.35
-10.44
7.84
24.62
39.30
51.47
60.86
67.30
70.81
71.61
70.22
67.32
63.65
59.84
56.31
53.22
50.56
48.24
46.20
44.38
42.77
41.29
39.82
38.14
36.05
33.37
30.06
26.18
21.90
17.47
13.10
8.89
4.82
0.71
-3.61
-8.31
-13.43
-18.84
-24.31
-29.56
-34.36
-38.64
-42.46
-46.05
-49.76
-53.94
-58.89
-64.80
-71.57
-78.73
-85.32
-90.02
-91.36
-88.13
-79.79
-66.69
-49.96
-31.22
-12.12
5.97
22.13
35.85
46.87
55.14
60.72
63.79
64.61
63.60
61.17
57.81
53.97
50.05
46.33
43.02
40.23
38.00
36.33
35.13
34.24
33.41
32.32
30.76
28.55
25.70
22.31
18.57
14.65
10.68
6.74
2.83
-1.12
-5.27
-9.73
-14.54
-19.59
-24.62
-29.35
-33.63
-37.50
-41.23
-45.22
-49.81
-55.17
-61.15
-67.21
-72.52
-76.10
-76.94
-74.31
-67.92
-57.92
-44.95
-29.95
-13.95
2.02
17.03
30.24
40.91
48.53
52.84
53.99
52.50
49.18
44.95
40.63
36.83
33.83
31.68
30.22
29.18
28.26
27.21
25.87
24.15
22.08
19.68
17.01
14.04
10.73
7.05
3.00
-1.33
-5.84
-10.45
-15.15
-19.96
-24.94
-30.08
-35.38
-40.90
-46.78
-53.13
-59.86
-66.42
-71.75
-74.47
-73.24
-67.25
-56.58
-42.12
-25.36
-7.92
8.85
23.96
36.80
47.01
54.37
58.76
60.30
59.35
56.53
52.65
48.49
44.66
41.50
39.02
37.00
35.17
33.33
31.43
29.52
27.72
26.03
24.30
22.29
19.75
16.55
12.76
8.61
4.40
0.29
-3.71
-7.82
-12.32
-17.37
-22.97
-28.84
-34.60
-39.88
-44.57
-48.79
-52.96
-57.51
-62.83
-68.98
-75.61
-81.97
-86.90
-89.10
-87.39
-81.05
-69.98
-54.83
-36.80
-17.38
1.94
19.97
35.83
49.03
59.30
66.62
71.09
72.94
72.49
70.17
66.45
61.85
56.89
52.01
47.56
43.76
40.71
38.36
36.59
35.24
34.14
33.15
32.09
30.79
29.04
26.65
23.54
19.74
15.41
10.79
6.10
1.46
-3.10
-7.65
-12.29
-17.10
-22.12
-27.36
-32.77
-38.28
-43.77
-49.18
-54.53
-59.96
-65.73
-72.04
-78.83
-85.58
-91.33
-94.76
-94.55
-89.75
-80.10
-66.09
-48.93
-30.16
-11.36
6.21
21.76
34.89
45.50
53.54
58.99
61.82
62.21
60.57
57.58
54.03
50.57
47.58
45.14
43.17
41.51
40.09
38.83
37.65
36.35
34.68
32.43
29.50
25.97
22.04
17.94
13.82
9.72
5.59
1.33
-3.12
-7.82
-12.74
-17.85
-23.02
-28.10
-32.97
-37.60
-42.14
-46.91
-52.24
-58.21
-64.42
-69.93
-73.44
-73.62
-69.57
-61.14
-48.94
-34.18
-18.25
-2.49
12.09
24.76
35.03
42.53
47.04
48.53
47.31
44.02
39.58
34.93
30.82
27.65
25.43
23.92
22.80
21.83
20.86
19.85
18.73
17.42
15.83
13.82
11.30
8.20
4.48
0.11
-4.88
-10.35
-16.03
-21.67
-27.04
-32.09
-37.02
-42.19
-47.98
-54.59
-61.82
-69.05
-75.27
-79.25
-79.79
-76.09
-67.85
-55.51
-40.07
-22.89
-5.38
11.26
26.12
38.64
48.43
55.32
59.28
60.51
59.49
56.87
53.37
49.57
45.87
42.44
39.36
36.67
34.48
32.81
31.57
30.52
29.30
27.59
25.21
22.23
18.85
15.29
11.64
7.80
3.59
-1.18
-6.54
-12.30
-18.20
-23.95
-29.39
-34.51
-39.36
-44.11
-48.92
-54.00
-59.61
-65.91
-72.71
-79.37
-84.69
-87.19
-85.50
-78.82
-67.20
-51.56
-33.38
-14.29
4.30
21.41
36.46
49.11
59.07
66.14
70.25
71.58
70.62
68.09
64.76
61.23
57.81
54.60
51.59
48.77
46.25
44.16
42.55
41.31
40.20
38.91
37.16
34.76
31.65
27.86
23.51
18.79
13.89
8.98
4.16
-0.57
-5.29
-10.05
-14.89
-19.74
-24.50
-29.09
-33.52
-37.85
-42.23
-46.78
-51.68
-57.10
-63.15
-69.75
-76.50
-82.53
-86.62
-87.43
-83.91
-75.58
-62.75
-46.42
-28.06
-9.21
8.78
24.89
38.47
49.15
56.81
61.52
63.61
63.58
62.01
59.51
56.56
53.49
50.47
47.61
45.00
42.76
41.01
39.80
39.05
38.55
38.03
37.15
35.67
33.41
30.36
26.62
22.44
18.09
13.77
9.55
5.32
0.89
-3.91
-9.04
-14.32
-19.43
-24.13
-28.34
-32.20
-36.02
-40.18
-45.02
-50.66
-56.97
-63.46
-69.35
-73.56
-75.03
-72.88
-66.70
-56.66
-43.45
-28.14
-11.95
3.94
18.47
30.79
40.25
46.48
49.47
49.57
47.46
43.98
39.98
36.10
32.77
30.18
28.34
27.14
26.37
25.76
25.05
24.06
22.70
20.96
18.85
16.29
13.12
9.19
4.49
-0.84
-6.48
-12.13
-17.59
-22.83
-28.02
-33.36
-39.06
-45.31
-52.18
-59.56
-67.04
-73.82
-78.75
-80.57
-78.18
-71.09
-59.53
-44.44
-27.24
-9.45
7.61
22.98
36.08
46.56
54.27
59.19
61.42
61.26
59.17
55.76
51.65
47.42
43.48
40.07
37.27
35.03
33.19
31.57
30.02
28.37
26.51
24.33
21.70
18.59
15.04
11.18
7.16
3.09
-1.05
-5.40
-10.11
-15.26
-20.78
-26.39
-31.76
-36.64
-40.96
-44.95
-49.05
-53.81
-59.61
-66.47
-73.84
-80.54
-85.08
-85.89
-81.87
-72.69
-58.89
-41.77
-22.93
-3.96
13.88
29.76
43.25
54.11
62.25
67.69
70.59
71.30
70.35
68.32
65.79
63.16
60.66
58.32
56.07
53.86
51.68
49.53
47.47
45.47
43.41
41.13
38.44
35.18
31.29
26.83
21.91
16.70
11.38
6.11
0.94
-4.15
-9.29
-14.61
-20.21
-26.03
-31.88
-37.51
-42.68
-47.29
-51.39
-55.22
-59.13
-63.53
-68.70
-74.68
-81.08
-87.02
-91.20
-92.24
-89.02
-81.04
-68.60
-52.68
-34.69
-16.07
1.93
18.36
32.58
44.17
52.92
58.77
61.85
62.43
60.95
57.98
54.15
50.08
46.30
43.11
40.59
38.58
36.79
34.94
32.87
30.62
28.34
26.13
23.96
21.61
18.80
15.29
11.04
6.20
1.06
-4.07
-9.03
-13.77
-18.36
-22.91
-27.48
-32.13
-36.94
-42.05
-47.51
-53.16
-58.46
-62.48
-64.11
-62.32
-56.57
-46.95
-34.19
-19.41
-3.92
11.10
24.66
35.96
44.44
49.80
52.01
51.41
48.63
44.48
39.81
35.35
31.58
28.72
26.71
25.32
24.23
23.13
21.78
20.12
18.12
15.79
13.10
9.92
6.10
1.53
-3.73
-9.48
-15.37
-21.07
-26.37
-31.31
-36.09
-41.06
-46.52
-52.73
-59.79
-67.55
-75.54
-82.91
-88.47
-90.89
-89.03
-82.31
-70.85
-55.52
-37.65
-18.71
-0.08
17.12
32.06
44.23
53.31
59.28
62.36
62.91
61.45
58.52
54.72
50.60
46.66
43.24
40.48
38.32
36.55
34.92
33.20
31.26
29.05
26.52
23.63
20.33
16.64
12.63
8.43
4.14
-0.21
-4.71
-9.46
-14.57
-20.03
-25.72
-31.43
-36.94
-42.13
-47.06
-52.01
-57.37
-63.47
-70.30
-77.35
-83.50
-87.26
-87.09
-81.98
-71.72
-57.04
-39.36
-20.34
-1.47
16.21
32.06
45.67
56.70
64.81
69.76
71.65
70.96
68.49
65.19
61.80
58.75
56.12
53.77
51.55
49.40
47.41
45.70
44.29
43.02
41.59
39.59
36.72
32.90
28.26
23.18
18.05
13.13
8.46
3.83
-1.09
-6.56
-12.62
-19.05
-25.47
-31.50
-36.88
-41.57
-45.76
-49.74
-53.87
-58.49
-63.87
-70.11
-76.93
-83.61
-88.88
-91.19
-89.13
-81.85
-69.45
-52.91
-33.85
-13.98
5.21
22.71
37.90
50.37
59.83
66.06
69.06
69.06
66.61
62.51
57.57
52.52
47.87
43.92
40.75
38.35
36.57
35.21
33.99
32.59
30.69
28.11
24.85
21.02
16.86
12.59
8.31
4.01
-0.39
-4.94
-9.62
-14.30
-18.82
-23.06
-27.04
-30.88
-34.85
-39.19
-44.11
-49.61
-55.37
-60.73
-64.67
-66.02
-63.76
-57.33
-46.84
-33.03
-17.13
-0.50
15.59
30.06
42.10
51.15
56.93
59.46
59.12
56.52
52.45
47.66
42.81
38.39
34.72
31.91
29.92
28.52
27.39
26.24
24.86
23.20
21.26
19.02
16.39
13.20
9.26
4.54
-0.87
-6.75
-12.86
-19.00
-25.12
-31.24
-37.50
-44.11
-51.30
-59.31
-68.24
-77.79
-87.16
-94.98
-99.63
-99.60
-94.00
-82.82
-66.98
-48.05
-27.77
-7.73
10.86
27.23
40.93
51.71
59.47
64.24
66.27
66.03
64.11
61.18
57.78
54.26
50.80
47.48
44.42
41.79
39.74
38.29
37.24
36.16
34.64
32.32
29.17
25.30
20.94
16.26
11.30
6.02
0.41
-5.47
-11.51
-17.60
-23.64
-29.60
-35.45
-41.17
-46.78
-52.40
-58.29
-64.69
-71.67
-78.84
-85.28
-89.59
-90.31
-86.31
-77.25
-63.62
-46.61
-27.75
-8.51
9.91
26.67
41.17
52.99
61.83
67.59
70.40
70.68
69.06
66.21
62.75
59.10
55.50
52.05
48.77
45.68
42.85
40.31
38.08
36.09
34.18
32.11
29.67
26.71
23.20
19.22
14.88
10.32
5.60
0.74
-4.24
-9.36
-14.60
-19.92
-25.27
-30.61
-35.86
-40.99
-46.03
-51.07
-56.32
-62.04
-68.41
-75.38
-82.51
-88.85
-93.17
-94.12
-90.69
-82.46
-69.77
-53.62
-35.39
-16.53
1.73
18.48
33.07
45.02
54.00
59.85
62.64
62.71
60.65
57.17
52.96
48.62
44.55
41.00
38.10
35.88
34.26
33.06
32.01
30.81
29.18
26.99
24.21
20.91
17.22
13.21
8.91
4.30
-0.61
-5.77
-11.05
-16.27
-21.29
-26.05
-30.66
-35.31
-40.26
-45.69
-51.57
-57.61
-63.15
-67.28
-68.94
-67.21
-61.48
-51.70
-38.42
-22.67
-5.72
11.12
26.74
40.25
50.95
58.34
62.13
62.43
59.73
54.96
49.22
43.56
38.67
34.78
31.80
29.40
27.27
25.19
23.06
20.87
18.61
16.25
13.67
10.63
6.90
2.23
-3.44
-9.95
-16.90
-23.79
-30.16
-35.79
-40.78
-45.49
-50.48
-56.27
-63.15
-70.98
-79.09
-86.28
-91.04
-91.89
-87.77
-78.35
-64.10
-46.27
-26.49
-6.45
12.41
29.10
43.02
53.90
61.66
66.33
68.05
67.16
64.18
59.88
55.03
50.36
46.27
42.90
40.09
37.59
35.19
32.76
30.26
27.70
25.03
22.18
19.01
15.40
11.26
6.59
1.45
-4.02
-9.66
-15.34
-20.97
-26.57
-32.24
-38.15
-44.54
-51.60
-59.43
-67.91
-76.55
-84.46
-90.42
-93.01
-90.96
-83.47
-70.56
-53.02
-32.37
-10.50
10.78
30.01
46.22
58.94
68.05
73.67
76.09
75.77
73.29
69.36
64.66
59.79
55.17
51.03
47.46
44.52
42.18
40.39
39.00
37.74
36.23
34.13
31.26
27.65
23.52
19.12
14.63
9.99
5.02
-0.50
-6.58
-13.05
-19.58
-25.86
-31.69
-37.14
-42.40
-47.80
-53.65
-60.22
-67.64
-75.76
-83.96
-91.12
-95.66
-95.90
-90.59
-79.32
-62.79
-42.56
-20.66
1.01
20.98
38.39
52.75
63.84
71.53
75.86
77.08
75.73
72.56
68.33
63.70
59.08
54.73
50.80
47.42
44.70
42.66
41.15
39.83
38.27
36.05
32.96
29.03
24.49
19.64
14.66
9.58
4.29
-1.32
-7.23
-13.33
-19.40
-25.25
-30.83
-36.18
-41.46
-46.88
-52.69
-59.15
-66.41
-74.40
-82.53
-89.69
-94.32
-94.77
-89.82
-79.11
-63.29
-43.86
-22.74
-1.79
17.55
34.33
47.96
58.05
64.35
66.78
65.64
61.64
55.91
49.68
44.01
39.47
36.17
33.82
32.01
30.43
28.97
27.70
26.67
25.77
24.70
23.01
20.32
16.46
11.62
6.20
0.68
-4.65
-9.73
-14.79
-20.15
-26.10
-32.80
-40.22
-48.14
-56.10
-63.32
-68.73
-71.06
-69.16
-62.35
-50.69
-35.03
-16.82
2.22
20.50
36.69
49.86
59.38
64.92
66.45
64.33
59.39
52.74
45.61
39.00
33.50
29.16
25.68
22.62
19.63
16.60
13.62
10.83
8.24
5.65
2.74
-0.89
-5.45
-10.90
-16.92
-23.08
-28.94
-34.29
-39.19
-43.96
-49.05
-54.94
-61.91
-69.87
-78.22
-85.79
-90.99
-92.14
-87.94
-77.89
-62.47
-43.12
-21.74
-0.32
19.51
36.73
50.85
61.73
69.42
74.00
75.61
74.54
71.26
66.48
60.97
55.40
50.19
45.52
41.35
37.59
34.19
31.16
28.53
26.23
24.10
21.83
19.15
15.80
11.63
6.68
1.09
-4.92
-11.05
-17.11
-22.97
-28.66
-34.33
-40.25
-46.71
-53.96
-62.03
-70.63
-78.99
-85.86
-89.77
-89.29
-83.54
-72.41
-56.69
-37.84
-17.60
2.37
20.85
37.01
50.45
60.89
68.17
72.23
73.19
71.43
67.61
62.56
57.08
51.82
47.16
43.20
39.84
36.91
34.24
31.72
29.28
26.89
24.50
22.01
19.26
16.07
12.26
7.76
2.56
-3.15
-9.14
-15.15
-20.96
-26.50
-31.78
-36.97
-42.30
-48.06
-54.54
-61.88
-69.91
-78.01
-85.03
-89.50
-89.97
-85.47
-75.80
-61.65
-44.37
-25.60
-6.86
10.66
26.15
39.11
49.20
56.19
60.07
61.03
59.50
56.10
51.56
46.58
41.71
37.37
33.75
30.89
28.64
26.75
24.91
22.85
20.45
17.74
14.83
11.83
8.81
5.74
2.57
-0.73
-4.11
-7.42
-10.47
-13.15
-15.43
-17.45
-19.52
-21.99
-25.22
-29.39
-34.49
-40.21
-45.91
-50.67
-53.43
-53.18
-49.23
-41.37
-30.03
-16.13
-0.90
14.35
28.51
40.65
50.12
56.54
59.81
60.14
58.05
54.29
49.67
44.96
40.70
37.16
34.41
32.34
30.72
29.31
27.89
26.31
24.51
22.48
20.20
17.59
14.51
10.81
6.46
1.57
-3.63
-8.86
-13.91
-18.74
-23.44
-28.24
-33.39
-39.12
-45.53
-52.59
-59.94
-66.88
-72.36
-75.15
-74.21
-68.94
-59.47
-46.60
-31.55
-15.61
0.12
14.88
28.14
39.49
48.54
54.95
58.58
59.52
58.20
55.20
51.17
46.72
42.38
38.57
35.54
33.32
31.76
30.49
29.11
27.28
24.89
21.99
18.80
15.54
12.32
9.07
5.58
1.61
-3.01
-8.28
-13.97
-19.73
-25.19
-30.15
-34.64
-38.89
-43.25
-48.07
-53.57
-59.79
-66.47
-73.04
-78.57
-81.87
-81.71
-77.19
-68.07
-54.89
-38.88
-21.66
-4.74
10.73
24.10
35.16
43.84
50.13
54.03
55.62
55.20
53.28
50.47
47.35
44.29
41.45
38.83
36.38
34.07
31.92
29.94
28.04
26.06
23.79
21.03
17.68
13.76
9.34
4.58
-0.37
-5.40
-10.40
-15.28
-20.00
-24.54
-28.95
-33.29
-37.73
-42.44
-47.59
-53.31
-59.55
-65.99
-71.97
-76.49
-78.38
-76.63
-70.69
-60.64
-47.25
-31.70
-15.29
0.79
15.67
28.78
39.70
48.12
53.82
56.73
57.01
55.08
51.63
47.41
43.10
39.18
35.89
33.22
31.02
29.11
27.32
25.53
23.67
21.69
19.58
17.32
14.87
12.20
9.22
5.87
2.10
-2.09
-6.64
-11.46
-16.39
-21.31
-26.10
-30.67
-35.02
-39.28
-43.64
-48.38
-53.69
-59.54
-65.49
-70.66
-73.82
-73.77
-69.67
-61.36
-49.42
-35.00
-19.45
-4.00
10.36
22.97
33.30
41.00
45.82
47.79
47.20
44.64
40.87
36.68
32.72
29.39
26.83
24.94
23.50
22.26
21.05
19.80
18.50
17.08
15.43
13.32
10.55
7.02
2.83
-1.75
-6.41
-10.89
-15.10
-19.16
-23.33
-27.94
-33.21
-39.17
-45.65
-52.20
-58.18
-62.77
-65.11
-64.42
-60.20
-52.31
-41.12
-27.38
-12.18
3.34
18.10
31.20
41.93
49.84
54.68
56.45
55.52
52.48
48.19
43.49
39.10
35.43
32.55
30.32
28.47
26.79
25.12
23.39
21.53
19.43
16.96
13.96
10.30
5.97
1.06
-4.24
-9.64
-14.87
-19.75
-24.24
-28.47
-32.68
-37.16
-42.15
-47.84
-54.29
-61.33
-68.48
-74.86
-79.24
-80.32
-77.06
-69.07
-56.76
-41.27
-24.07
-6.63
9.86
24.68
37.40
47.79
55.66
60.90
63.48
63.59
61.64
58.24
54.02
49.55
45.21
41.19
37.57
34.33
31.50
29.04
26.89
24.92
22.94
20.74
18.22
15.33
12.03
8.32
4.13
-0.60
-5.85
-11.47
-17.21
-22.76
-27.94
-32.75
-37.39
-42.15
-47.37
-53.23
-59.71
-66.53
-73.04
-78.28
-81.07
-80.30
-75.26
-65.84
-52.65
-36.81
-19.69
-2.56
13.57
28.02
40.33
50.17
57.32
61.75
63.58
63.16
60.94
57.46
53.27
48.84
44.58
40.77
37.50
34.74
32.39
30.30
28.33
26.36
24.22
21.74
18.77
15.25
11.28
7.02
2.64
-1.79
-6.31
-11.03
-15.93
-20.94
-25.82
-30.41
-34.66
-38.79
-43.19
-48.27
-54.22
-60.80
-67.31
-72.61
-75.44
-74.65
-69.60
-60.25
-47.26
-31.75
-15.02
1.69
17.38
31.27
42.83
51.67
57.55
60.43
60.53
58.35
54.58
50.01
45.38
41.23
37.83
35.18
33.09
31.28
29.55
27.82
26.11
24.45
22.82
21.09
19.02
16.35
12.93
8.77
4.06
-0.90
-5.80
-10.43
-14.72
-18.81
-22.99
-27.57
-32.80
-38.76
-45.22
-51.69
-57.36
-61.29
-62.52
-60.29
-54.24
-44.52
-31.76
-16.96
-1.33
13.87
27.46
38.53
46.47
51.02
52.31
50.83
47.31
42.63
37.64
32.99
29.06
25.90
23.34
21.11
19.00
16.93
14.95
13.06
11.21
9.13
6.44
2.79
-1.97
-7.73
-14.08
-20.47
-26.39
-31.57
-36.07
-40.29
-44.79
-50.06
-56.35
-63.44
-70.70
-77.02
-81.15
-81.81
-78.09
-69.64
-56.84
-40.74
-22.81
-4.69
12.27
27.13
39.40
48.96
55.83
60.10
61.93
61.61
59.56
56.35
52.55
48.62
44.82
41.21
37.79
34.56
31.60
29.02
26.89
25.13
23.51
21.68
19.24
15.91
11.61
6.50
0.87
-4.87
-10.39
-15.54
-20.35
-25.03
-29.88
-35.18
-41.13
-47.78
-54.97
-62.32
-69.10
-74.32
-76.84
-75.59
-69.91
-59.78
-45.86
-29.36
-11.73
5.68
21.80
35.90
47.57
56.55
62.76
66.21
67.10
65.76
62.74
58.65
54.09
49.53
45.30
41.56
38.34
35.61
33.30
31.32
29.54
27.77
25.78
23.36
20.40
16.91
13.00
8.77
4.28
-0.50
-5.62
-11.08
-16.78
-22.54
-28.06
-33.12
-37.65
-41.80
-45.95
-50.58
-56.08
-62.46
-69.28
-75.53
-79.87
-81.01
-78.00
-70.49
-58.84
-43.93
-26.97
-9.27
7.94
23.59
36.86
47.20
54.33
58.27
59.31
57.99
55.02
51.14
47.00
43.06
39.51
36.36
33.56
31.01
28.76
26.84
25.29
24.02
22.82
21.44
19.62
17.16
14.02
10.25
6.00
1.51
-3.00
-7.29
-11.30
-15.08
-18.82
-22.84
-27.43
-32.83
-38.99
-45.62
-52.04
-57.31
-60.37
-60.21
-56.21
-48.21
-36.64
-22.43
-6.79
9.01
23.78
36.54
46.57
53.41
56.89
57.18
54.76
50.39
44.97
39.35
34.23
29.95
26.59
23.96
21.78
19.81
17.90
16.00
14.10
12.16
10.02
7.42
4.14
0.00
-4.97
-10.56
-16.41
-22.15
-27.53
-32.48
-37.12
-41.69
-46.46
-51.68
-57.57
-64.14
-71.13
-77.87
-83.27
-85.99
-84.82
-79.00
-68.51
-54.08
-37.02
-18.83
-0.93
15.61
30.03
41.88
50.92
57.09
60.49
61.38
60.20
57.50
53.88
49.91
46.06
42.61
39.66
37.18
35.08
33.29
31.71
30.25
28.72
26.92
24.65
21.79
18.37
14.49
10.31
5.92
1.34
-3.49
-8.62
-14.05
-19.73
-25.54
-31.36
-37.08
-42.71
-48.32
-54.14
-60.42
-67.30
-74.56
-81.44
-86.76
-89.06
-87.09
-80.15
-68.38
-52.68
-34.51
-15.43
3.17
20.24
35.07
47.21
56.39
62.48
65.58
66.00
64.27
61.09
57.08
52.75
48.41
44.20
40.25
36.70
33.73
31.45
29.83
28.61
27.41
25.85
23.69
20.92
17.75
14.40
11.04
7.64
3.99
-0.13
-4.84
-10.11
-15.69
-21.30
-26.68
-31.72
-36.46
-41.08
-45.84
-51.05
-56.98
-63.62
-70.57
-76.90
-81.30
-82.38
-79.06
-70.97
-58.51
-42.72
-25.02
-6.85
10.50
26.03
39.02
48.99
55.71
59.20
59.73
57.83
54.19
49.60
44.80
40.36
36.59
33.54
31.07
28.99
27.15
25.47
23.96
22.58
21.22
19.61
17.41
14.35
10.31
5.42
0.04
-5.36
-10.42
-14.94
-19.02
-22.95
-27.13
-31.91
-37.49
-43.82
-50.50
-56.77
-61.55
-63.66
-62.06
-56.15
-45.97
-32.23
-16.15
0.87
17.44
32.45
45.08
54.76
61.16
64.11
63.76
60.57
55.34
49.06
42.69
36.97
32.23
28.45
25.41
22.84
20.48
18.23
16.00
13.72
11.31
8.69
5.73
2.29
-1.75
-6.49
-11.91
-17.83
-23.94
-29.88
-35.42
-40.55
-45.45
-50.54
-56.23
-62.81
-70.28
-78.22
-85.74
-91.54
-94.16
-92.30
-85.17
-72.84
-56.17
-36.67
-16.05
4.08
22.46
38.28
51.08
60.61
66.86
70.01
70.44
68.73
65.56
61.58
57.31
53.07
49.05
45.38
42.16
39.44
37.21
35.31
33.47
31.37
28.75
25.49
21.63
17.34
12.80
8.07
3.15
-2.09
-7.74
-13.79
-20.09
-26.40
-32.49
-38.26
-43.77
-49.33
-55.32
-62.10
-69.81
-78.16
-86.39
-93.21
-97.05
-96.48
-90.59
-79.31
-63.48
-44.57
-24.37
-4.50
13.78
29.63
42.60
52.45
59.12
62.71
63.48
61.90
58.57
54.17
49.37
44.74
40.72
37.59
35.50
34.43
34.19
34.50
35.01
35.38
35.34
34.75
33.56
31.82
29.63
27.10
24.30
21.28
18.01
14.38
10.29
5.65
0.52
-4.94
-10.43
-15.66
-20.56
-25.33
-30.43
-36.40
-43.48
-51.37
-59.05
-65.00
-67.59
-65.54
-58.37
-46.46
-30.91
-13.23
4.99
22.35
37.72
50.30
59.58
65.34
67.66
66.86
63.52
58.34
52.15
45.71
39.67
34.48
30.28
27.02
24.52
22.57
21.02
19.82
18.86
18.01
16.97
15.42
13.08
9.84
5.86
1.43
-3.09
-7.43
-11.51
-15.39
-19.21
-23.10
-27.18
-31.55
-36.35
-41.69
-47.49
-53.35
-58.48
-61.78
-62.12
-58.62
-50.98
-39.52
-25.09
-8.89
7.82
23.84
38.11
49.71
57.88
62.14
62.45
59.26
53.46
46.21
38.65
31.61
25.54
20.51
16.39
12.93
9.96
7.32
4.82
2.23
-0.74
-4.36
-8.72
-13.75
-19.19
-24.72
-30.09
-35.18
-40.00
-44.70
-49.51
-54.69
-60.49
-67.04
-74.18
-81.33
-87.41
-91.04
-90.90
-86.01
-76.16
-61.90
-44.49
-25.52
-6.63
10.77
25.66
37.47
46.02
51.46
54.20
54.80
53.87
51.97
49.56
46.99
44.51
42.29
40.46
39.04
37.95
36.95
35.63
33.53
30.23
25.47
19.22
11.69
3.24
-5.75
-14.92
-24.11
-33.25
-42.43
-51.79
-61.44
-71.33
-81.08
-89.82
-96.26
-98.87
-96.27
-87.68
-73.30
-54.26
-32.39
-9.75
11.88
31.17
47.36
60.06
69.12
74.57
76.64
75.81
72.77
68.39
63.48
58.66
54.26
50.35
46.80
43.49
40.30
37.28
34.44
31.71
28.83
25.40
20.96
15.26
8.32
0.52
-7.56
-15.38
-22.64
-29.38
-36.00
-43.07
-51.07
-60.22
-70.21
-80.16
-88.68
-94.12
-94.89
-89.84
-78.64
-61.87
-40.95
-17.81
5.49
27.19
46.00
61.23
72.62
80.26
84.40
85.43
83.87
80.30
75.38
69.73
63.88
58.24
53.13
48.74
45.17
42.39
40.24
38.46
36.80
35.04
33.11
30.96
28.60
25.94
22.84
19.14
14.68
9.44
3.50
-2.91
-9.55
-16.23
-22.92
-29.73
-36.96
-44.99
-54.13
-64.44
-75.54
-86.49
-95.90
-102.08
-103.49
-99.07
-88.55
-72.57
-52.52
-30.28
-7.76
13.40
32.07
47.63
59.84
68.71
74.34
76.92
76.75
74.36
70.42
65.70
60.85
56.29
52.21
48.65
45.64
43.25
41.59
40.64
40.19
39.75
38.73
36.56
32.89
27.76
21.44
14.45
7.32
0.45
-6.01
-12.15
-18.24
-24.59
-31.36
-38.49
-45.61
-52.26
-57.99
-62.52
-65.86
-68.28
-70.26
-72.38
-75.20
-79.08
-83.97
-89.33
-94.00
-96.40
-94.91
-88.27
-76.07
-58.91
-38.23
-15.96
5.96
26.00
43.21
57.21
68.01
75.81
80.92
83.71
84.62
84.12
82.70
80.79
78.66
76.42
74.04
71.45
68.58
65.35
61.74
57.70
53.22
48.31
43.03
37.47
31.68
25.68
19.41
12.88
6.18
-0.47
-6.79
-12.60
-17.83
-22.60
-27.14
-31.69
-36.58
-42.12
-48.64
-56.29
-64.85
-73.53
-81.00
-85.64
-86.00
-81.22
-71.32
-57.22
-40.36
-22.38
-4.77
11.32
25.07
35.94
43.56
47.81
48.81
47.02
43.20
38.26
33.07
28.26
24.11
20.58
17.48
14.61
11.87
9.24
6.77
4.41
2.03
-0.66
-3.97
-8.12
-13.17
-18.91
-24.98
-30.94
-36.49
-41.53
-46.31
-51.23
-56.77
-63.16
-70.16
-77.04
-82.58
-85.36
-84.08
-77.93
-66.76
-51.16
-32.26
-11.55
9.42
29.17
46.45
60.25
69.99
75.51
77.06
75.32
71.14
65.42
59.01
52.55
46.52
41.19
36.67
32.96
29.94
27.48
25.43
23.62
21.81
19.74
17.09
13.59
9.09
3.63
-2.59
-9.31
-16.31
-23.50
-30.92
-38.81
-47.42
-57.01
-67.56
-78.71
-89.51
-98.51
-104.03
-104.50
-98.97
-87.37
-70.59
-50.19
-28.08
-6.05
14.40
32.19
46.61
57.28
64.09
67.24
67.20
64.68
60.49
55.47
50.34
45.62
41.59
38.34
35.80
33.89
32.48
31.43
30.57
29.67
28.47
26.72
24.18
20.76
16.45
11.33
5.50
-0.89
-7.67
-14.66
-21.64
-28.44
-34.96
-41.20
-47.29
-53.48
-60.02
-67.16
-74.88
-82.76
-89.82
-94.64
-95.59
-91.32
-81.19
-65.56
-45.73
-23.55
-1.05
20.15
38.92
54.66
67.14
76.30
82.21
85.04
85.18
83.17
79.65
75.22
70.33
65.31
60.39
55.81
51.83
48.64
46.33
44.77
43.63
42.48
40.93
38.76
35.89
32.41
28.49
24.31
20.04
15.80
11.64
7.61
3.71
-0.08
-3.83
-7.58
-11.39
-15.27
-19.14
-22.87
-26.30
-29.32
-31.89
-34.08
-36.06
-38.03
-40.14
-42.50
-45.14
-47.96
-50.83
-53.59
-56.12
-58.37
-60.42
-62.50
-64.95
-68.15
-72.34
-77.41
-82.72
-87.04
-88.79
-86.40
-78.76
-65.63
-47.67
-26.32
-3.46
19.05
39.65
57.23
71.24
81.46
88.00
91.14
91.30
89.07
85.09
80.08
74.67
69.27
64.08
59.14
54.45
50.07
46.15
42.80
40.00
37.58
35.22
32.67
29.71
26.25
22.26
17.73
12.70
7.29
1.76
-3.65
-8.74
-13.52
-18.20
-23.04
-28.26
-33.82
-39.50
-44.93
-49.79
-53.90
-57.31
-60.29
-63.25
-66.67
-70.97
-76.27
-82.22
-87.94
-92.14
-93.36
-90.40
-82.61
-70.08
-53.62
-34.58
-14.52
5.01
22.67
37.50
48.95
56.87
61.41
62.92
61.89
58.85
54.41
49.23
44.01
39.33
35.58
32.88
31.12
29.98
29.10
28.18
27.04
25.62
23.95
22.05
19.88
17.28
14.07
10.12
5.50
0.48
-4.62
-9.51
-14.14
-18.64
-23.24
-28.11
-33.30
-38.82
-44.64
-50.77
-57.04
-62.96
-67.59
-69.68
-68.01
-61.83
-51.16
-36.84
-20.32
-3.19
13.09
27.46
39.23
48.02
53.63
56.02
55.35
52.07
46.89
40.70
34.39
28.69
24.02
20.49
17.97
16.25
15.10
14.28
13.56
12.66
11.32
9.28
6.38
2.58
-2.04
-7.31
-13.03
-18.95
-24.86
-30.57
-35.95
-41.01
-45.83
-50.62
-55.63
-61.16
-67.46
-74.62
-82.39
-90.08
-96.56
-100.32
-99.95
-94.44
-83.53
-67.87
-48.79
-28.03
-7.33
11.91
28.70
42.44
52.88
59.92
63.70
64.53
62.91
59.52
55.09
50.36
45.88
41.97
38.78
36.28
34.36
32.86
31.61
30.43
29.13
27.55
25.53
22.99
19.85
16.09
11.70
6.71
1.16
-4.85
-11.18
-17.66
-24.11
-30.41
-36.53
-42.52
-48.51
-54.76
-61.52
-68.97
-77.11
-85.50
-93.23
-98.87
-100.80
-97.58
-88.46
-73.59
-54.15
-31.92
-8.93
13.06
32.75
49.36
62.45
71.74
77.21
79.01
77.73
74.21
69.48
64.46
59.73
55.54
51.91
48.82
46.29
44.41
43.18
42.41
41.76
40.77
39.10
36.58
33.26
29.32
24.95
20.25
15.20
9.72
3.73
-2.74
-9.58
-16.56
-23.47
-30.16
-36.61
-42.97
-49.46
-56.43
-64.08
-72.38
-80.82
-88.40
-93.68
-95.07
-91.30
-81.78
-66.83
-47.62
-25.87
-3.44
17.99
37.12
53.06
65.26
73.52
77.93
78.90
77.12
73.41
68.60
63.40
58.27
53.55
49.49
46.30
44.14
42.97
42.51
42.27
41.72
40.45
38.32
35.43
31.96
28.07
23.75
18.90
13.37
7.15
0.40
-6.60
-13.56
-20.25
-26.53
-32.37
-37.79
-42.94
-48.12
-53.69
-60.02
-67.16
-74.68
-81.49
-86.05
-86.69
-82.09
-71.72
-56.06
-36.47
-14.82
6.92
27.09
44.49
58.37
68.30
74.10
75.84
73.92
69.14
62.62
55.59
49.14
43.94
40.20
37.72
36.08
34.88
33.81
32.69
31.41
29.89
28.01
25.63
22.58
18.71
13.97
8.43
2.30
-4.16
-10.67
-17.06
-23.27
-29.36
-35.46
-41.73
-48.39
-55.61
-63.43
-71.53
-79.06
-84.63
-86.60
-83.47
-74.45
-59.72
-40.46
-18.49
4.18
25.78
44.97
60.83
72.76
80.44
83.81
83.22
79.44
73.53
66.64
59.76
53.57
48.38
44.26
41.17
39.03
37.71
36.97
36.49
35.80
34.47
32.16
28.76
24.38
19.32
13.91
8.37
2.75
-3.08
-9.28
-15.94
-22.97
-30.11
-37.11
-43.74
-49.90
-55.68
-61.27
-66.97
-73.11
-79.90
-87.30
-94.73
-100.98
-104.35
-103.09
-95.90
-82.41
-63.38
-40.48
-15.82
8.55
31.01
50.44
66.22
78.01
85.74
89.55
89.87
87.43
83.14
77.98
72.75
67.90
63.64
59.90
56.60
53.77
51.51
49.99
49.23
49.03
48.95
48.42
46.98
44.43
40.87
36.66
32.23
27.85
23.57
19.21
14.49
9.23
3.45
-2.64
-8.72
-14.49
-19.79
-24.63
-29.10
-33.39
-37.62
-41.90
-46.23
-50.57
-54.83
-58.92
-62.76
-66.36
-69.90
-73.72
-78.26
-83.95
-90.86
-98.56
-105.87
-111.05
-112.14
-107.53
-96.43
-79.15
-57.10
-32.38
-7.21
16.49
37.39
54.76
68.32
78.08
84.14
86.77
86.36
83.50
78.90
73.34
67.53
61.99
57.07
52.97
49.78
47.49
46.00
45.11
44.49
43.79
42.65
40.80
38.16
34.80
30.91
26.69
22.25
17.60
12.74
7.68
2.52
-2.58
-7.48
-12.15
-16.69
-21.22
-25.82
-30.43
-34.91
-39.11
-42.95
-46.46
-49.77
-53.08
-56.66
-60.84
-65.89
-71.86
-78.37
-84.46
-88.72
-89.64
-85.96
-77.15
-63.48
-46.01
-26.26
-5.84
13.74
31.28
45.91
57.09
64.61
68.51
69.11
66.97
62.82
57.49
51.79
46.40
41.75
38.03
35.22
33.20
31.82
30.94
30.38
29.87
29.06
27.60
25.29
22.13
18.32
14.20
10.07
6.06
2.11
-1.98
-6.40
-11.27
-16.52
-21.95
-27.27
-32.30
-36.97
-41.39
-45.80
-50.54
-55.86
-61.84
-68.23
-74.37
-79.20
-81.45
-79.87
-73.63
-62.55
-47.23
-28.94
-9.33
9.94
27.45
42.20
53.62
61.44
65.63
66.43
64.30
60.03
54.55
48.85
43.69
39.52
36.40
34.16
32.56
31.41
30.61
30.07
29.57
28.83
27.46
25.16
21.85
17.67
12.91
7.94
2.97
-1.91
-6.80
-11.86
-17.18
-22.76
-28.47
-34.14
-39.61
-44.82
-49.79
-54.62
-59.49
-64.63
-70.27
-76.58
-83.42
-90.19
-95.76
-98.63
-97.27
-90.65
-78.56
-61.80
-41.91
-20.72
0.03
19.05
35.56
49.09
59.38
66.32
69.92
70.43
68.36
64.41
59.43
54.16
49.17
44.78
41.14
38.27
36.15
34.74
33.91
33.41
32.90
31.95
30.24
27.61
24.14
20.08
15.70
11.20
6.65
1.94
-3.04
-8.39
-14.06
-19.88
-25.59
-30.97
-35.96
-40.67
-45.39
-50.53
-56.47
-63.35
-70.95
-78.56
-85.00
-88.82
-88.56
-83.26
-72.63
-57.29
-38.63
-18.40
1.62
20.05
35.96
48.89
58.67
65.26
68.71
69.21
67.18
63.33
58.52
53.61
49.23
45.59
42.64
40.19
38.12
36.48
35.39
34.84
34.60
34.18
33.05
30.85
27.54
23.36
18.71
13.92
9.16
4.40
-0.48
-5.58
-10.92
-16.43
-21.99
-27.48
-32.78
-37.85
-42.66
-47.28
-51.84
-56.58
-61.81
-67.79
-74.56
-81.67
-88.16
-92.62
-93.52
-89.68
-80.61
-66.68
-49.04
-29.32
-9.22
9.77
26.55
40.46
51.13
58.50
62.64
63.86
62.62
59.54
55.33
50.67
46.09
41.96
38.50
35.81
33.97
32.99
32.74
33.01
33.41
33.54
33.02
31.59
29.20
25.91
21.98
17.66
13.18
8.70
4.19
-0.44
-5.26
-10.29
-15.41
-20.42
-25.18
-29.63
-33.84
-38.05
-42.53
-47.57
-53.39
-59.92
-66.69
-72.68
-76.52
-76.72
-72.23
-62.80
-49.08
-32.46
-14.66
2.75
18.60
32.15
42.97
50.75
55.31
56.57
54.83
50.72
45.19
39.32
33.98
29.74
26.77
24.94
24.02
23.72
23.79
23.93
23.84
23.28
22.07
20.24
17.86
15.05
11.78
7.92
3.36
-1.92
-7.71
-13.65
-19.38
-24.67
-29.49
-34.03
-38.58
-43.50
-49.03
-55.31
-62.19
-69.18
-75.37
-79.49
-80.21
-76.41
-67.63
-54.22
-37.34
-18.65
0.12
17.53
32.63
44.98
54.44
61.03
64.80
65.91
64.66
61.56
57.32
52.65
48.14
44.17
40.86
38.18
36.09
34.54
33.46
32.71
32.05
31.10
29.52
27.07
23.68
19.51
14.85
10.05
5.32
0.77
-3.71
-8.30
-13.16
-18.34
-23.74
-29.13
-34.27
-39.04
-43.50
-47.91
-52.66
-58.06
-64.20
-70.75
-76.94
-81.52
-83.14
-80.59
-73.26
-61.33
-45.83
-28.27
-10.28
6.81
22.14
35.32
46.21
54.71
60.72
64.14
65.05
63.80
60.98
57.32
53.52
50.04
47.11
44.76
42.92
41.46
40.29
39.31
38.37
37.32
36.00
34.26
32.00
29.15
25.73
21.81
17.53
13.12
8.75
4.50
0.33
-3.94
-8.52
-13.46
-18.68
-23.90
-28.82
-33.17
-36.87
-40.03
-42.91
-45.92
-49.49
-53.99
-59.60
-66.13
-72.88
-78.67
-82.04
-81.63
-76.55
-66.72
-52.90
-36.40
-18.79
-1.46
14.54
28.51
40.01
48.79
54.77
58.06
59.00
58.08
55.92
53.09
50.05
47.07
44.27
41.70
39.35
37.27
35.51
34.13
33.11
32.36
31.64
30.69
29.23
27.11
24.31
20.97
17.28
13.42
9.51
5.58
1.60
-2.45
-6.59
-10.82
-15.14
-19.51
-23.92
-28.28
-32.47
-36.39
-39.96
-43.26
-46.50
-50.01
-54.13
-59.00
-64.38
-69.57
-73.45
-74.75
-72.38
-65.81
-55.19
-41.41
-25.76
-9.62
5.85
19.80
31.70
41.22
48.16
52.42
54.10
53.56
51.35
48.14
44.57
41.10
38.02
35.41
33.34
31.80
30.81
30.31
30.11
29.92
29.35
28.04
25.79
22.62
18.83
14.82
10.92
7.29
3.80
0.18
-3.83
-8.33
-13.20
-18.18
-23.02
-27.57
-31.84
-35.95
-40.08
-44.45
-49.24
-54.57
-60.28
-65.87
-70.38
-72.64
-71.50
-66.24
-56.84
-43.96
-28.82
-12.85
2.57
16.38
27.91
36.85
43.16
46.94
48.42
47.91
45.83
42.70
39.13
35.66
32.70
30.41
28.74
27.54
26.63
25.86
25.11
24.23
23.01
21.31
19.01
16.14
12.82
9.17
5.28
1.14
-3.31
-8.11
-13.25
-18.58
-23.92
-29.10
-33.96
-38.49
-42.76
-46.98
-51.43
-56.38
-62.05
-68.39
-74.97
-80.95
-85.10
-86.16
-83.11
-75.52
-63.74
-48.69
-31.73
-14.24
2.58
17.83
30.93
41.57
49.60
55.03
58.00
58.80
57.82
55.58
52.55
49.20
45.88
42.85
40.27
38.24
36.77
35.80
35.11
34.40
33.32
31.61
29.14
25.96
22.24
18.16
13.89
9.48
4.91
0.11
-4.99
-10.38
-15.98
-21.61
-27.06
-32.17
-36.91
-41.41
-45.96
-50.97
-56.71
-63.20
-70.01
-76.25
-80.68
-81.97
-79.08
-71.61
-59.85
-44.74
-27.61
-9.82
7.45
23.30
37.08
48.35
56.83
62.44
65.34
65.88
64.64
62.22
59.20
55.98
52.80
49.79
46.98
44.45
42.26
40.45
39.03
37.88
36.76
35.37
33.41
30.71
27.25
23.18
18.79
14.27
9.74
5.11
0.18
-5.27
-11.30
-17.72
-24.17
-30.21
-35.57
-40.19
-44.31
-48.38
-52.82
-57.93
-63.79
-70.11
-76.25
-81.21
-83.84
-83.03
-77.99
-68.51
-55.05
-38.63
-20.61
-2.42
14.71
29.85
42.38
51.99
58.60
62.32
63.42
62.28
59.43
55.42
50.86
46.36
42.43
39.38
37.33
36.13
35.51
35.10
34.56
33.64
32.18
30.11
27.46
24.27
20.63
16.64
12.37
7.88
3.18
-1.73
-6.82
-12.00
-17.14
-22.12
-26.84
-31.37
-35.93
-40.86
-46.45
-52.76
-59.39
-65.46
-69.72
-70.89
-68.01
-60.73
-49.41
-35.06
-18.98
-2.51
13.16
27.13
38.74
47.58
53.41
56.24
56.31
54.13
50.40
45.86
41.18
36.85
33.13
30.14
27.86
26.20
25.04
24.16
23.31
22.21
20.66
18.52
15.79
12.52
8.75
4.54
-0.09
-5.07
-10.28
-15.61
-20.95
-26.30
-31.63
-36.96
-42.30
-47.69
-53.28
-59.25
-65.82
-72.90
-80.00
-86.11
-89.84
-89.84
-85.19
-75.70
-61.94
-45.08
-26.55
-7.73
10.24
26.47
40.33
51.37
59.34
64.18
66.09
65.42
62.72
58.62
53.80
48.85
44.25
40.30
37.09
34.54
32.50
30.78
29.20
27.55
25.68
23.45
20.78
17.67
14.17
10.32
6.13
1.52
-3.60
-9.27
-15.32
-21.52
-27.54
-33.15
-38.30
-43.21
-48.25
-53.81
-60.15
-67.20
-74.46
-81.02
-85.62
-86.96
-83.92
-75.95
-63.25
-46.76
-27.98
-8.53
10.13
26.99
41.41
53.09
61.84
67.59
70.35
70.29
67.85
63.70
58.61
53.34
48.45
44.27
40.88
38.20
36.05
34.23
32.59
30.97
29.19
27.06
24.45
21.26
17.51
13.28
8.70
3.83
-1.30
-6.70
-12.33
-18.12
-23.92
-29.63
-35.21
-40.82
-46.73
-53.21
-60.42
-68.11
-75.57
-81.66
-85.01
-84.35
-78.86
-68.47
-53.83
-36.20
-17.13
1.89
19.64
35.28
48.25
58.21
64.93
68.36
68.69
66.44
62.35
57.28
52.03
47.17
43.02
39.63
36.93
34.80
33.08
31.59
30.14
28.51
26.52
24.04
21.03
17.52
13.58
9.28
4.68
-0.19
-5.28
-10.57
-15.96
-21.39
-26.77
-32.08
-37.35
-42.73
-48.44
-54.69
-61.53
-68.68
-75.38
-80.43
-82.42
-80.07
-72.70
-60.42
-44.18
-25.46
-5.92
12.95
30.00
44.43
55.68
63.39
67.36
67.73
65.04
60.18
54.27
48.29
42.96
38.55
35.05
32.23
29.92
28.02
26.48
25.21
24.03
22.66
20.80
18.20
14.74
10.45
5.48
0.09
-5.40
-10.73
-15.81
-20.71
-25.71
-31.11
-37.18
-44.02
-51.47
-59.07
-66.06
-71.41
-73.98
-72.69
-66.81
-56.27
-41.69
-24.29
-5.65
12.70
29.42
43.60
54.63
62.21
66.31
67.11
65.05
60.82
55.27
49.26
43.53
38.54
34.48
31.27
28.73
26.62
24.73
22.91
21.06
19.09
16.87
14.26
11.09
7.24
2.66
-2.56
-8.22
-14.06
-19.86
-25.45
-30.81
-36.04
-41.32
-46.93
-53.17
-60.26
-68.08
-76.09
-83.16
-87.78
-88.40
-83.90
-73.94
-59.15
-40.84
-20.72
-0.43
18.73
35.83
50.25
61.53
69.37
73.68
74.67
72.87
69.09
64.19
58.92
53.81
49.15
45.08
41.63
38.80
36.55
34.76
33.23
31.75
30.08
28.08
25.63
22.63
18.99
14.61
9.47
3.63
-2.71
-9.30
-15.87
-22.24
-28.33
-34.18
-39.89
-45.64
-51.63
-58.07
-65.11
-72.67
-80.32
-87.11
-91.75
-92.80
-89.13
-80.29
-66.62
-49.20
-29.52
-9.17
10.48
28.34
43.64
55.83
64.56
69.75
71.62
70.71
67.75
63.57
58.88
54.20
49.87
46.03
42.76
40.11
38.08
36.60
35.52
34.56
33.40
31.73
29.37
26.24
22.46
18.20
13.67
9.02
4.36
-0.32
-5.08
-10.02
-15.17
-20.53
-25.94
-31.24
-36.27
-40.95
-45.38
-49.82
-54.62
-60.12
-66.43
-73.26
-79.78
-84.71
-86.59
-84.19
-76.87
-64.84
-49.07
-30.97
-12.06
6.41
23.49
38.50
50.91
60.26
66.25
68.86
68.44
65.73
61.61
56.88
52.08
47.48
43.13
39.08
35.48
32.57
30.50
29.19
28.33
27.43
25.99
23.75
20.72
17.15
13.40
9.73
6.19
2.64
-1.18
-5.48
-10.28
-15.42
-20.61
-25.60
-30.26
-34.64
-38.91
-43.29
-47.94
-53.01
-58.55
-64.49
-70.46
-75.77
-79.35
-80.01
-76.77
-69.19
-57.52
-42.70
-26.03
-8.88
7.58
22.48
35.22
45.36
52.64
56.88
58.17
56.86
53.58
49.18
44.50
40.22
36.70
34.01
31.98
30.35
28.88
27.47
26.09
24.74
23.36
21.83
19.96
17.56
14.52
10.86
6.69
2.21
-2.40
-6.99
-11.50
-15.91
-20.23
-24.47
-28.75
-33.24
-38.17
-43.67
-49.65
-55.62
-60.72
-63.81
-63.83
-60.04
-52.33
-41.19
-27.58
-12.67
2.40
16.64
29.24
39.51
46.88
51.04
51.95
50.00
45.92
40.67
35.20
30.23
26.11
22.85
20.24
18.02
16.01
14.15
12.51
11.09
9.82
8.48
6.77
4.35
1.05
-3.12
-7.90
-12.92
-17.78
-22.28
-26.38
-30.33
-34.50
-39.28
-44.91
-51.40
-58.41
-65.27
-71.02
-74.57
-74.87
-71.20
-63.34
-51.69
-37.21
-21.17
-4.90
10.49
24.23
35.82
44.95
51.44
55.20
56.29
54.96
51.71
47.20
42.18
37.26
32.88
29.24
26.36
24.13
22.39
20.98
19.76
18.57
17.21
15.49
13.21
10.26
6.65
2.46
-2.10
-6.85
-11.61
-16.28
-20.80
-25.23
-29.69
-34.37
-39.51
-45.32
-51.87
-59.05
-66.43
-73.22
-78.37
-80.70
-79.21
-73.33
-63.14
-49.35
-33.14
-15.87
1.24
17.22
31.39
43.24
52.35
58.41
61.29
61.19
58.68
54.57
49.76
45.03
40.91
37.64
35.18
33.35
31.85
30.46
28.98
27.34
25.54
23.58
21.41
18.84
15.65
11.66
6.81
1.26
-4.72
-10.82
-16.83
-22.67
-28.31
-33.78
-39.13
-44.49
-50.11
-56.31
-63.25
-70.70
-77.88
-83.48
-86.02
-84.25
-77.63
-66.40
-51.58
-34.59
-16.91
0.18
15.72
29.02
39.65
47.35
52.04
53.86
53.16
50.46
46.44
41.79
37.16
33.06
29.82
27.53
26.14
25.50
25.40
25.65
26.12
26.65
27.12
27.33
27.04
25.97
23.94
20.86
16.81
12.03
6.77
1.31
-4.18
-9.62
-15.01
-20.42
-25.96
-31.82
-38.19
-45.14
-52.42
-59.32
-64.68
-67.18
-65.64
-59.47
-48.88
-34.75
-18.46
-1.46
14.93
29.67
41.97
51.25
57.18
59.73
59.18
56.15
51.50
46.15
40.92
36.39
32.80
30.07
27.99
26.25
24.66
23.14
21.74
20.50
19.32
17.97
16.04
13.20
9.31
4.48
-0.94
-6.49
-11.82
-16.76
-21.41
-26.05
-30.98
-36.47
-42.62
-49.23
-55.71
-61.11
-64.22
-63.89
-59.35
-50.45
-37.73
-22.29
-5.49
11.30
26.96
40.57
51.49
59.28
63.73
64.92
63.21
59.22
53.74
47.61
41.55
36.01
31.21
27.09
23.51
20.32
17.45
14.87
12.57
10.41
8.18
5.56
2.28
-1.83
-6.76
-12.36
-18.34
-24.36
-30.16
-35.58
-40.64
-45.58
-50.74
-56.53
-63.20
-70.70
-78.45
-85.37
-90.04
-91.00
-87.22
-78.36
-64.87
-47.86
-28.77
-9.03
10.10
27.65
42.85
55.06
63.85
69.04
70.78
69.59
66.23
61.58
56.43
51.39
46.79
42.82
39.45
36.67
34.34
32.28
30.28
28.16
25.79
23.11
20.12
16.77
13.01
8.76
4.00
-1.19
-6.69
-12.33
-18.04
-23.79
-29.61
-35.54
-41.66
-48.09
-54.95
-62.30
-69.88
-76.98
-82.42
-84.82
-82.94
-76.14
-64.52
-48.93
-30.66
-11.19
8.16
26.23
42.16
55.29
65.22
71.82
75.17
75.64
73.73
70.07
65.28
59.94
54.53
49.40
44.75
40.64
37.02
33.76
30.74
27.87
25.04
22.13
18.97
15.38
11.21
6.43
1.18
-4.36
-9.99
-15.61
-21.18
-26.71
-32.17
-37.46
-42.44
-47.02
-51.24
-55.32
-59.59
-64.43
-69.99
-76.04
-81.79
-85.93
-86.96
-83.57
-75.13
-61.85
-44.79
-25.46
-5.49
13.79
31.38
46.53
58.69
67.40
72.42
73.80
71.98
67.77
62.14
56.03
50.20
45.11
40.99
37.85
35.59
34.02
32.91
31.93
30.81
29.34
27.40
25.00
22.17
18.90
15.15
10.86
6.00
0.67
-4.91
-10.46
-15.75
-20.67
-25.23
-29.57
-33.91
-38.48
-43.49
-49.08
-55.14
-61.20
-66.42
-69.60
-69.52
-65.26
-56.47
-43.59
-27.64
-10.07
7.68
24.32
38.84
50.51
58.87
63.67
64.97
63.15
58.93
53.27
47.16
41.46
36.72
33.15
30.67
28.95
27.63
26.35
24.86
22.98
20.66
17.86
14.58
10.79
6.49
1.72
-3.41
-8.70
-13.94
-18.95
-23.70
-28.31
-33.03
-38.15
-43.88
-50.28
-57.27
-64.57
-71.73
-78.06
-82.62
-84.34
-82.24
-75.69
-64.63
-49.67
-31.92
-12.73
6.55
24.77
40.99
54.49
64.71
71.34
74.40
74.27
71.67
67.50
62.61
57.68
53.12
49.12
45.74
43.01
40.95
39.51
38.53
37.66
36.46
34.51
31.56
27.61
22.90
17.73
12.39
7.00
1.52
-4.20
-10.24
-16.58
-23.04
-29.36
-35.31
-40.78
-45.84
-50.66
-55.56
-60.85
-66.79
-73.49
-80.74
-87.87
-93.76
-96.98
-96.16
-90.36
-79.46
-64.16
-45.78
-25.91
-5.99
12.87
29.92
44.60
56.51
65.31
70.84
73.21
72.86
70.48
66.82
62.60
58.36
54.44
51.06
48.33
46.30
44.98
44.24
43.88
43.58
42.98
41.80
39.89
37.23
33.98
30.37
26.66
23.02
19.49
15.99
12.32
8.32
3.93
-0.77
-5.58
-10.18
-14.39
-18.11
-21.50
-24.87
-28.53
-32.67
-37.23
-41.96
-46.50
-50.62
-54.35
-57.90
-61.68
-66.09
-71.39
-77.60
-84.39
-91.06
-96.49
-99.30
-98.10
-91.93
-80.50
-64.43
-45.11
-24.32
-3.83
14.97
31.21
44.43
54.42
61.16
64.71
65.31
63.45
59.83
55.23
50.40
45.83
41.80
38.38
35.54
33.27
31.59
30.50
29.93
29.63
29.29
28.51
26.96
24.46
21.11
17.19
13.12
9.25
5.77
2.59
-0.51
-3.84
-7.54
-11.61
-15.89
-20.17
-24.24
-27.99
-31.40
-34.59
-37.77
-41.26
-45.38
-50.24
-55.53
-60.39
-63.59
-63.81
-60.11
-52.28
-40.84
-26.87
-11.66
3.57
17.82
30.29
40.31
47.34
51.07
51.54
49.24
44.96
39.73
34.45
29.79
26.06
23.26
21.23
19.74
18.64
17.80
17.11
16.44
15.57
14.27
12.34
9.68
6.34
2.42
-1.94
-6.59
-11.39
-16.23
-20.99
-25.66
-30.33
-35.23
-40.63
-46.70
-53.26
-59.71
-65.06
-68.11
-67.77
-63.35
-54.75
-42.47
-27.45
-10.93
5.81
21.55
35.24
46.03
53.38
57.11
57.40
54.82
50.16
44.31
38.14
32.36
27.42
23.53
20.64
18.50
16.79
15.19
13.49
11.60
9.51
7.22
4.69
1.81
-1.58
-5.57
-10.16
-15.20
-20.53
-25.97
-31.46
-37.02
-42.70
-48.62
-54.87
-61.55
-68.68
-76.08
-83.22
-89.18
-92.70
-92.46
-87.49
-77.45
-62.81
-44.67
-24.58
-4.09
15.40
32.84
47.47
58.87
66.88
71.62
73.44
72.88
70.55
67.07
62.94
58.60
54.31
50.30
46.73
43.69
41.24
39.35
37.87
36.58
35.15
33.33
30.90
27.79
24.04
19.73
14.97
9.81
4.29
-1.57
-7.72
-14.05
-20.42
-26.66
-32.63
-38.30
-43.79
-49.34
-55.32
-62.04
-69.60
-77.71
-85.59
-91.98
-95.44
-94.60
-88.62
-77.38
-61.58
-42.52
-21.81
-1.01
18.64
36.25
51.18
63.01
71.38
76.14
77.40
75.62
71.59
66.26
60.58
55.22
50.54
46.61
43.35
40.69
38.58
37.04
36.01
35.22
34.29
32.76
30.26
26.71
22.25
17.23
12.04
6.90
1.85
-3.26
-8.63
-14.36
-20.34
-26.30
-31.93
-37.00
-41.52
-45.67
-49.81
-54.29
-59.37
-65.06
-71.00
-76.42
-80.13
-80.75
-77.05
-68.35
-54.77
-37.30
-17.53
2.79
22.14
39.43
53.96
65.30
73.15
77.29
77.75
74.93
69.68
63.15
56.51
50.64
45.94
42.36
39.56
37.21
35.09
33.19
31.51
30.04
28.64
27.08
25.08
22.49
19.16
15.07
10.24
4.81
-0.99
-6.85
-12.41
-17.49
-22.06
-26.35
-30.78
-35.77
-41.56
-48.08
-54.84
-60.97
-65.37
-66.87
-64.52
-57.77
-46.67
-31.92
-14.75
3.34
20.84
36.53
49.56
59.40
65.81
68.74
68.30
64.91
59.28
52.38
45.27
38.88
33.78
30.10
27.64
25.97
24.69
23.49
22.19
20.70
18.95
16.82
14.14
10.73
6.43
1.17
-4.95
-11.66
-18.61
-25.43
-31.89
-37.94
-43.68
-49.36
-55.24
-61.55
-68.40
-75.68
-82.88
-89.13
-93.15
-93.58
-89.31
-79.85
-65.57
-47.59
-27.59
-7.30
11.77
28.59
42.52
53.28
60.75
64.94
66.05
64.47
60.85
56.01
50.71
45.52
40.70
36.34
32.43
29.05
26.30
24.22
22.67
21.28
19.58
17.19
13.92
9.88
5.32
0.58
-4.10
-8.69
-13.25
-17.98
-23.04
-28.52
-34.37
-40.39
-46.23
-51.53
-55.88
-59.00
-60.75
-61.26
-60.79
-59.65
-58.02
-55.71
-52.22
-46.78
-38.71
-27.68
-13.95
1.68
18.05
33.98
48.50
60.97
71.04
78.48
83.10
84.75
83.46
79.51
73.60
66.66
59.67
53.34
48.03
43.75
40.37
37.77
35.96
34.96
34.75
35.05
35.46
35.51
34.83
33.31
31.03
28.27
25.35
22.51
19.90
17.47
15.08
12.43
9.17
4.92
-0.61
-7.47
-15.50
-24.26
-33.15
-41.65
-49.48
-56.66
-63.47
-70.25
-77.17
-84.06
-90.53
-96.12
-100.60
-104.13
-107.22
-110.50
-114.29
-118.39
-121.90
-123.41
-121.43
-114.80
-103.07
-86.64
-66.62
-44.53
-21.94
-0.21
19.62
36.83
50.88
61.38
68.15
71.37
71.54
69.56
66.39
62.87
59.53
56.51
53.77
51.24
48.97
47.14
45.86
45.10
44.62
44.05
43.02
41.24
38.61
35.14
30.97
26.30
21.36
16.31
11.29
6.32
1.37
-3.58
-8.51
-13.32
-17.90
-22.21
-26.28
-30.23
-34.27
-38.60
-43.32
-48.41
-53.58
-58.27
-61.65
-62.75
-60.69
-54.95
-45.53
-32.99
-18.36
-2.93
11.99
25.26
36.06
43.87
48.47
49.95
48.63
45.07
40.01
34.29
28.70
23.90
20.32
18.12
17.24
17.50
18.58
20.15
21.79
23.08
23.65
23.25
21.86
19.61
16.79
13.66
10.37
6.87
3.00
-1.42
-6.50
-12.12
-18.05
-23.97
-29.71
-35.24
-40.81
-46.78
-53.49
-61.03
-69.03
-76.62
-82.54
-85.35
-83.85
-77.45
-66.26
-51.15
-33.43
-14.58
4.08
21.51
36.91
49.70
59.42
65.85
69.02
69.33
67.47
64.18
60.15
55.89
51.67
47.68
44.02
40.79
38.02
35.71
33.81
32.21
30.72
29.09
27.02
24.18
20.43
15.80
10.59
5.17
-0.19
-5.39
-10.55
-15.89
-21.48
-27.28
-33.06
-38.60
-43.76
-48.63
-53.47
-58.62
-64.40
-70.91
-77.89
-84.59
-89.83
-92.26
-90.65
-84.27
-73.12
-57.91
-39.84
-20.32
-0.73
17.75
34.21
47.97
58.56
65.73
69.54
70.34
68.75
65.55
61.50
57.23
53.13
49.42
46.20
43.51
41.41
39.86
38.74
37.82
36.84
35.61
33.98
31.91
29.32
26.18
22.47
18.25
13.68
8.95
4.12
-0.81
-6.00
-11.50
-17.23
-22.94
-28.34
-33.29
-37.91
-42.58
-47.77
-53.80
-60.75
-68.30
-75.78
-82.24
-86.50
-87.38
-83.90
-75.59
-62.77
-46.45
-28.23
-9.79
7.41
22.46
34.90
44.52
51.21
54.88
55.53
53.51
49.59
44.79
40.12
36.26
33.43
31.47
30.12
29.20
28.74
28.86
29.60
30.74
31.82
32.33
31.93
30.56
28.44
25.89
23.20
20.40
17.40
13.98
10.05
5.65
0.96
-3.76
-8.35
-12.74
-17.02
-21.35
-25.93
-30.96
-36.56
-42.73
-49.23
-55.46
-60.47
-63.10
-62.21
-57.07
-47.58
-34.38
-18.75
-2.21
13.75
27.97
39.75
48.74
54.83
58.05
58.50
56.46
52.48
47.34
41.95
37.13
33.37
30.78
29.09
27.90
26.81
25.60
24.18
22.58
20.77
18.70
16.26
13.36
9.94
6.03
1.72
-2.90
-7.75
-12.73
-17.81
-22.94
-28.04
-33.06
-37.95
-42.74
-47.57
-52.70
-58.38
-64.66
-71.25
-77.41
-82.02
-83.84
-81.79
-75.28
-64.41
-49.89
-32.94
-15.00
2.57
18.66
32.55
43.84
52.38
58.15
61.24
61.84
60.30
57.20
53.22
49.04
45.18
41.94
39.34
37.35
35.85
34.74
33.82
32.79
31.28
29.00
25.90
22.19
18.24
14.30
10.38
6.22
1.43
-4.26
-10.76
-17.70
-24.57
-30.95
-36.68
-41.88
-46.81
-51.81
-57.14
-62.99
-69.31
-75.73
-81.48
-85.42
-86.22
-82.79
-74.63
-62.01
-45.97
-27.94
-9.42
8.33
24.44
38.37
49.81
58.52
64.37
67.31
67.49
65.31
61.38
56.40
51.08
46.00
41.52
37.82
34.90
32.69
31.11
30.04
29.31
28.65
27.74
26.24
23.94
20.77
16.88
12.56
8.12
3.80
-0.39
-4.59
-9.04
-13.91
-19.19
-24.68
-30.12
-35.28
-40.08
-44.66
-49.27
-54.21
-59.68
-65.69
-72.03
-78.11
-83.12
-86.02
-85.79
-81.63
-73.20
-60.77
-45.15
-27.56
-9.34
8.23
24.14
37.61
48.09
55.28
59.14
59.98
58.35
55.06
50.89
46.53
42.44
38.90
36.01
33.82
32.28
31.23
30.42
29.56
28.41
26.83
24.80
22.39
19.69
16.75
13.61
10.26
6.64
2.67
-1.72
-6.54
-11.70
-16.99
-22.17
-27.05
-31.57
-35.80
-39.99
-44.40
-49.27
-54.58
-59.96
-64.67
-67.62
-67.65
-63.84
-55.85
-44.01
-29.31
-13.07
3.36
18.83
32.48
43.67
51.88
56.76
58.21
56.50
52.40
47.00
41.44
36.67
33.16
30.91
29.55
28.59
27.62
26.46
25.11
23.68
22.24
20.72
18.92
16.58
13.46
9.47
4.68
-0.70
-6.41
-12.22
-17.98
-23.66
-29.33
-35.12
-41.17
-47.63
-54.56
-61.88
-69.24
-75.92
-80.82
-82.71
-80.51
-73.67
-62.35
-47.42
-30.19
-12.10
5.63
22.01
36.36
48.08
56.73
62.03
64.00
63.07
59.97
55.63
50.88
46.33
42.30
38.88
36.06
33.74
31.86
30.28
28.86
27.42
25.83
23.97
21.78
19.17
16.08
12.41
8.13
3.29
-1.99
-7.57
-13.35
-19.20
-25.03
-30.77
-36.32
-41.72
-47.11
-52.76
-58.97
-65.90
-73.40
-80.83
-87.15
-90.98
-91.01
-86.30
-76.58
-62.36
-44.75
-25.26
-5.42
13.41
30.17
44.10
54.72
61.83
65.44
65.85
63.61
59.42
54.08
48.41
43.07
38.57
35.17
32.91
31.70
31.32
31.57
32.26
33.17
34.08
34.73
34.88
34.35
33.06
30.98
28.08
24.28
19.46
13.55
6.58
-1.23
-9.51
-17.90
-26.09
-34.00
-41.72
-49.50
-57.67
-66.49
-75.95
-85.66
-94.76
-101.99
-105.97
-105.52
-100.08
-89.83
-75.74
-59.21
-41.80
-24.84
-9.33
4.22
15.55
24.65
31.66
36.81
40.50
43.19
45.36
47.44
49.66
52.09
54.69
57.41
60.21
63.08
65.92
68.48
70.37
71.17
70.56
68.45
64.95
60.28
54.67
48.24
41.09
33.30
25.02
16.49
7.99
-0.16
-7.72
-14.51
-20.48
-25.70
-30.35
-34.73
-39.17
-44.00
-49.42
-55.39
-61.45
-66.73
-69.99
-69.88
-65.36
-56.05
-42.43
-25.70
-7.47
10.68
27.53
42.28
54.44
63.62
69.50
71.86
70.73
66.57
60.27
52.97
45.82
39.71
35.13
32.16
30.49
29.67
29.12
28.37
27.10
25.16
22.58
19.48
15.99
12.12
7.82
2.99
-2.32
-7.93
-13.57
-18.95
-23.95
-28.60
-33.11
-37.70
-42.64
-48.14
-54.36
-61.25
-68.39
-74.86
-79.36
-80.48
-77.13
-68.91
-56.23
-40.14
-22.03
-3.34
14.70
31.00
44.66
54.94
61.37
63.89
62.88
59.14
53.66
47.44
41.32
35.86
31.40
28.06
25.78
24.32
23.33
22.42
21.24
19.60
17.45
14.84
11.77
8.20
4.01
-0.85
-6.34
-12.25
-18.29
-24.17
-29.69
-34.85
-39.75
-44.63
-49.79
-55.53
-62.07
-69.45
-77.34
-84.96
-91.11
-94.32
-93.22
-86.89
-75.17
-58.75
-39.01
-17.73
3.29
22.57
39.11
52.36
62.15
68.55
71.79
72.22
70.31
66.68
61.99
56.87
51.86
47.32
43.42
40.23
37.73
35.82
34.34
33.02
31.54
29.58
26.92
23.49
19.34
14.62
9.44
3.88
-2.01
-8.19
-14.60
-21.08
-27.45
-33.58
-39.36
-44.83
-50.14
-55.59
-61.52
-68.19
-75.59
-83.24
-90.18
-95.01
-96.26
-92.78
-84.06
-70.50
-53.18
-33.72
-13.76
5.23
22.22
36.56
47.84
55.84
60.53
62.10
61.00
57.95
53.79
49.26
44.91
41.03
37.80
35.33
33.73
33.06
33.17
33.67
34.11
34.06
33.32
31.97
30.19
28.11
25.67
22.64
18.73
13.80
7.97
1.57
-4.95
-11.21
-17.01
-22.39
-27.60
-33.10
-39.35
-46.76
-55.43
-64.93
-74.15
-81.38
-84.64
-82.40
-74.29
-61.57
-46.97
-33.88
-25.21
-22.41
-25.07
-31.22
-38.16
-43.35
-45.01
-42.25
-34.89
-23.26
-8.01
9.81
28.82
47.34
63.62
76.21
84.18
87.28
85.99
81.40
74.86
67.77
61.18
55.72
51.48
48.24
45.60
43.26
41.02
38.84
36.67
34.39
31.75
28.48
24.32
19.26
13.45
7.20
0.80
-5.58
-11.96
-18.47
-25.24
-32.30
-39.56
-46.91
-54.33
-61.95
-69.95
-78.40
-86.99
-94.90
-100.92
-103.71
-102.23
-96.06
-85.47
-71.36
-54.90
-37.28
-19.49
-2.29
13.71
27.92
39.75
48.71
54.58
57.59
58.43
58.15
57.86
58.41
60.20
63.09
66.50
69.66
71.93
72.94
72.70
71.46
69.47
66.81
63.29
58.53
52.21
44.26
34.99
25.04
15.12
5.86
-2.40
-9.69
-16.28
-22.66
-29.33
-36.70
-44.96
-53.97
-63.17
-71.52
-77.66
-80.15
-77.76
-69.80
-56.30
-38.02
-16.26
7.41
31.41
54.35
75.11
92.84
106.98
117.27
123.75
126.73
126.73
124.36
120.27
115.10
109.37
103.49
97.73
92.20
86.89
81.69
76.45
70.98
65.11
58.67
51.54
43.64
35.00
25.68
15.77
5.37
-5.40
-16.36
-27.24
-37.74
-47.60
-56.65
-64.87
-72.34
-79.19
-85.43
-91.01
-95.85
-99.86
-103.04
-105.50
-107.38
-108.93
-110.43
-112.20
-114.57
-117.64
-121.19
-124.49
-126.34
-125.37
-120.40
-110.76
-96.54
-78.51
-57.95
-36.30
-15.00
4.70
21.81
35.63
45.73
52.02
54.74
54.47
52.00
48.30
44.23
40.47
37.36
34.93
32.94
31.11
29.24
27.31
25.48
23.94
22.85
22.22
21.86
21.39
20.41
18.56
15.68
11.86
7.40
2.68
-1.92
-6.18
-10.04
-13.62
-17.06
-20.53
-24.09
-27.76
-31.53
-35.37
-39.33
-43.44
-47.76
-52.34
-57.26
-62.64
-68.56
-74.90
-81.16
-86.37
-89.23
-88.40
-82.94
-72.63
-58.10
-40.60
-21.75
-3.13
13.97
28.56
39.97
47.76
51.78
52.19
49.57
44.77
38.84
32.77
27.30
22.82
19.40
16.90
15.09
13.80
12.90
12.37
12.21
12.39
12.82
13.27
13.49
13.17
12.04
10.00
7.08
3.44
-0.66
-4.98
-9.31
-13.49
-17.36
-20.86
-24.04
-27.09
-30.25
-33.67
-37.19
-40.24
-41.87
-41.03
-36.89
-29.10
-17.93
-4.16
11.11
26.70
41.50
54.50
64.88
72.04
75.78
76.26
74.02
69.85
64.53
58.79
53.11
47.80
42.99
38.67
34.75
31.15
27.76
24.47
21.17
17.65
13.66
8.95
3.42
-2.80
-9.40
-15.95
-22.15
-27.91
-33.37
-38.79
-44.41
-50.34
-56.63
-63.34
-70.52
-78.21
-86.13
-93.51
-99.04
-101.13
-98.35
-89.93
-76.10
-58.04
-37.54
-16.49
3.62
21.82
37.62
50.80
61.13
68.34
72.24
72.92
70.84
66.85
61.90
56.86
52.27
48.34
45.04
42.30
40.08
38.36
37.03
35.87
34.52
32.64
30.04
26.71
22.85
18.68
14.34
9.83
5.00
-0.32
-6.19
-12.57
-19.24
-26.00
-32.62
-39.08
-45.48
-52.11
-59.23
-66.96
-74.99
-82.46
-88.03
-90.16
-87.59
-79.69
-66.70
-49.64
-29.91
-9.00
11.75
31.25
48.58
62.96
73.79
80.80
84.16
84.38
82.25
78.55
73.92
68.84
63.64
58.62
54.11
50.39
47.64
45.76
44.46
43.23
41.58
39.20
35.98
32.06
27.67
22.97
18.04
12.86
7.38
1.56
-4.66
-11.25
-18.21
-25.42
-32.63
-39.56
-45.88
-51.44
-56.39
-61.12
-66.21
-72.07
-78.71
-85.55
-91.48
-95.04
-94.85
-89.89
-79.82
-65.02
-46.54
-25.81
-4.44
16.06
34.43
49.79
61.64
69.81
74.46
75.97
74.86
71.74
67.32
62.28
57.26
52.77
49.12
46.37
44.43
43.04
41.94
40.83
39.48
37.71
35.44
32.67
29.47
25.86
21.79
17.14
11.76
5.63
-1.11
-8.12
-14.98
-21.39
-27.25
-32.65
-37.84
-43.13
-48.75
-54.81
-61.22
-67.61
-73.26
-77.13
-78.02
-74.89
-67.19
-55.09
-39.47
-21.73
-3.46
13.93
29.34
42.08
51.77
58.26
61.55
61.81
59.44
55.06
49.50
43.65
38.29
33.90
30.62
28.27
26.51
24.99
23.48
21.88
20.17
18.35
16.35
14.02
11.15
7.53
3.06
-2.19
-8.03
-14.15
-20.24
-26.11
-31.70
-37.10
-42.51
-48.14
-54.17
-60.68
-67.62
-74.63
-80.99
-85.55
-86.93
-83.89
-75.67
-62.38
-44.95
-24.99
-4.32
15.41
32.98
47.62
58.93
66.71
71.00
72.04
70.38
66.76
62.01
56.84
51.78
47.09
42.86
39.14
35.98
33.45
31.56
30.22
29.19
28.09
26.51
24.14
20.85
16.68
11.85
6.60
1.13
-4.46
-10.19
-16.12
-22.35
-28.87
-35.61
-42.39
-49.00
-55.24
-61.11
-66.83
-72.74
-79.15
-86.00
-92.70
-98.13
-100.83
-99.39
-92.86
-80.96
-64.20
-43.79
-21.39
1.21
22.38
40.83
55.82
67.08
74.70
79.02
80.49
79.63
76.97
73.07
68.49
63.77
59.36
55.65
52.80
50.79
49.46
48.50
47.61
46.56
45.23
43.56
41.50
38.97
35.89
32.26
28.13
23.68
19.17
14.78
10.63
6.67
2.69
-1.60
-6.50
-12.13
-18.31
-24.64
-30.61
-35.83
-40.20
-43.92
-47.41
-51.11
-55.43
-60.59
-66.63
-73.33
-80.13
-86.07
-89.94
-90.48
-86.74
-78.38
-65.75
-49.87
-32.16
-14.12
2.92
18.00
30.51
40.19
46.98
50.97
52.39
51.56
49.04
45.46
41.48
37.71
34.55
32.25
30.91
30.52
30.97
32.10
33.58
35.05
36.13
36.52
36.04
34.67
32.49
29.65
26.34
22.73
18.94
15.02
10.96
6.70
2.20
-2.45
-7.05
-11.38
-15.35
-19.11
-23.01
-27.53
-33.05
-39.69
-47.26
-55.23
-62.85
-69.16
-73.18
-73.93
-70.71
-63.30
-52.09
-38.12
-22.86
-7.86
5.65
16.88
25.50
31.49
34.94
35.97
34.81
31.87
27.81
23.44
19.56
16.76
15.27
14.99
15.58
16.66
17.82
18.78
19.33
19.31
18.65
17.32
15.34
12.73
9.50
5.74
1.58
-2.74
-6.96
-10.87
-14.43
-17.77
-21.18
-25.04
-29.67
-35.24
-41.68
-48.65
-55.49
-61.29
-64.95
-65.41
-61.92
-54.19
-42.61
-28.17
-12.22
3.72
18.34
30.64
40.01
46.19
49.20
49.30
46.96
42.78
37.44
31.62
25.86
20.53
15.90
12.10
9.17
7.07
5.67
4.75
4.07
3.37
2.43
1.08
-0.79
-3.23
-6.17
-9.47
-12.91
-16.35
-19.70
-23.05
-26.48
-30.04
-33.71
-37.35
-40.86
-44.27
-47.76
-51.70
-56.42
-62.13
-68.71
-75.58
-81.73
-85.80
-86.41
-82.48
-73.57
-60.06
-43.03
-23.97
-4.43
14.30
31.24
45.71
57.21
65.37
70.02
71.25
69.46
65.37
59.85
53.84
48.10
43.19
39.37
36.62
34.72
33.32
32.10
30.77
29.20
27.27
24.90
22.01
18.55
14.53
10.03
5.21
0.22
-4.91
-10.20
-15.72
-21.49
-27.41
-33.28
-38.88
-44.08
-48.99
-53.91
-59.31
-65.57
-72.84
-80.80
-88.67
-95.24
-99.13
-99.11
-94.40
-84.87
-71.10
-54.27
-35.93
-17.66
-0.86
13.49
24.86
33.07
38.16
40.28
39.62
36.42
31.06
24.16
16.50
8.97
2.37
-2.77
-6.13
-7.67
-7.42
-5.53
-2.22
2.08
6.84
11.46
15.55
18.92
21.69
24.01
25.90
27.10
27.10
25.42
21.87
16.67
10.47
4.01
-2.06
-7.45
-12.21
-16.62
-21.09
-26.00
-31.65
-38.15
-45.30
-52.53
-58.77
-62.64
-62.72
-57.92
-47.87
-33.07
-14.80
5.24
25.23
43.66
59.40
71.76
80.42
85.34
86.70
84.96
80.76
74.94
68.35
61.78
55.90
51.15
47.76
45.73
44.82
44.62
44.61
44.33
43.42
41.70
39.16
35.86
31.85
27.26
22.18
16.74
11.07
5.27
-0.59
-6.48
-12.36
-18.23
-24.09
-30.00
-36.09
-42.56
-49.57
-57.18
-65.17
-72.94
-79.52
-83.63
-84.00
-79.76
-70.68
-57.38
-41.12
-23.50
-6.05
9.99
23.67
34.29
41.34
44.49
43.89
40.19
34.58
28.48
23.17
19.51
17.80
17.92
19.56
22.45
26.36
31.06
36.19
41.25
45.65
48.88
50.53
50.43
48.54
44.87
39.55
32.77
24.84
16.15
7.12
-1.93
-10.89
-19.83
-29.04
-38.79
-49.10
-59.61
-69.39
-77.05
-81.00
-79.87
-72.93
-60.30
-43.03
-22.76
-1.35
19.52
38.61
55.04
68.25
77.84
83.57
85.40
83.65
79.03
72.53
65.18
57.92
51.32
45.70
41.14
37.60
35.01
33.18
31.82
30.50
28.77
26.32
23.01
18.98
14.47
9.70
4.78
-0.37
-5.84
-11.69
-17.82
-24.03
-30.03
-35.54
-40.43
-44.68
-48.52
-52.35
-56.67
-61.96
-68.37
-75.50
-82.38
-87.51
-89.24
-86.19
-77.70
-63.98
-46.10
-25.69
-4.51
15.83
34.13
49.62
61.80
70.42
75.33
76.60
74.54
69.81
63.29
56.01
48.88
42.56
37.40
33.45
30.59
28.60
27.17
25.99
24.71
23.02
20.74
17.88
14.61
11.20
7.85
4.57
1.14
-2.69
-7.08
-11.97
-17.09
-22.05
-26.57
-30.58
-34.23
-37.86
-41.80
-46.35
-51.66
-57.61
-63.80
-69.41
-73.28
-74.06
-70.56
-62.16
-48.97
-31.97
-12.68
7.16
26.03
42.77
56.66
67.28
74.45
78.11
78.43
75.86
71.08
65.00
58.47
52.18
46.55
41.80
38.02
35.19
33.26
32.05
31.30
30.63
29.62
27.92
25.36
21.97
17.93
13.49
8.85
4.09
-0.81
-5.97
-11.47
-17.30
-23.31
-29.34
-35.26
-41.02
-46.71
-52.51
-58.60
-65.13
-72.15
-79.46
-86.49
-92.27
-95.48
-94.85
-89.47
-79.18
-64.64
-47.15
-28.31
-9.61
7.78
23.03
35.53
44.87
50.85
53.62
53.75
52.18
50.03
48.27
47.48
47.77
48.82
50.09
51.10
51.56
51.35
50.48
48.95
46.67
43.50
39.28
33.94
27.54
20.30
12.52
4.61
-3.12
-10.42
-17.29
-23.89
-30.56
-37.70
-45.63
-54.40
-63.65
-72.58
-80.01
-84.58
-85.05
-80.59
-71.09
-57.20
-40.18
-21.64
-3.17
13.99
28.95
41.18
50.34
56.22
58.72
58.00
54.55
49.24
43.08
37.05
31.85
27.80
24.86
22.79
21.27
20.02
18.78
17.34
15.53
13.26
10.54
7.45
4.09
0.53
-3.29
-7.47
-12.11
-17.25
-22.77
-28.47
-34.16
-39.65
-44.91
-49.99
-55.11
-60.55
-66.57
-73.25
-80.30
-86.89
-91.71
-93.19
-89.97
-81.23
-67.10
-48.59
-27.39
-5.47
15.41
33.93
49.36
61.45
70.21
75.80
78.37
78.16
75.50
70.95
65.23
59.11
53.26
48.07
43.67
39.95
36.70
33.70
30.76
27.68
24.29
20.44
16.09
11.31
6.27
1.19
-3.76
-8.57
-13.31
-18.11
-23.03
-28.00
-32.89
-37.53
-41.86
-46.00
-50.22
-54.94
-60.47
-66.83
-73.54
-79.60
-83.60
-84.07
-79.89
-70.60
-56.55
-38.80
-18.85
1.71
21.40
39.02
53.71
64.88
72.26
75.93
76.25
73.88
69.64
64.38
58.82
53.45
48.55
44.20
40.42
37.23
34.66
32.68
31.18
29.93
28.56
26.71
24.05
20.46
16.00
10.96
5.71
0.60
-4.23
-8.84
-13.52
-18.61
-24.32
-30.64
-37.31
-43.89
-49.98
-55.34
-60.00
-64.24
-68.57
-73.51
-79.45
-86.37
-93.63
-100.05
-103.98
-103.76
-98.18
-86.80
-70.20
-49.70
-27.14
-4.34
17.11
36.01
51.57
63.29
70.90
74.44
74.30
71.22
66.25
60.51
54.98
50.27
46.63
43.97
42.04
40.64
39.61
38.86
38.28
37.67
36.76
35.25
32.93
29.70
25.63
20.88
15.66
10.20
4.67
-0.81
-6.23
-11.67
-17.24
-23.06
-29.26
-35.90
-42.99
-50.38
-57.67
-64.10
-68.55
-69.74
-66.59
-58.54
-45.81
-29.43
-10.97
7.89
25.62
41.07
53.41
62.16
67.01
67.97
65.39
60.00
52.87
45.15
37.92
31.88
27.30
24.07
21.80
20.05
18.48
16.87
15.09
13.00
10.45
7.23
3.18
-1.70
-7.26
-13.21
-19.22
-25.07
-30.67
-36.15
-41.77
-47.86
-54.71
-62.55
-71.30
-80.52
-89.25
-96.10
-99.47
-97.90
-90.56
-77.50
-59.71
-38.86
-16.90
4.39
23.72
40.32
53.79
63.92
70.55
73.66
73.43
70.42
65.49
59.66
53.84
48.65
44.28
40.63
37.42
34.44
31.63
29.06
26.79
24.78
22.80
20.48
17.38
13.19
7.74
1.19
-6.10
-13.63
-20.92
-27.69
-33.93
-39.91
-46.12
-53.03
-60.95
-69.84
-79.19
-87.96
-94.76
-98.00
-96.33
-88.94
-75.92
-58.25
-37.64
-16.03
4.79
23.56
39.58
52.49
62.17
68.50
71.43
71.15
68.18
63.32
57.48
51.49
45.91
41.00
36.85
33.36
30.45
27.95
25.69
23.53
21.28
18.84
16.03
12.65
8.46
3.27
-2.95
-10.02
-17.56
-25.15
-32.46
-39.40
-46.10
-52.86
-60.00
-67.72
-75.96
-84.33
-92.06
-98.02
-100.88
-99.41
-92.77
-80.81
-64.13
-44.03
-22.04
0.31
21.83
41.71
59.34
74.17
85.56
92.91
95.90
94.74
90.27
83.73
76.50
69.64
63.72
58.82
54.67
50.96
47.49
44.23
41.21
38.40
35.66
32.66
29.09
24.74
19.55
13.68
7.40
1.01
-5.26
-11.25
-16.95
-22.49
-28.09
-34.03
-40.56
-47.83
-55.72
-63.78
-71.23
-77.02
-79.95
-78.93
-73.24
-62.73
-47.98
-30.14
-10.77
8.55
26.42
41.83
54.09
62.82
67.86
69.34
67.69
63.66
58.25
52.51
47.24
42.89
39.47
36.68
34.20
31.76
29.34
27.01
24.86
22.84
20.69
18.03
14.49
9.85
4.16
-2.29
-9.05
-15.70
-22.00
-27.93
-33.75
-39.82
-46.53
-54.05
-62.23
-70.49
-77.83
-82.95
-84.55
-81.67
-73.91
-61.63
-45.79
-27.73
-8.86
9.54
26.47
41.13
52.94
61.43
66.39
67.94
66.52
62.86
57.81
52.23
46.78
41.92
37.82
34.49
31.80
29.56
27.55
25.60
23.55
21.24
18.48
15.09
10.89
5.80
-0.09
-6.54
-13.17
-19.69
-25.95
-32.02
-38.18
-44.73
-51.90
-59.69
-67.90
-76.05
-83.41
-89.01
-91.70
-90.38
-84.29
-73.22
-57.71
-38.97
-18.56
1.94
21.24
38.48
53.15
64.92
73.53
78.76
80.57
79.20
75.28
69.72
63.49
57.42
51.96
47.26
43.22
39.73
36.71
34.14
31.94
29.89
27.69
24.99
21.59
17.45
12.69
7.51
2.05
-3.65
-9.58
-15.74
-22.02
-28.27
-34.35
-40.18
-45.83
-51.45
-57.24
-63.36
-69.83
-76.46
-82.69
-87.66
-90.23
-89.24
-83.89
-73.96
-59.93
-42.83
-23.94
-4.48
14.53
32.29
48.09
61.24
71.11
77.34
79.96
79.42
76.52
72.16
67.15
62.04
57.15
52.69
48.77
45.52
42.99
41.14
39.80
38.71
37.55
36.09
34.19
31.89
29.36
26.76
24.21
21.70
19.06
16.09
12.63
8.68
4.42
0.11
-4.00
-7.80
-11.35
-14.83
-18.46
-22.38
-26.59
-30.99
-35.39
-39.60
-43.54
-47.21
-50.73
-54.27
-58.10
-62.50
-67.74
-73.91
-80.78
-87.62
-93.23
-96.15
-95.06
-89.20
-78.63
-64.22
-47.37
-29.55
-12.00
4.43
19.20
31.83
41.86
48.89
52.74
53.64
52.23
49.42
46.09
42.87
40.02
37.52
35.30
33.35
31.84
30.98
30.88
31.38
32.15
32.75
32.78
32.05
30.53
28.30
25.51
22.20
18.42
14.19
9.54
4.56
-0.66
-6.03
-11.44
-16.82
-22.10
-27.22
-32.16
-37.03
-42.05
-47.45
-53.44
-59.95
-66.51
-72.26
-75.99
-76.52
-72.99
-65.14
-53.41
-38.79
-22.58
-6.00
9.89
24.33
36.79
46.82
54.11
58.55
60.28
59.72
57.47
54.18
50.36
46.38
42.53
39.04
36.14
34.00
32.68
31.97
31.49
30.71
29.11
26.39
22.48
17.59
12.08
6.42
0.98
-4.07
-8.78
-13.35
-18.00
-22.87
-27.91
-32.94
-37.76
-42.24
-46.37
-50.30
-54.30
-58.66
-63.73
-69.69
-76.46
-83.47
-89.70
-93.77
-94.32
-90.38
-81.69
-68.76
-52.69
-34.83
-16.49
1.29
17.73
32.25
44.43
53.94
60.59
64.38
65.55
64.56
62.07
58.76
55.28
52.02
49.18
46.80
44.79
43.05
41.50
40.09
38.72
37.26
35.53
33.37
30.62
27.21
23.15
18.61
13.83
9.06
4.48
0.12
-4.20
-8.71
-13.63
-19.01
-24.69
-30.43
-35.93
-41.06
-45.81
-50.32
-54.81
-59.54
-64.74
-70.53
-76.81
-83.07
-88.41
-91.59
-91.38
-86.87
-77.81
-64.64
-48.38
-30.35
-11.83
6.06
22.47
36.76
48.44
57.14
62.72
65.31
65.30
63.37
60.26
56.64
52.98
49.53
46.35
43.41
40.76
38.45
36.56
35.10
33.95
32.84
31.47
29.59
27.12
24.08
20.58
16.77
12.73
8.50
4.08
-0.59
-5.58
-10.92
-16.58
-22.46
-28.33
-33.94
-39.07
-43.68
-47.97
-52.30
-57.16
-62.90
-69.57
-76.76
-83.63
-88.96
-91.45
-89.97
-83.94
-73.43
-59.21
-42.57
-24.95
-7.72
8.07
21.71
32.79
41.02
46.27
48.56
48.12
45.50
41.45
36.82
32.36
28.54
25.59
23.47
22.00
20.96
20.17
19.47
18.76
17.94
16.90
15.52
13.72
11.44
8.68
5.48
1.89
-1.99
-6.09
-10.35
-14.71
-19.08
-23.40
-27.61
-31.68
-35.68
-39.72
-43.95
-48.40
-52.83
-56.60
-58.72
-58.04
-53.58
-44.88
-32.12
-16.19
1.62
19.88
37.31
52.89
65.96
76.06
82.93
86.45
86.69
84.03
79.11
72.80
66.01
59.54
53.92
49.33
45.73
42.88
40.51
38.34
36.14
33.70
30.91
27.68
24.01
19.93
15.47
10.65
5.45
-0.14
-6.13
-12.47
-19.11
-25.99
-33.06
-40.31
-47.72
-55.29
-63.03
-70.91
-78.89
-86.79
-94.19
-100.36
-104.30
-104.94
-101.35
-93.07
-80.26
-63.67
-44.51
-24.19
-4.08
14.68
31.25
45.06
55.78
63.25
67.50
68.77
67.54
64.48
60.39
56.01
51.91
48.41
45.61
43.47
41.91
40.75
39.78
38.76
37.41
35.58
33.21
30.36
27.13
23.50
19.38
14.61
9.07
2.87
-3.75
-10.40
-16.78
-22.75
-28.37
-33.91
-39.69
-46.07
-53.24
-61.14
-69.31
-76.75
-82.05
-83.68
-80.40
-71.74
-58.18
-41.03
-22.06
-3.06
14.58
29.97
42.69
52.57
59.62
63.90
65.55
64.88
62.33
58.41
53.69
48.66
43.71
39.15
35.20
31.97
29.47
27.53
25.91
24.24
22.17
19.46
16.01
11.90
7.29
2.36
-2.78
-8.11
-13.65
-19.44
-25.48
-31.65
-37.84
-43.92
-49.80
-55.47
-61.03
-66.68
-72.66
-79.16
-86.11
-93.08
-99.18
-103.13
-103.58
-99.42
-90.18
-76.13
-58.32
-38.25
-17.55
2.34
20.37
35.93
48.69
58.55
65.58
70.02
72.37
73.30
73.58
73.87
74.58
75.78
77.34
79.01
80.52
81.64
82.09
81.48
79.42
75.57
69.83
62.39
53.67
44.29
34.78
25.59
16.95
8.96
1.55
-5.41
-12.11
-18.78
-25.69
-33.04
-40.88
-49.00
-56.80
-63.37
-67.61
-68.53
-65.42
-58.09
-46.89
-32.61
-16.39
0.50
16.75
31.16
42.68
50.60
54.52
54.50
51.13
45.38
38.52
31.79
26.09
21.78
18.69
16.26
13.95
11.49
9.01
6.85
5.29
4.31
3.47
2.08
-0.43
-4.30
-9.34
-15.07
-20.98
-26.77
-32.46
-38.29
-44.57
-51.58
-59.42
-67.96
-76.80
-85.12
-91.67
-95.03
-93.85
-87.32
-75.44
-59.14
-39.98
-19.76
-0.10
17.76
33.07
45.38
54.48
60.30
62.92
62.59
59.86
55.44
50.13
44.66
39.55
35.05
31.16
27.73
24.58
21.58
18.69
15.93
13.32
10.84
8.29
5.38
1.72
-2.96
-8.73
-15.34
-22.36
-29.30
-35.86
-41.97
-47.81
-53.71
-59.98
-66.82
-74.24
-81.90
-89.09
-94.64
-97.17
-95.38
-88.45
-76.35
-59.83
-40.31
-19.41
1.31
20.64
37.73
52.04
63.25
71.15
75.71
77.01
75.33
71.21
65.40
58.84
52.45
46.94
42.71
39.75
37.77
36.24
34.71
32.74
30.12
26.77
22.79
18.35
13.66
8.89
4.10
-0.72
-5.67
-10.85
-16.30
-21.99
-27.83
-33.76
-39.77
-45.89
-52.20
-58.75
-65.55
-72.54
-79.46
-85.77
-90.60
-92.83
-91.31
-85.23
-74.35
-59.14
-40.63
-20.20
0.74
20.96
39.42
55.30
67.93
76.88
82.02
83.58
82.20
78.75
74.19
69.40
65.02
61.44
58.76
56.91
55.71
54.94
54.34
53.71
52.85
51.61
49.88
47.59
44.66
41.05
36.73
31.71
26.05
19.86
13.27
6.44
-0.45
-7.26
-13.88
-20.31
-26.69
-33.22
-40.08
-47.22
-54.24
-60.24
-64.09
-64.60
-60.97
-52.97
-41.07
-26.26
-9.84
6.86
22.62
36.39
47.33
54.81
58.55
58.66
55.69
50.57
44.34
37.96
32.10
27.07
22.92
19.54
16.82
14.65
12.96
11.62
10.41
9.04
7.18
4.58
1.10
-3.25
-8.26
-13.62
-18.99
-24.14
-28.97
-33.64
-38.47
-43.89
-50.24
-57.60
-65.66
-73.59
-80.14
-83.83
-83.35
-77.85
-67.22
-52.15
-33.95
-14.19
5.61
24.16
40.55
54.14
64.52
71.45
74.91
75.12
72.60
68.08
62.39
56.39
50.77
46.00
42.30
39.58
37.55
35.78
33.86
31.55
28.82
25.78
22.54
19.08
15.19
10.55
4.99
-1.45
-8.43
-15.46
-22.09
-28.08
-33.47
-38.49
-43.48
-48.77
-54.62
-61.22
-68.63
-76.62
-84.55
-91.33
-95.56
-95.84
-91.15
-81.24
-66.63
-48.56
-28.52
-7.99
11.81
30.00
45.90
59.03
69.00
75.65
79.07
79.66
78.07
75.04
71.25
67.25
63.37
59.83
56.73
54.12
52.03
50.47
49.37
48.62
48.02
47.31
46.18
44.34
41.61
37.94
33.51
28.63
23.63
18.79
14.24
9.90
5.65
1.34
-3.07
-7.50
-11.84
-16.00
-19.97
-23.84
-27.74
-31.81
-36.08
-40.56
-45.14
-49.71
-54.16
-58.48
-62.71
-66.97
-71.44
-76.33
-81.80
-87.99
-94.90
-102.20
-109.19
-114.74
-117.45
-116.00
-109.50
-97.77
-81.40
-61.56
-39.73
-17.36
4.27
24.17
41.58
55.93
66.87
74.24
78.11
78.87
77.13
73.73
69.50
65.18
61.27
58.04
55.57
53.86
52.88
52.53
52.63
52.87
52.81
51.99
50.14
47.23
43.53
39.40
35.18
30.96
26.64
21.98
16.88
11.44
5.95
0.73
-4.08
-8.56
-12.93
-17.39
-22.00
-26.60
-31.00
-35.05
-38.80
-42.42
-46.16
-50.26
-54.90
-60.20
-66.13
-72.43
-78.53
-83.41
-85.87
-84.71
-79.18
-69.22
-55.51
-39.32
-22.11
-5.29
10.07
23.26
33.90
41.83
47.04
49.62
49.77
47.87
44.41
40.01
35.30
30.82
26.99
24.07
22.16
21.25
21.13
21.44
21.68
21.30
19.90
17.39
13.95
10.03
6.02
2.15
-1.64
-5.58
-9.90
-14.73
-20.01
-25.54
-31.10
-36.52
-41.75
-46.81
-51.84
-57.05
-62.69
-68.92
-75.73
-82.76
-89.25
-94.09
-96.00
-93.85
-86.96
-75.32
-59.61
-41.08
-21.22
-1.47
16.98
33.29
46.92
57.57
65.11
69.56
71.15
70.31
67.69
64.00
59.93
55.98
52.46
49.49
47.09
45.23
43.84
42.82
41.98
41.04
39.65
37.52
34.45
30.46
25.74
20.65
15.48
10.45
5.54
0.59
-4.61
-10.22
-16.22
-22.48
-28.77
-34.88
-40.66
-46.04
-51.04
-55.78
-60.55
-65.81
-71.97
-79.21
-87.20
-94.98
-101.07
-103.83
-101.95
-94.80
-82.59
-66.23
-47.11
-26.68
-6.25
13.11
30.56
45.46
57.34
65.94
71.32
73.81
73.97
72.43
69.77
66.43
62.74
59.00
55.51
52.56
50.38
49.06
48.50
48.43
48.50
48.31
47.53
45.90
43.27
39.68
35.28
30.29
24.97
19.55
14.19
8.95
3.77
-1.48
-6.96
-12.80
-18.97
-25.26
-31.32
-36.82
-41.66
-45.95
-50.04
-54.30
-59.06
-64.47
-70.57
-77.22
-84.05
-90.34
-94.95
-96.48
-93.64
-85.61
-72.39
-54.87
-34.57
-13.23
7.52
26.51
42.96
56.45
66.78
73.84
77.64
78.39
76.52
72.71
67.85
62.80
58.24
54.52
51.68
49.55
47.91
46.61
45.57
44.67
43.73
42.45
40.50
37.64
33.84
29.30
24.35
19.28
14.29
9.35
4.30
-1.05
-6.77
-12.80
-18.99
-25.12
-31.04
-36.69
-42.11
-47.53
-53.18
-59.30
-65.88
-72.51
-78.30
-81.96
-82.09
-77.63
-68.19
-54.24
-36.93
-17.81
1.55
19.80
35.92
49.21
59.16
65.56
68.43
68.12
65.23
60.58
55.05
49.43
44.30
40.10
36.98
34.96
33.90
33.53
33.55
33.59
33.33
32.46
30.75
28.10
24.55
20.25
15.44
10.33
5.03
-0.46
-6.19
-12.22
-18.48
-24.82
-31.03
-36.93
-42.50
-47.86
-53.21
-58.83
-64.96
-71.71
-78.97
-86.28
-92.77
-97.18
-98.15
-94.58
-85.90
-72.33
-54.81
-34.77
-13.73
6.94
26.11
42.93
56.79
67.24
74.04
77.31
77.45
75.17
71.30
66.64
61.80
57.16
52.94
49.25
46.15
43.76
42.09
41.02
40.30
39.55
38.42
36.62
34.00
30.54
26.31
21.46
16.14
10.54
4.75
-1.16
-7.18
-13.33
-19.57
-25.81
-31.89
-37.66
-43.03
-48.00
-52.77
-57.63
-62.97
-69.09
-76.02
-83.33
-90.06
-94.75
-95.83
-91.96
-82.61
-68.15
-49.80
-29.31
-8.45
11.30
28.96
43.95
55.97
64.86
70.54
73.08
72.74
70.06
65.74
60.55
55.17
50.16
45.81
42.30
39.56
37.51
35.98
34.85
33.98
33.23
32.40
31.24
29.54
27.14
24.05
20.40
16.40
12.23
8.01
3.74
-0.67
-5.31
-10.23
-15.37
-20.59
-25.66
-30.36
-34.54
-38.22
-41.61
-45.05
-48.99
-53.79
-59.59
-66.14
-72.77
-78.36
-81.52
-80.94
-75.70
-65.59
-51.18
-33.70
-14.69
4.27
21.88
37.14
49.34
58.01
62.93
64.15
62.12
57.63
51.70
45.37
39.47
34.53
30.72
28.01
26.18
24.97
24.09
23.27
22.33
21.13
19.61
17.71
15.34
12.35
8.61
4.07
-1.17
-6.88
-12.76
-18.56
-24.16
-29.54
-34.80
-40.05
-45.47
-51.24
-57.48
-64.10
-70.64
-76.20
-79.54
-79.35
-74.64
-65.12
-51.29
-34.32
-15.79
2.73
19.91
34.84
46.89
55.69
61.03
62.92
61.68
57.96
52.64
46.69
40.97
36.02
32.10
29.16
26.99
25.33
23.91
22.45
20.79
18.79
16.41
13.64
10.44
6.76
2.52
-2.31
-7.65
-13.33
-19.11
-24.84
-30.43
-35.91
-41.38
-46.90
-52.63
-58.76
-65.48
-72.84
-80.52
-87.67
-92.90
-94.66
-91.63
-83.18
-69.59
-51.94
-31.85
-10.99
9.17
27.54
43.41
56.33
66.01
72.34
75.38
75.45
73.07
68.96
63.85
58.45
53.28
48.69
44.89
41.90
39.66
37.97
36.53
35.00
33.07
30.55
27.35
23.51
19.15
14.36
9.21
3.69
-2.20
-8.40
-14.77
-21.13
-27.28
-33.11
-38.68
-44.13
-49.69
-55.64
-62.19
-69.39
-77.03
-84.43
-90.50
-93.85
-93.08
-87.19
-75.93
-59.93
-40.53
-19.52
1.35
20.66
37.42
51.07
61.35
68.20
71.75
72.35
70.56
67.05
62.53
57.60
52.69
48.11
44.05
40.68
38.08
36.23
34.92
33.84
32.60
30.88
28.52
25.48
21.86
17.83
13.52
9.00
4.24
-0.81
-6.20
-11.91
-17.86
-23.88
-29.78
-35.42
-40.74
-45.87
-51.04
-56.58
-62.73
-69.50
-76.45
-82.63
-86.69
-87.12
-82.77
-73.13
-58.59
-40.32
-19.97
0.72
20.25
37.49
51.69
62.38
69.31
72.47
72.15
68.93
63.68
57.43
51.15
45.59
41.17
37.96
35.73
34.13
32.81
31.53
30.18
28.72
27.11
25.20
22.83
19.77
15.87
11.10
5.60
-0.36
-6.51
-12.61
-18.59
-24.53
-30.60
-37.00
-43.87
-51.26
-59.03
-66.82
-73.93
-79.34
-81.74
-79.91
-73.05
-61.10
-44.88
-25.90
-5.96
13.31
30.62
45.13
56.34
63.90
67.70
67.87
64.94
59.76
53.40
46.88
40.99
36.18
32.53
29.90
28.07
26.76
25.76
24.87
23.89
22.64
20.96
18.69
15.68
11.84
7.14
1.63
-4.48
-10.96
-17.54
-24.00
-30.29
-36.45
-42.64
-49.05
-55.91
-63.41
-71.67
-80.56
-89.54
-97.52
-102.98
-104.24
-99.97
-89.64
-73.73
-53.62
-31.22
-8.42
13.19
32.56
49.11
62.47
72.42
78.85
81.75
81.42
78.42
73.54
67.67
61.60
55.90
50.93
46.80
43.52
41.08
39.38
38.25
37.37
36.29
34.54
31.84
28.16
23.73
18.91
14.01
9.09
4.01
-1.53
-7.71
-14.48
-21.55
-28.48
-34.93
-40.77
-46.16
-51.44
-57.09
-63.50
-70.77
-78.59
-86.09
-91.96
-94.66
-92.78
-85.52
-72.87
-55.73
-35.63
-14.39
6.24
24.91
40.76
53.36
62.63
68.65
71.62
71.81
69.56
65.38
59.95
54.03
48.35
43.44
39.61
36.87
35.10
34.08
33.59
33.40
33.20
32.65
31.36
29.08
25.71
21.44
16.63
11.66
6.76
1.97
-2.85
-7.87
-13.17
-18.67
-24.19
-29.56
-34.69
-39.67
-44.73
-50.18
-56.24
-62.91
-69.79
-76.00
-80.30
-81.22
-77.58
-68.78
-55.07
-37.53
-17.82
2.28
21.24
37.94
51.63
61.87
68.36
71.02
70.06
66.08
60.06
53.14
46.40
40.58
35.99
32.58
30.06
28.12
26.48
24.99
23.51
21.95
20.19
18.09
15.54
12.38
8.50
3.86
-1.50
-7.36
-13.46
-19.51
-25.36
-31.05
-36.77
-42.82
-49.42
-56.62
-64.25
-71.82
-78.54
-83.36
-85.03
-82.47
-74.98
-62.57
-46.00
-26.66
-6.26
13.55
31.42
46.41
57.93
65.70
69.64
69.95
67.12
61.99
55.57
48.90
42.82
37.81
33.98
31.14
28.97
27.13
25.35
23.46
21.40
19.19
16.84
14.33
11.52
8.19
4.14
-0.74
-6.36
-12.46
-18.72
-24.87
-30.81
-36.58
-42.33
-48.23
-54.50
-61.36
-69.03
-77.48
-86.28
-94.43
-100.41
-102.48
-99.17
-89.72
-74.38
-54.39
-31.66
-8.30
13.84
33.47
49.87
62.81
72.27
78.33
81.12
80.90
78.15
73.59
68.09
62.47
57.31
52.91
49.28
46.32
43.90
41.89
40.11
38.35
36.33
33.79
30.63
26.88
22.62
17.99
12.97
7.54
1.63
-4.71
-11.31
-17.94
-24.40
-30.66
-36.82
-43.13
-49.82
-57.08
-64.93
-73.21
-81.42
-88.65
-93.56
-94.63
-90.57
-80.78
-65.66
-46.55
-25.31
-3.83
16.40
34.39
49.59
61.58
70.07
74.89
76.16
74.33
70.16
64.57
58.40
52.32
46.77
42.00
38.09
35.02
32.69
30.96
29.67
28.59
27.47
26.00
23.91
21.03
17.35
13.07
8.41
3.59
-1.32
-6.33
-11.54
-16.92
-22.37
-27.69
-32.69
-37.34
-41.80
-46.41
-51.58
-57.51
-64.10
-70.66
-76.02
-78.67
-77.18
-70.66
-59.01
-43.06
-24.29
-4.44
14.86
32.35
47.10
58.51
66.16
69.84
69.70
66.30
60.58
53.73
46.86
40.81
35.94
32.18
29.24
26.78
24.60
22.65
20.98
19.56
18.23
16.67
14.52
11.49
7.49
2.65
-2.73
-8.27
-13.69
-18.85
-23.78
-28.62
-33.58
-38.87
-44.68
-51.05
-57.85
-64.58
-70.36
-73.98
-74.21
-70.09
-61.30
-48.28
-32.10
-14.21
3.89
20.84
35.53
47.10
54.92
58.67
58.47
54.93
49.03
41.97
34.89
28.61
23.57
19.78
17.00
14.89
13.10
11.42
9.75
8.06
6.32
4.40
2.07
-0.95
-4.84
-9.62
-15.09
-20.88
-26.62
-32.10
-37.35
-42.67
-48.48
-55.16
-62.81
-71.10
-79.19
-85.80
-89.43
-88.77
-82.96
-71.90
-56.25
-37.33
-16.79
3.75
22.85
39.47
52.95
62.96
69.39
72.37
72.18
69.36
64.65
58.90
52.90
47.20
42.09
37.58
33.67
30.36
27.75
25.91
24.70
23.77
22.55
20.50
17.27
12.83
7.43
1.47
-4.66
-10.65
-16.41
-22.00
-27.61
-33.53
-39.99
-47.16
-55.08
-63.55
-72.15
-80.03
-86.01
-88.66
-86.66
-79.25
-66.50
-49.43
-29.68
-9.13
10.61
28.40
43.59
55.85
65.00
70.94
73.76
73.75
71.44
67.53
62.71
57.55
52.48
47.77
43.60
40.11
37.33
35.19
33.43
31.71
29.69
27.11
23.94
20.25
16.20
11.90
7.36
2.48
-2.85
-8.68
-14.93
-21.37
-27.75
-33.86
-39.60
-45.03
-50.42
-56.06
-62.24
-69.05
-76.28
-83.32
-89.17
-92.58
-92.28
-87.26
-77.09
-62.11
-43.39
-22.56
-1.38
18.52
36.00
50.38
61.41
69.00
73.23
74.29
72.54
68.61
63.32
57.60
52.20
47.65
44.12
41.52
39.65
38.26
37.18
36.25
35.33
34.26
32.84
30.86
28.12
24.53
20.12
14.99
9.32
3.35
-2.75
-8.81
-14.80
-20.75
-26.76
-32.99
-39.54
-46.42
-53.44
-60.16
-65.87
-69.61
-70.37
-67.28
-59.92
-48.48
-33.81
-17.25
-0.32
15.56
29.32
40.24
47.94
52.27
53.28
51.29
46.92
41.05
34.70
28.81
23.99
20.48
18.13
16.59
15.47
14.46
13.45
12.36
11.17
9.73
7.85
5.30
1.95
-2.21
-7.05
-12.30
-17.66
-22.85
-27.69
-32.19
-36.49
-40.91
-45.78
-51.40
-57.93
-65.24
-72.85
-79.86
-84.98
-86.79
-84.04
-76.05
-62.94
-45.73
-26.06
-5.77
13.50
30.52
44.56
55.22
62.42
66.22
66.95
65.14
61.48
56.69
51.41
46.16
41.25
36.91
33.29
30.49
28.56
27.42
26.86
26.55
26.07
25.05
23.24
20.65
17.42
13.86
10.14
6.31
2.21
-2.40
-7.69
-13.63
-20.00
-26.42
-32.55
-38.21
-43.39
-48.30
-53.24
-58.54
-64.48
-71.13
-78.25
-85.09
-90.45
-92.81
-90.73
-83.30
-70.52
-53.33
-33.35
-12.43
7.80
26.17
41.94
54.71
64.19
70.22
72.85
72.42
69.65
65.41
60.55
55.71
51.18
47.03
43.26
39.93
37.25
35.39
34.39
33.95
33.54
32.60
30.72
27.85
24.14
19.90
15.38
10.72
5.93
0.95
-4.32
-9.95
-15.97
-22.30
-28.75
-35.00
-40.75
-45.80
-50.21
-54.34
-58.72
-63.91
-70.25
-77.69
-85.66
-93.06
-98.39
-100.07
-96.82
-88.02
-73.96
-55.76
-35.08
-13.78
6.55
24.74
40.03
51.98
60.39
65.21
66.70
65.39
62.12
57.80
53.23
48.94
45.11
41.76
38.84
36.41
34.59
33.45
32.92
32.73
32.47
31.72
30.21
27.83
24.67
20.89
16.72
12.33
7.83
3.24
-1.49
-6.42
-11.60
-16.96
-22.42
-27.88
-33.37
-39.09
-45.29
-52.08
-59.21
-65.90
-70.92
-72.87
-70.59
-63.52
-51.89
-36.66
-19.22
-1.10
16.32
31.90
44.80
54.40
60.37
62.65
61.50
57.52
51.62
44.82
38.12
32.26
27.64
24.29
21.92
20.17
18.69
17.27
15.83
14.33
12.64
10.57
7.90
4.45
0.25
-4.55
-9.74
-15.14
-20.68
-26.34
-32.12
-37.96
-43.86
-49.92
-56.37
-63.52
-71.43
-79.61
-86.96
-91.81
-92.42
-87.49
-76.58
-60.29
-40.03
-17.73
4.62
25.28
42.92
56.71
66.31
71.82
73.66
72.49
69.06
64.11
58.33
52.29
46.46
41.21
36.75
33.19
30.53
28.65
27.32
26.24
25.08
23.60
21.65
19.20
16.23
12.69
8.45
3.38
-2.48
-9.01
-15.85
-22.62
-29.05
-35.06
-40.80
-46.61
-52.90
-60.02
-68.18
-77.23
-86.55
-95.00
-100.96
-102.78
-99.06
-89.22
-73.59
-53.40
-30.45
-6.70
16.12
36.70
54.12
67.90
77.75
83.67
85.89
84.94
81.54
76.58
70.88
65.12
59.72
54.88
50.65
47.05
44.08
41.70
39.81
38.16
36.41
34.19
31.25
27.54
23.20
18.43
13.36
7.98
2.15
-4.25
-11.24
-18.58
-25.91
-32.87
-39.28
-45.16
-50.76
-56.44
-62.59
-69.50
-77.30
-85.73
-94.03
-100.90
-104.63
-103.52
-96.40
-83.02
-64.20
-41.65
-17.50
6.16
27.66
45.90
60.27
70.55
76.73
79.05
78.01
74.31
68.82
62.47
56.06
50.16
45.12
41.08
38.01
35.84
34.38
33.39
32.57
31.62
30.27
28.32
25.60
21.96
17.28
11.55
4.95
-2.13
-9.14
-15.60
-21.27
-26.17
-30.60
-34.99
-39.80
-45.45
-52.23
-60.15
-68.79
-77.18
-83.80
-86.89
-84.88
-76.90
-63.06
-44.43
-22.77
-0.13
21.54
40.61
55.95
66.83
73.02
74.68
72.36
66.92
59.47
51.18
43.18
36.29
30.97
27.23
24.77
23.14
21.90
20.72
19.41
17.83
15.79
13.07
9.47
4.90
-0.56
-6.64
-13.02
-19.39
-25.61
-31.70
-37.89
-44.51
-51.95
-60.41
-69.70
-79.15
-87.50
-93.13
-94.33
-89.86
-79.26
-63.09
-42.76
-20.18
2.69
24.21
43.17
58.72
70.33
77.67
80.65
79.55
75.07
68.32
60.56
52.94
46.24
40.74
36.34
32.77
29.73
27.09
24.77
22.68
20.70
18.53
15.88
12.47
8.09
2.69
-3.66
-10.77
-18.36
-26.08
-33.59
-40.65
-47.26
-53.69
-60.43
-68.03
-76.83
-86.69
-96.75
-105.45
-110.79
-110.81
-104.12
-90.41
-70.48
-46.11
-19.61
6.78
31.17
52.27
69.34
82.06
90.40
94.56
94.99
92.39
87.68
81.88
75.95
70.60
66.18
62.70
59.92
57.59
55.54
53.78
52.37
51.29
50.29
48.86
46.41
42.51
36.98
30.03
22.09
13.66
5.14
-3.18
-11.18
-18.77
-25.97
-32.91
-39.90
-47.41
-55.82
-65.24
-75.24
-84.69
-91.92
-95.10
-92.69
-83.95
-69.22
-49.85
-27.86
-5.46
15.43
33.38
47.60
57.69
63.60
65.53
63.91
59.42
52.98
45.55
37.97
30.82
24.36
18.63
13.52
9.00
5.26
2.73
2.05
3.84
8.40
15.53
24.42
33.91
42.82
50.25
55.75
59.12
60.28
59.02
55.12
48.53
39.55
28.89
17.36
5.63
-6.06
-17.89
-30.24
-43.44
-57.52
-72.08
-86.30
-98.93
-108.47
-113.32
-112.21
-104.47
-90.40
-71.24
-48.93
-25.63
-3.24
16.86
33.87
47.38
57.14
63.04
65.19
64.02
60.38
55.30
49.79
44.57
39.92
35.87
32.29
29.16
26.55
24.60
23.27
22.38
21.54
20.33
18.38
15.52
11.77
7.32
2.47
-2.47
-7.28
-11.94
-16.56
-21.36
-26.51
-31.99
-37.56
-42.87
-47.60
-51.66
-55.21
-58.64
-62.40
-66.92
-72.42
-78.84
-85.65
-91.88
-96.08
-96.67
-92.31
-82.31
-66.90
-47.26
-25.12
-2.44
19.05
38.05
53.68
65.41
73.04
76.59
76.48
73.41
68.36
62.39
56.46
51.23
47.06
44.02
42.02
40.84
40.27
40.06
39.92
39.53
38.60
36.93
34.43
31.14
27.17
22.62
17.55
12.04
6.21
0.21
-5.80
-11.75
-17.71
-23.89
-30.50
-37.67
-45.40
-53.47
-61.45
-68.66
-74.15
-76.73
-75.25
-68.94
-57.73
-42.36
-24.34
-5.45
12.61
28.54
41.47
50.93
56.62
58.51
56.87
52.33
45.92
38.82
32.07
26.38
22.04
18.97
16.90
15.49
14.48
13.65
12.81
11.76
10.27
8.07
4.94
0.75
-4.46
-10.48
-16.90
-23.27
-29.24
-34.70
-39.80
-44.94
-50.61
-57.24
-65.02
-73.73
-82.62
-90.44
-95.53
-96.29
-91.51
-80.81
-64.83
-45.03
-23.33
-1.59
18.68
36.46
51.11
62.20
69.43
72.72
72.27
68.71
62.98
56.20
49.35
43.14
37.87
33.56
30.01
27.04
24.48
22.23
20.22
18.33
16.36
14.04
11.06
7.14
2.17
-3.77
-10.37
-17.21
-23.89
-30.11
-35.82
-41.18
-46.47
-52.01
-58.07
-64.80
-72.12
-79.63
-86.46
-91.35
-92.86
-89.73
-81.23
-67.52
-49.58
-29.00
-7.52
13.30
32.27
48.66
61.95
71.89
78.30
81.22
80.93
78.02
73.27
67.55
61.62
56.05
51.13
46.93
43.41
40.45
37.94
35.72
33.54
31.14
28.19
24.48
19.93
14.62
8.73
2.41
-4.26
-11.29
-18.69
-26.32
-33.90
-41.05
-47.47
-53.07
-58.08
-62.97
-68.27
-74.39
-81.39
-88.83
-95.82
-101.02
-102.89
-100.02
-91.52
-77.29
-58.15
-35.67
-11.78
11.66
33.19
51.91
67.35
79.34
87.80
92.75
94.38
93.08
89.47
84.38
78.64
73.00
67.98
63.85
60.62
58.12
56.07
54.15
52.10
49.74
46.98
43.80
40.23
36.26
31.88
27.05
21.72
15.92
9.77
3.47
-2.77
-8.76
-14.47
-19.95
-25.36
-30.85
-36.49
-42.23
-47.90
-53.32
-58.32
-62.84
-66.95
-70.86
-74.92
-79.53
-85.04
-91.55
-98.73
-105.65
-110.82
-112.44
-108.87
-99.14
-83.29
-62.42
-38.43
-13.48
10.50
32.12
50.58
65.52
76.77
84.24
87.97
88.21
85.50
80.69
74.77
68.63
62.93
57.99
53.90
50.64
48.14
46.32
45.02
43.94
42.67
40.77
37.95
34.15
29.54
24.41
19.04
13.59
8.04
2.32
-3.59
-9.59
-15.47
-21.00
-26.09
-30.77
-35.28
-39.88
-44.85
-50.37
-56.51
-63.09
-69.60
-75.10
-78.29
-77.74
-72.39
-61.85
-46.73
-28.41
-8.72
10.67
28.46
43.85
56.32
65.45
70.88
72.46
70.43
65.54
58.88
51.63
44.76
38.82
34.07
30.55
28.23
27.03
26.75
26.99
27.18
26.73
25.16
22.30
18.31
13.53
8.40
3.19
-2.04
-7.40
-13.04
-19.02
-25.20
-31.28
-37.00
-42.21
-46.97
-51.62
-56.55
-62.17
-68.77
-76.28
-84.20
-91.51
-96.77
-98.38
-94.98
-85.87
-71.21
-52.03
-29.95
-6.79
15.72
36.29
54.01
68.40
79.25
86.54
90.44
91.24
89.42
85.60
80.53
74.91
69.34
64.20
59.64
55.65
52.23
49.33
46.98
45.15
43.66
42.15
40.13
37.12
32.81
27.22
20.75
14.00
7.55
1.67
-3.71
-9.03
-14.75
-21.12
-28.01
-34.95
-41.44
-47.14
-52.13
-56.82
-61.80
-67.59
-74.47
-82.43
-91.04
-99.39
-106.13
-109.59
-108.17
-100.77
-87.18
-68.28
-45.76
-21.72
1.84
23.42
42.09
57.38
69.13
77.33
82.13
83.81
82.87
79.95
75.79
71.07
66.38
62.05
58.24
54.96
52.18
49.84
47.86
46.12
44.44
42.57
40.28
37.46
34.04
30.08
25.65
20.79
15.58
10.08
4.40
-1.31
-6.92
-12.34
-17.59
-22.79
-28.11
-33.72
-39.67
-45.88
-52.17
-58.28
-64.05
-69.46
-74.65
-79.96
-85.75
-92.30
-99.62
-107.24
-114.17
-118.92
-119.80
-115.35
-104.78
-88.26
-66.95
-42.72
-17.65
6.39
27.98
46.26
60.74
71.25
77.80
80.65
80.24
77.29
72.65
67.15
61.51
56.28
51.79
48.23
45.67
44.03
43.11
42.56
41.93
40.77
38.76
35.76
31.85
27.25
22.23
17.03
11.77
6.44
0.93
-4.89
-11.08
-17.60
-24.19
-30.52
-36.29
-41.36
-45.90
-50.33
-55.22
-60.96
-67.52
-74.28
-80.03
-83.27
-82.55
-76.86
-65.96
-50.40
-31.43
-10.72
9.95
29.01
45.25
57.94
66.78
71.79
73.23
71.56
67.38
61.48
54.73
48.03
42.09
37.37
33.98
31.72
30.24
29.08
27.90
26.43
24.53
22.16
19.29
15.92
12.01
7.50
2.41
-3.25
-9.38
-15.83
-22.43
-28.99
-35.36
-41.40
-47.11
-52.69
-58.47
-64.94
-72.45
-80.96
-89.85
-97.88
-103.41
-104.76
-100.66
-90.66
-75.20
-55.53
-33.37
-10.54
11.40
31.24
48.21
61.81
71.75
77.95
80.54
79.94
76.87
72.17
66.71
61.19
56.00
51.37
47.35
44.01
41.44
39.64
38.47
37.56
36.40
34.53
31.64
27.74
23.07
17.99
12.82
7.70
2.61
-2.63
-8.22
-14.32
-20.90
-27.78
-34.60
-41.01
-46.76
-51.88
-56.64
-61.58
-67.24
-73.97
-81.76
-89.98
-97.46
-102.57
-103.63
-99.28
-89.00
-73.21
-53.25
-30.97
-8.26
13.32
32.70
49.20
62.43
72.12
78.17
80.71
80.18
77.26
72.76
67.49
62.07
56.91
52.25
48.23
44.90
42.30
40.40
39.09
38.13
37.17
35.76
33.51
30.17
25.79
20.63
15.11
9.55
4.05
-1.51
-7.33
-13.58
-20.23
-27.03
-33.66
-39.82
-45.42
-50.60
-55.74
-61.29
-67.71
-75.21
-83.58
-92.08
-99.45
-104.15
-104.70
-100.07
-89.94
-74.88
-56.12
-35.38
-14.48
4.99
21.79
35.21
44.96
51.11
54.01
54.20
52.34
49.14
45.28
41.32
37.67
34.61
32.29
30.85
30.30
30.53
31.22
31.83
31.72
30.35
27.51
23.40
18.60
13.92
10.07
7.45
5.93
4.99
3.77
1.49
-2.36
-7.81
-14.40
-21.36
-27.91
-33.54
-38.16
-42.11
-46.00
-50.37
-55.33
-60.37
-64.36
-65.74
-63.09
-55.49
-42.91
-26.21
-6.86
13.43
33.09
50.87
65.86
77.39
85.03
88.59
88.23
84.46
78.14
70.33
62.15
54.45
47.81
42.38
37.99
34.31
31.06
28.13
25.56
23.49
21.91
20.60
19.14
17.02
13.92
9.80
4.89
-0.42
-5.83
-11.20
-16.56
-22.05
-27.76
-33.72
-39.93
-46.46
-53.39
-60.73
-68.22
-75.07
-80.08
-81.84
-79.16
-71.51
-59.18
-43.23
-25.13
-6.42
11.61
27.95
41.82
52.59
59.77
63.13
62.84
59.53
54.18
47.92
41.69
36.17
31.64
28.10
25.39
23.26
21.48
19.78
17.96
15.85
13.41
10.64
7.58
4.23
0.48
-3.81
-8.74
-14.27
-20.16
-26.11
-31.86
-37.32
-42.71
-48.46
-55.05
-62.81
-71.74
-81.36
-90.66
-98.21
-102.41
-101.83
-95.60
-83.65
-66.81
-46.56
-24.74
-3.10
16.95
34.49
49.03
60.37
68.50
73.51
75.59
75.08
72.47
68.39
63.54
58.55
53.92
49.89
46.53
43.72
41.25
38.89
36.39
33.56
30.29
26.52
22.27
17.57
12.44
6.88
0.96
-5.21
-11.44
-17.56
-23.49
-29.28
-35.11
-41.21
-47.78
-54.96
-62.83
-71.34
-80.19
-88.72
-95.83
-100.06
-99.95
-94.47
-83.41
-67.43
-47.94
-26.68
-5.28
15.00
33.29
49.03
61.82
71.34
77.42
80.14
79.82
77.06
72.59
67.16
61.42
55.87
50.87
46.61
43.17
40.46
38.25
36.22
34.05
31.47
28.34
24.59
20.23
15.34
10.00
4.34
-1.50
-7.43
-13.40
-19.41
-25.47
-31.56
-37.59
-43.40
-48.86
-54.02
-59.13
-64.62
-70.89
-78.02
-85.54
-92.34
-96.91
-97.67
-93.47
-83.97
-69.70
-51.87
-32.00
-11.50
8.54
27.34
44.27
58.69
69.95
77.50
81.15
81.20
78.42
73.86
68.58
63.34
58.60
54.46
50.86
47.68
44.84
42.30
40.03
37.93
35.81
33.36
30.27
26.30
21.36
15.57
9.22
2.66
-3.82
-10.15
-16.37
-22.62
-29.00
-35.56
-42.29
-49.19
-56.31
-63.69
-71.17
-78.27
-84.04
-87.23
-86.55
-81.04
-70.48
-55.43
-37.14
-17.17
2.87
21.68
38.24
51.88
62.13
68.76
71.84
71.74
69.19
65.14
60.55
56.26
52.78
50.31
48.79
47.99
47.68
47.66
47.74
47.69
47.26
46.12
44.04
40.91
36.79
31.91
26.50
20.71
14.55
7.91
0.72
-6.93
-14.81
-22.57
-29.89
-36.69
-43.12
-49.57
-56.50
-64.30
-73.08
-82.51
-91.81
-99.78
-104.97
-105.98
-101.78
-91.99
-76.97
-57.76
-35.83
-12.76
9.99
31.28
50.22
66.21
78.77
87.60
92.58
93.92
92.21
88.33
83.29
77.98
73.01
68.63
64.86
61.66
59.09
57.24
56.15
55.67
55.36
54.65
53.02
50.19
46.26
41.55
36.49
31.41
26.39
21.38
16.23
10.80
5.08
-0.88
-6.96
-12.99
-18.86
-24.44
-29.65
-34.44
-38.83
-42.93
-46.89
-50.89
-55.07
-59.47
-64.06
-68.74
-73.36
-77.85
-82.22
-86.59
-91.25
-96.56
-102.87
-110.31
-118.58
-126.74
-133.29
-136.47
-134.64
-126.78
-112.76
-93.31
-69.75
-43.63
-16.47
10.38
35.67
58.28
77.14
91.42
100.66
104.88
104.63
100.87
94.75
87.38
79.67
72.16
65.14
58.70
52.94
48.01
44.08
41.23
39.38
38.19
37.21
36.00
34.27
31.92
29.02
25.69
22.10
18.36
14.55
10.74
6.90
2.97
-1.14
-5.51
-10.05
-14.56
-18.76
-22.46
-25.67
-28.63
-31.72
-35.24
-39.30
-43.74
-48.24
-52.43
-56.11
-59.28
-62.20
-65.26
-68.87
-73.37
-78.89
-85.19
-91.56
-96.84
-99.56
-98.25
-91.85
-80.03
-63.31
-42.93
-20.54
2.17
23.80
43.27
59.83
72.96
82.30
87.74
89.52
88.26
84.83
80.19
75.19
70.38
66.02
62.18
58.86
56.07
53.83
52.13
50.85
49.74
48.45
46.66
44.14
40.80
36.69
31.94
26.70
21.12
15.28
9.26
3.15
-2.97
-9.00
-14.91
-20.67
-26.28
-31.74
-37.03
-42.10
-46.89
-51.43
-55.86
-60.46
-65.59
-71.58
-78.50
-85.95
-92.94
-98.02
-99.55
-96.20
-87.30
-73.03
-54.37
-32.79
-9.93
12.66
33.66
52.02
66.90
77.80
84.58
87.48
87.07
84.17
79.63
74.21
68.54
63.05
58.05
53.67
50.00
47.03
44.72
42.93
41.48
40.06
38.33
35.99
32.85
28.89
24.28
19.25
14.06
8.85
3.67
-1.57
-6.98
-12.72
-18.88
-25.46
-32.37
-39.38
-46.18
-52.47
-58.06
-62.95
-67.35
-71.66
-76.33
-81.80
-88.39
-96.06
-104.33
-112.21
-118.19
-120.58
-117.87
-109.17
-94.49
-74.77
-51.62
-26.96
-2.59
20.07
40.10
56.91
70.19
79.80
85.71
88.07
87.29
84.02
79.12
73.51
67.94
62.94
58.77
55.47
52.99
51.18
49.88
48.85
47.81
46.48
44.65
42.23
39.23
35.67
31.63
27.12
22.15
16.78
11.11
5.31
-0.50
-6.24
-11.93
-17.68
-23.56
-29.63
-35.82
-41.99
-47.95
-53.57
-58.85
-63.94
-69.10
-74.69
-81.02
-88.30
-96.39
-104.74
-112.22
-117.24
-118.08
-113.32
-102.31
-85.39
-63.84
-39.51
-14.36
9.90
32.01
51.08
66.51
77.91
85.11
88.23
87.79
84.64
79.71
73.87
67.74
61.64
55.76
50.27
45.42
41.50
38.68
36.93
35.97
35.31
34.45
32.95
30.59
27.31
23.19
18.45
13.35
8.23
3.35
-1.17
-5.38
-9.49
-13.78
-18.41
-23.37
-28.48
-33.47
-38.03
-42.07
-45.60
-48.82
-52.06
-55.72
-60.18
-65.70
-72.30
-79.49
-86.25
-91.07
-92.25
-88.39
-78.79
-63.73
-44.34
-22.32
0.50
22.45
42.23
58.82
71.47
79.71
83.42
83.03
79.42
73.80
67.40
61.18
55.67
51.00
47.13
43.98
41.58
39.99
39.20
38.98
38.90
38.47
37.24
35.02
31.84
27.87
23.30
18.19
12.54
6.32
-0.38
-7.35
-14.29
-20.95
-27.23
-33.25
-39.21
-45.38
-51.94
-58.98
-66.51
-74.39
-82.22
-89.19
-94.13
-95.62
-92.37
-83.67
-69.58
-51.08
-29.68
-7.12
14.99
35.36
52.94
66.93
76.72
82.00
82.88
80.03
74.50
67.52
60.24
53.50
47.77
43.19
39.72
37.19
35.40
34.05
32.80
31.26
29.09
26.11
22.33
17.92
13.08
7.98
2.61
-3.18
-9.57
-16.62
-24.17
-31.88
-39.37
-46.37
-52.86
-59.06
-65.35
-72.20
-79.96
-88.79
-98.45
-108.19
-116.63
-121.92
-122.11
-115.64
-101.93
-81.61
-56.45
-28.89
-1.52
23.50
44.73
61.45
73.56
81.32
85.19
85.72
83.55
79.40
74.05
68.20
62.40
57.00
52.16
47.94
44.41
41.60
39.59
38.29
37.47
36.70
35.51
33.41
30.16
25.74
20.44
14.68
8.90
3.34
-1.99
-7.33
-12.99
-19.22
-26.02
-33.12
-40.12
-46.62
-52.51
-58.02
-63.70
-70.25
-78.20
-87.56
-97.58
-106.74
-113.04
-114.44
-109.42
-97.42
-79.00
-55.68
-29.55
-2.81
22.71
45.66
65.19
80.79
92.15
99.14
101.88
100.83
96.83
90.94
84.26
77.63
71.56
66.26
61.75
57.99
54.99
52.69
50.92
49.32
47.41
44.68
40.82
35.83
29.98
23.73
17.48
11.49
5.76
0.09
-5.74
-11.88
-18.32
-24.96
-31.62
-38.26
-44.83
-51.39
-57.96
-64.56
-71.31
-78.40
-86.09
-94.41
-102.90
-110.40
-115.15
-115.20
-109.06
-96.17
-77.14
-53.58
-27.56
-1.18
23.88
46.39
65.47
80.49
90.97
96.77
98.12
95.74
90.73
84.34
77.77
71.88
67.11
63.53
60.96
59.15
57.85
56.82
55.82
54.64
53.02
50.79
47.80
44.01
39.43
34.08
28.00
21.26
13.96
6.27
-1.60
-9.45
-17.10
-24.47
-31.57
-38.48
-45.41
-52.61
-60.33
-68.71
-77.61
-86.44
-94.17
-99.36
-100.50
-96.37
-86.40
-70.95
-51.25
-29.11
-6.60
14.46
32.67
47.16
57.51
63.64
65.74
64.31
60.09
54.05
47.20
40.50
34.65
30.06
26.88
25.01
24.23
24.15
24.33
24.35
23.85
22.63
20.64
17.94
14.69
10.99
6.90
2.42
-2.52
-7.97
-14.01
-20.60
-27.64
-34.94
-42.29
-49.59
-56.93
-64.59
-72.92
-82.12
-91.93
-101.45
-109.15
-113.17
-111.76
-103.78
-89.05
-68.43
-43.62
-16.76
9.96
34.71
56.13
73.41
86.18
94.40
98.27
98.23
94.95
89.33
82.42
75.22
68.51
62.73
57.92
53.96
50.67
47.94
45.77
44.09
42.67
41.09
38.84
35.54
31.05
25.59
19.54
13.29
7.10
0.99
-5.24
-11.84
-19.01
-26.71
-34.67
-42.45
-49.62
-55.91
-61.40
-66.48
-71.78
-77.96
-85.45
-94.19
-103.49
-111.98
-117.80
-118.94
-113.75
-101.46
-82.44
-58.23
-31.15
-3.70
21.93
44.28
62.60
76.69
86.62
92.57
94.83
93.81
90.16
84.67
78.23
71.58
65.32
59.81
55.22
51.59
48.87
46.95
45.67
44.81
44.05
42.97
41.13
38.09
33.65
27.87
21.14
14.01
7.02
0.50
-5.55
-11.38
-17.35
-23.75
-30.67
-37.95
-45.28
-52.37
-59.05
-65.42
-71.76
-78.47
-85.87
-94.05
-102.64
-110.78
-117.06
-119.78
-117.30
-108.52
-93.21
-72.20
-47.19
-20.30
6.34
31.04
52.61
70.33
83.75
92.64
96.98
97.11
93.78
88.08
81.28
74.51
68.54
63.70
59.95
57.12
55.03
53.56
52.61
51.92
51.10
49.58
46.94
42.98
37.84
31.90
25.58
19.10
12.44
5.38
-2.30
-10.69
-19.62
-28.69
-37.45
-45.51
-52.77
-59.35
-65.62
-72.04
-78.95
-86.44
-94.13
-101.12
-106.10
-107.51
-104.01
-94.80
-79.94
-60.41
-37.87
-14.29
8.51
29.06
46.33
59.63
68.52
72.82
72.73
68.90
62.46
54.82
47.32
40.96
36.19
33.00
31.05
29.92
29.22
28.64
27.94
26.87
25.21
22.84
19.68
15.78
11.22
6.08
0.40
-5.77
-12.38
-19.31
-26.35
-33.29
-39.95
-46.29
-52.47
-58.81
-65.77
-73.75
-82.83
-92.63
-102.05
-109.40
-112.69
-110.14
-100.74
-84.51
-62.64
-37.11
-10.26
15.70
39.06
58.73
74.14
85.14
91.82
94.51
93.71
90.10
84.48
77.67
70.46
63.51
57.28
52.07
47.99
45.03
42.97
41.51
40.19
38.57
36.22
32.92
28.67
23.64
18.08
12.24
6.23
0.01
-6.52
-13.47
-20.80
-28.35
-35.87
-43.14
-50.06
-56.70
-63.35
-70.37
-78.15
-86.79
-95.95
-104.66
-111.38
-114.24
-111.55
-102.23
-86.27
-64.71
-39.40
-12.61
13.54
37.37
57.75
74.04
85.97
93.49
96.78
96.30
92.77
87.10
80.30
73.23
66.52
60.54
55.43
51.25
48.00
45.70
44.24
43.33
42.51
41.21
38.87
35.20
30.20
24.21
17.70
11.18
4.98
-0.76
-6.13
-11.35
-16.70
-22.36
-28.40
-34.69
-40.99
-47.07
-52.80
-58.22
-63.61
-69.37
-75.92
-83.52
-92.05
-100.86
-108.71
-113.83
-114.32
-108.68
-96.27
-77.68
-54.52
-29.06
-3.56
20.15
40.93
58.15
71.50
80.72
85.69
86.47
83.61
78.05
71.02
63.74
57.05
51.36
46.68
42.86
39.77
37.39
35.71
34.63
33.77
32.66
30.75
27.69
23.42
18.17
12.34
6.32
0.38
-5.43
-11.24
-17.22
-23.47
-29.92
-36.30
-42.29
-47.61
-52.21
-56.25
-60.13
-64.30
-69.08
-74.55
-80.33
-85.62
-89.18
-89.59
-85.52
-76.09
-61.20
-41.65
-18.97
4.90
28.03
48.81
66.15
79.36
88.13
92.41
92.40
88.64
82.06
73.85
65.28
57.44
50.95
45.97
42.27
39.41
36.91
34.41
31.73
28.78
25.63
22.35
19.00
15.49
11.64
7.13
1.68
-4.80
-12.14
-19.93
-27.66
-34.93
-41.56
-47.67
-53.54
-59.61
-66.24
-73.62
-81.61
-89.51
-96.11
-99.77
-98.82
-92.02
-79.04
-60.57
-38.25
-14.17
9.63
31.47
50.21
65.19
76.04
82.66
85.22
84.18
80.31
74.57
67.92
61.19
54.89
49.35
44.72
41.09
38.47
36.75
35.68
34.79
33.60
31.67
28.77
24.93
20.37
15.39
10.22
4.93
-0.57
-6.47
-12.90
-19.85
-27.11
-34.35
-41.27
-47.74
-53.86
-59.92
-66.31
-73.44
-81.55
-90.59
-100.07
-108.87
-115.38
-117.69
-114.20
-104.09
-87.63
-66.20
-41.81
-16.58
7.69
29.76
48.84
64.39
76.05
83.64
87.22
87.22
84.42
79.78
74.31
68.81
63.82
59.50
55.77
52.45
49.42
46.74
44.53
42.88
41.66
40.43
38.57
35.49
30.92
25.06
18.45
11.74
5.37
-0.56
-6.24
-11.98
-17.99
-24.26
-30.59
-36.78
-42.74
-48.51
-54.32
-60.45
-67.17
-74.70
-83.04
-91.77
-99.95
-106.08
-108.37
-105.21
-95.69
-79.94
-59.14
-35.24
-10.42
13.29
34.40
51.95
65.43
74.70
79.91
81.41
79.84
75.99
70.71
64.80
58.83
53.17
47.99
43.38
39.44
36.31
34.10
32.79
32.15
31.77
31.15
29.81
27.45
24.00
19.62
14.58
9.19
3.70
-1.78
-7.27
-12.79
-18.36
-23.88
-29.15
-33.96
-38.20
-41.95
-45.43
-49.02
-53.14
-58.19
-64.41
-71.68
-79.37
-86.24
-90.59
-90.64
-85.09
-73.55
-56.73
-36.20
-13.95
8.12
28.52
46.18
60.41
70.70
76.76
78.61
76.69
71.82
65.09
57.64
50.44
44.17
39.20
35.54
33.07
31.45
30.33
29.38
28.34
27.03
25.33
23.15
20.39
16.95
12.73
7.69
1.91
-4.41
-10.98
-17.49
-23.70
-29.55
-35.17
-40.84
-46.93
-53.74
-61.41
-69.84
-78.49
-86.35
-92.03
-93.95
-90.77
-81.79
-67.22
-48.18
-26.38
-3.72
18.12
37.83
54.48
67.40
76.13
80.51
80.74
77.50
71.84
64.97
57.98
51.66
46.37
42.14
38.82
36.17
33.97
32.06
30.24
28.31
26.06
23.34
20.07
16.28
12.05
7.43
2.40
-3.17
-9.40
-16.30
-23.67
-31.16
-38.37
-45.08
-51.34
-57.51
-64.10
-71.61
-80.20
-89.62
-99.03
-107.11
-112.19
-112.66
-107.28
-95.59
-78.07
-56.05
-31.36
-5.99
18.34
40.29
58.94
73.75
84.39
90.85
93.42
92.71
89.59
84.97
79.68
74.28
69.10
64.29
59.97
56.22
53.12
50.66
48.67
46.86
44.86
42.35
39.14
35.17
30.53
25.33
19.66
13.52
6.91
-0.22
-7.77
-15.56
-23.23
-30.47
-37.05
-43.01
-48.61
-54.30
-60.60
-67.91
-76.28
-85.30
-94.00
-100.95
-104.47
-103.05
-95.74
-82.50
-64.21
-42.52
-19.45
3.08
23.56
40.98
54.83
64.94
71.44
74.66
75.11
73.43
70.33
66.46
62.26
58.02
53.79
49.56
45.37
41.36
37.77
34.82
32.57
30.86
29.26
27.23
24.28
20.22
15.21
9.67
4.08
-1.27
-6.40
-11.59
-17.22
-23.49
-30.27
-37.20
-43.84
-49.87
-55.28
-60.37
-65.66
-71.66
-78.69
-86.64
-94.92
-102.43
-107.69
-109.18
-105.64
-96.44
-81.82
-62.85
-41.20
-18.82
2.54
21.57
37.40
49.62
58.01
62.57
63.42
61.00
56.10
49.73
43.01
36.88
31.95
28.46
26.37
25.51
25.70
26.72
28.34
30.22
31.96
33.08
33.13
31.79
28.97
24.80
19.67
14.05
8.36
2.84
-2.45
-7.67
-13.08
-18.88
-25.32
-32.52
-40.47
-48.89
-57.09
-63.90
-67.83
-67.41
-61.65
-50.35
-34.28
-14.96
5.71
25.96
44.35
59.93
72.10
80.46
84.77
84.96
81.29
74.43
65.43
55.59
46.15
38.02
31.60
26.80
23.14
20.01
16.88
13.46
9.68
5.65
1.52
-2.62
-6.72
-10.80
-14.87
-18.95
-23.10
-27.42
-32.03
-37.05
-42.49
-48.20
-54.01
-59.74
-65.43
-71.39
-78.09
-85.89
-94.64
-103.48
-110.84
-114.76
-113.44
-105.80
-91.84
-72.58
-49.80
-25.52
-1.55
20.73
40.36
56.78
69.58
78.55
83.64
85.12
83.52
79.66
74.43
68.64
62.88
57.47
52.50
48.00
43.96
40.39
37.28
34.52
31.86
28.96
25.52
21.41
16.70
11.61
6.39
1.17
-4.09
-9.57
-15.44
-21.75
-28.39
-35.09
-41.64
-47.94
-54.07
-60.32
-67.03
-74.44
-82.47
-90.57
-97.59
-101.93
-101.89
-96.13
-84.16
-66.55
-44.85
-21.16
2.45
24.33
43.48
59.41
71.87
80.70
85.79
87.24
85.47
81.23
75.47
69.08
62.67
56.61
51.04
46.05
41.71
38.07
35.08
32.55
30.17
27.60
24.63
21.09
16.95
12.23
6.94
1.13
-5.18
-11.87
-18.83
-25.89
-32.90
-39.78
-46.52
-53.19
-59.97
-67.10
-74.72
-82.74
-90.62
-97.33
-101.41
-101.31
-95.80
-84.38
-67.49
-46.42
-23.01
0.82
23.39
43.44
60.11
72.87
81.41
85.71
86.08
83.14
77.81
71.14
64.11
57.54
51.93
47.46
44.07
41.50
39.53
37.90
36.47
35.06
33.45
31.34
28.38
24.32
19.09
12.83
5.86
-1.45
-8.81
-16.11
-23.39
-30.79
-38.46
-46.53
-55.09
-64.13
-73.50
-82.80
-91.20
-97.45
-100.09
-97.83
-89.97
-76.74
-59.33
-39.60
-19.67
-1.50
13.46
24.28
30.63
32.67
30.97
26.47
20.27
13.51
7.20
2.04
-1.59
-3.61
-4.18
-3.52
-1.84
0.74
4.13
8.22
12.63
16.75
19.77
20.92
19.76
16.37
11.39
5.76
0.37
-4.24
-8.13
-11.99
-16.85
-23.79
-33.41
-45.51
-58.91
-71.57
-81.03
-85.03
-82.10
-72.00
-55.70
-35.12
-12.53
9.98
30.84
49.04
63.98
75.29
82.68
86.08
85.64
81.91
75.68
67.90
59.48
51.10
43.25
36.28
30.41
25.72
22.16
19.46
17.22
14.93
12.15
8.54
3.97
-1.57
-7.89
-14.77
-21.88
-28.93
-35.65
-41.91
-47.79
-53.53
-59.55
-66.25
-73.91
-82.59
-91.95
-101.18
-109.04
-113.94
-114.32
-109.02
-97.57
-80.41
-58.75
-34.24
-8.63
16.47
39.72
59.98
76.27
87.87
94.47
96.32
94.23
89.38
82.99
76.09
69.36
63.18
57.77
53.35
50.13
48.19
47.40
47.32
47.29
46.64
44.85
41.74
37.52
32.67
27.74
23.12
18.87
14.69
9.99
4.17
-3.16
-12.00
-21.95
-32.34
-42.55
-52.19
-61.23
-69.96
-78.83
-88.24
-98.35
-108.89
-119.03
-127.44
-132.41
-132.22
-125.55
-111.97
-92.01
-67.20
-39.58
-11.29
15.89
40.66
62.14
79.69
92.81
101.23
105.00
104.70
101.33
96.17
90.44
85.02
80.42
76.78
73.99
71.92
70.44
69.47
68.91
68.58
68.26
67.69
66.62
64.84
62.21
58.68
54.24
49.02
43.24
37.29
31.67
26.87
23.25
20.87
19.44
18.42
17.17
15.23
12.30
8.41
3.71
-1.55
-7.11
-12.77
-18.33
-23.64
-28.55
-32.97
-36.88
-40.25
-43.11
-45.36
-46.86
-47.43
-47.03
-45.84
-44.39
-43.33
-43.15
-43.83
-44.67
-44.39
-41.52
-34.89
-23.94
-8.99
9.01
28.67
48.40
66.65
81.98
93.22
99.62
100.96
97.61
90.39
80.34
68.45
55.52
42.09
28.50
15.05
2.02
-10.24
-21.37
-31.01
-38.84
-44.65
-48.48
-50.69
-51.95
-53.08
-54.94
-58.03
-62.45
-67.76
-73.16
-77.64
-80.36
-80.86
-79.27
-76.37
-73.32
-71.40
-71.56
-74.19
-78.98
-84.98
-90.85
-95.08
-96.22
-93.12
-85.13
-72.18
-54.88
-34.35
-12.09
10.36
31.59
50.48
66.18
78.19
86.30
90.66
91.74
90.25
87.01
82.81
78.26
73.81
69.74
66.25
63.51
61.59
60.45
59.85
59.33
58.32
56.23
52.74
47.83
41.86
35.41
29.02
23.03
17.37
11.70
5.55
-1.35
-8.97
-16.95
-24.77
-32.01
-38.49
-44.38
-50.07
-56.02
-62.63
-70.09
-78.38
-87.21
-95.94
-103.59
-108.84
-110.26
-106.54
-96.94
-81.47
-60.98
-36.96
-11.18
14.65
39.10
61.13
79.95
94.97
105.74
112.07
114.10
112.42
107.96
101.84
95.11
88.56
82.68
77.68
73.63
70.56
68.42
67.10
66.30
65.56
64.34
62.19
58.89
54.51
49.38
43.99
38.70
33.73
29.04
24.40
19.54
14.26
8.52
2.47
-3.57
-9.31
-14.55
-19.33
-23.93
-28.73
-34.02
-39.88
-46.09
-52.21
-57.82
-62.72
-66.97
-70.97
-75.28
-80.50
-87.08
-95.16
-104.42
-114.03
-122.52
-128.08
-128.81
-123.25
-110.80
-91.90
-67.94
-40.90
-12.89
14.29
39.24
61.01
78.99
92.70
101.87
106.52
107.01
104.12
98.91
92.50
85.80
79.47
73.84
69.08
65.25
62.37
60.35
58.96
57.83
56.54
54.68
52.02
48.49
44.13
39.05
33.38
27.30
20.97
14.61
8.35
2.25
-3.74
-9.81
-16.11
-22.73
-29.57
-36.44
-43.02
-49.06
-54.45
-59.28
-63.85
-68.59
-73.97
-80.32
-87.67
-95.58
-103.10
-108.84
-111.21
-108.77
-100.62
-86.67
-67.67
-45.08
-20.74
3.47
25.91
45.31
60.80
71.88
78.41
80.59
79.02
74.63
68.56
61.93
55.62
50.16
45.68
42.13
39.33
37.11
35.33
33.78
32.17
30.17
27.45
23.85
19.43
14.40
9.07
3.62
-1.86
-7.47
-13.33
-19.56
