1626185936.00
64.000000
-0.00
-0.00
-0.00
-0.00
-0.00
-0.00
-0.00
-0.00
-0.00
-0.00
0.00
0.01
0.01
-0.00
-0.03
-0.05
-0.05
0.00
0.13
0.36
0.66
1.01
1.37
1.72
2.06
2.40
2.79
3.24
3.80
4.42
5.06
5.66
6.20
6.68
7.15
7.68
8.31
9.14
10.09
11.04
11.88
12.56
13.14
13.76
14.65
15.96
17.91
20.32
22.90
25.38
27.58
29.57
31.68
34.32
37.81
42.54
48.15
54.10
59.83
64.97
69.58
74.14
79.34
85.71
93.76
103.00
112.62
121.73
129.77
136.75
143.30
150.75
157.77
166.64
177.95
191.79
206.97
220.57
228.25
225.36
208.53
176.87
132.76
80.05
23.07
-34.94
-92.44
-149.16
-205.23
-260.37
-313.74
-363.87
-409.83
-450.91
-486.50
-515.74
-537.23
-549.22
-549.96
-538.37
-514.21
-478.67
-433.88
-382.45
-327.02
-269.84
-212.63
-156.66
-102.95
-52.37
-5.90
35.58
71.42
101.35
125.50
144.38
158.69
169.15
176.38
180.76
182.59
182.10
179.56
175.31
169.76
163.31
156.32
149.02
141.56
134.00
126.39
118.75
111.16
103.68
96.39
89.34
82.56
76.07
69.85
63.90
58.20
52.79
47.68
42.91
38.51
34.49
30.82
27.48
24.40
21.58
18.99
16.67
14.65
12.95
11.58
10.50
9.66
8.96
8.35
7.82
7.41
7.20
7.28
7.67
8.29
8.98
9.54
9.87
9.97
9.99
10.19
10.81
11.92
13.39
14.89
16.02
16.51
16.36
15.83
15.30
15.10
15.24
15.35
14.73
12.68
8.71
2.90
-4.17
-11.67
-18.76
-24.96
-30.26
-35.05
-39.81
-44.99
-50.88
-57.59
-64.89
-71.88
-76.79
-77.19
-70.94
-57.38
-38.12
-16.78
2.26
15.58
22.12
23.01
20.65
17.25
13.93
10.94
8.35
6.71
6.91
9.55
14.25
19.70
24.35
27.17
28.12
27.78
26.76
25.18
22.87
19.67
15.80
11.79
8.19
5.17
2.55
0.14
-1.89
-2.97
-2.51
-0.37
2.76
5.55
6.71
5.53
2.38
-1.42
-4.29
-5.15
-3.93
-1.58
0.44
0.93
-0.47
-3.21
-6.26
-8.69
-10.04
-10.51
-10.60
-10.76
-11.12
-11.50
-11.62
-11.43
-11.11
-11.00
-11.50
-12.74
-14.59
-16.52
-17.81
-17.69
-15.74
-12.44
-9.19
-7.77
-9.38
-13.90
-19.70
-24.32
-25.70
-23.11
-17.32
-9.69
-1.27
7.57
16.86
26.33
34.88
40.81
42.79
40.69
35.76
29.95
25.01
21.76
20.08
19.33
18.89
18.45
18.02
17.65
17.27
16.78
16.20
15.37
14.09
12.15
9.56
6.59
3.79
1.88
1.29
1.90
3.04
3.81
3.58
2.29
0.45
-1.02
-1.39
-0.57
0.76
1.59
1.07
-1.04
-4.13
-7.13
-9.00
-9.31
-8.35
-6.81
-5.35
-4.42
-4.29
-5.16
-7.20
-10.42
-14.45
-18.45
-21.41
-22.76
-22.62
-21.70
-20.69
-19.73
-18.27
-15.48
-10.88
-4.77
1.93
8.18
13.26
16.83
18.87
19.49
18.82
17.24
15.48
14.55
15.39
18.33
22.94
28.13
32.66
35.65
36.82
36.45
34.89
32.48
29.44
26.04
22.69
19.82
17.86
16.86
16.51
16.27
15.57
14.06
11.67
8.50
4.73
0.53
-3.87
-8.11
-11.74
-14.39
-15.94
-16.60
-16.82
-16.97
-17.13
-17.24
-17.15
-16.97
-17.03
-17.75
-19.40
-21.92
-24.92
-27.92
-30.49
-32.37
-33.47
-33.67
-32.65
-30.02
-25.65
-19.83
-13.44
-7.60
-3.18
-0.47
0.88
1.47
1.75
1.72
1.06
-0.48
-2.66
-4.71
-5.72
-5.25
-3.58
-1.62
-0.20
0.47
0.95
2.04
4.16
6.85
9.17
10.26
9.74
7.93
5.43
2.76
0.20
-2.07
-3.94
-5.27
-6.16
-6.94
-8.03
-9.57
-11.11
-11.93
-11.33
-9.35
-6.80
-4.91
-4.56
-5.82
-8.00
-10.03
-11.17
-11.31
-10.92
-10.83
-11.66
-13.65
-16.42
-19.36
-22.00
-24.15
-26.04
-27.87
-29.51
-30.30
-29.36
-26.01
-20.26
-12.87
-5.04
2.12
8.05
12.80
16.64
19.75
22.01
23.18
23.22
22.59
22.05
22.24
23.06
23.78
23.39
21.32
17.94
14.35
11.78
10.65
10.46
10.11
8.72
6.38
3.92
2.30
1.88
2.22
2.43
2.02
1.20
0.83
1.58
3.56
6.10
8.28
9.42
9.53
9.15
8.92
9.22
9.90
10.36
10.05
8.74
6.70
4.53
2.72
1.32
-0.18
-2.37
-5.41
-8.61
-10.76
-10.88
-8.90
-5.94
-3.86
-4.29
-7.72
-13.35
-19.45
-24.38
-27.26
-28.37
-28.68
-29.10
-29.74
-29.75
-27.80
-22.90
-15.10
-5.55
4.06
12.50
19.50
25.62
31.37
36.50
39.89
40.32
37.46
32.37
27.08
23.47
22.19
22.58
23.31
23.35
22.50
21.23
20.09
19.28
18.52
17.45
15.99
14.41
13.10
12.29
11.99
11.97
11.99
11.96
11.99
12.28
12.76
13.19
13.24
12.67
11.49
10.07
8.96
8.58
8.86
9.11
8.23
5.38
0.65
-4.87
-9.46
-11.98
-12.43
-12.14
-12.97
-16.14
-21.59
-28.05
-33.89
-37.98
-40.15
-40.79
-40.15
-37.96
-33.57
-26.69
-17.96
-9.01
-1.83
2.18
2.79
0.98
-1.79
-4.22
-5.65
-6.02
-5.60
-4.75
-3.73
-2.84
-2.28
-2.23
-2.60
-3.21
-3.72
-3.87
-3.73
-3.62
-3.96
-4.97
-6.58
-8.43
-10.12
-11.24
-11.48
-10.60
-8.59
-5.71
-2.51
0.21
1.92
2.49
2.27
1.91
1.76
1.83
1.62
0.76
-0.62
-1.84
-2.06
-0.99
0.74
1.79
0.74
-3.06
-9.03
-15.59
-20.90
-23.77
-24.07
-22.68
-20.74
-18.91
-16.96
-13.98
-9.17
-2.41
5.55
13.42
19.99
24.52
26.99
27.81
27.44
26.23
24.26
21.75
18.87
15.88
12.96
10.17
7.50
5.07
3.17
2.13
2.17
3.15
4.68
6.36
7.93
9.29
10.32
10.74
10.21
8.58
6.16
3.77
2.43
2.82
4.98
8.26
11.70
14.47
16.12
16.48
15.49
13.11
9.37
4.81
0.41
-2.74
-3.92
-3.34
-2.12
-1.79
-3.68
-8.25
-14.92
-22.33
-28.79
-32.86
-33.72
-31.43
-26.74
-20.77
-14.70
-9.15
-4.14
0.88
6.62
13.35
20.50
26.78
30.83
31.97
30.60
27.92
25.29
23.46
22.32
21.35
20.19
18.91
17.81
16.98
16.10
14.58
12.10
8.98
6.09
4.22
3.66
4.02
4.63
5.02
5.21
5.51
6.07
6.67
6.93
6.67
6.03
5.37
4.93
4.47
3.43
1.50
-1.03
-3.33
-4.39
-3.84
-2.46
-1.90
-3.96
-9.53
-18.08
-27.82
-36.50
-42.31
-44.48
-43.20
-39.20
-33.20
-25.73
-17.20
-8.12
0.75
8.52
14.40
17.94
19.17
18.34
15.88
12.20
7.69
2.89
-1.44
-4.56
-5.77
-4.90
-2.53
0.08
1.46
0.50
-3.05
-8.23
-13.41
-16.86
-17.74
-16.50
-14.60
-13.70
-14.74
-17.29
-19.87
-20.86
-19.83
-17.84
-16.80
-18.10
-21.45
-24.75
-25.28
-21.47
-14.02
-5.61
0.60
2.82
1.49
-1.37
-3.59
-4.28
-4.07
-4.46
-6.40
-9.54
-12.41
-13.22
-10.85
-5.16
2.97
12.07
20.53
26.84
30.05
29.85
26.78
22.14
17.40
13.75
11.58
10.56
9.92
8.98
7.48
5.61
3.78
2.21
0.71
-1.10
-3.49
-6.27
-8.74
-9.99
-9.35
-6.88
-3.41
-0.26
1.35
0.91
-1.24
-4.04
-6.44
-7.82
-8.33
-8.60
-9.39
-11.07
-13.51
-16.17
-18.32
-19.44
-19.41
-18.37
-16.59
-14.13
-10.86
-6.92
-2.90
0.03
0.52
-2.12
-7.46
-13.97
-19.40
-21.71
-19.84
-14.06
-5.75
3.27
11.51
18.20
23.06
26.03
27.06
26.24
24.03
21.32
19.10
18.12
18.54
19.92
21.63
23.21
24.62
26.04
27.37
28.04
27.21
24.38
19.85
14.76
10.41
7.55
6.17
5.70
5.62
5.81
6.52
7.94
9.79
11.35
11.80
10.81
8.90
7.08
6.42
7.42
9.72
12.32
13.93
13.53
10.64
5.58
-0.68
-6.85
-11.83
-15.09
-16.87
-17.80
-18.44
-18.83
-18.44
-16.50
-12.60
-7.01
-0.74
5.03
9.44
12.21
13.52
13.61
12.53
10.27
7.14
4.00
2.06
2.23
4.50
7.78
10.41
11.08
9.43
6.38
3.30
1.26
0.33
-0.38
-1.95
-4.92
-8.82
-12.62
-15.44
-17.29
-19.09
-22.01
-26.57
-31.93
-36.19
-37.34
-34.61
-29.03
-23.13
-19.59
-19.74
-22.97
-27.33
-30.87
-32.86
-33.95
-35.33
-37.49
-39.68
-40.23
-37.73
-31.93
-24.02
-15.81
-8.61
-2.52
3.31
9.76
16.86
23.58
28.49
30.82
31.04
30.62
31.03
32.75
34.95
36.01
34.48
30.05
23.68
17.00
11.47
7.72
5.36
3.48
1.15
-2.07
-5.98
-9.78
-12.40
-12.81
-10.44
-5.28
1.95
9.92
17.04
21.78
22.96
20.01
13.10
3.28
-7.86
-18.53
-27.39
-33.87
-38.09
-40.53
-41.52
-40.95
-38.58
-34.38
-28.85
-22.90
-17.53
-13.20
-9.70
-6.34
-2.28
2.97
9.44
16.76
24.12
30.34
34.18
34.80
32.31
28.10
24.48
23.66
26.78
33.30
41.38
48.76
53.67
55.40
54.15
50.58
45.38
39.05
31.91
24.20
16.38
8.87
2.36
-2.34
-4.50
-3.93
-1.14
2.66
6.02
7.70
7.26
5.15
2.33
-0.35
-2.47
-4.07
-5.57
-7.48
-10.01
-12.86
-15.27
-16.40
-15.85
-13.93
-11.57
-10.04
-10.13
-11.82
-14.32
-16.82
-18.95
-20.91
-22.92
-24.86
-25.95
-25.11
-21.62
-15.81
-8.91
-2.43
2.78
6.85
10.63
15.00
20.10
25.14
28.74
29.94
28.64
25.72
22.40
19.57
17.39
15.38
12.90
9.73
6.35
3.61
2.12
1.89
2.29
2.43
1.72
0.20
-1.55
-2.78
-3.09
-2.67
-2.04
-1.85
-2.37
-3.48
-4.90
-6.42
-8.21
-10.47
-13.06
-15.25
-15.94
-14.20
-10.13
-5.04
-1.10
-0.22
-3.16
-9.20
-16.45
-22.88
-27.21
-29.16
-29.20
-27.84
-25.27
-21.34
-15.92
-9.27
-2.13
4.62
10.23
14.36
16.97
18.19
18.18
17.02
14.75
11.42
7.29
2.93
-0.86
-3.30
-3.92
-2.85
-0.77
1.30
2.48
2.49
1.76
1.01
0.93
1.59
2.44
2.69
1.83
-0.13
-2.73
-5.38
-7.63
-9.34
-10.53
-11.34
-11.92
-12.49
-13.34
-14.62
-16.26
-17.92
-19.28
-20.23
-20.99
-21.92
-23.28
-25.06
-26.88
-28.17
-28.59
-28.11
-26.94
-25.31
-23.16
-20.11
-15.69
-10.00
-3.97
1.16
4.43
5.65
5.58
5.82
8.04
12.82
19.28
25.57
29.88
31.34
30.40
28.51
27.06
26.27
25.21
22.57
17.73
11.30
5.00
0.80
-0.32
0.92
2.43
2.40
0.66
-1.27
-1.34
1.53
6.56
11.32
13.30
11.63
7.84
4.62
3.83
5.28
6.90
6.20
1.91
-4.93
-11.59
-15.51
-15.86
-13.79
-11.43
-10.54
-11.47
-13.12
-13.93
-13.26
-12.18
-12.63
-16.12
-22.56
-30.05
-35.58
-36.55
-32.17
-23.78
-13.91
-4.74
2.90
9.51
16.08
22.86
28.86
32.38
32.16
28.49
23.26
18.81
16.79
17.20
18.52
18.87
17.39
14.82
13.06
13.69
16.96
21.50
25.25
26.73
25.84
23.69
21.66
20.40
19.65
18.75
17.47
16.20
15.48
15.37
15.14
13.70
10.43
5.50
-0.00
-4.64
-7.44
-8.06
-6.77
-4.28
-1.53
0.29
0.01
-3.13
-9.07
-16.95
-25.25
-32.44
-37.37
-39.37
-38.20
-34.07
-27.76
-20.58
-14.12
-9.48
-6.88
-5.65
-4.70
-3.27
-1.40
0.27
1.04
0.70
-0.21
-0.92
-0.83
0.19
1.77
3.23
3.99
3.71
2.42
0.55
-1.22
-2.20
-1.99
-0.99
-0.21
-0.96
-4.12
-9.52
-15.95
-21.65
-25.07
-25.61
-23.75
-20.57
-17.01
-13.39
-9.51
-5.34
-1.57
0.55
-0.17
-3.94
-9.58
-15.09
-18.61
-19.22
-17.11
-13.09
-7.91
-2.04
4.31
10.94
17.55
23.83
29.74
35.48
41.14
46.43
50.52
52.67
52.68
51.09
48.68
45.67
41.57
35.54
27.34
17.97
9.59
4.50
3.88
7.16
12.34
17.02
19.58
19.75
18.24
16.06
13.65
10.68
6.37
0.11
-7.86
-16.31
-23.21
-26.62
-25.64
-20.95
-14.71
-9.47
-7.03
-7.84
-11.02
-15.11
-19.01
-22.21
-24.67
-26.11
-25.81
-22.91
-17.07
-8.86
0.37
9.00
15.73
20.09
22.24
22.60
21.46
18.91
14.98
9.87
4.04
-1.76
-6.58
-9.44
-9.75
-7.60
-3.87
-0.10
2.10
1.70
-1.15
-5.39
-9.60
-12.75
-14.65
-15.77
-16.96
-18.69
-20.87
-22.95
-24.43
-25.27
-25.68
-25.77
-25.36
-23.98
-21.26
-17.40
-13.18
-9.75
-7.96
-8.01
-9.31
-10.89
-11.97
-12.13
-11.40
-10.04
-8.22
-5.69
-2.02
3.13
9.60
16.48
22.49
26.42
27.73
26.78
24.55
22.14
20.24
18.85
17.54
15.80
13.36
10.35
7.22
4.51
2.60
1.54
1.08
0.78
0.21
-0.77
-1.87
-2.40
-1.91
-0.55
0.82
0.97
-1.03
-5.20
-10.51
-15.42
-18.64
-19.95
-20.20
-20.84
-23.02
-26.72
-30.72
-33.23
-32.92
-29.72
-25.04
-21.01
-19.51
-21.28
-25.55
-30.52
-34.24
-35.45
-33.73
-29.35
-22.89
-14.92
-6.04
3.00
11.19
17.61
21.66
23.56
24.28
25.11
27.11
30.49
34.46
37.59
38.55
36.85
33.07
28.63
25.02
22.98
22.20
21.58
19.99
17.11
13.64
10.74
9.18
8.69
8.21
6.58
3.57
0.02
-2.58
-3.23
-2.07
-0.46
-0.11
-1.81
-4.97
-7.91
-9.01
-7.71
-4.80
-1.76
0.06
0.21
-1.04
-3.11
-5.64
-8.57
-11.80
-15.10
-17.98
-20.20
-22.04
-24.35
-27.94
-32.89
-38.11
-41.86
-42.67
-40.22
-35.61
-30.68
-27.00
-25.16
-24.63
-24.35
-23.47
-21.61
-18.64
-14.37
-8.37
-0.33
9.35
19.46
28.13
33.84
36.14
36.00
35.12
35.13
36.85
40.15
44.38
48.84
53.05
56.49
58.38
57.61
53.35
45.69
36.03
26.79
20.40
18.07
19.33
22.20
24.51
24.95
23.38
20.57
17.47
14.60
12.01
9.64
7.59
6.13
5.51
5.58
5.77
5.44
4.11
1.66
-1.80
-5.84
-9.85
-12.95
-14.23
-13.10
-10.03
-6.43
-3.92
-3.51
-5.16
-7.92
-10.43
-11.70
-11.58
-10.82
-10.74
-12.62
-17.13
-23.70
-30.20
-33.65
-31.76
-24.10
-12.82
-1.59
6.35
9.97
10.98
12.35
16.25
22.48
28.66
32.18
31.95
29.13
26.08
24.69
24.90
24.95
22.83
17.97
11.60
5.96
2.85
2.49
3.55
3.98
2.37
-1.18
-5.33
-8.57
-10.22
-10.82
-11.44
-12.80
-14.61
-15.79
-15.18
-12.52
-8.78
-5.74
-4.99
-6.91
-10.38
-13.26
-13.75
-11.47
-7.62
-4.33
-3.31
-5.10
-9.11
-14.25
-19.89
-25.94
-32.44
-38.89
-43.90
-45.81
-43.69
-38.13
-31.00
-24.31
-18.96
-14.33
-8.79
-1.30
7.54
15.61
20.41
20.68
17.16
12.28
8.69
7.82
9.19
10.92
11.04
8.60
4.14
-0.83
-4.70
-6.65
-6.88
-6.18
-5.45
-5.17
-5.26
-5.61
-6.51
-8.43
-11.39
-14.16
-14.55
-10.72
-2.95
5.80
11.42
11.25
5.97
-0.70
-4.80
-4.96
-3.64
-5.17
-12.20
-23.06
-32.34
-34.58
-28.16
-16.87
-7.39
-4.86
-9.54
-16.93
-21.00
-18.07
-9.02
1.73
9.31
11.56
9.99
8.60
10.91
17.38
24.92
28.80
25.89
16.79
5.99
-0.78
0.02
7.35
16.14
20.56
17.66
9.22
0.04
-5.44
-6.21
-4.96
-5.48
-9.49
-15.05
-18.11
-15.64
-8.06
0.97
7.04
8.04
5.26
2.19
1.73
4.15
7.29
8.45
6.60
3.00
0.19
0.12
2.76
6.18
8.00
6.97
3.69
0.13
-1.84
-1.65
-0.27
0.50
-0.89
-4.71
-10.00
-15.18
-19.18
-21.82
-23.52
-24.53
-24.74
-23.71
-21.11
-17.13
-12.46
-7.91
-3.73
0.34
4.76
9.53
14.11
17.56
19.19
18.96
17.65
16.36
15.98
16.95
19.18
22.29
25.44
27.41
27.08
24.33
20.14
16.35
14.42
14.51
15.27
14.83
12.27
8.56
6.03
6.55
9.98
14.12
15.95
13.82
8.84
4.24
3.41
7.54
14.76
21.27
23.58
20.29
12.84
4.47
-1.52
-3.31
-1.07
3.61
8.63
12.26
13.47
11.96
7.82
1.48
-6.25
-14.27
-21.23
-25.95
-27.63
-26.05
-21.52
-14.90
-7.36
-0.13
5.79
9.95
12.56
14.22
15.46
16.44
16.74
15.84
13.59
10.47
7.44
5.29
4.21
3.62
2.58
0.40
-2.77
-5.90
-7.55
-6.58
-2.92
2.16
6.64
8.69
7.75
4.75
1.45
-0.77
-2.08
-4.17
-8.96
-16.93
-26.28
-33.82
-37.07
-35.91
-32.67
-30.32
-30.13
-30.76
-29.41
-24.45
-17.12
-11.17
-10.23
-15.04
-22.49
-27.59
-27.00
-21.36
-14.87
-12.08
-14.57
-19.85
-23.07
-20.59
-12.55
-2.68
4.36
6.05
3.58
0.66
0.93
5.70
13.35
20.81
25.73
27.85
28.63
29.75
31.69
33.38
33.10
29.77
23.99
17.78
13.56
12.77
15.31
19.40
22.49
22.63
19.71
15.71
13.43
14.78
19.33
24.33
25.84
20.92
9.24
-6.79
-23.43
-37.67
-48.52
-56.70
-63.28
-68.39
-70.98
-70.04
-66.04
-61.12
-57.75
-56.89
-57.13
-55.40
-48.85
-36.60
-20.18
-2.65
13.27
26.25
36.08
42.38
43.91
38.89
26.49
8.31
-11.54
-27.84
-36.53
-36.22
-27.96
-14.11
2.92
21.23
38.88
53.41
61.77
61.41
51.78
34.83
14.33
-5.76
-22.91
-36.62
-47.56
-56.21
-62.09
-63.99
-61.12
-53.80
-43.57
-32.24
-21.07
-10.47
-0.46
8.53
15.30
18.33
16.99
12.33
7.04
4.31
6.67
14.91
28.17
44.90
63.78
84.13
105.45
126.70
145.89
160.30
167.52
166.69
159.13
147.73
135.77
125.48
117.28
109.92
101.10
88.32
69.19
41.88
5.66
-38.30
-86.42
-132.93
-171.43
-196.81
-206.86
-202.40
-186.48
-162.73
-134.24
-103.45
-72.77
-45.13
-23.85
-11.78
-10.06
-17.32
-29.87
-42.81
-51.68
-53.66
-47.86
-34.97
-16.31
6.78
32.76
59.27
82.63
98.26
102.04
92.04
69.51
38.59
4.82
-26.76
-52.72
-71.47
-82.70
-86.48
-83.07
-72.81
-56.25
-34.30
-8.16
20.69
50.45
79.27
105.48
128.00
146.21
159.70
167.62
168.34
159.84
140.70
111.34
74.89
36.90
3.93
-18.54
-27.92
-25.24
-14.60
-1.73
7.87
10.43
4.35
-9.80
-30.05
-53.67
-77.67
-99.06
-115.20
-124.16
-125.15
-118.66
-106.27
-90.10
-72.24
-54.38
-37.61
-22.54
-9.46
1.37
9.47
14.11
14.53
10.39
2.19
-8.58
-19.84
-29.61
-36.71
-40.98
-42.98
-43.24
-41.77
-37.95
-31.14
-21.45
-9.86
2.12
13.13
22.56
30.38
36.78
41.66
44.68
45.53
44.31
41.52
37.60
32.62
26.14
17.67
7.41
-3.40
-12.69
-18.64
-20.56
-19.39
-17.10
-15.79
-16.79
-20.59
-27.16
-36.43
-48.38
-62.41
-76.92
-89.01
-95.10
-92.00
-78.18
-54.72
-25.04
5.80
32.59
51.37
60.53
61.12
56.24
49.95
45.75
45.57
49.26
55.12
60.96
65.08
66.77
66.00
62.76
56.68
47.09
33.47
16.14
-3.61
-23.81
-42.36
-57.58
-68.14
-73.17
-72.07
-64.65
-51.56
-34.38
-15.64
2.14
17.04
28.18
35.49
39.22
39.65
37.13
32.14
25.38
17.47
8.49
-1.96
-14.59
-29.76
-46.86
-64.01
-78.47
-87.33
-88.38
-81.11
-66.89
-48.77
-30.39
-14.71
-2.98
5.54
12.74
20.24
28.24
35.34
39.35
38.72
33.55
25.46
16.64
8.78
2.46
-2.46
-6.09
-7.91
-6.88
-2.18
5.92
15.85
25.15
31.50
33.75
32.29
28.77
25.04
22.27
20.42
18.67
16.08
12.39
8.15
4.27
1.51
-0.10
-1.06
-1.99
-3.12
-4.20
-4.64
-4.12
-2.92
-1.91
-2.11
-4.17
-7.98
-12.77
-17.49
-21.28
-23.82
-25.30
-26.26
-27.26
-28.48
-29.46
-29.37
-27.31
-22.79
-15.90
-7.30
1.94
10.57
17.35
21.52
22.78
21.63
19.05
16.30
14.42
13.88
14.41
15.28
15.89
16.20
17.00
19.32
23.76
29.86
36.28
41.45
44.48
45.61
46.00
47.05
49.50
52.92
55.86
56.56
53.76
47.28
38.25
28.64
20.36
14.42
10.43
7.10
3.22
-1.20
-4.64
-4.95
-1.03
5.87
12.26
14.11
9.34
-0.95
-12.68
-21.18
-23.66
-20.63
-15.28
-11.24
-10.43
-12.19
-14.17
-13.98
-10.80
-5.80
-1.35
0.72
0.14
-1.66
-2.65
-1.51
1.55
4.98
6.97
6.73
4.96
3.24
2.92
4.14
5.79
6.20
4.30
0.35
-4.10
-7.19
-7.97
-6.98
-6.05
-7.33
-12.03
-19.47
-27.34
-32.89
-34.62
-33.09
-30.59
-29.59
-31.17
-34.42
-37.06
-37.38
-35.53
-33.47
-33.54
-36.38
-40.23
-41.83
-38.58
-30.45
-20.10
-11.27
-6.32
-5.04
-5.11
-3.73
0.69
7.80
15.87
23.11
28.58
32.26
34.39
35.07
34.20
31.92
28.88
26.02
23.88
22.22
20.19
17.04
12.93
8.85
5.99
4.86
5.00
5.27
4.79
3.46
1.82
0.51
-0.43
-1.49
-3.17
-5.38
-7.27
-7.94
-7.01
-5.17
-3.87
-4.40
-7.22
-11.75
-16.85
-21.45
-25.00
-27.40
-28.79
-29.26
-28.92
-28.07
-27.17
-26.80
-27.30
-28.56
-30.05
-30.84
-29.90
-26.37
-19.82
-10.23
1.69
14.60
26.64
35.91
41.13
41.86
38.85
33.66
28.38
24.92
24.33
26.32
29.35
31.14
29.80
24.98
18.10
11.65
7.80
7.56
10.45
14.95
19.40
22.69
24.46
24.60
23.03
19.65
14.76
9.19
4.10
0.58
-0.98
-1.13
-1.02
-1.75
-3.56
-5.70
-6.76
-5.53
-1.86
2.94
6.57
6.68
2.43
-5.01
-12.92
-18.44
-19.87
-17.33
-12.43
-7.16
-2.71
0.85
4.23
8.02
12.32
16.66
20.36
23.06
24.87
26.28
27.75
29.36
30.76
31.26
30.28
27.61
23.54
18.74
14.00
10.07
7.51
6.67
7.65
10.06
13.03
15.32
15.79
13.91
10.26
6.26
3.59
3.07
4.02
4.43
2.04
-4.38
-14.18
-25.01
-33.84
-38.35
-37.95
-33.78
-28.09
-23.15
-20.47
-20.58
-23.14
-27.23
-31.82
-35.83
-38.42
-39.19
-38.18
-35.88
-32.80
-29.43
-25.97
-22.47
-18.87
-15.17
-11.28
-7.20
-3.02
1.00
4.40
6.84
8.24
9.03
9.72
10.47
10.86
9.99
7.35
3.19
-1.24
-4.32
-4.92
-3.01
0.36
3.87
6.48
7.97
8.53
8.31
7.21
4.96
1.78
-1.58
-3.87
-4.21
-2.44
0.48
3.03
3.74
1.91
-2.07
-7.03
-11.47
-14.27
-15.00
-14.01
-12.17
-10.48
-9.82
-10.53
-12.46
-14.98
-17.33
-18.78
-18.92
-17.73
-15.56
-13.07
-10.83
-9.18
-7.92
-6.57
-4.63
-1.97
1.02
3.84
6.06
7.87
9.78
12.27
15.16
17.59
18.33
16.56
12.44
7.16
2.47
-0.07
0.17
2.71
6.21
9.20
10.71
10.57
9.29
7.59
5.90
4.35
2.84
1.40
0.36
-0.07
-0.02
-0.18
-1.51
-4.66
-9.27
-14.10
-17.52
-18.37
-16.42
-12.38
-7.52
-3.31
-1.14
-1.94
-5.94
-12.28
-19.14
-24.31
-26.04
-23.82
-18.57
-12.00
-5.70
-0.46
3.91
8.16
12.94
18.42
24.17
29.34
33.18
35.27
35.73
35.20
34.37
33.65
32.98
31.95
30.25
28.00
25.84
24.58
24.76
26.29
28.56
30.83
32.54
33.49
33.71
33.32
32.46
31.20
29.48
26.95
23.18
17.84
11.18
3.96
-2.64
-7.59
-10.43
-11.26
-10.47
-8.34
-4.95
-0.36
5.03
10.22
13.78
14.34
11.20
4.62
-4.19
-13.59
-21.95
-28.06
-31.32
-31.75
-29.80
-26.09
-21.13
-15.13
-8.25
-0.69
6.91
13.42
17.62
18.72
17.04
13.93
11.47
11.40
14.26
19.17
24.36
28.15
29.93
30.38
30.98
33.09
37.33
43.16
49.14
53.25
53.41
48.30
37.69
22.95
6.92
-7.30
-17.62
-24.35
-30.00
-38.03
-50.77
-67.92
-86.52
-102.44
-112.38
-115.25
-112.37
-106.63
-101.04
-97.76
-97.47
-99.60
-102.59
-104.25
-102.33
-95.12
-82.19
-65.07
-46.88
-31.42
-21.34
-16.80
-15.51
-13.61
-7.91
2.68
16.67
30.78
41.86
48.23
50.26
49.69
48.35
47.06
45.64
43.46
40.26
36.47
33.02
30.55
29.05
27.83
26.11
23.37
19.74
15.78
12.18
9.57
8.27
8.36
9.71
11.78
13.80
14.89
14.43
12.45
9.59
6.69
4.25
2.19
-0.07
-2.97
-6.41
-9.74
-12.11
-13.05
-12.62
-11.20
-9.25
-7.12
-5.15
-3.91
-4.10
-6.20
-10.02
-14.71
-18.88
-21.35
-21.53
-19.39
-15.19
-9.15
-1.30
7.99
17.79
26.55
32.57
34.67
32.89
28.35
22.65
17.26
13.01
10.18
8.77
8.70
9.82
11.68
13.60
14.86
14.97
13.98
12.36
10.69
9.32
8.26
7.30
6.26
5.12
3.99
2.89
1.66
0.16
-1.57
-3.12
-3.91
-3.54
-2.07
0.01
2.00
3.44
4.38
5.18
6.15
7.12
7.60
6.94
4.89
1.83
-1.48
-4.29
-6.18
-7.15
-7.40
-7.15
-6.53
-5.65
-4.56
-3.23
-1.26
1.95
6.90
13.50
20.71
26.98
30.77
31.32
28.96
24.80
20.16
16.06
12.95
10.98
10.28
11.01
13.21
16.43
19.96
22.91
24.57
24.71
23.51
21.42
19.02
16.90
15.48
14.91
14.76
14.07
11.72
6.92
-0.20
-8.42
-15.71
-20.29
-21.43
-19.70
-16.61
-13.89
-12.98
-14.97
-20.74
-30.84
-45.00
-61.50
-76.96
-87.08
-88.26
-79.26
-61.96
-40.74
-20.62
-5.20
4.45
9.54
12.21
14.23
16.30
18.34
20.09
21.67
23.62
26.15
28.70
29.84
28.05
22.80
15.07
7.19
1.48
-1.03
-1.22
-1.15
-2.56
-5.75
-9.22
-10.94
-9.76
-6.58
-4.25
-5.69
-12.14
-22.28
-32.83
-40.33
-42.99
-41.44
-38.05
-35.40
-34.58
-34.98
-34.83
-32.55
-27.77
-21.73
-16.62
-14.44
-16.14
-21.16
-27.76
-33.84
-37.62
-38.26
-35.91
-31.37
-25.43
-18.50
-10.41
-0.94
9.89
21.46
32.43
41.34
47.17
49.77
49.75
48.12
45.71
42.97
40.05
36.99
34.08
31.54
29.31
26.84
23.45
18.63
12.59
6.30
0.97
-2.36
-3.26
-2.11
0.25
2.77
4.50
4.81
3.47
0.78
-2.55
-5.48
-7.12
-6.99
-5.34
-3.01
-1.21
-0.92
-2.56
-5.87
-10.08
-14.21
-17.50
-19.73
-21.19
-22.50
-24.08
-25.88
-27.26
-27.39
-25.94
-23.25
-20.33
-18.15
-16.97
-16.09
-14.25
-10.30
-3.81
4.64
13.73
22.01
28.37
32.41
34.19
34.09
32.58
30.27
27.76
25.51
23.68
21.96
19.93
17.44
14.84
12.84
12.04
12.34
12.85
12.48
10.59
7.75
5.48
5.50
8.52
13.60
18.51
20.91
19.69
15.40
9.92
5.32
2.85
2.48
3.13
3.57
3.03
1.63
0.16
-0.31
0.87
3.61
7.20
10.40
12.07
11.60
9.06
5.01
0.13
-5.13
-10.63
-16.13
-21.02
-24.09
-24.15
-20.61
-14.05
-6.09
1.27
6.59
9.60
11.20
12.92
15.98
20.63
26.01
30.44
32.35
30.86
26.40
20.52
15.31
12.46
12.57
14.95
18.03
20.08
20.13
18.19
15.20
12.05
9.14
6.09
2.11
-3.44
-10.38
-17.85
-24.84
-30.94
-36.55
-42.42
-48.80
-54.84
-58.81
-59.16
-55.41
-48.68
-41.23
-35.13
-31.27
-29.16
-27.69
-26.22
-25.09
-25.22
-27.14
-30.05
-32.00
-30.82
-25.44
-16.71
-6.77
1.85
7.59
10.52
12.03
13.87
17.12
21.62
26.21
29.40
30.25
28.69
25.69
22.61
20.83
20.99
22.85
25.41
27.32
27.40
25.01
20.33
14.24
7.94
2.72
-0.43
-1.25
-0.33
1.00
1.23
-0.53
-4.19
-8.67
-12.44
-14.41
-14.56
-13.73
-13.01
-13.04
-13.66
-14.26
-14.35
-13.96
-13.80
-14.61
-16.65
-19.54
-22.49
-24.78
-26.08
-26.52
-26.49
-26.44
-26.55
-26.64
-26.30
-24.93
-21.92
-16.84
-9.69
-1.12
7.71
15.53
21.28
24.50
25.45
24.86
23.50
21.96
20.50
19.17
18.02
17.09
16.44
16.04
15.67
15.01
13.79
12.05
10.07
8.39
7.58
8.03
9.78
12.40
14.99
16.50
16.02
13.28
8.77
3.57
-1.27
-5.08
-7.85
-9.82
-11.12
-11.61
-11.04
-9.50
-7.72
-6.78
-7.38
-9.28
-11.27
-11.95
-10.63
-7.74
-4.64
-2.72
-2.74
-4.52
-7.41
-10.91
-14.76
-18.70
-22.18
-24.34
-24.34
-21.70
-16.76
-10.28
-2.97
4.92
13.29
21.68
28.85
33.22
33.79
30.87
26.24
22.31
20.63
21.19
22.58
23.19
22.35
20.88
20.30
21.72
24.87
28.12
29.43
27.62
23.03
17.18
11.94
8.61
7.62
8.49
10.29
12.20
13.75
14.83
15.52
15.89
15.81
15.02
13.21
10.48
7.55
5.55
5.63
8.18
12.33
15.97
16.69
12.98
5.22
-4.27
-12.28
-16.21
-15.52
-11.73
-7.39
-4.42
-2.97
-1.40
2.35
9.16
18.06
26.69
32.79
35.35
35.03
33.33
31.52
29.95
28.20
26.00
23.59
21.91
21.84
23.38
25.78
27.71
28.21
26.93
24.40
21.45
18.75
16.53
14.51
12.13
8.44
2.40
-6.86
-19.83
-36.19
-54.94
-74.48
-92.99
-108.88
-120.99
-128.77
-132.16
-131.61
-127.98
-122.48
-116.37
-110.77
-106.23
-102.99
-100.63
-98.05
-93.78
-86.25
-74.71
-59.62
-42.95
-27.19
-14.05
-3.46
6.44
17.95
32.28
48.47
63.63
74.41
78.70
76.87
71.46
65.79
62.11
60.56
59.50
56.71
51.06
43.17
35.17
29.20
25.93
24.07
21.29
15.85
8.14
0.73
-3.14
-1.63
3.98
9.76
11.34
6.49
-3.55
-14.69
-22.42
-24.06
-19.96
-12.89
-6.15
-1.87
-0.28
-0.34
-0.82
-1.18
-1.81
-3.43
-6.46
-10.57
-14.87
-18.17
-19.51
-18.55
-15.81
-12.45
-9.76
-8.44
-8.04
-7.11
-3.97
2.26
10.95
20.06
27.18
30.66
30.39
27.66
24.17
21.20
19.09
17.50
16.19
15.46
16.08
18.61
22.81
27.50
30.95
31.83
29.93
26.16
22.08
19.00
17.39
16.95
17.00
16.98
16.71
16.36
16.19
16.58
17.87
20.20
23.14
25.59
26.07
23.64
18.58
12.68
8.56
8.63
13.69
22.57
32.66
41.00
45.42
44.96
39.69
30.42
18.44
5.69
-5.31
-12.19
-13.60
-9.81
-2.66
5.31
12.14
17.28
21.63
26.84
34.05
42.98
51.86
58.12
59.69
55.88
47.39
35.54
21.47
5.54
-12.31
-31.60
-50.72
-67.00
-77.67
-81.26
-78.39
-71.55
-63.91
-57.79
-53.89
-51.56
-49.64
-47.37
-44.80
-42.44
-40.55
-38.95
-37.09
-34.40
-30.68
-26.14
-21.29
-16.67
-12.64
-9.48
-7.46
-6.79
-7.34
-8.66
-9.96
-10.49
-10.08
-9.16
-8.50
-8.67
-9.61
-10.73
-11.38
-11.34
-10.96
-10.79
-11.09
-11.60
-11.71
-10.87
-8.95
-6.36
-3.63
-1.11
1.23
3.60
6.03
8.16
9.47
9.52
8.39
6.66
5.03
3.94
3.25
2.41
0.73
-2.13
-5.96
-10.11
-13.88
-16.87
-19.29
-21.60
-24.33
-27.47
-30.50
-32.46
-32.51
-30.24
-25.85
-20.18
-14.18
-8.50
-3.31
1.70
6.71
11.35
14.60
15.12
12.14
5.97
-1.93
-9.42
-14.55
-16.30
-14.94
-11.83
-8.77
-7.39
-8.57
-12.15
-17.13
-22.11
-26.08
-28.81
-31.09
-34.28
-39.72
-47.98
-58.69
-70.34
-80.23
-84.76
-79.98
-62.53
-31.14
12.28
62.38
111.22
150.10
171.65
171.62
149.42
107.97
52.82
-8.59
-67.76
-115.75
-144.16
-146.61
-120.54
-68.87
-0.59
70.58
129.07
161.50
160.25
125.64
65.75
-5.72
-73.10
-122.62
-145.46
-139.24
-107.84
-59.67
-4.96
46.80
88.92
118.29
135.05
141.33
139.49
130.66
113.95
87.03
48.17
-1.45
-56.22
-106.67
-142.37
-155.41
-142.71
-106.16
-50.89
16.69
89.58
160.00
219.19
258.25
270.71
255.12
215.71
160.62
98.68
36.55
-21.87
-74.34
-118.81
-152.93
-174.54
-182.69
-177.76
-160.94
-134.06
-100.07
-63.96
-32.74
-13.90
-12.60
-29.34
-58.98
-92.35
-119.22
-131.30
-124.28
-98.29
-57.32
-8.23
40.82
82.40
111.54
126.81
130.09
125.17
116.17
106.43
98.40
93.81
93.54
97.13
102.25
105.24
102.10
89.69
66.94
35.11
-2.49
-40.90
-74.24
-96.93
-105.09
-98.28
-79.98
-56.65
-35.58
-22.35
-19.14
-24.36
-33.71
-41.53
-42.34
-32.12
-9.38
23.78
61.43
94.92
115.29
116.40
97.04
61.24
16.40
-29.53
-70.59
-103.57
-127.39
-142.08
-147.85
-145.23
-135.80
-122.56
-109.78
-101.91
-101.93
-110.26
-124.18
-138.24
-145.65
-140.29
-118.72
-81.82
-34.83
14.00
56.14
85.61
100.82
104.36
101.08
95.79
91.49
89.21
89.05
91.33
96.99
106.97
121.04
137.24
152.36
163.17
167.51
164.51
154.26
137.65
116.19
92.26
69.09
50.02
36.85
29.24
24.71
20.13
13.51
4.80
-4.33
-11.82
-16.65
-19.26
-21.00
-23.16
-26.41
-30.81
-36.09
-42.17
-48.93
-56.18
-63.54
-70.43
-76.12
-79.74
-80.38
-77.23
-70.07
-59.69
-48.16
-38.13
-32.02
-31.06
-34.89
-41.58
-48.72
-54.26
-57.39
-58.63
-59.31
-60.73
-63.35
-66.57
-69.01
-69.51
-67.69
-64.31
-60.96
-59.28
-60.27
-64.05
-70.11
-77.49
-84.98
-91.00
-93.64
-90.92
-81.53
-65.70
-45.42
-23.85
-3.78
13.49
28.65
43.46
59.28
75.86
91.26
102.90
108.88
108.97
104.45
97.40
89.81
83.04
77.84
74.37
72.43
71.57
71.13
70.56
69.68
68.85
68.67
69.58
71.79
75.29
80.22
86.76
94.78
103.31
110.54
114.19
112.67
105.84
95.16
83.25
72.86
66.24
64.45
67.09
71.91
75.02
71.61
57.73
32.07
-2.89
-41.30
-76.11
-101.72
-116.03
-120.57
-118.97
-114.88
-110.36
-105.82
-100.89
-95.59
-90.61
-86.43
-82.30
-75.89
-64.20
-45.21
-19.68
8.46
33.21
48.90
52.42
44.45
28.82
10.52
-6.31
-19.69
-29.76
-37.88
-45.40
-53.03
-60.84
-68.50
-75.52
-81.18
-84.38
-83.56
-77.24
-64.76
-46.86
-25.93
-5.15
12.45
24.79
31.08
31.52
26.73
17.40
4.28
-11.62
-28.70
-44.84
-57.54
-64.74
-65.27
-59.28
-48.10
-33.78
-18.28
-2.93
11.29
23.41
32.08
35.93
34.47
28.84
21.75
16.26
14.11
14.59
15.00
12.53
6.36
-1.63
-7.72
-8.58
-3.18
6.62
17.37
26.10
31.58
34.50
36.34
38.07
39.44
39.26
36.31
30.15
21.67
12.68
5.22
0.82
-0.04
2.06
5.80
9.68
12.47
13.26
11.33
6.10
-2.79
-15.22
-30.13
-45.64
-59.20
-68.19
-70.66
-65.72
-53.65
-35.87
-14.72
7.09
26.88
42.71
53.72
60.26
63.43
64.46
64.37
63.54
62.03
59.57
55.83
50.57
43.73
35.67
27.07
18.81
11.55
5.43
0.13
-4.65
-8.72
-11.35
-11.68
-9.65
-6.45
-4.04
-4.05
-6.88
-11.26
-15.08
-16.55
-15.15
-11.72
-7.71
-4.30
-2.00
-0.84
-1.06
-3.11
-7.49
-14.00
-21.49
-28.15
-32.50
-34.27
-34.57
-35.30
-37.95
-42.62
-48.07
-52.49
-54.63
-54.49
-53.22
-52.03
-51.33
-50.29
-47.38
-41.41
-32.51
-22.17
-12.54
-5.23
-0.50
2.60
5.31
8.27
11.25
13.55
14.66
14.94
15.44
17.55
22.20
29.50
38.69
48.43
57.38
64.47
69.06
70.98
70.33
67.47
62.94
57.39
51.40
45.58
40.51
36.71
34.44
33.52
33.26
32.68
31.01
28.02
24.26
20.52
17.37
14.63
11.57
7.65
3.02
-1.24
-3.86
-4.16
-2.94
-2.04
-3.20
-7.05
-12.53
-17.66
-20.75
-21.43
-20.78
-20.41
-21.18
-22.57
-23.03
-21.25
-17.19
-12.38
-9.11
-9.09
-12.37
-17.31
-21.45
-23.08
-21.92
-19.11
-16.27
-14.52
-13.94
-13.90
-13.78
-13.36
-12.88
-12.55
-12.40
-12.25
-11.79
-10.91
-9.45
-7.22
-4.12
-0.30
3.60
6.57
7.71
6.85
4.79
2.84
2.08
2.58
3.45
3.41
1.63
-1.96
-6.71
-11.95
-17.37
-22.84
-28.18
-32.89
-36.24
-37.59
-37.05
-35.28
-33.34
-32.02
-31.38
-30.76
-29.29
-26.48
-22.50
-18.12
-14.12
-10.75
-7.64
-4.07
0.43
5.76
11.19
15.86
19.27
21.46
22.61
22.71
21.33
18.02
12.98
7.35
2.88
0.93
1.70
4.12
6.49
7.63
7.39
6.70
6.74
8.14
10.65
13.31
15.02
15.11
13.57
10.85
7.69
4.87
3.02
2.50
3.19
4.51
5.52
5.37
3.61
0.39
-3.60
-7.40
-10.00
-10.67
-9.04
-5.21
0.37
6.68
12.37
16.00
16.39
13.16
6.83
-1.28
-9.34
-15.73
-19.50
-20.62
-19.84
-18.14
-16.17
-13.95
-11.00
-6.86
-1.56
4.32
9.97
14.92
19.27
23.41
27.54
31.26
33.63
33.64
30.86
25.79
19.60
13.72
9.20
6.59
6.09
7.60
10.73
14.91
19.44
23.64
27.22
30.29
33.05
35.49
37.28
38.04
37.65
36.51
35.14
33.82
32.24
29.71
25.57
19.68
12.83
6.29
1.35
-1.25
-1.54
-0.10
2.27
4.83
6.90
7.77
6.74
3.27
-2.60
-9.97
-17.24
-22.46
-24.33
-22.88
-19.55
-16.49
-15.27
-16.10
-17.74
-18.47
-17.36
-14.83
-12.42
-11.66
-13.07
-16.00
-19.10
-21.18
-21.68
-20.73
-18.60
-15.62
-12.01
-8.40
-5.69
-4.67
-5.35
-6.78
-7.57
-6.62
-3.92
-0.37
2.48
3.55
2.35
-0.88
-5.57
-11.13
-16.81
-21.81
-25.25
-26.70
-26.30
-24.79
-23.09
-21.63
-20.15
-18.02
-14.92
-11.18
-7.95
-6.44
-7.30
-10.44
-14.92
-19.66
-23.60
-26.21
-27.33
-27.10
-25.82
-23.86
-21.57
-19.02
-16.13
-12.40
-7.36
-0.78
6.99
14.99
21.97
26.75
28.78
28.08
25.17
20.50
14.43
7.37
0.25
-5.45
-7.94
-6.05
-0.12
7.92
15.38
20.00
21.05
19.43
16.98
15.24
14.83
15.26
15.74
15.68
15.04
14.07
12.86
11.21
8.73
5.26
0.95
-3.54
-7.37
-9.83
-10.70
-10.45
-10.11
-10.87
-13.49
-17.95
-23.41
-28.62
-32.36
-33.96
-33.42
-31.24
-28.18
-25.00
-22.37
-20.74
-20.29
-20.78
-21.46
-21.51
-20.27
-17.78
-14.67
-11.72
-9.17
-6.42
-2.33
4.05
12.71
22.48
31.46
37.78
40.36
39.33
35.79
31.33
27.49
25.29
24.98
26.11
27.91
29.60
30.84
31.81
33.01
34.81
37.21
39.81
41.96
43.20
43.39
42.66
41.30
39.59
37.73
35.87
34.05
32.10
29.79
26.85
23.12
18.66
13.71
8.50
3.15
-2.18
-7.23
-11.43
-14.14
-14.72
-12.98
-9.19
-4.04
1.39
5.83
7.95
6.68
1.56
-6.84
-16.81
-26.01
-32.42
-35.23
-35.23
-34.20
-33.79
-34.52
-35.44
-34.71
-30.91
-23.89
-15.01
-6.38
0.26
4.33
6.32
7.12
7.28
6.69
5.01
2.23
-0.79
-2.75
-2.76
-1.03
0.92
1.25
-1.11
-5.51
-9.91
-12.13
-11.30
-8.33
-5.15
-3.34
-3.22
-3.79
-3.85
-3.14
-2.64
-3.64
-6.67
-10.80
-14.25
-15.66
-15.05
-13.75
-13.34
-14.57
-16.84
-18.88
-19.81
-19.74
-19.56
-20.03
-21.11
-22.00
-21.88
-20.60
-18.92
-18.00
-18.64
-20.72
-23.30
-25.11
-25.09
-22.71
-18.10
-11.80
-4.47
3.26
10.92
18.21
24.76
30.10
33.72
35.27
34.75
32.58
29.55
26.56
24.26
22.89
22.27
22.02
21.76
21.16
19.96
17.93
15.06
11.48
7.57
3.79
0.49
-2.14
-4.05
-5.22
-5.70
-5.55
-5.02
-4.44
-4.04
-3.88
-3.89
-3.80
-3.41
-2.74
-2.02
-1.70
-2.29
-4.05
-7.01
-10.87
-15.20
-19.58
-23.65
-27.17
-29.93
-31.81
-32.73
-32.93
-32.84
-33.09
-34.28
-36.72
-40.27
-44.30
-47.77
-49.65
-49.21
-46.11
-40.51
-32.77
-23.26
-12.32
-0.46
11.58
22.81
32.10
38.65
42.26
43.26
42.29
39.82
35.99
30.82
24.73
18.69
14.07
11.91
12.33
14.35
16.52
17.68
17.56
16.83
16.47
17.12
18.63
20.21
20.99
20.51
18.78
16.06
12.30
7.22
0.54
-7.23
-14.33
-17.95
-15.33
-5.38
10.38
28.04
43.12
52.88
57.40
58.84
59.59
60.33
59.86
56.28
48.94
39.31
30.25
24.17
21.22
19.34
15.70
8.80
-0.35
-8.99
-14.46
-15.75
-13.85
-10.63
-7.43
-4.25
-0.18
5.66
13.12
20.83
26.90
29.81
29.25
26.16
22.14
18.64
16.33
14.85
13.09
9.70
4.06
-3.17
-10.11
-14.55
-15.30
-13.05
-10.28
-9.71
-12.60
-17.89
-22.99
-25.62
-25.37
-23.79
-22.85
-23.26
-23.92
-22.90
-19.27
-14.14
-10.12
-9.57
-12.90
-18.25
-22.76
-24.29
-22.65
-19.45
-16.71
-15.69
-16.43
-18.30
-20.86
-24.22
-28.85
-34.86
-41.56
-47.40
-50.65
-50.16
-45.97
-39.33
-31.90
-25.00
-19.03
-13.63
-8.02
-1.67
5.46
12.92
20.10
26.59
32.32
37.35
41.62
44.69
45.59
43.41
37.95
30.11
21.88
15.48
12.27
12.12
13.41
14.04
12.53
8.93
4.47
0.80
-1.16
-1.62
-1.56
-1.90
-2.86
-3.74
-3.56
-1.81
1.16
4.37
6.78
7.95
8.11
7.95
7.95
7.92
7.13
4.87
1.12
-3.42
-7.72
-11.23
-14.31
-17.96
-23.13
-30.02
-37.97
-45.66
-51.80
-55.53
-56.56
-55.14
-51.89
-47.90
-44.38
-42.28
-41.58
-41.18
-39.35
-34.88
-27.94
-20.16
-13.64
-9.47
-6.98
-3.94
1.80
10.89
21.87
31.91
38.59
41.07
40.45
38.71
37.42
36.90
36.34
34.81
31.97
28.59
25.99
25.21
26.41
28.74
30.88
31.77
31.08
29.28
27.28
25.80
25.08
24.74
24.15
22.74
20.26
16.84
12.84
8.79
5.30
3.00
2.38
3.45
5.67
8.10
9.86
10.53
10.53
10.71
11.72
13.61
15.68
17.15
17.68
17.56
17.33
17.13
16.32
13.73
8.11
-0.90
-12.44
-24.66
-35.38
-42.86
-46.38
-46.33
-43.78
-39.90
-35.40
-30.34
-24.31
-16.97
-8.55
-0.18
6.48
10.08
10.29
8.25
6.22
6.64
10.93
18.86
28.64
37.88
44.66
48.27
49.05
47.59
43.95
37.50
27.49
14.01
-1.43
-16.34
-28.09
-35.05
-37.15
-35.49
-31.62
-26.75
-21.48
-16.04
-10.66
-5.84
-2.17
-0.28
-0.49
-2.84
-7.05
-12.47
-17.97
-22.19
-23.98
-22.94
-19.74
-15.93
-13.19
-12.57
-14.03
-16.60
-19.13
-20.97
-22.22
-23.29
-24.38
-25.05
-24.30
-21.24
-15.66
-8.31
-0.44
6.78
12.90
18.12
22.80
26.97
30.07
31.36
30.60
28.34
25.76
23.91
23.19
23.17
23.01
22.12
20.42
18.29
16.07
13.74
11.17
8.28
5.53
3.68
3.30
4.36
6.14
7.68
8.28
7.80
6.52
4.73
2.43
-0.82
-5.31
-11.02
-17.31
-23.18
-27.60
-29.86
-29.75
-27.50
-23.73
-19.17
-14.68
-10.97
-8.36
-6.61
-5.20
-3.68
-2.09
-1.05
-1.41
-3.86
-8.47
-14.85
-22.25
-29.94
-37.20
-43.14
-46.70
-46.64
-42.04
-32.82
-19.80
-4.52
11.25
25.88
37.83
45.49
47.35
42.62
31.92
17.60
3.14
-8.00
-13.63
-13.50
-9.06
-2.38
4.67
11.23
17.26
23.01
28.54
33.51
37.45
39.99
41.11
40.84
38.94
34.76
27.42
16.64
3.51
-9.58
-19.62
-24.30
-23.18
-17.71
-10.55
-4.09
0.41
3.02
4.34
4.91
4.82
4.06
3.15
3.25
5.56
10.66
17.75
24.83
29.44
29.52
24.26
14.26
1.39
-11.84
-22.94
-30.11
-32.55
-30.32
-24.21
-15.26
-4.67
6.22
16.06
23.65
28.29
30.07
29.75
28.29
26.42
24.29
21.46
17.40
11.79
4.88
-2.68
-10.06
-16.58
-21.79
-25.51
-27.77
-28.69
-28.56
-27.63
-26.18
-24.33
-22.23
-19.97
-17.68
-15.60
-14.11
-13.73
-14.93
-17.95
-22.44
-27.54
-32.31
-36.30
-39.99
-44.47
-50.70
-58.54
-66.47
-72.04
-73.06
-68.94
-60.96
-51.67
-43.66
-38.29
-35.23
-32.99
-30.01
-25.68
-20.60
-16.07
-13.11
-11.82
-11.38
-10.47
-8.02
-3.69
2.10
8.73
15.81
23.14
30.31
36.46
40.17
40.23
36.45
30.11
23.52
18.95
17.36
18.09
19.41
19.62
18.10
15.69
13.90
13.98
15.98
18.83
20.98
21.41
20.06
17.91
16.43
16.67
18.65
21.15
22.41
21.05
16.94
11.31
6.01
2.33
-0.07
-2.72
-7.31
-14.22
-22.23
-29.11
-33.24
-34.70
-34.97
-35.72
-37.33
-38.51
-37.09
-31.78
-23.31
-14.38
-8.16
-6.40
-8.51
-11.78
-13.17
-10.84
-5.08
2.17
8.54
12.65
14.74
16.36
19.16
23.48
27.96
30.34
28.91
23.91
17.79
13.96
14.79
20.12
27.24
32.31
32.26
26.68
18.22
11.18
9.03
12.37
18.83
24.28
25.11
20.12
10.89
0.59
-7.95
-13.57
-16.82
-19.07
-21.37
-23.51
-24.43
-23.18
-19.88
-15.83
-12.61
-10.95
-10.31
-9.41
-7.02
-2.75
2.70
7.72
10.78
11.22
9.42
6.66
4.74
5.42
9.52
16.48
24.57
31.68
36.19
37.96
38.54
40.39
45.45
53.75
63.40
71.51
75.76
75.51
71.89
67.09
63.05
60.65
59.56
58.69
56.80
52.98
46.92
39.00
30.35
22.38
16.41
13.27
12.91
14.43
16.40
17.29
15.91
11.75
5.00
-3.36
-11.78
-18.59
-22.52
-23.19
-21.14
-17.62
-13.92
-10.82
-8.33
-6.09
-4.06
-2.79
-3.10
-5.51
-9.66
-14.36
-18.22
-20.30
-20.54
-19.49
-17.64
-15.20
-12.13
-8.56
-4.93
-1.98
-0.45
-0.85
-3.37
-7.92
-14.34
-22.19
-30.50
-37.82
-42.68
-44.28
-42.87
-39.51
-35.41
-31.37
-27.37
-22.91
-17.53
-11.06
-3.70
4.04
11.51
17.91
22.37
24.00
22.11
16.22
6.41
-6.65
-21.67
-37.00
-51.21
-63.25
-72.74
-79.61
-83.75
-84.57
-81.40
-74.15
-63.87
-52.79
-43.36
-37.21
-34.34
-33.50
-33.07
-32.17
-30.99
-30.26
-30.52
-31.48
-32.21
-31.78
-29.82
-26.60
-22.56
-17.98
-12.69
-6.48
0.56
7.81
14.21
18.84
21.10
21.21
19.89
18.33
17.67
18.84
22.28
27.91
35.18
43.10
50.53
56.29
59.69
60.28
58.10
53.54
47.18
39.87
32.48
25.98
21.08
18.13
16.87
16.57
16.30
15.30
13.25
10.43
7.53
5.14
3.58
2.54
1.28
-0.88
-4.21
-8.29
-12.21
-14.90
-15.75
-14.85
-13.01
-11.35
-10.80
-11.59
-13.08
-14.09
-13.56
-11.16
-7.65
-4.55
-3.53
-5.52
-10.40
-17.07
-23.98
-29.68
-33.13
-33.76
-31.39
-26.02
-17.98
-8.00
2.71
12.72
20.64
25.70
27.98
28.39
28.23
28.47
29.28
29.97
29.70
28.07
25.66
23.81
23.91
26.59
31.40
37.07
42.24
46.10
48.54
49.82
49.99
48.54
44.64
37.87
28.90
19.35
11.04
5.04
1.13
-1.94
-5.48
-9.80
-13.91
-16.15
-15.58
-12.71
-9.47
-7.97
-9.10
-11.89
-14.14
-14.07
-11.60
-8.40
-6.78
-8.19
-12.28
-17.22
-21.05
-22.87
-23.46
-24.57
-27.59
-32.53
-37.90
-41.66
-42.14
-38.96
-32.89
-25.42
-17.75
-10.46
-3.58
2.86
8.49
12.55
14.05
12.55
8.49
3.28
-1.25
-3.50
-2.96
-0.49
2.09
2.84
0.83
-3.49
-8.55
-12.66
-15.00
-15.90
-16.33
-16.88
-17.26
-16.40
-13.42
-8.54
-3.12
0.96
2.56
1.98
0.74
0.51
2.02
4.49
6.28
6.00
3.36
-0.63
-4.54
-7.44
-9.43
-11.33
-13.79
-16.81
-19.67
-21.49
-21.95
-21.73
-21.96
-23.63
-26.72
-30.15
-32.39
-32.21
-29.39
-24.78
-19.83
-15.92
-13.72
-12.84
-12.04
-9.75
-4.91
2.42
10.99
18.69
23.64
25.21
24.35
23.09
23.22
25.13
27.66
29.12
28.65
26.98
25.82
26.38
28.26
29.44
27.76
22.49
15.06
8.12
3.66
1.79
0.95
-0.62
-3.20
-5.28
-4.83
-1.03
5.00
10.79
14.15
14.37
12.37
9.54
6.60
3.42
-0.33
-4.23
-6.90
-6.82
-3.60
1.46
5.70
6.77
4.07
-0.94
-5.58
-7.58
-6.37
-3.06
0.61
3.44
5.34
6.99
8.75
9.93
8.94
4.43
-3.81
-14.33
-24.68
-32.43
-36.27
-36.38
-33.79
-29.70
-24.73
-18.98
-12.26
-4.59
3.60
11.61
18.62
24.09
27.92
30.50
32.52
34.64
37.22
39.99
42.22
43.22
42.94
42.25
42.29
43.93
47.03
50.42
52.46
51.88
48.51
43.33
37.66
32.48
27.76
22.71
16.48
8.86
0.67
-6.71
-12.05
-15.01
-16.30
-17.08
-18.32
-20.24
-22.36
-23.83
-24.21
-23.65
-22.58
-21.31
-19.76
-17.71
-15.39
-13.76
-14.08
-17.14
-22.44
-28.31
-32.80
-34.67
-34.00
-31.87
-29.63
-28.09
-27.32
-26.82
-26.14
-25.10
-23.72
-21.92
-19.24
-15.14
-9.34
-2.33
4.67
10.18
13.01
12.87
10.55
7.55
5.60
5.66
7.51
9.90
11.37
11.14
9.51
7.76
7.31
8.87
11.65
13.74
13.01
8.49
1.27
-5.83
-9.78
-9.29
-5.68
-2.26
-1.92
-5.21
-9.77
-11.89
-9.28
-2.90
3.39
5.41
1.71
-5.45
-11.74
-13.94
-12.28
-10.19
-11.81
-19.08
-30.35
-41.66
-49.34
-52.18
-51.62
-50.13
-49.21
-48.44
-46.09
-40.77
-32.70
-23.63
-15.60
-9.74
-5.58
-1.81
2.88
8.82
15.15
20.51
23.68
24.36
23.09
20.94
18.87
17.47
16.72
16.41
16.31
16.47
17.19
18.72
21.14
23.89
26.02
26.45
24.63
20.82
16.15
11.82
8.57
6.35
4.49
2.32
-0.19
-2.43
-3.42
-2.65
-0.48
2.03
3.65
3.83
3.00
2.14
2.06
2.69
3.00
1.77
-1.62
-6.41
-10.82
-12.76
-11.04
-6.06
0.41
5.94
8.59
7.59
3.30
-3.14
-10.49
-17.70
-23.88
-28.20
-29.79
-28.06
-22.98
-15.39
-6.77
1.33
7.80
12.48
15.92
18.99
22.45
26.55
31.03
35.32
38.86
41.26
42.24
41.52
38.97
34.91
30.40
26.97
26.04
28.00
31.80
35.34
36.43
34.03
28.77
22.57
17.50
14.51
13.00
11.36
8.19
3.26
-2.39
-6.98
-9.23
-9.22
-8.48
-9.07
-12.46
-18.39
-24.78
-28.75
-28.27
-23.63
-17.55
-13.59
-13.77
-17.34
-21.33
-22.80
-21.05
-18.19
-17.68
-21.69
-29.14
-36.00
-37.80
-32.53
-21.94
-10.42
-2.23
0.91
0.49
-0.23
1.24
5.14
9.67
12.48
12.03
8.41
3.01
-2.37
-6.18
-7.68
-6.82
-4.03
-0.21
3.38
5.60
6.13
5.70
5.67
7.00
9.28
10.85
9.81
5.55
-0.27
-4.53
-4.69
-0.81
4.14
5.97
1.99
-7.03
-17.11
-23.62
-24.28
-20.70
-17.18
-17.71
-23.18
-30.89
-36.56
-37.36
-33.78
-29.04
-26.69
-28.14
-31.94
-35.14
-35.45
-32.71
-28.38
-24.22
-20.88
-17.74
-13.86
-8.92
-3.40
2.23
8.04
14.46
21.45
27.82
31.58
31.33
27.38
21.92
17.73
16.49
17.72
19.52
20.22
19.89
20.32
23.40
29.36
36.03
40.05
39.07
33.22
25.08
17.88
13.58
12.01
11.43
10.13
7.55
4.38
1.77
0.24
-0.53
-1.28
-2.22
-2.88
-2.49
-0.95
0.79
1.19
-0.94
-5.59
-11.39
-16.36
-18.98
-18.79
-16.65
-13.92
-12.01
-11.83
-13.78
-17.88
-23.87
-31.06
-37.80
-41.91
-41.38
-35.53
-25.75
-14.97
-6.16
-0.60
2.87
6.88
13.48
22.47
31.17
35.98
34.71
28.04
19.18
11.96
8.61
8.79
10.43
11.52
11.65
12.26
15.09
20.65
27.40
32.65
34.41
32.92
30.43
29.68
31.97
36.11
39.26
39.15
35.68
30.99
27.91
27.81
29.59
30.61
28.54
23.26
16.83
12.16
11.08
13.33
16.96
19.65
19.68
16.34
9.79
0.79
-9.29
-18.66
-25.67
-29.47
-30.59
-30.36
-29.75
-28.27
-24.20
-16.12
-4.56
7.45
15.89
18.42
16.05
12.67
12.41
16.88
24.11
29.96
30.95
26.57
19.39
13.25
10.96
12.70
16.38
19.14
19.16
16.47
12.69
9.66
8.39
8.36
8.00
5.97
2.30
-1.47
-3.34
-2.69
-1.26
-2.48
-9.47
-22.90
-40.28
-57.53
-71.30
-80.60
-86.72
-91.13
-93.50
-91.93
-84.85
-73.27
-61.36
-54.35
-55.39
-63.35
-73.33
-79.47
-78.32
-70.44
-59.28
-48.67
-40.10
-32.37
-22.98
-10.35
4.85
20.00
32.14
39.70
43.12
44.37
45.55
47.65
50.15
51.39
49.88
45.65
40.36
36.16
34.48
35.01
35.93
35.17
31.87
26.96
22.42
19.79
19.05
18.63
16.52
11.59
4.44
-3.29
-9.96
-15.02
-19.00
-22.70
-26.37
-29.31
-30.35
-28.54
-23.90
-17.84
-12.54
-9.97
-10.92
-14.66
-19.20
-22.42
-22.94
-21.16
-18.81
-17.88
-19.43
-23.01
-27.11
-30.07
-31.41
-32.04
-33.54
-36.67
-40.44
-42.42
-40.05
-32.37
-20.74
-8.41
1.30
6.81
8.97
10.21
12.81
17.38
22.60
26.22
26.70
24.28
20.73
18.18
17.79
19.18
21.15
22.56
23.21
23.76
25.06
27.41
30.43
33.60
36.69
39.90
43.29
46.30
47.59
45.77
40.48
32.98
25.57
20.20
17.43
16.24
14.83
11.77
7.24
2.81
0.25
0.36
2.35
4.45
4.80
2.58
-1.61
-5.93
-8.33
-7.57
-3.81
1.34
5.51
6.62
3.87
-1.66
-7.63
-11.78
-13.08
-11.95
-9.56
-6.75
-3.41
1.34
8.01
16.00
23.62
29.17
31.99
32.54
31.81
30.43
28.17
24.51
19.38
13.77
9.14
6.45
5.58
5.78
6.57
8.25
11.50
16.39
21.66
25.28
25.87
23.80
21.24
20.23
21.33
22.85
22.23
18.11
11.57
5.72
3.36
4.84
7.64
8.00
3.41
-5.58
-15.70
-23.29
-27.17
-29.46
-34.10
-43.73
-57.43
-70.99
-79.44
-80.59
-76.69
-73.28
-75.48
-84.37
-95.68
-102.01
-97.16
-79.78
-54.19
-27.87
-7.39
4.82
10.88
15.48
22.24
31.67
41.15
46.74
46.06
40.06
32.59
27.94
28.15
31.70
34.66
33.59
27.77
20.02
14.92
15.62
21.98
30.46
36.63
37.73
34.13
28.15
22.15
16.61
10.17
1.54
-8.92
-18.72
-24.70
-25.20
-21.44
-16.49
-13.65
-14.45
-17.91
-21.79
-24.42
-25.90
-27.82
-32.11
-39.30
-48.16
-56.34
-61.63
-63.48
-63.16
-62.86
-64.20
-67.06
-69.38
-68.20
-61.29
-48.36
-31.51
-14.23
0.22
10.34
16.85
21.89
27.24
33.16
38.21
40.34
38.65
34.02
28.55
24.26
21.88
20.42
18.31
14.79
10.50
7.27
6.70
9.15
13.35
17.34
19.60
19.92
19.13
18.21
17.70
17.41
16.86
15.86
14.72
13.78
12.95
11.75
9.58
6.48
3.30
1.41
1.67
3.76
6.19
7.09
5.36
1.34
-3.47
-7.25
-8.90
-8.45
-6.73
-4.61
-2.83
-2.03
-3.11
-6.94
-13.68
-21.95
-28.87
-31.46
-28.27
-20.47
-11.23
-3.68
0.97
3.93
7.67
13.91
22.30
30.71
36.69
39.13
38.79
37.48
36.73
36.90
37.33
37.31
36.85
36.66
37.71
40.43
44.37
48.47
51.63
53.07
52.65
50.59
47.39
43.43
38.97
34.10
29.03
24.17
20.02
17.04
15.36
14.54
13.70
11.82
8.15
2.54
-4.49
-11.94
-18.62
-23.46
-25.80
-25.55
-23.40
-20.74
-19.23
-20.24
-24.23
-30.32
-36.65
-41.07
-42.06
-39.40
-34.18
-28.27
-23.40
-20.40
-18.96
-17.91
-16.01
-12.49
-7.58
-2.32
2.05
4.54
4.73
3.02
0.19
-2.78
-5.15
-6.62
-7.27
-7.37
-7.19
-6.65
-5.55
-3.80
-1.89
-0.94
-2.16
-6.18
-12.27
-18.45
-22.43
-22.85
-20.11
-16.12
-13.13
-12.22
-12.70
-12.91
-11.62
-9.07
-7.03
-7.79
-12.44
-20.13
-28.37
-34.23
-35.93
-33.46
-28.57
-23.69
-20.73
-20.24
-21.49
-22.95
-23.23
-21.74
-18.87
-15.66
-13.00
-11.13
-9.32
-6.41
-1.55
5.11
12.40
18.72
22.94
24.97
25.68
26.28
27.36
28.74
29.54
29.00
27.07
24.48
22.22
20.85
20.18
19.38
17.63
14.73
11.25
8.26
6.64
6.51
7.34
8.20
8.37
7.61
6.13
4.17
1.83
-1.10
-4.67
-8.49
-11.64
-13.11
-12.33
-9.65
-6.38
-4.14
-4.10
-6.35
-10.02
-13.83
-16.86
-18.94
-20.46
-21.96
-23.66
-25.41
-27.01
-28.46
-30.04
-31.97
-34.00
-35.36
-35.12
-32.77
-28.67
-23.83
-19.32
-15.48
-11.75
-6.91
0.04
9.23
19.67
29.70
37.64
42.63
44.81
44.90
43.80
42.05
39.83
37.27
34.64
32.54
31.43
31.40
31.89
32.14
31.59
30.46
29.55
29.55
30.49
31.54
31.48
29.72
26.75
23.94
22.69
23.54
25.71
27.66
28.10
26.81
24.93
24.15
25.58
29.10
33.34
36.38
36.87
34.72
31.21
27.98
26.06
25.20
23.84
20.08
12.73
2.21
-9.49
-19.76
-26.67
-29.85
-30.35
-29.79
-29.29
-28.85
-27.38
-23.57
-16.94
-8.37
0.06
6.01
8.06
6.75
4.16
2.75
3.59
5.80
7.18
5.83
1.70
-3.07
-5.25
-2.75
3.99
12.08
17.96
19.64
17.66
14.26
11.79
10.87
10.22
7.97
3.39
-2.58
-8.01
-11.51
-13.18
-14.66
-18.20
-25.34
-36.01
-48.56
-60.59
-69.49
-73.34
-71.36
-64.55
-55.50
-47.62
-43.80
-45.14
-50.38
-56.78
-61.99
-65.38
-68.14
-71.71
-75.95
-78.57
-76.29
-66.84
-50.44
-29.78
-8.65
10.02
25.10
36.80
45.60
51.41
53.57
51.51
45.47
36.79
27.49
19.73
14.89
13.29
14.13
16.10
18.25
20.60
24.06
29.33
35.85
41.35
42.96
39.06
30.78
21.61
15.56
14.95
19.28
25.73
30.90
32.57
29.77
22.19
9.80
-6.94
-26.58
-46.18
-61.99
-71.10
-72.94
-69.42
-63.66
-58.07
-53.49
-49.36
-45.08
-40.92
-38.40
-39.19
-44.04
-51.95
-60.13
-65.35
-65.00
-58.26
-46.10
-30.85
-15.20
-1.18
10.30
19.36
26.54
32.37
36.82
39.33
39.25
36.65
32.34
27.60
23.84
21.99
22.09
23.19
24.09
23.88
22.46
20.57
19.31
19.56
21.45
24.46
27.80
30.84
33.26
34.84
35.41
34.72
32.66
29.56
26.30
24.01
23.40
24.33
25.80
26.51
25.50
22.62
18.54
14.38
11.15
9.27
8.67
8.95
9.50
9.88
9.93
9.76
9.41
8.72
7.21
4.46
0.34
-4.63
-9.07
-11.22
-9.64
-4.06
4.41
13.68
21.58
26.82
29.44
30.57
31.44
32.74
34.13
34.70
33.66
30.91
27.19
23.57
20.84
19.14
18.21
17.97
18.57
20.34
23.22
26.56
29.32
30.85
31.28
31.48
32.07
32.57
31.48
27.23
19.83
11.38
5.07
2.82
3.62
3.75
-0.90
-11.80
-26.63
-40.54
-49.39
-52.33
-52.17
-53.16
-58.08
-66.66
-76.33
-84.54
-90.63
-95.88
-101.87
-108.68
-114.39
-116.36
-113.15
-105.36
-95.03
-83.94
-72.47
-59.60
-43.89
-24.91
-3.81
17.12
35.48
49.66
59.10
63.97
64.74
62.07
56.85
50.14
43.02
36.26
30.11
24.56
19.66
15.69
13.17
12.41
13.13
14.67
16.50
18.50
20.88
23.80
26.79
28.57
27.55
22.90
15.04
5.32
-4.63
-13.76
-21.67
-28.45
-34.02
-38.05
-40.50
-41.96
-43.74
-47.09
-52.31
-58.33
-63.35
-65.98
-66.08
-64.79
-63.34
-61.99
-59.66
-54.69
-46.38
-35.89
-25.78
-18.48
-14.84
-13.54
-12.03
-7.95
-0.39
10.03
21.68
32.89
42.40
49.45
53.55
54.38
52.07
47.36
41.33
35.12
29.47
24.62
20.65
17.87
16.76
17.61
20.09
23.13
25.45
26.27
25.77
24.98
25.13
26.68
29.01
30.78
30.62
28.06
23.78
19.22
15.87
14.54
15.07
16.52
17.77
17.91
16.59
13.96
10.49
6.77
3.30
0.59
-0.84
-0.75
0.59
2.13
2.28
-0.55
-7.02
-16.35
-26.29
-33.95
-36.96
-34.50
-27.78
-19.42
-12.35
-8.32
-7.34
-7.84
-7.73
-5.61
-1.38
4.08
9.68
14.89
20.05
25.55
30.91
34.47
34.20
29.41
21.75
14.79
11.92
14.13
19.06
22.59
21.73
16.79
11.40
10.02
14.50
22.52
28.71
28.14
19.57
6.37
-5.76
-12.34
-12.69
-9.74
-7.59
-8.40
-11.16
-12.69
-10.43
-4.52
2.19
5.73
3.60
-3.88
-14.11
-23.93
-31.47
-36.66
-40.34
-42.79
-43.20
-40.23
-33.17
-22.84
-11.43
-1.45
5.49
9.31
10.96
11.68
12.23
12.80
13.08
12.65
11.41
9.64
7.97
7.01
7.10
8.26
9.96
11.40
12.03
11.86
11.49
11.66
12.59
14.05
15.52
16.70
17.53
18.08
18.10
16.85
13.62
8.35
2.14
-3.33
-6.69
-7.60
-6.92
-6.03
-6.03
-6.99
-8.14
-8.64
-8.24
-7.45
-7.12
-7.82
-9.43
-11.25
-12.44
-12.61
-11.89
-10.75
-9.40
-7.51
-4.52
0.06
5.91
11.95
16.71
19.30
19.83
19.41
19.47
20.64
22.51
23.76
23.25
20.78
17.44
15.00
14.75
16.91
20.40
23.73
25.72
26.41
26.71
27.85
30.51
34.46
38.92
42.81
45.26
45.47
42.53
35.23
22.37
3.50
-20.53
-47.08
-72.27
-91.98
-103.51
-106.57
-103.49
-98.08
-93.66
-91.69
-91.44
-91.05
-89.26
-86.58
-85.04
-86.80
-92.44
-99.98
-105.68
-105.58
-97.60
-82.21
-62.11
-40.89
-21.33
-4.83
8.67
19.98
29.98
39.04
46.97
53.39
57.99
60.89
62.53
63.37
63.55
62.89
61.16
58.31
54.72
51.10
48.19
46.38
45.65
45.53
45.40
44.67
43.01
40.45
37.28
34.02
31.20
29.35
28.75
29.34
30.74
32.35
33.52
33.87
33.27
31.91
30.01
27.69
24.86
21.45
17.52
13.57
10.38
8.63
8.79
10.58
13.02
14.67
14.12
10.60
4.45
-2.93
-9.44
-13.09
-12.88
-9.24
-3.76
1.55
5.13
6.62
6.82
7.20
9.11
13.07
18.59
24.43
29.24
32.31
33.90
35.14
37.05
39.96
42.76
43.62
41.14
35.17
27.16
19.19
12.95
8.64
5.34
1.87
-2.07
-5.87
-8.51
-9.77
-10.79
-13.73
-20.27
-30.33
-41.79
-51.47
-56.93
-57.89
-56.49
-56.03
-59.05
-65.95
-74.68
-81.96
-85.10
-83.41
-78.46
-72.93
-69.32
-68.70
-70.54
-73.54
-76.66
-79.68
-82.75
-85.88
-88.19
-88.06
-83.75
-74.58
-61.48
-46.78
-33.22
-22.56
-14.71
-7.91
0.13
10.88
24.03
37.69
49.38
57.22
61.05
62.14
62.48
63.51
65.41
67.19
67.55
65.87
62.39
57.87
52.86
47.35
40.98
33.66
26.01
19.29
14.55
11.85
10.14
7.70
3.20
-3.33
-10.66
-17.01
-20.98
-22.04
-20.62
-17.53
-13.74
-10.12
-7.43
-6.65
-8.57
-13.68
-21.54
-30.94
-40.09
-47.48
-52.34
-54.77
-55.49
-55.10
-53.89
-51.74
-48.55
-44.65
-40.94
-38.28
-36.94
-36.17
-34.33
-29.85
-22.24
-12.54
-2.77
4.86
9.07
9.89
8.51
6.69
6.10
7.74
11.81
17.87
25.05
32.44
39.33
45.17
49.69
52.59
53.60
52.58
49.75
45.96
42.42
40.23
39.85
40.88
42.17
42.55
41.39
38.86
35.54
32.01
28.53
25.05
21.56
18.27
15.68
14.30
14.18
14.90
15.69
15.81
14.91
13.33
11.82
11.13
11.65
13.05
14.53
15.27
15.03
14.22
13.73
14.38
16.31
18.90
21.26
22.76
23.49
24.14
25.34
26.99
28.04
27.00
22.91
15.95
7.65
0.11
-4.71
-5.77
-3.09
2.52
9.82
17.65
24.88
30.72
34.50
35.78
34.52
30.95
25.78
19.90
14.29
9.61
6.19
4.15
3.67
5.01
8.55
14.46
22.05
29.97
36.42
39.77
39.18
34.86
27.79
19.22
10.31
1.91
-5.35
-11.16
-15.75
-19.83
-24.58
-30.96
-39.24
-48.30
-56.24
-61.00
-61.39
-57.94
-52.59
-47.94
-46.10
-47.67
-51.71
-56.33
-59.61
-60.63
-59.60
-57.54
-55.78
-55.15
-55.77
-57.12
-58.46
-59.12
-58.87
-57.87
-56.66
-55.90
-56.18
-57.84
-60.68
-63.79
-65.60
-64.20
-57.81
-45.48
-27.84
-7.24
12.65
28.28
37.51
40.28
38.61
35.56
33.91
35.17
39.35
45.13
50.65
54.30
54.92
52.32
47.15
40.56
33.84
27.95
23.15
19.09
15.13
11.11
7.86
6.74
8.52
12.44
16.11
16.57
12.21
3.93
-5.35
-12.45
-16.29
-18.40
-21.70
-28.40
-38.16
-48.17
-55.13
-57.38
-55.73
-52.56
-49.85
-47.60
-44.42
-38.99
-31.75
-25.12
-22.01
-23.81
-29.36
-35.17
-37.36
-33.40
-23.24
-8.88
6.71
20.88
32.17
40.12
44.85
46.75
46.26
44.02
40.82
37.63
35.37
34.41
34.61
35.52
36.63
37.51
38.01
38.17
38.08
37.87
37.58
37.10
36.30
35.13
33.76
32.58
32.00
32.12
32.45
32.20
30.73
28.06
24.93
22.25
20.56
19.51
18.19
15.77
12.15
8.01
4.37
2.03
1.12
1.20
1.73
2.34
2.94
3.46
3.54
2.49
-0.40
-5.29
-11.49
-17.49
-21.47
-22.11
-19.10
-13.29
-6.20
0.54
5.89
9.41
11.30
12.11
12.73
14.05
16.84
21.06
25.59
28.57
28.39
24.79
19.20
14.32
12.63
15.17
21.13
28.54
35.35
40.38
43.48
44.95
45.21
44.70
43.89
43.31
43.31
43.55
43.01
40.33
34.59
25.66
14.27
1.46
-11.73
-24.54
-36.39
-46.88
-55.73
-63.06
-69.34
-75.42
-82.01
-89.17
-96.28
-102.22
-106.03
-107.41
-107.07
-106.26
-105.94
-105.69
-103.53
-97.08
-85.45
-70.09
-54.60
-42.38
-34.17
-27.09
-16.15
1.99
26.25
50.99
69.16
76.84
75.63
71.39
69.79
72.34
75.35
72.88
61.41
42.65
22.56
7.84
1.94
3.43
7.47
9.21
6.69
1.65
-2.05
-1.06
5.73
16.30
26.48
32.00
30.32
21.89
9.79
-1.74
-9.27
-11.70
-10.17
-6.99
-4.01
-1.86
-0.53
-0.23
-2.30
-8.49
-19.73
-34.86
-50.66
-63.09
-69.63
-70.43
-68.14
-66.46
-68.05
-73.13
-79.56
-84.09
-84.09
-78.62
-68.40
-55.20
-40.81
-26.54
-13.03
-0.53
10.86
21.10
30.21
38.16
44.86
49.94
52.94
53.32
50.98
46.51
40.97
35.61
31.36
28.54
27.04
26.50
26.45
26.46
26.05
24.99
23.19
20.85
18.48
16.70
15.97
16.55
18.33
20.72
22.91
23.93
23.08
20.22
15.91
11.43
8.38
7.84
9.80
13.06
15.81
16.47
14.68
11.26
7.68
5.15
4.14
4.49
5.96
8.66
12.86
18.28
23.43
25.82
23.15
14.68
2.38
-9.74
-17.41
-18.09
-11.96
-1.58
9.77
19.58
26.99
32.62
37.61
42.86
48.53
54.27
59.37
63.17
65.31
65.68
64.54
62.29
59.34
55.90
52.10
47.95
43.47
38.77
34.00
29.32
24.79
20.31
15.71
10.62
4.70
-2.21
-9.93
-17.99
-25.69
-32.61
-38.64
-44.10
-49.40
-54.59
-59.17
-62.30
-63.35
-62.17
-59.30
-55.64
-51.99
-48.72
-45.83
-43.07
-40.30
-37.66
-35.37
-33.69
-32.58
-31.78
-30.92
-29.74
-28.30
-26.80
-25.47
-24.34
-23.24
-21.92
-20.24
-18.27
-16.26
-14.46
-13.03
-11.93
-11.05
-10.31
-9.55
-8.58
-7.21
-5.34
-3.15
-1.06
0.46
1.23
1.48
1.73
2.57
4.18
6.24
8.10
9.18
9.33
8.81
8.12
7.52
6.91
5.90
4.14
1.74
-0.71
-2.41
-2.75
-1.76
-0.10
1.25
1.47
0.28
-1.96
-4.51
-6.56
-7.71
-8.11
-8.26
-8.64
-9.35
-9.93
-9.53
-7.64
-4.41
-0.88
1.68
2.37
1.13
-1.27
-3.78
-5.68
-7.01
-8.00
-8.76
-9.10
-8.84
-8.16
-7.55
-7.50
-8.03
-8.57
-8.28
-6.93
-5.26
-4.57
-5.63
-8.06
-10.41
-11.13
-9.44
-5.91
-2.08
0.49
1.21
0.38
-1.18
-2.81
-4.07
-4.85
-5.22
-5.29
-5.11
-4.69
-4.40
-4.59
-5.33
-6.33
-7.08
-7.25
-6.92
-6.81
-7.74
-10.10
-13.33
-16.22
-17.53
-16.59
-13.54
-9.01
-4.13
0.09
2.90
3.78
2.62
-0.09
-2.84
-3.49
-0.09
7.65
17.52
25.12
25.63
16.42
-1.21
-22.18
-39.85
-49.06
-48.32
-39.97
-28.25
-16.40
-4.63
8.86
25.68
44.95
63.28
77.05
85.25
90.37
96.36
105.45
115.60
121.53
118.05
103.99
83.42
63.44
49.97
44.46
43.76
42.88
38.59
31.05
22.75
15.96
10.76
5.06
-3.44
-15.32
-28.65
-40.02
-46.58
-47.53
-44.25
-39.35
-35.08
-32.35
-30.86
-29.89
-29.13
-28.72
-29.02
-30.07
-31.33
-32.01
-31.59
-30.13
-28.17
-26.34
-24.92
-23.83
-22.82
-21.85
-21.16
-21.07
-21.72
-22.64
-23.05
-22.13
-19.50
-15.40
-10.57
-5.98
-2.51
-0.75
-0.79
-2.15
-3.88
-4.88
-4.34
-2.12
1.12
4.24
6.18
6.48
5.38
3.66
2.11
1.14
0.76
0.76
0.99
1.44
2.15
2.99
3.68
3.93
3.58
2.75
1.76
0.89
0.32
0.03
0.05
0.40
1.05
1.83
2.26
1.72
-0.21
-3.43
-7.24
-10.62
-12.69
-13.17
-12.47
-11.39
-10.80
-11.14
-12.38
-14.25
-16.42
-18.80
-21.34
-23.94
-26.32
-28.10
-29.08
-29.41
-29.64
-30.55
-32.56
-35.60
-38.92
-41.64
-43.16
-43.60
-43.70
-44.44
-46.41
-49.49
-52.77
-54.92
-54.41
-49.97
-40.85
-27.07
-9.55
10.01
29.39
46.40
59.23
66.90
69.50
68.27
65.24
62.43
61.08
61.37
62.62
64.10
65.50
67.04
68.85
70.31
70.29
67.86
63.26
58.23
55.17
55.59
59.01
63.08
64.91
62.49
55.69
45.46
33.17
20.06
7.24
-4.01
-12.65
-18.34
-21.73
-23.84
-24.98
-23.99
-18.68
-7.47
9.10
27.90
44.48
54.82
56.83
50.62
37.79
20.33
0.33
-19.90
-37.77
-50.62
-56.78
-56.27
-50.87
-43.24
-35.79
-29.92
-25.83
-23.12
-21.30
-20.06
-19.31
-18.90
-18.54
-17.91
-16.75
-15.12
-13.40
-12.07
-11.36
-11.10
-10.76
-9.82
-8.08
-5.74
-3.36
-1.52
-0.61
-0.74
-1.83
-3.59
-5.62
-7.46
-8.60
-8.75
-8.03
-6.94
-6.33
-6.85
-8.60
-10.99
-12.92
-13.33
-11.77
-8.70
-5.33
-3.04
-2.71
-4.27
-6.75
-8.81
-9.48
-8.62
-6.88
-5.30
-4.64
-5.10
-6.31
-7.65
-8.55
-8.74
-8.22
-7.19
-5.92
-4.71
-3.82
-3.38
-3.32
-3.33
-2.97
-1.88
0.01
2.37
4.64
6.26
6.91
6.60
5.59
4.27
2.98
1.99
1.47
1.39
1.59
1.72
1.48
0.70
-0.44
-1.46
-1.77
-1.02
0.55
2.23
3.07
2.47
0.56
-1.89
-3.83
-4.62
-4.46
-4.26
-5.10
-7.49
-11.09
-14.85
-17.55
-18.47
-17.74
-16.36
-15.71
-16.91
-20.36
-25.40
-30.71
-34.83
-36.94
-37.11
-36.11
-34.97
-34.42
-34.77
-36.05
-38.50
-42.66
-48.62
-55.37
-60.63
-61.75
-57.13
-47.38
-35.27
-23.92
-14.75
-6.75
2.60
15.09
30.02
44.16
53.59
56.27
53.35
48.49
45.42
45.91
48.98
52.22
53.83
53.86
53.97
56.10
60.91
67.48
73.99
78.99
81.89
82.62
81.09
77.02
70.29
61.39
51.82
43.54
38.23
36.65
38.53
42.68
47.58
51.90
54.77
55.92
55.63
54.58
53.38
52.10
49.95
45.60
37.95
26.87
13.40
-0.79
-14.32
-26.65
-37.90
-48.13
-56.81
-62.89
-65.43
-64.20
-59.96
-54.16
-48.38
-43.68
-40.23
-37.60
-35.21
-32.72
-30.21
-28.16
-27.17
-27.48
-28.81
-30.41
-31.42
-31.21
-29.67
-27.31
-24.88
-22.99
-21.75
-20.72
-19.21
-16.71
-13.26
-9.48
-6.35
-4.79
-5.12
-6.90
-8.99
-10.12
-9.47
-7.18
-4.29
-2.16
-1.65
-2.61
-4.05
-4.78
-4.17
-2.47
-0.60
0.52
0.54
-0.23
-1.12
-1.62
-1.73
-1.84
-2.36
-3.42
-4.79
-6.08
-7.03
-7.64
-8.06
-8.46
-8.84
-9.11
-9.04
-8.47
-7.30
-5.59
-3.56
-1.47
0.45
2.12
3.61
5.04
6.43
7.61
8.31
8.31
7.63
6.57
5.58
4.97
4.70
4.29
2.99
0.34
-3.57
-7.85
-11.34
-13.15
-13.11
-11.88
-10.47
-9.69
-9.77
-10.47
-11.36
-12.27
-13.35
-14.78
-16.57
-18.40
-19.86
-20.81
-21.53
-22.51
-24.17
-26.46
-28.93
-31.05
-32.56
-33.54
-34.47
-35.83
-38.07
-41.46
-46.00
-51.21
-56.05
-58.93
-58.17
-52.74
-42.92
-30.06
-15.90
-1.81
11.85
25.50
39.49
53.38
65.66
74.52
78.74
78.56
75.49
71.57
68.35
66.16
64.30
61.75
58.17
54.25
51.30
50.45
51.78
54.28
56.28
56.52
54.79
51.96
49.44
48.15
48.14
48.70
48.66
47.22
44.38
40.68
36.77
33.15
29.84
26.83
24.35
23.11
23.86
26.83
30.90
33.64
32.10
24.03
9.27
-10.00
-29.98
-46.72
-57.65
-62.34
-62.11
-58.94
-54.59
-49.77
-44.53
-38.74
-32.61
-26.83
-22.39
-20.03
-19.89
-21.50
-23.89
-26.03
-27.13
-26.82
-25.22
-22.79
-20.24
-18.23
-17.12
-16.79
-16.67
-16.02
-14.27
-11.44
-8.17
-5.36
-3.69
-3.27
-3.52
-3.65
-3.08
-1.83
-0.55
-0.04
-0.91
-3.05
-5.79
-8.10
-9.19
-8.91
-7.65
-6.10
-4.71
-3.67
-2.97
-2.73
-3.34
-5.12
-8.00
-11.25
-13.72
-14.38
-13.01
-10.39
-7.94
-6.97
-7.93
-10.22
-12.51
-13.55
-12.64
-10.01
-6.53
-3.32
-1.34
-1.12
-2.75
-5.86
-9.77
-13.52
-16.27
-17.47
-17.15
-16.13
-15.67
-17.22
-21.63
-28.83
-37.41
-44.68
-47.17
-41.72
-27.06
-4.66
21.38
45.61
63.00
70.50
67.74
56.64
40.46
22.37
4.59
-11.95
-27.06
-40.38
-50.79
-56.63
-56.62
-51.01
-42.06
-33.15
-27.46
-26.54
-29.80
-35.38
-41.56
-47.68
-53.83
-59.98
-64.91
-66.51
-62.78
-52.99
-38.16
-20.42
-1.99
15.59
31.46
45.18
56.49
65.20
71.45
75.54
77.73
78.15
76.74
73.73
69.79
65.76
62.30
59.52
57.03
54.37
51.36
48.15
44.92
41.74
38.21
33.99
29.27
24.79
21.46
19.70
18.92
17.79
15.04
10.28
4.43
-0.95
-4.51
-5.87
-5.54
-4.57
-3.68
-2.94
-1.80
0.55
4.60
10.27
17.18
24.93
33.16
41.43
48.82
54.13
56.26
54.87
50.70
45.73
42.14
41.63
44.66
50.53
57.73
64.87
71.10
76.10
79.39
79.91
76.20
67.15
52.99
35.34
16.59
-1.36
-17.72
-32.68
-46.53
-58.76
-68.05
-73.09
-73.59
-70.69
-66.48
-62.96
-60.97
-60.13
-59.42
-57.98
-55.71
-52.92
-49.98
-46.89
-43.52
-39.82
-36.15
-33.19
-31.43
-30.97
-31.41
-32.03
-32.10
-31.17
-29.22
-26.49
-23.29
-19.86
-16.33
-12.89
-9.86
-7.72
-6.78
-6.98
-7.74
-8.22
-7.72
-6.17
-4.14
-2.42
-1.69
-2.07
-3.09
-3.98
-4.07
-3.17
-1.58
0.04
1.03
1.02
0.15
-1.17
-2.39
-3.05
-3.11
-2.72
-2.26
-1.94
-1.82
-1.81
-1.70
-1.44
-1.09
-0.92
-1.08
-1.76
-2.91
-4.32
-5.61
-6.34
-6.37
-5.84
-5.22
-5.00
-5.47
-6.56
-8.01
-9.67
-11.53
-13.75
-16.37
-19.18
-21.71
-23.55
-24.48
-24.65
-24.55
-24.67
-25.34
-26.65
-28.56
-30.91
-33.48
-36.18
-38.90
-41.75
-45.02
-49.03
-53.68
-58.23
-61.09
-60.40
-54.59
-43.12
-26.81
-7.76
11.12
26.95
37.61
42.30
41.75
37.94
33.32
29.98
29.09
30.74
34.24
38.58
42.75
45.99
47.70
47.46
45.06
40.88
35.95
31.41
28.11
26.27
25.30
24.30
22.56
19.87
16.81
14.19
12.63
12.37
12.95
13.60
13.50
12.31
10.34
8.31
6.93
6.55
7.17
8.70
11.37
15.93
23.22
33.11
43.80
51.89
53.75
47.53
34.39
18.62
6.02
1.43
6.46
19.13
34.94
49.19
58.89
63.43
64.16
63.12
62.09
62.29
64.29
68.06
72.47
75.25
73.16
63.30
44.65
19.08
-8.79
-33.25
-49.79
-56.71
-55.26
-48.62
-40.20
-32.56
-27.09
-24.21
-24.08
-26.58
-31.30
-37.18
-42.69
-46.29
-47.10
-45.23
-41.83
-38.38
-36.02
-35.16
-35.44
-36.14
-36.52
-36.04
-34.43
-31.65
-27.87
-23.55
-19.56
-16.87
-16.27
-17.88
-20.99
-24.35
-26.68
-27.28
-26.27
-24.29
-22.03
-19.72
-17.19
-14.03
-10.16
-5.97
-2.11
0.78
2.53
3.46
4.16
5.02
6.04
6.83
6.96
6.36
5.41
4.73
4.69
5.06
5.07
3.98
1.48
-2.07
-5.75
-8.51
-9.74
-9.46
-8.37
-7.52
-7.84
-9.72
-12.86
-16.46
-19.58
-21.65
-22.62
-22.89
-22.98
-23.33
-24.16
-25.66
-28.11
-31.76
-36.56
-42.00
-47.12
-51.11
-53.77
-55.68
-57.88
-61.30
-66.47
-73.22
-80.81
-87.91
-92.54
-92.36
-85.35
-70.94
-50.71
-28.06
-6.93
10.03
22.55
32.42
41.92
52.14
62.28
70.41
74.98
76.14
75.57
75.39
76.71
78.97
80.48
79.39
75.09
68.34
60.79
54.04
48.81
45.10
42.42
40.44
39.16
38.73
39.06
39.71
40.22
40.41
40.34
40.07
39.34
37.29
32.95
25.77
16.49
6.82
-1.21
-6.27
-8.42
-8.86
-9.19
-10.41
-12.39
-14.22
-15.09
-15.45
-16.93
-21.43
-29.70
-40.34
-50.29
-55.99
-55.21
-48.00
-36.33
-22.98
-10.20
0.99
10.75
19.65
28.02
35.64
42.14
47.45
51.87
55.82
59.43
62.26
63.42
61.95
57.32
50.03
41.76
35.01
31.86
33.11
37.75
43.33
47.48
48.98
48.30
47.11
46.98
48.29
50.20
51.41
51.21
49.70
47.38
44.41
40.22
34.20
26.52
18.58
12.41
9.45
9.52
10.85
10.96
7.70
0.11
-11.60
-26.53
-43.46
-60.92
-76.99
-89.51
-96.57
-97.13
-91.61
-81.60
-69.29
-56.81
-45.67
-36.57
-29.62
-24.68
-21.49
-19.84
-19.70
-21.01
-23.37
-25.95
-27.63
-27.59
-25.64
-22.54
-19.45
-17.27
-16.17
-15.67
-15.02
-13.85
-12.26
-10.76
-9.86
-9.77
-10.24
-10.76
-10.88
-10.37
-9.15
-7.33
-5.08
-2.70
-0.68
0.46
0.54
-0.13
-0.89
-1.06
-0.51
0.26
0.36
-0.97
-3.80
-7.42
-10.75
-12.94
-13.85
-14.01
-14.15
-14.68
-15.33
-15.39
-14.19
-11.64
-8.33
-5.28
-3.30
-2.54
-2.51
-2.42
-1.69
-0.40
0.89
1.49
1.12
-0.05
-1.43
-2.43
-2.77
-2.55
-2.18
-2.09
-2.49
-3.33
-4.33
-5.07
-5.16
-4.45
-3.07
-1.47
-0.32
-0.24
-1.54
-4.09
-7.39
-10.78
-13.70
-15.82
-17.07
-17.49
-17.29
-16.76
-16.41
-16.87
-18.68
-22.09
-26.77
-31.99
-36.82
-40.71
-43.64
-46.16
-49.00
-52.61
-57.04
-62.02
-67.23
-72.35
-76.85
-79.69
-79.30
-74.21
-63.78
-48.80
-31.39
-14.18
0.81
13.03
23.32
33.05
42.92
52.42
60.03
64.33
65.07
63.52
61.99
62.60
66.17
71.75
77.35
80.96
81.77
80.48
78.66
77.73
77.92
78.28
77.48
74.77
70.62
66.39
63.61
62.97
63.94
65.31
65.92
65.53
64.65
63.99
63.66
62.90
60.55
56.10
50.42
45.56
43.90
46.66
52.88
59.63
63.18
60.48
50.12
32.51
9.34
-16.87
-43.10
-66.09
-82.85
-91.48
-91.78
-85.19
-74.01
-60.34
-45.49
-30.37
-16.42
-6.00
-1.99
-6.04
-17.27
-32.09
-45.61
-54.00
-56.07
-53.33
-48.53
-44.01
-40.64
-37.91
-35.01
-31.63
-28.35
-26.15
-25.76
-27.21
-29.85
-32.83
-35.06
-35.58
-33.45
-28.10
-19.87
-9.95
-0.34
6.98
10.75
10.94
8.47
4.75
1.00
-2.08
-4.27
-5.59
-6.09
-5.95
-5.43
-5.13
-5.82
-8.10
-12.02
-16.97
-21.84
-25.25
-26.09
-23.78
-18.57
-11.30
-2.94
5.56
13.54
20.40
25.52
28.35
28.43
25.88
21.48
16.43
11.90
8.63
6.91
6.92
9.00
13.38
19.64
26.21
30.52
29.90
23.20
11.79
-0.79
-10.39
-14.19
-12.00
-6.02
0.54
4.97
6.09
4.03
-0.45
-6.57
-13.54
-20.48
-26.51
-31.16
-34.57
-37.39
-40.22
-43.05
-45.24
-46.13
-45.87
-45.69
-47.21
-51.29
-57.35
-63.62
-68.40
-71.00
-71.94
-71.94
-70.95
-68.20
-63.20
-56.86
-51.39
-49.00
-49.96
-51.93
-50.91
-43.63
-29.55
-11.28
7.02
22.13
33.48
42.93
52.75
63.73
74.41
82.10
84.81
82.24
75.94
68.23
61.34
56.83
55.45
56.99
60.45
64.29
66.88
67.50
66.74
66.23
67.39
70.11
72.35
71.18
64.80
54.08
42.47
33.94
30.65
31.51
33.12
32.31
28.09
22.23
17.72
16.58
18.59
21.58
23.17
22.40
20.20
18.48
18.70
21.00
24.59
28.61
32.99
38.24
44.59
51.24
56.15
56.84
51.13
38.26
19.26
-3.25
-25.50
-43.46
-53.94
-55.51
-49.16
-38.04
-26.10
-16.18
-9.02
-3.33
2.60
9.05
14.15
14.86
9.23
-1.78
-14.30
-23.65
-27.02
-25.25
-22.33
-22.95
-29.36
-39.97
-50.40
-56.25
-55.68
-50.09
-43.05
-37.70
-35.01
-33.60
-31.13
-26.23
-19.59
-13.45
-10.14
-10.69
-14.17
-18.24
-20.56
-19.92
-16.89
-13.19
-10.62
-10.08
-11.28
-13.03
-14.11
-14.04
-13.20
-12.45
-12.43
-13.18
-14.34
-15.45
-16.27
-16.92
-17.53
-18.03
-18.14
-17.81
-17.29
-17.00
-17.02
-16.78
-15.40
-12.20
-7.35
-1.80
3.41
7.86
11.83
15.85
19.79
22.81
23.96
22.93
20.52
18.20
17.12
17.11
16.95
15.35
12.10
8.42
6.02
5.68
6.80
7.64
6.61
3.35
-1.02
-4.85
-7.14
-8.08
-8.56
-9.52
-11.25
-13.25
-14.88
-16.05
-17.31
-19.35
-22.26
-25.18
-27.00
-27.18
-26.30
-25.84
-27.34
-31.26
-36.57
-41.50
-44.82
-46.55
-47.74
-49.45
-51.88
-54.15
-55.02
-53.98
-51.90
-50.30
-50.20
-51.43
-53.05
-54.32
-55.12
-55.86
-56.50
-55.69
-50.88
-39.84
-22.19
-0.06
22.77
42.66
57.75
68.25
75.46
80.41
82.91
81.89
76.72
68.30
58.96
51.48
47.87
48.33
51.25
54.12
54.82
52.58
47.91
42.04
36.27
31.53
28.11
25.85
24.44
23.31
21.90
19.80
17.16
14.53
12.51
11.41
11.08
10.97
10.56
9.74
8.95
8.74
9.45
10.80
12.16
12.86
12.59
11.40
9.66
7.67
5.61
3.65
2.15
1.65
2.49
4.32
6.02
5.94
2.69
-3.86
-12.13
-19.38
-22.87
-21.27
-15.20
-6.87
1.20
7.47
11.98
15.90
20.40
25.86
31.72
36.92
40.75
43.14
44.54
45.33
45.37
44.13
41.30
37.27
33.36
31.29
32.40
36.95
43.98
51.74
58.51
63.17
65.47
65.75
64.76
63.21
61.60
60.11
58.74
57.28
55.31
52.14
46.83
38.47
26.55
11.22
-6.53
-25.07
-42.51
-57.23
-68.16
-74.94
-77.80
-77.42
-74.88
-71.58
-69.06
-68.54
-70.36
-73.67
-76.70
-77.56
-75.25
-69.99
-63.01
-55.79
-49.30
-43.78
-38.98
-34.59
-30.60
-27.22
-24.48
-22.06
-19.46
-16.46
-13.44
-11.23
-10.61
-11.67
-13.63
-15.22
-15.41
-13.95
-11.56
-9.30
-7.97
-7.64
-7.70
-7.38
-6.29
-4.61
-2.91
-1.70
-1.04
-0.61
0.01
0.96
1.85
1.86
0.27
-3.10
-7.66
-12.29
-15.84
-17.76
-18.14
-17.71
-17.40
-17.86
-19.36
-21.78
-24.77
-27.94
-31.05
-33.96
-36.72
-39.24
-41.43
-43.28
-44.96
-46.77
-49.35
-53.16
-58.00
-62.63
-64.99
-63.01
-55.75
-44.19
-30.69
-18.06
-8.01
-0.55
5.73
12.60
21.04
30.72
40.22
48.03
53.04
55.04
54.63
52.83
50.73
49.22
48.71
49.02
49.42
48.95
46.96
43.24
37.90
31.57
25.25
20.23
17.80
18.67
22.21
26.36
28.33
25.88
18.81
9.04
-0.18
-6.06
-7.60
-5.90
-3.17
-1.10
-0.23
0.28
1.38
3.34
5.42
6.55
6.23
4.83
3.22
1.71
-0.53
-5.40
-14.37
-27.18
-41.42
-53.35
-59.57
-58.64
-51.66
-41.29
-30.26
-19.97
-10.45
-1.02
8.63
17.81
25.25
29.84
31.40
30.79
29.41
28.45
28.29
28.58
28.47
27.31
24.99
22.08
19.62
18.68
19.83
22.95
27.28
31.69
35.05
36.55
36.00
34.01
31.79
30.76
31.83
34.93
38.83
41.88
42.80
41.48
38.91
36.49
35.11
34.65
34.43
33.66
32.18
30.32
28.28
25.73
21.77
15.81
8.10
-0.09
-7.33
-12.86
-16.93
-20.26
-23.06
-24.50
-23.07
-17.65
-8.47
2.66
13.32
21.40
25.81
26.37
23.36
17.01
7.56
-4.10
-16.01
-25.69
-31.49
-33.81
-34.95
-37.89
-44.12
-52.31
-58.65
-59.10
-52.35
-40.92
-29.95
-24.00
-24.27
-28.10
-30.95
-29.85
-25.37
-20.99
-20.15
-23.31
-27.69
-29.53
-27.00
-21.86
-18.35
-20.26
-27.99
-38.33
-46.62
-49.77
-47.76
-43.05
-38.56
-35.82
-34.37
-32.84
-30.23
-26.84
-23.64
-21.29
-19.67
-17.89
-15.00
-10.33
-3.58
5.22
15.89
27.75
39.38
48.73
53.91
54.25
50.70
45.25
39.91
35.69
32.28
28.62
24.05
18.81
13.89
10.22
7.96
6.66
5.79
5.49
6.55
9.65
14.47
19.39
22.20
21.45
17.28
11.53
6.46
3.49
2.34
1.29
-1.63
-7.44
-15.47
-23.84
-30.41
-33.70
-33.30
-29.89
-25.00
-20.42
-17.60
-17.17
-18.84
-21.78
-25.14
-28.27
-30.91
-32.93
-34.07
-33.85
-31.77
-27.52
-21.16
-13.21
-4.49
4.17
12.17
19.36
25.74
31.29
35.80
38.76
39.80
38.69
35.86
32.13
28.42
25.05
21.77
18.39
15.44
14.17
15.59
19.43
23.70
25.85
24.43
20.29
16.00
13.94
14.64
16.31
16.50
14.15
10.72
9.06
11.31
17.06
23.48
27.22
26.69
22.85
18.14
14.54
12.32
10.14
6.49
1.10
-4.43
-7.55
-6.33
-0.87
6.47
12.13
13.16
8.81
0.80
-7.45
-12.52
-12.46
-7.51
0.39
8.78
15.78
20.81
24.39
27.54
30.82
33.92
35.74
34.81
30.09
21.47
10.06
-2.32
-13.79
-23.15
-30.01
-34.52
-36.77
-36.44
-33.04
-26.61
-18.20
-9.68
-2.89
1.29
3.21
4.04
4.89
6.07
7.05
7.01
5.61
3.28
0.89
-0.82
-1.73
-2.41
-3.47
-4.79
-5.51
-4.72
-2.55
-0.40
-0.46
-4.31
-11.57
-19.85
-25.78
-26.96
-23.37
-17.45
-12.92
-12.85
-18.06
-26.90
-36.20
-42.82
-44.95
-42.44
-36.31
-27.82
-17.99
-7.35
3.80
14.78
24.29
30.84
33.52
32.49
29.13
25.53
23.34
22.94
23.19
22.39
19.36
14.06
7.64
1.54
-3.21
-6.54
-8.76
-9.93
-9.45
-6.50
-0.68
7.27
15.34
21.08
22.79
20.34
14.98
8.61
2.58
-2.50
-6.63
-9.97
-12.36
-13.21
-12.12
-9.34
-6.10
-4.11
-4.71
-8.14
-13.21
-17.80
-19.80
-18.24
-13.97
-9.58
-8.18
-11.89
-20.44
-31.17
-40.21
-44.78
-44.61
-42.09
-40.61
-42.11
-45.73
-48.23
-46.19
-38.26
-26.34
-14.19
-5.01
0.50
4.20
8.76
15.49
23.50
30.51
34.45
34.78
32.64
29.77
27.34
25.47
23.70
21.74
19.89
18.68
18.41
19.01
20.00
21.00
21.84
22.55
23.11
23.19
22.41
20.56
17.79
14.49
11.13
8.03
5.41
3.37
1.98
1.46
2.03
3.95
7.36
12.25
18.26
24.69
30.59
34.95
37.15
37.21
35.79
34.05
33.22
34.13
36.79
40.44
43.47
44.05
40.69
33.02
22.01
9.89
-0.79
-8.01
-10.92
-9.94
-6.18
-1.00
4.54
9.75
14.47
18.71
22.43
25.55
27.80
28.87
28.50
26.72
23.70
19.43
13.43
5.10
-5.71
-18.02
-29.39
-36.90
-38.58
-34.78
-27.96
-21.31
-16.98
-15.09
-14.47
-13.92
-13.56
-15.01
-20.13
-29.36
-40.89
-51.12
-56.55
-55.66
-49.64
-42.02
-36.97
-37.31
-43.01
-51.30
-58.24
-60.72
-58.33
-53.48
-50.03
-50.78
-55.89
-62.79
-68.09
-69.73
-68.14
-65.74
-64.86
-66.19
-68.39
-69.54
-69.09
-68.12
-67.88
-67.98
-65.73
-57.47
-41.30
-18.60
6.10
27.79
43.47
53.21
58.93
62.10
62.71
59.69
53.13
45.30
39.91
39.73
44.40
50.62
54.10
52.55
46.69
39.46
33.53
29.81
27.40
24.81
21.53
18.30
16.14
15.12
14.14
11.39
5.78
-2.43
-11.78
-20.25
-26.25
-28.93
-28.46
-26.03
-23.59
-23.09
-25.35
-29.63
-33.56
-34.40
-30.74
-23.61
-16.04
-11.29
-10.88
-13.59
-16.48
-16.72
-13.61
-8.56
-3.87
-0.85
1.06
3.81
8.99
16.65
25.04
31.60
34.53
33.82
31.03
28.23
26.73
26.49
26.72
26.63
26.15
25.68
25.66
25.89
25.63
24.18
21.49
18.52
16.73
17.13
19.52
22.55
24.51
24.60
23.36
22.12
21.86
22.28
21.97
19.52
14.82
9.27
5.03
3.54
4.68
7.01
8.87
9.53
9.55
9.84
10.73
11.47
10.87
8.27
4.24
0.19
-2.40
-2.78
-1.04
2.16
6.09
10.01
13.27
15.43
16.57
17.33
18.63
20.84
23.40
25.04
24.69
22.27
18.93
16.14
14.50
13.20
10.64
5.97
-0.03
-5.05
-6.76
-4.61
-0.34
3.01
3.18
0.05
-4.35
-7.38
-7.73
-6.27
-5.41
-7.38
-12.82
-20.66
-28.91
-35.99
-41.25
-44.64
-45.96
-44.50
-39.76
-32.37
-24.45
-18.85
-17.51
-20.09
-24.21
-26.71
-25.64
-21.14
-14.98
-9.30
-5.07
-1.82
1.54
5.52
9.56
12.51
13.56
13.02
12.20
12.36
13.63
14.56
13.07
7.80
-0.71
-10.14
-17.52
-20.98
-20.59
-17.94
-14.86
-12.08
-9.04
-4.70
1.21
7.70
13.07
15.93
15.95
13.90
10.95
7.90
4.87
1.66
-1.75
-4.87
-6.92
-7.16
-5.30
-1.81
2.13
4.81
4.62
0.96
-5.20
-11.55
-15.43
-15.46
-12.31
-8.54
-6.79
-8.25
-11.89
-15.27
-16.21
-14.16
-10.38
-6.81
-4.53
-3.09
-0.90
3.40
9.90
17.13
23.08
26.24
26.19
23.36
18.50
12.21
4.95
-2.49
-8.81
-12.53
-12.76
-9.86
-5.37
-1.31
0.95
1.29
0.80
0.70
1.46
2.35
2.10
-0.12
-3.70
-6.70
-6.96
-3.13
4.34
13.51
21.86
27.36
29.23
27.91
24.64
20.67
16.88
13.62
10.88
8.56
6.55
4.73
2.88
0.67
-2.35
-6.41
-11.29
-16.16
-19.72
-20.93
-19.50
-16.28
-12.93
-11.12
-11.69
-14.34
-17.84
-20.72
-21.90
-21.06
-18.67
-15.54
-12.37
-9.44
-6.73
-4.19
-1.88
-0.13
1.03
2.08
4.05
8.00
14.27
21.84
28.50
32.19
32.17
29.89
28.26
30.13
36.43
45.47
53.81
58.01
56.67
50.77
43.11
36.40
32.01
29.40
27.12
23.94
19.80
15.90
13.51
13.11
13.81
13.91
12.19
8.79
5.51
4.49
6.63
10.71
13.94
13.56
8.55
0.43
-7.53
-11.98
-11.44
-7.01
-1.77
0.83
-1.41
-8.55
-18.57
-28.80
-37.21
-43.55
-48.91
-54.92
-62.26
-69.81
-75.05
-75.39
-70.37
-62.41
-55.48
-52.53
-53.23
-53.94
-49.63
-37.40
-18.83
0.63
14.66
19.77
16.99
10.89
6.45
6.05
8.35
9.98
8.33
3.52
-1.82
-4.53
-2.77
3.12
11.22
19.21
25.68
30.34
33.30
34.31
32.51
27.02
17.50
4.62
-9.67
-22.65
-31.54
-34.54
-31.19
-22.55
-11.17
-0.18
7.68
11.24
11.00
8.81
6.61
5.02
3.03
-1.34
-9.22
-19.75
-29.94
-36.64
-38.26
-35.77
-31.94
-29.46
-29.11
-29.45
-28.21
-24.23
-18.57
-13.62
-11.26
-11.64
-13.18
-13.93
-12.88
-10.82
-9.26
-9.10
-9.99
-10.71
-10.14
-7.77
-3.91
0.74
5.48
9.84
13.71
16.96
19.62
21.74
23.38
24.41
24.38
22.79
19.79
16.32
13.81
13.36
14.88
17.06
18.20
17.54
15.90
15.20
16.81
20.49
24.53
26.92
26.83
25.10
23.43
22.78
22.46
20.69
16.21
9.78
3.98
1.63
3.78
8.77
13.11
13.72
9.78
3.16
-2.99
-6.29
-6.22
-4.11
-1.79
-0.41
0.05
0.32
1.02
2.15
3.17
3.56
3.24
2.71
2.87
4.23
6.26
7.65
6.89
3.17
-3.12
-10.46
-16.77
-20.63
-21.92
-21.52
-20.27
-18.21
-14.41
-7.75
2.12
14.16
26.24
36.22
42.92
46.39
47.32
46.30
43.52
38.98
32.94
26.16
19.89
15.29
12.70
11.43
10.51
9.41
8.35
8.14
9.37
12.08
15.34
17.66
18.03
16.46
13.91
11.69
10.78
11.25
12.24
12.47
11.03
8.01
4.26
0.92
-1.15
-1.80
-1.60
-1.50
-1.98
-2.94
-3.91
-4.68
-5.83
-8.45
-13.60
-21.26
-30.24
-38.84
-45.91
-51.87
-58.62
-68.15
-80.96
-95.32
-107.58
-113.56
-110.50
-98.24
-79.57
-59.14
-41.74
-30.25
-24.77
-22.51
-19.16
-11.13
2.51
19.31
34.82
44.68
47.13
43.56
37.48
32.35
29.65
28.77
28.07
26.60
24.62
23.17
22.70
22.28
20.11
14.85
6.81
-2.08
-9.38
-13.45
-14.07
-12.11
-8.78
-5.10
-2.05
-0.57
-1.38
-4.54
-8.96
-12.50
-13.05
-9.82
-4.02
1.56
4.15
2.60
-2.17
-7.87
-12.48
-15.25
-16.62
-17.51
-18.47
-19.15
-18.93
-17.79
-16.57
-16.61
-18.84
-22.86
-27.05
-29.38
-28.45
-24.33
-18.31
-12.02
-6.47
-1.68
3.05
8.47
14.85
21.91
29.00
35.62
41.43
46.22
49.73
51.58
51.55
49.95
47.66
45.62
44.39
43.42
41.25
36.29
28.08
17.81
7.97
1.21
-1.18
0.38
4.03
7.75
10.47
12.45
14.73
17.95
21.63
24.17
23.72
19.21
11.18
1.68
-6.81
-12.46
-14.87
-14.80
-13.41
-11.22
-8.06
-3.63
1.55
5.58
6.07
1.40
-7.90
-19.06
-28.24
-32.44
-30.74
-24.36
-15.74
-6.87
1.43
9.44
17.66
26.04
33.65
39.13
41.39
40.31
36.93
33.00
30.22
29.37
30.11
31.19
31.34
29.97
27.44
24.76
22.99
22.80
24.28
27.21
31.16
35.51
39.36
41.53
40.92
36.81
29.46
19.99
9.83
-0.17
-10.40
-22.13
-36.51
-53.31
-70.48
-84.21
-90.41
-86.59
-73.63
-55.99
-40.39
-33.42
-38.89
-56.20
-80.31
-103.67
-118.51
-119.48
-105.31
-79.38
-48.68
-21.51
-4.75
-1.85
-11.84
-30.07
-49.72
-64.40
-70.00
-65.80
-53.98
-38.19
-21.90
-7.26
5.35
16.76
28.07
39.77
51.40
61.90
70.10
75.46
77.98
77.96
75.41
70.27
62.80
53.82
44.75
37.20
32.33
30.58
31.73
35.02
39.16
42.06
41.18
34.20
20.53
2.00
-17.39
-32.89
-41.07
-41.41
-36.42
-30.32
-27.14
-29.32
-36.78
-47.32
-57.73
-65.20
-68.24
-66.74
-62.01
-55.95
-50.59
-47.36
-46.94
-49.28
-53.87
-59.78
-65.89
-70.81
-72.98
-70.89
-63.35
-50.01
-31.74
-10.77
9.75
26.61
37.56
42.40
42.93
41.99
41.84
43.35
45.82
47.81
48.40
47.75
46.81
46.42
46.59
46.63
45.68
43.48
40.54
37.91
36.31
35.72
35.36
34.27
32.07
29.16
26.49
24.81
24.19
23.82
22.64
19.97
16.09
12.05
8.99
7.56
7.42
7.60
6.95
4.93
1.83
-1.53
-4.09
-5.14
-4.37
-2.12
0.77
2.97
2.92
-0.43
-7.11
-15.83
-24.40
-30.53
-32.86
-31.31
-26.75
-20.40
-13.17
-5.61
1.91
8.79
14.39
18.11
20.15
21.31
22.37
23.62
24.50
24.19
22.38
19.79
17.90
18.08
20.82
25.38
30.31
34.17
36.42
37.48
38.24
39.31
40.61
41.57
41.54
40.40
38.45
36.10
33.52
30.53
26.97
22.91
18.74
14.84
11.36
7.87
3.59
-1.95
-8.43
-14.61
-18.80
-19.88
-18.37
-16.62
-18.08
-25.74
-40.41
-59.92
-79.57
-94.02
-99.33
-94.66
-82.13
-65.62
-48.96
-34.40
-22.46
-12.57
-4.09
3.14
8.76
12.28
13.62
13.22
11.95
10.73
10.27
10.87
12.28
14.05
15.72
17.02
17.90
18.46
18.74
18.68
18.24
17.52
16.83
16.54
16.89
17.77
18.91
20.01
21.08
22.52
24.59
27.08
29.02
29.15
26.26
20.05
11.35
1.66
-7.31
-14.48
-19.58
-23.12
-25.95
-28.86
-32.33
-36.51
-41.47
-47.17
-53.53
-60.35
-67.16
-73.21
-77.38
-78.44
-75.40
-68.08
-57.27
-44.69
-32.25
-21.39
-12.56
-5.37
1.03
7.16
12.95
18.03
22.01
24.87
26.91
28.42
29.45
29.80
29.48
28.74
28.11
27.71
27.17
25.76
22.78
18.37
13.51
9.60
7.71
7.85
8.97
9.69
9.06
7.21
5.26
4.62
6.11
9.29
12.73
14.63
13.98
11.03
7.25
4.48
3.82
4.95
6.28
5.83
2.38
-3.80
-11.12
-17.48
-21.34
-22.64
-22.50
-22.44
-23.37
-25.05
-26.21
-25.37
-21.84
-16.14
-9.96
-5.19
-3.15
-3.89
-6.49
-9.60
-12.19
-13.94
-14.99
-15.42
-15.05
-13.53
-10.66
-6.75
-2.58
1.10
4.08
6.82
10.03
14.06
18.36
21.71
23.01
21.98
19.55
17.35
16.80
18.18
20.75
23.23
24.92
26.10
27.68
30.35
33.77
36.60
37.31
35.21
31.07
26.71
23.99
23.75
25.50
27.86
29.51
30.05
29.93
29.93
30.50
31.36
31.73
30.77
28.18
24.16
19.20
13.83
8.58
4.02
0.87
-0.11
1.43
5.12
9.80
13.67
14.91
12.36
5.96
-3.33
-13.89
-23.89
-31.92
-37.21
-39.76
-40.04
-38.78
-36.53
-33.47
-29.32
-23.61
-15.87
-6.23
4.18
13.31
18.57
17.99
11.14
-0.36
-13.27
-23.76
-29.04
-28.21
-22.30
-13.62
-4.56
3.24
9.17
13.29
15.86
17.22
17.74
17.81
17.85
18.26
19.20
20.51
21.75
22.28
21.59
19.59
16.62
13.12
9.65
6.39
3.16
-0.53
-5.30
-11.49
-19.02
-27.16
-35.05
-42.09
-48.46
-54.90
-62.24
-70.74
-79.80
-88.31
-95.12
-99.71
-102.57
-104.67
-106.70
-108.30
-108.14
-104.51
-96.34
-83.71
-67.90
-50.64
-33.45
-17.26
-2.51
10.58
21.97
31.79
40.32
47.75
54.12
59.00
61.68
61.50
58.40
53.18
47.27
42.33
39.32
38.20
38.08
37.75
36.50
34.45
32.27
30.87
30.68
31.42
32.35
32.55
31.38
28.63
24.61
19.87
15.12
11.03
8.09
6.55
6.15
6.31
6.37
5.94
5.09
4.12
3.17
1.74
-1.06
-6.14
-13.74
-22.83
-31.44
-37.32
-39.01
-36.34
-30.69
-24.14
-18.72
-15.55
-14.62
-15.16
-16.15
-16.80
-16.75
-16.12
-15.09
-14.11
-13.40
-12.79
-11.75
-9.34
-4.94
1.39
8.50
14.81
18.92
20.57
20.67
20.69
21.69
23.55
25.07
24.91
22.57
18.91
15.66
14.48
16.01
19.77
24.50
28.99
32.43
34.76
36.18
37.05
37.64
37.95
37.95
37.54
36.77
35.90
35.26
35.10
35.32
35.51
35.10
33.83
31.87
29.95
28.93
29.36
31.07
33.34
35.27
36.44
37.06
37.68
38.53
38.70
36.31
29.21
16.19
-1.99
-22.59
-41.78
-56.17
-63.80
-64.67
-60.12
-51.88
-41.40
-29.63
-17.26
-5.11
5.76
14.31
19.79
21.93
21.01
17.40
11.72
4.59
-3.30
-11.03
-17.35
-20.97
-20.79
-16.47
-8.96
-0.47
5.95
7.82
4.36
-3.03
-11.50
-18.37
-22.36
-24.00
-24.78
-26.06
-28.15
-30.30
-31.50
-31.05
-28.78
-24.83
-19.55
-13.57
-8.04
-4.63
-4.95
-9.84
-18.64
-29.32
-39.56
-47.68
-53.21
-56.68
-58.88
-60.06
-60.03
-58.50
-55.70
-52.55
-50.27
-49.58
-50.13
-50.67
-49.93
-47.32
-43.13
-38.30
-33.50
-28.67
-23.06
-15.99
-7.73
0.41
6.60
9.62
9.91
9.40
10.43
14.23
19.99
25.33
28.02
27.57
25.82
25.99
30.55
39.35
49.32
55.82
55.25
47.18
34.64
22.55
15.00
13.22
15.27
17.58
17.41
14.30
10.09
7.44
8.12
11.86
16.58
19.73
19.58
15.86
9.67
2.29
-5.38
-13.03
-20.50
-27.59
-34.09
-40.21
-46.81
-54.98
-65.19
-76.47
-86.40
-91.95
-90.86
-82.63
-68.83
-52.05
-34.79
-18.59
-3.78
9.84
22.38
33.42
42.15
47.74
49.85
48.90
46.02
42.80
40.65
40.30
41.70
44.09
46.45
47.74
47.35
45.05
41.17
36.33
31.41
27.23
24.23
22.38
21.24
20.19
18.85
17.11
15.04
12.76
10.29
7.80
5.73
4.76
5.55
8.18
12.07
16.00
18.66
19.26
17.76
14.77
11.21
7.93
5.65
4.95
6.16
9.20
13.43
17.36
19.18
17.34
11.47
2.62
-6.93
-14.53
-18.21
-17.37
-12.88
-6.27
0.92
7.81
14.18
20.15
25.70
30.49
34.11
36.19
36.58
35.36
32.70
28.95
24.71
20.77
17.96
16.80
17.28
18.87
20.54
21.31
20.73
19.04
16.99
15.31
14.06
12.46
9.16
2.85
-6.96
-19.40
-32.46
-43.56
-50.56
-52.59
-50.45
-46.17
-42.06
-40.05
-40.91
-44.29
-49.09
-53.83
-57.32
-58.96
-58.62
-56.58
-53.34
-49.55
-45.94
-43.09
-41.28
-40.22
-39.04
-36.72
-32.39
-25.75
-17.26
-7.79
1.79
10.94
19.49
27.60
35.33
42.12
46.76
47.91
44.85
38.11
29.97
23.24
20.12
20.81
23.25
24.48
22.26
16.36
8.59
1.63
-2.44
-3.21
-1.63
1.03
4.05
7.32
10.88
14.18
16.38
16.80
15.46
13.01
9.96
6.11
0.51
-7.83
-18.74
-30.59
-41.11
-48.56
-52.49
-53.82
-53.81
-53.16
-51.68
-48.85
-44.52
-39.17
-33.71
-28.57
-23.59
-18.20
-12.05
-5.46
0.63
5.32
8.46
10.75
13.35
17.00
21.51
25.76
28.23
27.72
23.84
17.18
9.17
1.47
-4.58
-8.18
-9.28
-8.29
-5.74
-2.16
2.05
6.52
10.83
14.50
17.11
18.42
18.43
17.52
16.31
15.53
15.76
17.09
19.07
20.81
21.44
20.47
18.04
14.81
11.58
8.86
6.73
4.93
3.27
1.70
0.46
-0.18
-0.10
0.68
2.04
3.86
5.91
7.76
8.66
7.70
4.21
-1.81
-9.46
-17.14
-23.06
-25.92
-25.34
-21.85
-16.46
-10.33
-4.28
1.33
6.50
11.46
16.39
21.35
26.15
30.47
33.74
35.36
35.01
32.87
29.62
26.29
23.82
22.65
22.62
23.11
23.51
23.65
23.83
24.54
26.01
27.82
28.93
28.32
25.54
21.02
15.94
11.48
8.35
6.42
4.92
3.01
0.19
-3.37
-6.96
-9.54
-10.22
-8.47
-4.33
1.47
7.51
11.87
12.71
8.69
-0.55
-14.31
-30.78
-47.47
-61.50
-70.23
-72.10
-67.32
-57.80
-46.53
-36.18
-28.11
-22.04
-16.77
-11.28
-5.53
-0.31
3.52
5.78
7.20
8.88
11.64
15.42
19.50
22.80
24.43
23.77
20.69
15.63
9.65
4.26
0.72
-0.55
-0.24
0.38
0.06
-1.53
-3.79
-5.95
-7.63
-9.25
-11.81
-15.95
-21.44
-27.26
-32.16
-35.33
-36.78
-36.99
-36.54
-35.52
-33.64
-30.63
-26.68
-22.49
-18.88
-16.41
-14.90
-13.75
-12.39
-10.63
-8.74
-7.13
-5.92
-4.78
-3.16
-0.65
2.53
5.65
7.91
8.82
8.62
8.19
8.51
10.05
12.47
14.72
15.58
14.51
12.04
9.74
9.32
11.70
16.32
21.31
24.44
24.23
20.67
15.01
9.05
4.30
1.46
0.42
0.67
1.64
2.79
3.68
3.78
2.65
0.04
-3.90
-8.58
-12.93
-15.81
-16.38
-14.38
-10.44
-5.73
-1.60
1.04
2.02
2.03
2.23
3.52
6.01
8.88
10.71
10.24
6.99
1.44
-5.27
-11.88
-17.41
-21.15
-22.80
-22.26
-19.69
-15.60
-10.58
-5.20
0.39
6.26
12.50
18.83
24.54
28.75
30.98
31.54
31.18
30.61
29.91
28.73
26.72
24.18
22.25
22.10
24.36
28.45
32.86
35.97
36.97
36.16
34.68
33.71
33.74
34.31
34.44
33.14
29.96
25.06
19.12
12.92
7.13
2.14
-1.99
-5.39
-8.24
-10.47
-11.63
-11.11
-8.62
-4.79
-1.25
0.03
-2.26
-7.89
-15.01
-21.17
-24.44
-24.42
-22.10
-18.84
-15.54
-12.23
-8.64
-4.76
-1.28
0.92
1.46
0.88
0.35
0.71
2.09
3.88
5.31
6.20
7.18
9.22
12.90
17.98
23.51
28.59
32.97
37.17
41.82
46.95
51.63
54.26
53.58
49.67
44.28
40.01
38.86
40.92
44.04
44.75
40.06
29.16
13.73
-2.99
-18.10
-30.18
-39.25
-45.83
-49.92
-50.80
-48.09
-42.95
-38.45
-38.50
-45.94
-60.75
-79.75
-98.10
-111.59
-118.26
-119.08
-116.47
-112.85
-109.37
-105.76
-101.06
-94.55
-86.34
-77.24
-68.41
-60.35
-52.75
-44.42
-34.20
-21.98
-9.22
1.45
7.51
7.70
2.79
-4.68
-11.61
-15.67
-16.40
-15.03
-13.30
-12.29
-11.61
-9.63
-4.37
4.99
17.45
30.20
39.95
44.29
42.82
37.30
30.78
26.09
24.17
24.04
23.49
20.93
16.18
10.77
6.78
5.47
6.44
7.75
7.21
3.70
-2.22
-8.56
-13.01
-14.10
-11.94
-7.81
-3.04
1.57
6.07
10.63
15.26
19.46
22.50
23.61
22.42
19.01
13.96
8.42
4.03
2.66
5.48
12.28
21.07
28.72
32.41
31.23
26.82
22.54
21.50
24.80
31.04
37.53
42.01
44.02
44.76
45.73
47.18
47.74
45.46
39.22
29.75
19.39
10.83
5.59
3.53
3.42
3.94
4.49
4.95
5.26
4.88
3.01
-0.76
-5.87
-10.86
-14.13
-14.90
-13.56
-11.56
-10.54
-11.70
-15.26
-20.37
-25.49
-28.93
-29.45
-26.69
-21.27
-14.54
-7.97
-2.43
2.01
5.76
9.09
11.70
12.47
10.13
4.07
-5.17
-15.87
-25.95
-33.86
-39.17
-42.39
-44.41
-45.53
-45.20
-42.27
-35.94
-26.43
-15.18
-3.94
6.10
15.10
24.02
33.62
43.48
51.80
56.42
56.36
52.57
47.77
44.99
45.93
50.14
55.36
58.82
58.58
54.21
46.42
36.50
25.74
15.24
5.89
-1.63
-7.04
-10.67
-13.11
-14.65
-14.80
-12.65
-7.61
-0.24
7.55
13.14
14.53
11.51
5.73
-0.18
-4.28
-6.09
-6.42
-6.58
-7.66
-10.20
-14.34
-19.99
-26.71
-33.42
-38.43
-39.92
-37.21
-31.26
-24.43
-19.18
-16.87
-17.11
-18.17
-18.26
-16.77
-14.70
-13.49
-13.87
-15.24
-15.83
-13.78
-8.26
-0.20
8.23
14.96
19.19
21.45
22.77
23.76
23.94
22.12
17.54
10.94
4.61
1.26
2.25
6.73
12.24
16.10
16.93
15.05
11.82
8.40
4.90
0.77
-4.30
-9.70
-14.17
-16.53
-16.47
-14.77
-12.83
-12.02
-13.13
-16.35
-21.43
-27.57
-33.27
-36.59
-36.02
-31.33
-24.15
-17.18
-12.85
-11.92
-13.00
-13.55
-11.70
-7.45
-2.68
0.23
0.28
-1.53
-2.80
-1.25
3.63
10.39
16.23
18.65
16.64
11.35
5.39
1.37
0.67
2.96
6.76
10.54
13.35
14.86
14.69
12.10
6.37
-2.12
-11.37
-18.25
-20.21
-16.83
-10.26
-4.01
-0.73
-0.58
-1.44
-0.78
2.36
6.62
9.58
9.79
8.00
6.61
7.59
10.78
13.58
12.71
6.81
-2.43
-11.09
-15.43
-14.02
-8.42
-1.95
2.55
4.32
4.52
4.70
5.24
5.02
2.54
-2.64
-9.05
-14.06
-15.35
-12.29
-6.15
0.79
6.49
10.07
11.75
12.40
12.98
14.15
16.22
19.16
22.66
26.13
28.89
30.42
30.90
31.17
32.42
35.61
40.94
47.73
54.61
60.16
63.29
63.55
61.06
56.42
50.63
44.81
39.96
36.47
34.01
31.59
28.08
22.91
16.22
8.84
1.61
-5.02
-11.16
-17.08
-22.60
-26.99
-29.11
-28.37
-25.21
-21.29
-18.72
-19.14
-22.97
-29.42
-36.93
-43.73
-48.60
-50.86
-50.34
-47.17
-41.63
-34.25
-25.74
-17.15
-9.52
-3.84
-0.51
0.56
0.01
-1.25
-2.28
-2.38
-1.42
0.17
1.34
0.82
-2.24
-7.84
-14.82
-21.19
-25.03
-25.42
-22.73
-18.44
-14.19
-10.98
-8.94
-7.62
-6.74
-6.36
-6.85
-8.29
-10.06
-10.97
-9.99
-7.02
-3.09
0.13
1.28
-0.06
-3.28
-7.41
-11.50
-15.09
-18.02
-20.18
-21.57
-22.28
-22.56
-22.89
-23.72
-25.09
-26.69
-27.96
-28.34
-27.56
-25.65
-22.77
-19.07
-14.73
-9.99
-5.16
-0.54
3.60
7.03
9.47
10.55
9.96
7.74
4.45
1.05
-1.63
-3.15
-3.70
-3.70
-3.36
-2.48
-0.48
2.96
7.51
12.35
16.53
19.48
21.29
22.41
23.11
23.27
22.41
20.23
17.02
13.62
11.12
10.17
10.70
11.97
13.02
13.13
12.05
9.95
7.07
3.65
-0.18
-4.37
-8.73
-12.90
-16.21
-17.99
-17.84
-16.06
-13.61
-11.79
-11.64
-13.40
-16.26
-18.77
-19.55
-17.99
-14.51
-10.05
-5.51
-1.33
2.59
6.41
9.94
12.57
13.57
12.60
10.18
7.59
6.42
7.75
11.37
15.74
18.77
18.95
16.44
13.02
11.14
12.42
16.68
21.88
25.65
26.86
26.43
26.45
28.66
33.11
38.09
41.32
41.56
39.38
36.55
34.57
33.59
32.69
30.75
27.71
24.62
23.02
23.64
25.88
28.17
29.20
28.53
26.55
24.15
21.73
18.89
14.68
8.44
0.39
-8.54
-17.20
-24.69
-30.22
-33.21
-33.15
-29.72
-23.16
-14.56
-5.77
1.22
5.11
5.79
4.01
0.77
-3.19
-7.76
-13.21
-19.59
-26.19
-31.64
-34.58
-34.41
-31.34
-26.48
-21.53
-17.85
-15.98
-15.30
-14.61
-12.56
-8.31
-1.86
5.65
12.34
16.49
17.10
14.22
8.88
2.69
-2.90
-7.07
-9.93
-12.22
-14.76
-18.09
-22.18
-26.57
-30.40
-32.93
-33.78
-33.09
-31.56
-30.18
-30.19
-32.59
-37.77
-45.14
-52.99
-58.95
-60.79
-57.45
-49.39
-38.43
-26.76
-16.10
-7.22
-0.01
5.98
10.88
14.47
16.37
16.55
15.52
14.15
13.23
12.92
12.87
12.53
11.54
10.07
8.60
7.60
7.32
7.58
8.23
9.17
10.54
12.40
14.47
16.02
16.20
14.56
11.46
8.02
5.50
4.56
4.92
5.67
5.82
4.96
3.25
1.19
-0.80
-2.63
-4.49
-6.64
-9.25
-12.46
-16.26
-20.47
-24.65
-28.11
-30.09
-30.11
-28.29
-25.35
-22.22
-19.59
-17.58
-15.71
-13.38
-9.98
-5.27
0.50
6.67
12.30
16.56
19.08
20.09
20.18
19.95
19.71
19.54
19.50
19.82
20.85
22.73
25.13
27.26
28.43
28.56
28.21
28.11
28.46
28.49
26.91
22.87
16.72
10.07
4.85
2.26
2.08
2.94
3.26
2.10
-0.42
-3.42
-5.98
-7.52
-7.96
-7.38
-5.72
-2.94
0.82
4.94
8.31
9.62
8.02
3.58
-2.49
-8.32
-12.05
-12.48
-9.45
-3.62
3.99
12.32
20.42
27.69
33.65
38.05
40.69
41.35
39.83
36.16
30.73
24.29
17.91
12.67
9.32
8.10
8.66
10.24
12.03
13.44
14.11
13.86
12.76
11.06
9.38
8.41
8.65
10.04
11.89
13.06
12.41
9.21
3.64
-3.28
-9.85
-14.40
-15.95
-14.62
-11.56
-8.46
-6.86
-7.65
-11.03
-16.50
-23.15
-29.96
-36.01
-40.48
-42.78
-42.72
-40.40
-36.26
-30.89
-24.94
-19.03
-13.76
-9.58
-6.74
-5.24
-4.78
-4.96
-5.41
-5.95
-6.45
-6.88
-7.23
-7.58
-8.01
-8.61
-9.16
-9.21
-8.24
-5.91
-2.33
1.86
5.60
7.80
7.64
4.82
-0.23
-6.46
-12.50
-17.05
-19.33
-19.38
-17.94
-16.17
-15.11
-15.19
-16.11
-17.13
-17.46
-16.75
-15.24
-13.49
-12.09
-11.40
-11.34
-11.70
-12.22
-12.76
-13.30
-13.70
-13.61
-12.48
-9.84
-5.52
0.03
5.91
11.15
15.01
17.31
18.24
18.36
18.14
17.95
17.84
17.76
17.55
17.15
16.57
15.88
15.09
14.12
12.89
11.44
10.00
8.79
7.72
6.40
4.19
0.71
-3.83
-8.50
-12.12
-14.00
-14.27
-14.02
-14.46
-16.37
-19.55
-23.13
-26.04
-27.69
-28.26
-28.34
-28.46
-28.64
-28.48
-27.55
-25.84
-23.86
-22.38
-21.83
-21.96
-21.78
-20.20
-16.56
-11.12
-5.00
0.49
4.48
6.98
8.71
10.54
13.04
16.29
20.01
23.95
27.88
31.63
34.71
36.43
36.25
34.16
31.06
28.37
27.22
27.76
29.03
29.52
28.33
25.83
23.36
22.35
23.24
24.96
25.78
24.33
20.79
16.90
15.03
16.66
21.28
26.54
29.55
28.59
24.15
18.60
14.77
14.22
16.36
19.18
20.63
20.18
19.18
19.59
22.36
26.33
28.64
26.43
18.75
7.26
-4.60
-13.41
-17.39
-16.98
-14.04
-10.64
-7.93
-5.88
-3.81
-1.27
1.49
3.65
4.26
2.92
-0.03
-3.69
-6.95
-9.01
-9.65
-9.16
-8.29
-7.78
-7.95
-8.68
-9.41
-9.53
-8.78
-7.31
-5.74
-4.80
-4.90
-5.85
-6.99
-7.54
-6.95
-5.33
-3.46
-2.38
-2.84
-4.86
-7.76
-10.56
-12.70
-14.36
-16.55
-20.28
-25.64
-31.46
-35.76
-36.89
-34.55
-30.12
-25.91
-23.74
-23.85
-24.98
-25.57
-25.08
-24.29
-24.59
-26.63
-29.48
-30.93
-28.87
-22.78
-14.20
-5.89
-0.17
2.26
2.61
3.03
5.14
9.03
13.40
16.75
18.71
20.15
22.28
25.58
28.96
30.17
27.23
20.02
10.48
1.67
-4.05
-6.10
-5.38
-3.31
-0.72
2.31
5.74
8.70
9.64
7.43
2.32
-3.93
-9.11
-11.98
-12.96
-13.65
-15.53
-18.59
-21.40
-22.39
-21.09
-18.65
-16.75
-16.24
-16.43
-15.42
-11.69
-5.69
0.05
2.30
-0.63
-7.56
-14.82
-18.41
-16.37
-10.05
-2.97
1.61
2.89
2.53
3.18
6.28
11.00
14.90
15.73
13.15
8.85
5.31
4.15
5.53
8.45
11.68
14.45
16.57
18.07
18.67
18.11
16.50
14.67
13.69
14.25
16.18
18.67
20.67
21.66
21.82
21.75
21.83
21.97
21.54
19.94
16.99
13.23
9.71
7.41
6.74
7.21
7.89
7.87
6.67
4.30
1.07
-2.58
-6.36
-9.97
-12.96
-14.74
-14.78
-12.97
-9.80
-6.22
-3.15
-1.28
-0.82
-1.73
-3.99
-7.43
-11.50
-15.02
-16.55
-15.08
-10.84
-5.26
-0.28
2.88
4.53
6.32
10.07
16.47
24.53
32.07
37.16
39.28
39.24
38.46
37.49
35.75
32.14
26.48
20.25
16.11
16.26
20.79
27.43
32.72
34.05
30.93
25.14
19.26
15.11
12.80
11.10
8.64
4.96
0.79
-2.67
-4.62
-5.30
-5.87
-7.71
-11.76
-18.00
-25.48
-32.49
-37.23
-38.51
-36.30
-31.90
-27.25
-24.15
-23.22
-24.01
-25.45
-26.85
-28.55
-31.57
-36.60
-42.88
-48.17
-49.78
-46.37
-38.97
-30.65
-24.83
-23.16
-24.64
-26.29
-25.08
-19.75
-11.58
-3.52
1.80
3.38
2.29
0.62
0.24
1.59
3.91
6.06
7.37
8.19
9.36
11.49
14.36
16.90
17.85
16.54
13.38
9.72
7.13
6.65
8.35
11.38
14.38
16.19
16.19
14.49
11.73
8.62
5.74
3.51
2.08
1.46
1.39
1.21
-0.08
-3.46
-9.28
-16.83
-24.46
-30.32
-33.41
-34.05
-33.65
-33.66
-34.49
-35.21
-34.23
-30.46
-24.20
-17.20
-11.67
-8.83
-8.22
-8.05
-6.48
-2.77
2.15
6.28
7.82
6.20
2.47
-1.34
-3.45
-3.21
-1.30
0.89
2.31
3.00
3.95
6.21
9.89
13.93
16.68
17.09
15.47
13.44
12.82
14.34
16.99
18.74
17.97
14.60
10.07
6.52
5.29
6.23
7.96
8.95
8.46
6.98
5.77
5.99
7.86
10.40
11.86
10.57
5.94
-1.14
-8.42
-13.32
-13.92
-9.99
-3.24
3.60
7.75
7.76
3.92
-1.97
-7.54
-10.96
-11.67
-10.42
-8.55
-7.05
-5.84
-3.80
0.17
6.18
12.90
18.33
21.09
21.52
21.54
23.24
27.17
31.80
34.56
33.73
29.84
25.51
23.97
26.90
33.37
40.59
45.51
46.67
44.39
40.25
35.86
31.95
28.30
24.39
20.05
15.55
11.52
8.39
6.29
5.01
4.00
2.69
0.62
-2.43
-6.39
-10.99
-15.74
-19.83
-22.30
-22.34
-19.73
-15.32
-11.04
-9.21
-11.32
-17.07
-24.55
-31.34
-35.74
-37.49
-37.51
-36.82
-35.73
-33.59
-29.76
-24.43
-18.78
-14.37
-12.00
-11.23
-10.72
-9.30
-6.65
-3.44
-0.76
0.37
-0.64
-3.94
-9.46
-16.68
-24.54
-31.44
-35.75
-36.48
-33.71
-28.59
-22.76
-17.73
-14.45
-13.49
-15.15
-19.46
-25.80
-32.42
-36.75
-36.17
-29.32
-17.13
-2.58
10.44
18.81
21.67
20.50
17.92
16.14
15.68
15.37
13.42
8.89
2.40
-4.08
-8.60
-10.32
-9.85
-8.56
-7.28
-5.78
-3.11
1.26
6.65
11.31
13.54
13.01
11.33
10.95
13.60
18.88
24.37
27.27
26.12
21.97
17.77
16.13
17.75
20.91
22.87
21.71
17.60
12.51
8.58
6.67
5.76
4.21
1.00
-3.25
-6.82
-8.16
-7.19
-5.47
-5.11
-7.24
-11.31
-15.51
-18.12
-18.50
-17.25
-15.59
-14.55
-14.34
-14.57
-14.71
-14.58
-14.42
-14.40
-14.48
-14.31
-13.53
-12.04
-10.25
-8.86
-8.56
-9.61
-11.82
-14.67
-17.38
-19.26
-19.82
-18.85
-16.32
-12.32
-7.12
-1.23
4.80
10.46
15.45
19.62
22.91
25.21
26.28
25.85
23.93
21.07
18.16
16.08
15.42
16.07
17.45
19.00
20.57
22.34
24.48
26.89
29.11
30.76
31.70
32.19
32.62
33.07
33.18
32.45
30.65
28.11
25.70
24.06
23.31
22.93
22.11
20.44
18.34
16.82
16.78
18.37
20.78
22.58
22.43
19.56
14.00
6.30
-2.73
-12.10
-20.57
-26.91
-30.34
-30.96
-29.89
-28.59
-27.98
-27.82
-26.78
-23.35
-17.15
-9.47
-3.02
-0.56
-3.37
-10.67
-19.70
-26.99
-29.95
-28.12
-23.15
-17.85
-14.59
-13.96
-14.53
-13.87
-10.32
-4.17
2.54
7.42
9.39
9.07
8.14
7.95
8.68
9.44
9.27
7.98
6.33
5.15
4.45
3.39
0.80
-3.73
-9.44
-14.70
-18.05
-19.12
-18.63
-17.92
-17.93
-18.86
-20.12
-20.98
-21.03
-20.44
-19.75
-19.23
-18.53
-16.74
-13.01
-7.20
-0.15
6.63
11.82
14.80
15.96
15.93
15.15
13.55
11.03
7.92
5.13
3.76
4.37
6.53
8.71
9.27
7.18
2.71
-2.75
-7.45
-10.08
-10.43
-9.24
-7.74
-6.80
-6.56
-6.51
-5.85
-4.15
-1.63
0.75
2.02
1.72
0.31
-1.26
-2.25
-2.65
-3.36
-5.48
-9.59
-15.14
-20.71
-24.59
-25.66
-23.78
-19.80
-15.22
-11.52
-9.52
-9.21
-9.88
-10.56
-10.49
-9.52
-8.00
-6.51
-5.22
-3.53
-0.40
4.88
11.93
19.02
23.71
24.48
21.64
17.45
14.77
15.52
19.69
25.50
30.46
32.77
32.16
29.73
27.03
25.02
23.69
22.25
19.92
16.46
12.39
8.86
6.93
7.29
9.82
13.44
16.44
17.12
14.66
9.68
4.09
0.17
-0.48
2.16
6.49
10.04
10.70
7.90
3.09
-0.94
-1.41
3.01
11.50
21.39
29.44
33.10
31.48
25.53
17.29
8.75
1.21
-4.94
-9.81
-13.17
-14.47
-13.11
-9.07
-3.27
2.59
6.79
8.41
7.77
6.25
5.49
6.33
8.10
8.74
5.88
-1.63
-12.68
-24.20
-32.42
-34.77
-31.15
-23.79
-16.02
-10.44
-7.98
-7.88
-8.79
-9.55
-9.85
-9.79
-9.54
-9.11
-8.46
-7.95
-8.07
-9.21
-11.15
-13.26
-15.02
-16.51
-18.28
-20.83
-23.74
-25.74
-25.43
-22.17
-16.75
-11.06
-7.12
-5.99
-7.39
-10.19
-13.15
-15.59
-17.16
-17.52
-16.14
-12.67
-7.52
-1.93
2.48
4.89
5.72
6.49
8.71
12.66
17.29
20.87
22.14
21.01
18.51
15.83
13.55
11.34
8.72
5.71
3.11
1.97
2.75
4.94
7.11
8.02
7.30
5.78
4.79
5.27
7.03
8.96
9.76
8.75
6.32
3.50
1.26
-0.12
-1.01
-2.09
-3.64
-5.37
-6.76
-7.33
-7.10
-6.55
-6.35
-6.90
-8.27
-10.19
-12.34
-14.66
-17.21
-20.00
-22.76
-24.82
-25.48
-24.49
-22.35
-20.16
-19.15
-19.86
-21.81
-23.77
-24.38
-22.87
-19.45
-15.04
-10.64
-6.72
-3.11
0.49
4.19
7.81
10.96
13.33
14.98
16.19
17.06
17.63
17.94
18.29
19.00
19.91
20.20
18.69
14.65
8.78
3.43
1.58
4.96
12.69
21.65
28.20
30.52
29.60
28.13
28.34
30.32
32.15
31.66
28.28
23.28
18.65
15.39
12.81
9.29
3.87
-2.72
-8.49
-11.75
-12.20
-10.93
-9.52
-8.80
-8.33
-6.90
-3.71
0.91
5.73
9.03
9.37
5.99
-0.63
-8.66
-15.38
-18.20
-15.93
-9.62
-2.22
3.24
5.46
5.80
7.17
11.82
19.67
28.13
33.62
33.75
28.85
21.65
15.55
12.67
13.12
15.62
18.60
21.07
22.74
23.67
23.73
22.65
20.47
17.72
15.15
13.12
11.52
9.72
7.04
3.16
-1.66
-6.76
-11.56
-15.80
-19.45
-22.47
-24.87
-26.61
-27.69
-28.16
-28.24
-28.13
-28.04
-28.17
-28.85
-30.52
-33.39
-37.22
-41.25
-44.38
-45.73
-44.96
-42.37
-38.57
-34.02
-28.68
-22.30
-14.88
-7.03
0.10
5.32
8.18
9.15
9.31
9.58
10.17
10.46
9.67
7.48
4.48
1.81
0.50
0.88
2.53
4.63
6.54
8.06
9.37
10.60
11.71
12.36
12.29
11.47
10.21
8.97
7.99
7.12
5.93
4.13
1.75
-0.81
-3.24
-5.61
-8.31
-11.86
-16.30
-21.07
-25.07
-27.37
-27.69
-26.67
-25.58
-25.61
-27.27
-30.11
-32.93
-34.34
-33.46
-30.28
-25.51
-20.31
-15.59
-11.84
-8.90
-6.28
-3.49
-0.40
2.74
5.60
7.85
9.44
10.49
11.20
11.71
12.09
12.52
13.16
14.20
15.54
16.88
17.78
17.91
17.32
16.40
15.93
16.46
17.87
19.29
19.45
17.42
13.32
8.55
5.02
4.22
6.19
9.54
12.11
12.30
9.75
5.46
1.03
-2.39
-4.53
-5.83
-6.82
-7.48
-7.20
-5.41
-2.20
1.46
3.88
3.56
-0.15
-6.68
-14.63
-22.33
-28.38
-31.96
-32.72
-30.74
-26.44
-20.55
-14.15
-8.31
-3.67
-0.08
3.31
7.49
12.73
18.29
22.64
24.46
23.52
20.94
18.68
18.30
20.14
23.16
25.75
26.71
25.92
24.39
23.65
24.86
28.19
32.75
36.96
39.34
39.17
36.80
33.52
30.94
30.04
30.55
31.05
29.84
25.90
19.75
13.21
8.43
6.67
7.85
10.75
13.88
16.25
17.41
17.04
14.54
8.87
-0.74
-13.97
-28.88
-42.42
-51.65
-55.00
-52.78
-46.81
-39.20
-31.26
-23.25
-14.90
-6.57
0.44
4.38
4.22
0.61
-4.20
-7.60
-8.34
-7.12
-5.97
-6.80
-9.84
-13.48
-15.42
-14.35
-10.82
-6.74
-3.94
-2.90
-2.73
-2.03
-0.03
2.92
5.71
7.33
7.37
6.06
3.64
0.27
-3.94
-8.57
-12.65
-15.15
-15.36
-13.40
-10.18
-6.94
-4.78
-4.33
-6.00
-9.82
-15.45
-21.94
-27.92
-31.97
-33.37
-32.50
-30.78
-29.73
-29.88
-30.38
-29.45
-25.65
-19.03
-11.18
-4.36
0.16
2.88
5.76
10.46
16.94
23.13
26.17
24.61
19.59
14.34
12.12
14.11
18.78
22.89
23.62
20.30
14.54
8.89
5.34
4.29
4.92
5.95
6.49
6.25
5.28
3.74
1.82
-0.26
-2.08
-3.51
-4.93
-7.10
-10.58
-15.22
-20.05
-23.72
-25.29
-24.63
-22.60
-20.26
-18.07
-15.87
-13.26
-10.24
-7.46
-5.99
-6.73
-9.84
-14.58
-19.70
-24.12
-27.08
-28.21
-27.19
-23.75
-17.81
-9.69
-0.28
9.16
17.11
22.54
25.00
24.72
22.35
18.71
14.65
10.82
7.56
4.66
1.72
-1.74
-5.63
-8.91
-9.64
-5.78
3.73
18.19
34.93
50.42
61.51
66.84
67.06
64.05
59.68
54.81
49.21
42.34
34.32
26.28
20.03
17.02
17.47
20.20
23.41
25.75
27.00
27.84
29.09
30.93
32.79
33.76
33.43
31.85
28.85
23.50
14.66
2.22
-11.68
-23.00
-28.16
-26.30
-20.41
-15.48
-15.08
-18.83
-22.73
-22.30
-16.10
-7.05
-0.35
0.30
-4.45
-10.11
-11.80
-7.80
-0.68
4.74
5.13
1.04
-3.62
-4.46
0.29
8.47
15.54
17.46
13.05
4.47
-4.53
-10.91
-13.73
-14.11
-13.99
-14.56
-15.62
-16.14
-15.25
-13.07
-10.60
-9.02
-8.84
-9.71
-10.69
-11.18
-11.23
-11.37
-12.24
-14.04
-16.49
-19.03
-21.09
-22.24
-22.21
-20.90
-18.46
-15.51
-13.05
-12.27
-14.04
-18.30
-24.09
-29.94
-34.39
-36.60
-36.55
-34.87
-32.55
-30.51
-29.30
-28.84
-28.37
-26.60
-22.25
-14.72
-4.51
6.86
17.48
25.82
31.27
33.96
34.34
32.68
29.16
24.15
18.57
13.79
10.92
10.33
11.27
12.48
12.92
12.56
12.24
13.08
15.51
18.84
21.59
22.34
20.67
17.34
13.52
10.13
7.21
4.01
-0.19
-5.47
-11.01
-15.57
-18.42
-19.71
-20.36
-21.44
-23.53
-26.34
-28.97
-30.57
-30.90
-30.36
-29.71
-29.45
-29.57
-29.48
-28.37
-25.74
-21.90
-17.91
-15.11
-14.36
-15.40
-16.97
-17.33
-15.27
-10.90
-5.51
-0.84
1.95
2.97
3.40
4.79
8.16
13.42
19.43
24.61
27.81
28.66
27.51
25.30
23.01
21.46
21.02
21.62
22.98
24.77
26.92
29.50
32.55
35.67
37.99
38.64
37.29
34.54
31.64
29.79
29.29
29.49
29.31
28.30
27.22
27.62
30.67
35.95
41.34
43.97
41.92
35.30
26.21
17.50
11.16
7.60
5.96
5.09
4.42
3.96
3.57
2.24
-1.82
-10.25
-22.98
-37.67
-50.54
-58.15
-59.29
-55.45
-49.66
-44.55
-41.01
-38.10
-34.24
-28.80
-22.59
-17.28
-14.05
-12.64
-11.66
-9.72
-6.49
-3.04
-1.09
-1.93
-5.49
-10.42
-14.86
-17.38
-17.49
-15.63
-12.67
-9.24
-5.40
-0.86
4.49
9.99
14.40
16.56
15.89
12.92
8.92
5.28
2.78
1.47
0.90
0.57
0.01
-1.32
-3.96
-8.19
-13.59
-18.99
-22.89
-24.10
-22.60
-19.59
-16.61
-14.68
-14.01
-14.33
-15.39
-17.27
-20.19
-23.89
-27.39
-29.24
-28.41
-24.86
-19.36
-12.70
-5.31
2.70
11.02
18.64
24.00
25.75
23.60
18.61
12.56
7.16
3.57
2.29
3.44
6.65
11.14
15.78
19.36
21.11
21.24
20.81
21.01
22.13
23.44
23.71
22.13
18.94
15.23
11.96
9.05
5.55
0.44
-6.38
-13.79
-20.14
-24.13
-25.74
-26.06
-26.46
-27.75
-29.74
-31.75
-33.03
-33.36
-32.80
-31.55
-29.47
-26.17
-21.47
-15.90
-10.58
-6.84
-5.63
-7.04
-10.36
-14.26
-17.28
-18.37
-17.06
-13.39
-7.90
-1.57
4.62
9.92
14.00
16.90
18.96
20.76
22.68
24.71
26.50
27.61
27.75
27.02
26.02
25.45
25.90
27.36
29.40
31.65
33.95
36.44
39.26
42.11
44.05
43.99
41.31
36.39
30.51
25.04
20.76
17.41
13.88
9.20
3.38
-2.32
-6.07
-6.61
-4.23
-0.64
2.12
2.88
2.14
1.62
3.02
6.79
11.75
15.67
16.55
13.48
6.86
-1.94
-11.41
-20.26
-27.42
-31.87
-32.79
-29.89
-23.69
-15.47
-6.83
0.77
6.64
11.01
14.64
18.37
22.52
26.63
29.59
30.31
28.29
24.16
19.41
15.71
13.99
14.02
14.82
15.25
14.82
13.70
12.61
12.19
12.66
13.83
15.19
16.16
16.11
14.45
10.90
5.54
-1.13
-8.23
-14.84
-20.31
-24.39
-27.22
-29.11
-30.38
-31.23
-31.86
-32.45
-33.13
-34.13
-35.67
-37.90
-40.91
-44.46
-47.87
-50.11
-50.07
-47.08
-41.30
-33.73
-25.83
-19.04
-14.13
-11.08
-9.17
-7.41
-5.09
-2.02
1.51
5.02
8.30
11.49
14.74
18.09
21.14
23.31
24.13
23.72
22.74
22.11
22.51
23.84
25.26
25.58
23.95
20.30
15.41
10.44
6.17
2.67
-0.60
-4.43
-9.17
-14.45
-19.46
-23.33
-25.57
-26.20
-25.63
-24.46
-23.16
-22.04
-21.31
-21.16
-21.75
-23.23
-25.54
-28.39
-31.47
-34.45
-37.11
-39.21
-40.57
-40.90
-39.90
-37.28
-32.80
-26.44
-18.54
-9.73
-0.91
7.07
13.66
18.70
22.42
25.25
27.63
29.76
31.50
32.45
32.12
30.14
26.50
21.72
16.81
13.02
11.43
12.52
15.95
20.76
25.71
29.79
32.55
34.18
35.00
35.32
35.14
34.09
31.81
28.15
23.19
17.21
10.50
3.46
-3.41
-9.46
-13.77
-15.54
-14.30
-10.29
-4.48
1.76
7.21
11.24
14.00
16.22
18.72
21.96
25.75
29.24
31.02
29.74
24.60
15.69
4.28
-7.63
-17.89
-24.91
-28.03
-27.82
-25.63
-22.88
-20.58
-18.88
-17.27
-15.07
-11.99
-8.31
-4.85
-2.49
-1.60
-1.86
-2.40
-2.32
-1.25
0.47
2.04
2.84
2.88
2.89
3.79
6.10
9.38
12.51
14.25
13.93
11.74
8.56
5.47
3.07
1.48
0.31
-0.88
-2.21
-3.49
-4.42
-4.95
-5.49
-6.71
-9.06
-12.38
-15.92
-18.58
-19.61
-18.99
-17.48
-16.31
-16.59
-18.53
-21.33
-23.47
-23.38
-20.36
-14.90
-8.72
-3.86
-1.89
-3.11
-6.60
-10.62
-13.48
-14.11
-12.32
-8.69
-4.18
0.17
3.60
5.65
6.21
5.55
4.36
3.40
3.27
4.07
5.36
6.60
7.44
8.02
8.74
9.78
10.87
11.34
10.61
8.54
5.70
3.05
1.34
0.68
0.46
-0.17
-1.80
-4.27
-6.99
-9.24
-10.66
-11.31
-11.55
-11.65
-11.62
-11.33
-10.78
-10.40
-10.91
-13.02
-16.92
-22.01
-27.13
-31.04
-32.99
-32.96
-31.44
-29.29
-27.22
-25.88
-25.65
-26.62
-28.37
-30.02
-30.54
-29.30
-26.40
-22.66
-19.03
-15.91
-12.70
-8.15
-1.24
8.18
19.06
29.72
38.66
45.19
49.40
51.70
52.42
51.66
49.49
46.24
42.59
39.40
37.20
36.07
35.66
35.41
34.85
33.82
32.37
30.63
28.68
26.53
24.23
21.81
19.33
16.86
14.34
11.64
8.67
5.53
2.47
-0.25
-2.62
-4.86
-7.28
-9.76
-11.58
-11.49
-8.46
-2.19
6.51
16.01
24.38
30.17
32.70
31.85
27.85
21.04
11.96
1.60
-8.58
-17.08
-22.78
-25.51
-25.85
-24.80
-23.30
-21.70
-19.86
-17.30
-13.61
-8.60
-2.72
3.08
7.41
9.05
7.24
2.16
-5.03
-12.54
-18.48
-21.57
-21.67
-19.59
-16.72
-14.20
-12.34
-10.56
-7.87
-3.47
2.68
9.79
16.59
21.74
24.34
24.06
21.02
15.66
8.58
0.69
-6.79
-12.46
-15.30
-15.09
-12.60
-9.22
-6.31
-4.56
-3.95
-4.08
-4.55
-5.38
-6.87
-9.32
-12.74
-16.77
-21.00
-25.06
-28.80
-31.94
-34.11
-34.73
-33.34
-29.98
-25.09
-19.32
-12.99
-6.26
0.62
6.94
11.75
14.15
13.83
11.43
8.09
4.94
2.67
1.41
1.04
1.46
2.53
3.95
5.24
5.89
5.89
6.00
7.52
11.28
16.87
22.50
25.83
25.40
21.31
15.21
9.28
5.21
3.38
3.09
3.39
3.58
3.44
2.83
1.59
-0.68
-4.09
-8.05
-11.40
-13.07
-12.96
-12.05
-12.11
-14.72
-20.37
-28.14
-36.09
-42.26
-45.46
-45.49
-42.95
-38.90
-34.33
-29.95
-25.92
-21.84
-16.90
-10.31
-2.00
7.11
15.28
20.87
23.20
22.82
21.01
18.90
16.97
15.03
12.80
10.59
9.43
10.26
13.20
17.44
21.71
25.14
27.65
29.63
31.30
32.18
31.38
28.54
24.43
20.73
18.92
19.09
19.77
18.94
15.46
9.96
4.62
1.59
1.71
3.95
6.26
7.00
5.82
3.71
2.11
2.08
3.87
7.10
11.06
14.90
17.65
18.41
16.70
13.14
9.46
7.70
9.10
13.19
18.14
21.78
22.95
22.15
20.98
20.94
22.38
24.48
25.74
25.11
22.39
18.12
13.14
8.10
3.53
-0.12
-2.33
-2.86
-1.96
-0.55
0.26
-0.27
-1.96
-3.92
-5.12
-5.00
-4.00
-3.19
-3.64
-5.83
-9.24
-12.87
-15.59
-16.77
-16.56
-15.69
-15.09
-15.57
-17.66
-21.52
-26.99
-33.40
-39.59
-43.92
-44.80
-41.37
-34.14
-24.92
-16.27
-10.54
-8.85
-10.89
-15.24
-20.03
-23.76
-25.64
-25.67
-24.33
-22.36
-20.44
-18.93
-17.83
-16.77
-15.35
-13.35
-10.83
-8.05
-5.16
-1.96
1.87
6.42
11.08
14.71
16.15
14.82
11.32
7.13
3.89
2.48
2.66
3.45
3.81
3.51
3.23
3.93
6.15
9.44
12.59
14.27
14.03
12.43
10.72
9.94
10.14
10.50
9.81
7.50
4.08
0.99
-0.43
0.28
2.31
3.97
3.79
1.32
-2.63
-6.91
-10.83
-14.69
-19.59
-26.30
-34.45
-42.39
-48.13
-50.52
-50.01
-48.38
-47.36
-47.23
-46.36
-42.38
-33.97
-22.19
-10.15
-1.15
3.24
4.25
4.75
7.30
12.14
17.17
19.53
17.97
13.97
10.80
11.26
15.64
21.51
25.35
25.13
21.75
18.30
17.98
22.00
28.87
35.33
38.47
37.42
33.65
29.79
27.89
28.25
29.32
28.91
25.62
19.70
12.95
7.64
5.29
5.85
7.95
9.78
10.17
9.24
8.11
7.95
8.92
9.77
8.47
3.32
-5.92
-17.45
-27.90
-33.54
-32.12
-23.92
-11.75
0.44
9.53
14.88
18.28
22.57
29.33
37.59
44.23
46.17
42.47
35.20
28.25
24.76
25.16
27.04
27.15
23.91
18.54
14.03
12.87
15.30
19.06
20.88
18.79
13.36
7.18
3.02
1.90
2.61
2.52
-0.44
-6.47
-13.63
-19.39
-22.33
-23.07
-23.43
-24.69
-26.25
-25.87
-21.60
-13.99
-6.65
-4.33
-9.45
-19.99
-30.11
-33.77
-28.68
-17.91
-7.68
-3.29
-5.57
-10.78
-13.68
-11.34
-5.08
0.92
2.87
0.07
-4.90
-8.50
-8.90
-7.31
-6.80
-9.99
-17.19
-26.07
-33.12
-35.86
-34.01
-29.27
-23.95
-19.73
-17.03
-15.29
-13.77
-12.19
-10.97
-10.69
-11.65
-13.57
-15.74
-17.53
-18.59
-18.95
-18.78
-18.26
-17.47
-16.59
-15.95
-15.83
-16.20
-16.50
-15.84
-13.33
-8.76
-2.86
2.81
6.53
7.48
6.03
3.46
1.21
0.05
-0.14
-0.24
-0.92
-2.23
-3.40
-3.63
-2.60
-0.78
0.98
2.23
3.25
4.95
7.92
11.81
15.09
15.98
13.31
7.25
-0.52
-7.67
-12.24
-13.62
-12.66
-10.95
-10.00
-10.28
-11.39
-12.34
-12.55
-12.36
-12.86
-15.03
-18.50
-21.39
-21.35
-17.24
-10.26
-3.87
-1.57
-4.75
-11.49
-17.70
-19.85
-16.96
-11.11
-5.78
-3.49
-4.21
-5.93
-6.81
-6.71
-7.18
-9.61
-13.50
-16.28
-14.84
-7.86
2.99
13.77
20.73
22.36
19.92
16.18
13.55
13.01
14.21
16.43
19.50
23.79
29.26
35.03
39.65
42.43
43.94
45.71
48.86
52.88
55.85
55.62
51.56
45.42
40.34
39.01
41.73
46.23
48.99
47.45
41.46
33.31
26.19
22.33
22.02
23.95
26.44
28.57
30.63
33.58
38.18
44.23
50.54
55.47
57.57
56.10
51.08
43.20
33.40
23.01
13.57
6.51
2.75
2.13
3.42
4.49
3.16
-1.94
-10.73
-21.77
-32.88
-41.99
-47.97
-50.78
-51.32
-51.05
-51.25
-52.79
-55.84
-60.05
-64.65
-68.79
-71.66
-72.62
-71.38
-67.88
-62.51
-55.94
-49.21
-43.24
-38.70
-35.56
-33.25
-30.83
-27.34
-22.28
-15.71
-8.26
-0.87
5.44
9.79
11.45
9.97
5.43
-1.57
-10.05
-18.77
-26.67
-32.87
-36.93
-38.70
-38.66
-37.91
-37.95
-40.13
-44.97
-52.07
-60.40
-69.18
-78.27
-88.12
-99.16
-111.09
-122.76
-132.68
-139.91
-144.26
-146.11
-145.74
-142.97
-137.41
-129.01
-118.37
-106.45
-93.84
-80.02
-63.38
-42.11
-15.34
16.13
50.02
83.39
113.61
138.95
158.63
172.44
180.35
182.67
180.32
175.46
171.53
172.36
180.58
196.16
216.03
235.15
248.44
252.49
246.11
229.68
204.15
170.38
129.46
83.75
37.45
-3.81
-34.52
-51.06
-52.77
-41.78
-21.83
2.76
27.89
49.69
64.54
69.02
60.20
36.20
-2.98
-54.77
-113.87
-172.82
-223.39
-258.39
-273.16
-266.10
-238.56
-194.19
-138.45
-78.41
-22.24
22.02
48.10
53.40
39.70
12.43
-21.13
-53.73
-79.54
-94.61
-97.17
-87.91
-69.88
-47.94
-27.33
-12.02
-3.33
0.20
1.62
3.94
8.79
15.97
24.11
31.74
38.21
43.58
47.97
51.05
51.85
49.42
43.60
35.48
27.43
22.64
24.27
34.66
55.07
85.42
124.23
168.48
213.58
254.01
284.37
300.88
302.45
290.60
268.47
239.09
204.21
163.66
116.15
60.99
0.14
-60.47
-111.24
-141.19
-141.68
-110.22
-52.53
18.50
86.56
137.18
161.91
159.80
135.68
96.67
49.05
-2.90
-55.88
-105.86
-147.32
-174.39
-183.22
-173.93
-150.84
-120.53
-89.09
-60.27
-35.39
-14.75
1.00
10.05
10.13
-0.28
-20.75
-48.54
-79.17
-107.51
-129.05
-141.10
-143.56
-138.78
-130.58
-122.58
-116.61
-112.21
-107.13
-98.88
-86.16
-69.47
-50.70
-32.19
-15.85
-2.78
6.58
12.25
14.72
15.01
14.75
15.90
20.17
28.27
39.70
52.69
64.88
73.84
77.66
75.34
67.03
54.14
39.21
25.47
15.83
11.87
13.14
17.42
21.94
24.77
25.82
26.72
29.63
35.67
43.84
51.10
53.23
46.28
27.83
-2.32
-42.23
-88.45
-136.71
-182.65
-222.14
-251.52
-267.65
-268.12
-251.53
-218.06
-169.88
-111.27
-48.00
13.60
67.67
109.45
135.71
145.08
138.41
118.88
91.69
62.80
37.31
18.18
5.71
-1.76
-6.63
-10.73
-14.53
-17.09
-16.56
-11.04
0.47
17.45
37.71
57.90
74.42
84.68
87.71
84.05
75.05
62.18
46.85
30.69
15.91
4.98
-0.10
1.14
7.30
15.63
23.34
28.59
30.73
29.56
24.82
16.21
4.12
-9.52
-21.28
-27.46
-26.06
-18.17
-7.84
-0.45
-0.54
-10.25
-28.95
-53.97
-81.88
-109.21
-132.63
-148.87
-154.72
-147.76
-127.40
-95.53
-56.16
-14.12
26.39
62.59
92.99
116.34
130.96
134.64
125.81
104.80
74.67
40.70
8.62
-17.49
-36.46
-49.73
-59.61
-67.55
-73.08
-74.29
-69.22
-57.16
-39.03
-16.89
6.78
29.75
50.22
66.42
76.54
79.11
73.68
61.20
43.89
24.61
5.90
-10.60
-24.07
-34.21
-40.82
-43.92
-43.71
-40.78
-35.86
-29.47
-21.65
-12.26
-1.54
9.35
18.56
24.24
25.47
22.70
17.42
11.22
5.07
-0.80
-6.40
-11.38
-14.77
-15.35
-12.40
-6.10
2.63
12.72
23.53
34.76
45.78
55.06
60.37
59.86
53.25
42.36
30.43
20.68
14.87
12.81
13.01
13.99
15.28
17.45
21.36
27.20
33.90
39.56
42.45
41.94
38.75
34.51
30.79
28.39
27.24
26.73
26.32
25.97
26.09
27.03
28.69
30.38
31.20
30.49
28.18
24.78
21.00
17.23
13.56
10.02
6.87
4.77
4.42
6.17
9.62
13.74
17.34
19.70
20.89
21.66
22.85
24.93
27.66
30.40
32.35
33.09
32.56
30.86
27.98
23.72
18.07
11.57
5.59
1.73
0.88
2.16
2.77
-0.83
-11.06
-27.66
-47.47
-65.79
-78.68
-84.81
-85.68
-84.39
-83.52
-83.66
-83.46
-80.95
-75.16
-66.97
-58.63
-52.43
-49.28
-48.39
-47.89
-46.13
-42.62
-38.20
-34.32
-32.08
-31.52
-31.75
-31.52
-29.94
-26.85
-22.76
-18.43
-14.56
-11.59
-9.68
-8.77
-8.57
-8.71
-8.82
-8.74
-8.61
-8.80
-9.65
-11.24
-13.21
-15.06
-16.40
-17.23
-17.97
-19.14
-21.06
-23.50
-25.85
-27.48
-28.16
-28.21
-28.29
-29.17
-31.37
-34.97
-39.62
-44.84
-50.19
-55.32
-59.99
-63.68
-65.52
-64.44
-59.79
-51.96
-42.46
-33.27
-25.78
-20.01
-14.57
-7.60
2.17
14.62
28.38
41.42
51.96
59.01
62.30
62.45
60.66
58.52
57.28
57.28
57.60
56.65
53.23
47.63
41.70
37.50
35.91
35.90
35.06
31.52
25.30
18.61
14.40
14.38
17.73
21.45
22.21
18.38
11.01
2.85
-3.51
-7.39
-10.09
-13.66
-19.03
-25.00
-28.94
-28.45
-23.12
-15.04
-7.56
-3.39
-3.09
-5.12
-7.00
-7.03
-5.05
-2.18
0.21
1.53
2.25
3.66
7.16
13.48
21.98
30.71
37.10
39.26
37.10
32.44
28.08
26.19
27.08
29.18
30.33
29.41
26.99
24.94
24.98
27.34
30.78
33.45
34.31
33.65
32.73
32.73
34.04
36.06
37.85
38.89
39.17
39.04
38.74
38.37
37.99
38.03
39.12
41.53
44.80
47.51
47.96
45.26
40.40
35.80
33.83
35.30
38.76
41.40
40.89
36.84
30.78
24.38
17.85
9.82
-0.89
-13.76
-25.88
-33.45
-34.18
-29.24
-22.85
-19.76
-22.57
-30.55
-40.67
-49.60
-55.45
-58.01
-58.08
-56.74
-54.70
-52.47
-50.55
-49.31
-48.52
-47.50
-45.80
-43.67
-42.01
-41.60
-42.50
-43.69
-43.54
-40.84
-35.84
-30.23
-25.93
-24.18
-24.91
-27.04
-29.11
-30.01
-29.39
-27.66
-25.56
-23.80
-22.94
-23.15
-24.18
-25.29
-25.65
-24.84
-23.03
-21.02
-19.39
-18.06
-16.16
-12.89
-7.99
-2.18
3.30
7.42
9.86
10.91
11.04
10.46
8.84
5.66
0.60
-6.03
-13.22
-19.64
-24.00
-25.32
-23.18
-18.30
-12.63
-8.65
-8.29
-11.74
-17.52
-23.62
-29.00
-34.46
-41.68
-51.23
-61.23
-67.73
-67.23
-59.46
-48.04
-38.57
-34.95
-36.62
-38.60
-35.14
-23.81
-7.25
8.68
18.97
22.47
22.33
23.48
29.22
39.17
49.97
57.97
61.27
60.24
56.50
51.68
46.78
42.40
38.91
36.53
35.01
33.57
31.49
28.85
26.79
26.66
28.79
31.75
33.02
30.55
24.13
15.78
8.69
5.42
6.37
9.62
12.16
11.50
6.91
-0.30
-7.58
-12.52
-14.05
-12.72
-10.15
-7.94
-6.67
-5.74
-4.32
-2.38
-1.06
-2.06
-6.28
-12.69
-18.40
-20.27
-16.76
-8.93
0.27
7.83
12.35
14.60
16.64
20.00
24.64
29.12
31.75
31.93
30.41
28.69
27.97
28.46
29.45
30.04
29.70
28.61
27.36
26.49
26.19
26.39
26.99
27.88
28.96
30.06
30.90
31.25
31.15
30.93
30.98
31.35
31.54
30.71
28.19
23.93
18.85
14.51
12.42
13.27
16.50
20.65
23.97
25.25
24.14
20.89
15.94
9.67
2.40
-5.00
-10.84
-13.16
-10.94
-5.23
1.18
5.28
5.84
4.52
5.04
10.33
19.84
29.12
32.14
25.40
10.45
-6.72
-19.17
-23.30
-20.99
-17.67
-18.10
-22.99
-28.65
-30.31
-25.80
-17.48
-10.55
-9.43
-14.40
-21.56
-25.82
-24.76
-20.04
-16.09
-16.78
-23.06
-32.45
-41.27
-47.27
-51.09
-54.99
-60.73
-68.14
-75.19
-79.73
-80.96
-80.12
-79.53
-80.86
-83.85
-86.68
-86.91
-82.73
-73.68
-60.57
-45.33
-30.38
-17.77
-8.36
-1.49
4.92
13.20
24.32
37.04
48.42
55.44
56.78
53.30
47.49
41.90
38.01
35.80
34.51
33.49
32.59
31.87
31.04
29.53
26.78
22.85
18.46
14.73
12.36
11.31
10.82
9.83
7.71
4.63
1.41
-0.93
-1.78
-1.51
-1.28
-2.27
-5.06
-8.86
-12.15
-13.57
-12.86
-11.15
-10.21
-11.23
-13.92
-16.72
-17.83
-16.49
-13.35
-9.94
-7.66
-6.83
-6.71
-6.20
-4.77
-2.71
-0.74
0.83
2.57
5.50
10.24
16.26
21.87
25.07
24.80
21.44
16.59
12.19
9.45
8.52
8.74
9.39
10.12
11.10
12.52
14.39
16.50
18.54
20.43
22.13
23.55
24.33
23.97
22.26
19.67
17.12
15.54
15.35
16.08
16.75
16.56
15.35
13.61
11.90
10.31
8.38
5.65
2.32
-0.45
-1.04
1.69
7.38
14.01
18.75
19.43
15.66
8.84
1.46
-4.40
-8.03
-10.18
-12.14
-14.53
-16.69
-17.17
-14.82
-9.70
-3.35
2.20
5.83
8.07
10.66
15.21
21.98
29.50
35.56
38.54
38.40
36.44
34.33
32.95
32.04
30.61
27.77
23.45
18.46
14.05
11.25
10.29
10.62
11.07
10.45
7.88
3.25
-2.69
-8.65
-13.38
-16.22
-17.29
-17.43
-17.66
-18.57
-19.96
-21.34
-22.61
-24.38
-27.65
-32.90
-39.18
-44.15
-45.49
-42.61
-37.88
-35.56
-39.51
-50.56
-65.43
-78.08
-83.03
-78.35
-66.79
-53.87
-44.53
-40.14
-38.11
-33.87
-24.24
-9.61
6.01
17.40
21.27
18.30
12.45
8.43
9.05
13.75
19.54
23.33
24.12
23.17
22.82
24.46
27.49
29.82
29.32
25.26
18.72
11.78
6.32
3.30
2.64
3.75
5.83
8.11
9.87
10.51
9.65
7.30
3.96
0.50
-2.17
-3.50
-3.54
-2.87
-2.45
-3.31
-6.00
-10.35
-15.59
-20.67
-24.73
-27.41
-28.78
-29.12
-28.75
-27.85
-26.64
-25.44
-24.34
-23.17
-21.53
-19.13
-15.89
-12.12
-8.07
-3.68
1.41
7.58
14.57
21.37
26.48
28.75
27.91
24.72
20.51
16.50
13.54
11.91
11.52
12.04
12.87
13.32
12.97
11.89
10.62
9.88
9.95
10.60
11.23
11.42
11.30
11.43
12.35
13.94
15.63
16.62
16.66
16.12
15.68
15.78
16.16
16.12
14.96
12.51
9.16
5.52
2.09
-0.89
-3.26
-4.72
-4.64
-2.48
1.88
7.62
13.20
16.68
16.43
11.84
3.70
-5.79
-13.79
-17.84
-16.93
-11.95
-5.17
0.87
4.90
7.18
9.19
12.27
16.69
21.50
25.30
27.23
27.44
26.67
25.46
23.74
21.08
17.38
13.32
10.12
8.72
8.89
9.32
8.55
6.01
2.55
0.06
0.19
3.18
7.52
10.80
11.24
8.80
5.19
2.82
2.97
4.92
6.20
4.36
-1.21
-8.80
-15.36
-18.56
-18.54
-17.74
-19.17
-24.31
-31.84
-38.65
-42.30
-42.86
-43.14
-46.62
-54.75
-65.47
-73.93
-75.29
-67.78
-53.91
-38.91
-27.72
-22.20
-20.50
-18.44
-12.47
-2.03
10.31
20.58
26.03
26.59
24.47
22.38
21.55
21.18
19.41
14.99
8.41
1.65
-2.89
-3.80
-1.23
3.14
7.12
8.97
8.21
5.63
2.71
0.87
0.68
1.71
2.86
3.27
2.86
2.40
2.76
4.05
5.30
5.07
2.43
-2.03
-6.57
-9.40
-10.02
-9.59
-10.00
-12.58
-17.15
-22.24
-26.08
-27.84
-28.04
-28.14
-29.37
-31.98
-35.01
-36.90
-36.41
-33.38
-28.94
-24.69
-21.77
-20.25
-19.06
-16.65
-11.96
-5.19
2.25
8.42
11.95
12.72
11.76
10.40
9.44
8.62
7.02
3.97
-0.18
-3.96
-5.58
-3.85
1.12
8.11
15.56
22.45
28.70
34.78
41.02
47.12
52.19
55.12
55.20
52.38
47.28
41.01
34.73
29.47
25.70
23.20
21.05
18.10
13.55
7.45
0.75
-5.15
-9.05
-10.58
-10.23
-8.86
-7.17
-5.24
-2.81
0.22
3.43
5.74
5.96
3.29
-2.16
-9.45
-16.94
-22.95
-26.23
-26.29
-23.29
-17.90
-11.00
-3.35
4.43
12.02
19.17
25.73
31.48
36.09
39.11
40.13
38.95
35.73
31.19
26.40
22.62
20.97
21.94
25.34
30.47
36.33
42.07
46.96
50.56
52.46
52.42
50.26
46.10
40.46
33.98
27.21
20.40
13.45
6.09
-1.77
-9.80
-17.12
-22.81
-26.33
-27.72
-27.70
-27.13
-26.54
-25.86
-24.64
-22.56
-19.95
-17.79
-17.19
-18.67
-21.80
-25.37
-27.94
-28.56
-27.16
-24.46
-21.54
-19.16
-17.51
-16.29
-14.91
-12.90
-10.23
-7.32
-4.84
-3.22
-2.54
-2.56
-2.90
-3.54
-4.87
-7.52
-11.84
-17.42
-23.09
-27.48
-29.61
-29.26
-27.12
-24.47
-22.35
-20.87
-19.12
-15.94
-11.09
-5.87
-2.57
-3.03
-7.15
-12.50
-15.76
-14.84
-10.33
-5.14
-2.35
-3.20
-6.30
-8.80
-8.80
-6.74
-5.08
-6.22
-10.55
-16.18
-20.27
-21.04
-18.70
-15.00
-11.91
-10.32
-9.86
-9.67
-9.13
-8.20
-7.08
-5.77
-3.92
-0.96
3.35
8.67
14.27
19.42
23.62
26.72
28.76
29.69
29.26
27.27
24.20
21.23
19.81
20.83
24.07
28.07
30.82
30.77
27.60
22.30
16.49
11.57
8.22
6.49
6.10
6.72
7.90
8.86
8.63
6.42
2.34
-2.40
-6.01
-7.26
-6.17
-3.81
-1.72
-1.07
-2.11
-4.20
-6.56
-8.76
-10.79
-12.72
-14.44
-15.68
-16.05
-15.37
-13.68
-11.28
-8.54
-5.84
-3.67
-2.61
-3.11
-5.30
-8.94
-13.67
-18.98
-24.32
-28.99
-32.25
-33.26
-31.58
-27.35
-21.52
-15.37
-9.96
-5.69
-2.18
1.23
5.05
9.13
12.79
15.33
16.47
16.45
15.76
15.00
14.63
15.03
16.43
18.91
22.23
25.70
28.38
29.49
29.00
27.69
26.85
27.42
29.39
31.85
33.34
32.91
30.48
26.92
23.23
20.11
17.76
16.02
14.96
14.88
16.23
18.86
21.90
23.93
23.71
20.75
15.58
9.60
4.18
-0.12
-3.94
-8.50
-14.75
-22.60
-30.66
-36.86
-39.46
-38.07
-33.93
-29.15
-25.49
-23.48
-22.29
-20.47
-17.03
-12.10
-6.95
-3.06
-1.33
-1.80
-3.76
-6.30
-8.63
-10.32
-11.24
-11.24
-10.13
-7.83
-4.71
-1.52
0.86
1.82
1.19
-0.43
-2.15
-3.35
-3.99
-4.78
-6.45
-9.05
-11.66
-12.80
-11.55
-8.55
-6.05
-6.48
-10.82
-17.53
-23.38
-25.22
-22.14
-16.32
-11.68
-11.25
-15.12
-20.45
-23.48
-22.17
-17.53
-12.91
-11.57
-14.28
-18.81
-21.69
-20.74
-16.49
-11.72
-9.29
-10.12
-12.41
-13.10
-9.99
-3.12
5.52
13.43
19.03
22.14
23.41
23.48
22.58
20.64
17.95
15.23
13.37
12.67
12.53
11.82
9.74
6.50
3.39
1.97
2.89
5.45
7.93
8.69
7.29
4.67
2.50
1.95
2.75
3.19
1.44
-3.18
-9.50
-15.06
-17.58
-16.37
-12.69
-8.74
-6.36
-6.08
-7.21
-8.55
-9.21
-9.06
-8.70
-8.84
-9.94
-12.03
-14.85
-17.95
-20.72
-22.52
-23.05
-22.36
-21.02
-19.76
-19.02
-18.51
-17.11
-13.55
-7.05
2.05
12.39
21.99
29.07
32.76
33.43
32.32
30.85
29.87
29.55
29.49
29.31
29.09
29.43
30.96
33.73
37.11
40.00
41.39
40.86
38.71
35.56
32.00
28.46
25.28
22.89
21.74
21.94
22.93
23.81
23.84
23.05
22.35
22.88
25.25
28.90
32.30
33.84
32.72
29.22
24.40
19.36
14.67
10.47
6.91
4.57
4.30
6.67
11.50
17.74
23.89
28.62
31.45
32.57
32.28
30.61
27.06
21.11
12.82
3.32
-5.70
-12.75
-17.33
-20.03
-21.87
-23.46
-24.55
-24.32
-22.40
-19.57
-17.53
-17.91
-21.07
-25.62
-29.23
-30.19
-28.61
-26.41
-26.01
-28.47
-32.79
-36.54
-37.50
-35.25
-31.38
-28.37
-27.97
-30.02
-32.76
-34.07
-33.17
-31.20
-30.45
-32.79
-38.07
-43.84
-46.71
-44.48
-37.61
-29.05
-22.44
-19.90
-20.78
-22.12
-20.75
-15.36
-7.51
-0.53
2.77
1.85
-1.35
-3.88
-3.68
-0.82
3.00
5.62
5.70
3.29
-0.40
-3.64
-5.10
-4.15
-1.09
3.17
7.51
10.93
13.18
14.68
16.16
17.95
19.60
20.00
18.09
13.90
8.82
4.89
3.61
5.04
7.78
9.96
10.30
8.79
6.23
3.42
0.39
-3.50
-8.72
-14.89
-20.79
-25.03
-26.84
-26.46
-24.77
-22.65
-20.51
-18.37
-16.34
-15.00
-14.99
-16.41
-18.39
-19.50
-18.77
-16.25
-13.05
-10.38
-8.71
-7.73
-7.14
-7.27
-8.82
-11.91
-15.29
-16.48
-13.32
-5.44
4.89
13.77
18.03
17.06
13.17
9.74
9.08
10.88
12.72
11.93
7.72
1.92
-2.11
-1.68
3.42
10.77
16.56
17.98
14.61
8.78
3.95
2.54
4.51
7.57
8.71
6.18
0.40
-6.42
-11.77
-14.19
-14.10
-12.94
-12.26
-12.75
-14.07
-15.19
-15.05
-13.20
-9.80
-5.26
0.09
6.05
12.44
18.70
23.91
26.96
27.04
24.32
20.00
15.84
13.36
13.36
15.97
20.88
27.55
35.32
43.07
49.08
51.42
48.86
41.84
32.43
23.33
16.68
13.19
12.23
12.63
13.63
15.16
17.25
19.23
19.88
18.15
14.21
9.50
5.83
4.16
3.99
4.06
3.44
2.54
2.69
4.95
9.04
13.51
16.78
18.13
17.69
15.73
12.10
6.32
-1.24
-8.74
-13.39
-13.34
-9.34
-4.61
-2.76
-4.99
-9.18
-11.39
-8.83
-1.97
5.66
10.00
9.32
5.22
1.12
-0.41
0.59
1.93
1.32
-1.68
-5.49
-7.77
-7.22
-4.42
-1.11
1.31
2.59
3.38
4.20
4.55
3.20
-0.80
-7.17
-14.44
-20.85
-25.51
-28.42
-29.68
-28.75
-24.80
-17.86
-9.87
-4.30
-4.25
-10.26
-19.51
-27.30
-30.02
-27.23
-21.83
-17.78
-17.33
-19.67
-21.94
-21.45
-17.72
-12.72
-9.22
-8.97
-11.82
-16.27
-20.67
-24.10
-26.69
-28.95
-31.22
-33.14
-33.93
-32.66
-28.70
-22.05
-13.40
-3.89
5.43
13.94
21.53
28.44
34.86
40.65
45.25
48.12
49.04
48.02
45.15
40.32
33.29
24.12
13.49
2.71
-6.75
-13.98
-18.93
-22.22
-24.48
-25.95
-26.58
-26.31
-25.43
-24.31
-22.97
-20.88
-17.26
-11.92
-5.87
-1.04
0.84
-0.77
-4.97
-9.98
-14.39
-17.82
-20.81
-23.65
-25.79
-26.02
-23.46
-18.42
-12.37
-7.27
-4.43
-3.87
-4.49
-5.00
-4.67
-3.60
-2.44
-1.89
-2.16
-2.61
-2.12
0.47
5.67
13.05
21.20
28.13
32.30
33.30
32.35
31.61
33.00
37.27
43.89
51.41
57.71
60.65
58.46
50.42
37.65
23.22
11.32
5.45
6.81
13.62
21.99
27.92
28.99
25.19
18.20
10.13
2.43
-4.25
-9.64
-13.33
-14.91
-14.42
-12.87
-11.92
-13.16
-17.44
-24.55
-33.31
-42.09
-49.14
-52.89
-52.07
-46.21
-35.89
-22.83
-9.50
1.75
9.47
13.50
14.46
13.02
9.09
1.85
-9.34
-24.04
-40.15
-54.39
-63.38
-64.96
-58.95
-46.72
-30.35
-11.85
7.43
26.82
45.73
63.06
77.06
85.88
88.36
84.89
77.81
70.67
66.72
67.44
71.99
77.79
82.01
83.13
81.54
79.03
77.44
77.49
78.57
79.47
79.11
77.01
73.15
67.36
59.48
49.72
38.92
28.68
20.67
15.56
12.79
11.03
9.09
6.37
3.16
0.15
-2.18
-3.73
-4.25
-2.92
1.10
7.84
15.71
21.88
23.55
19.66
11.77
3.49
-1.23
-0.05
6.64
15.89
23.26
24.41
16.58
-0.69
-25.36
-53.60
-80.90
-103.40
-118.88
-127.00
-128.72
-125.26
-117.29
-105.12
-89.33
-71.30
-53.45
-38.50
-28.26
-23.09
-21.77
-22.42
-23.46
-24.19
-24.80
-25.77
-27.38
-29.41
-31.50
-33.44
-35.57
-38.52
-42.95
-48.99
-55.96
-62.42
-66.31
-65.58
-58.65
-45.01
-25.46
-2.16
21.60
41.99
55.42
59.36
52.81
36.78
14.00
-11.55
-35.73
-55.23
-68.29
-74.87
-76.14
-73.40
-67.41
-57.98
-44.59
-27.21
-7.22
12.47
28.13
36.85
37.76
32.63
24.89
17.95
13.68
11.98
11.39
10.17
7.39
3.03
-2.31
-8.18
-14.39
-20.86
-27.27
-32.80
-36.32
-36.74
-33.39
-25.99
-14.63
0.18
17.36
35.11
51.20
63.53
70.87
73.11
71.26
66.87
61.38
55.74
50.20
44.71
39.25
34.11
29.76
26.76
25.46
25.97
28.09
31.31
34.91
37.91
39.07
37.13
31.09
20.57
6.06
-11.16
-29.42
-47.03
-62.62
-75.32
-84.68
-90.54
-92.88
-91.59
-86.48
-77.37
-64.34
-48.11
-30.15
-12.48
2.88
14.64
22.71
28.03
31.83
34.91
37.16
37.87
36.43
32.89
28.08
23.23
19.28
16.75
15.80
16.60
19.52
25.07
33.43
44.24
56.47
68.56
78.77
85.70
88.46
86.99
81.97
74.55
66.01
57.26
48.79
40.70
32.98
25.74
19.30
14.04
10.12
7.41
5.46
3.71
1.63
-1.17
-4.91
-9.52
-14.73
-20.24
-25.90
-31.73
-37.72
-43.64
-48.79
-52.25
-53.15
-51.17
-46.68
-40.61
-34.07
-28.12
-23.62
-21.16
-21.02
-23.12
-26.90
-31.29
-35.06
-37.16
-37.01
-34.72
-30.88
-26.34
-21.91
-18.24
-15.71
-14.48
-14.55
-15.69
-17.53
-19.57
-21.33
-22.60
-23.53
-24.67
-26.68
-29.87
-33.97
-38.06
-41.04
-42.16
-41.42
-39.51
-37.30
-35.32
-33.39
-30.80
-26.78
-21.24
-14.95
-9.44
-6.21
-6.01
-8.51
-12.35
-15.87
-17.89
-18.22
-17.50
-16.63
-16.14
-15.81
-14.87
-12.55
-8.76
-4.26
-0.32
2.01
2.71
2.95
4.71
9.65
18.11
28.81
39.45
47.89
53.36
56.71
59.68
63.56
68.23
72.08
72.87
69.26
61.61
51.93
42.79
35.90
31.37
27.80
23.35
16.94
8.74
-0.08
-8.13
-14.71
-20.08
-25.10
-30.41
-35.90
-40.84
-44.36
-46.07
-46.32
-45.88
-45.31
-44.48
-42.80
-39.71
-35.16
-29.79
-24.63
-20.48
-17.42
-14.98
-12.54
-10.02
-7.91
-6.94
-7.60
-9.78
-12.84
-15.95
-18.46
-20.07
-20.66
-20.09
-18.12
-14.75
-10.36
-5.80
-2.06
0.27
1.38
2.31
4.45
8.89
15.70
23.81
31.24
35.87
36.38
33.04
27.53
22.08
18.45
17.27
18.19
20.44
23.37
26.56
29.45
31.14
30.68
27.78
23.14
18.40
15.33
15.08
17.70
22.34
27.68
32.51
35.88
37.34
36.83
34.99
33.20
33.27
36.54
42.77
49.85
54.60
54.45
49.03
40.43
31.87
25.66
21.67
17.61
10.81
0.55
-10.87
-19.20
-21.11
-16.70
-10.04
-6.91
-11.15
-22.14
-35.04
-43.93
-45.32
-40.10
-32.42
-26.86
-25.56
-27.37
-29.34
-29.09
-26.43
-23.03
-20.91
-20.88
-21.95
-22.38
-20.98
-17.92
-14.53
-12.21
-11.50
-11.86
-12.21
-11.69
-10.21
-8.20
-6.36
-5.00
-3.98
-2.91
-1.50
0.21
1.84
2.92
3.18
2.60
1.59
0.65
0.05
-0.27
-0.77
-1.93
-4.06
-6.94
-9.95
-12.37
-13.74
-14.28
-14.68
-15.73
-17.90
-21.07
-24.50
-27.26
-28.72
-28.84
-28.25
-27.69
-27.65
-27.88
-27.65
-26.34
-23.82
-20.68
-17.71
-15.35
-13.26
-10.61
-6.62
-1.18
5.06
10.99
15.77
19.28
21.98
24.38
26.44
27.57
27.07
24.80
21.45
18.30
16.43
16.15
16.90
17.73
17.86
17.23
16.39
16.15
16.90
18.44
19.96
20.59
19.80
17.69
14.93
12.37
10.67
9.99
10.05
10.32
10.40
10.22
10.03
10.27
11.12
12.39
13.50
13.70
12.41
9.47
5.19
0.20
-4.85
-9.44
-13.27
-16.45
-19.28
-22.10
-25.06
-27.86
-29.96
-30.70
-29.59
-26.51
-21.77
-16.00
-9.87
-3.93
1.57
6.61
11.32
15.74
19.69
22.85
24.88
25.61
25.23
24.15
22.93
22.01
21.57
21.54
21.73
22.02
22.35
22.82
23.56
24.68
26.20
28.01
29.85
31.33
31.96
31.33
29.49
26.90
24.33
22.33
21.05
20.03
18.55
16.15
12.93
9.56
6.88
5.40
5.05
5.28
5.51
5.54
5.43
5.07
3.93
1.25
-3.58
-10.28
-17.59
-23.69
-26.93
-26.67
-23.49
-18.96
-14.82
-12.26
-11.42
-11.62
-11.73
-10.63
-7.77
-3.26
2.14
7.26
10.89
12.31
11.57
9.33
6.53
3.92
1.72
-0.33
-2.73
-5.60
-8.50
-10.66
-11.53
-11.23
-10.59
-10.79
-12.61
-15.96
-19.93
-23.40
-25.75
-27.00
-27.59
-27.86
-27.77
-27.06
-25.75
-24.40
-24.00
-25.44
-28.85
-33.51
-38.03
-41.12
-41.99
-40.76
-38.15
-35.22
-32.80
-31.30
-30.53
-29.80
-28.25
-25.25
-20.80
-15.61
-10.61
-6.52
-3.48
-0.93
2.04
6.22
11.73
17.96
23.72
27.83
29.62
29.24
27.48
25.36
23.70
22.83
22.63
22.57
22.17
21.16
19.55
17.45
14.85
11.63
7.78
3.47
-0.73
-4.07
-5.98
-6.34
-5.55
-4.43
-3.72
-3.89
-5.03
-6.89
-9.22
-11.87
-14.66
-17.22
-18.97
-19.29
-18.00
-15.56
-13.08
-11.88
-12.87
-16.10
-20.63
-25.14
-28.39
-29.74
-29.28
-27.55
-25.30
-23.09
-21.10
-19.07
-16.45
-12.71
-7.68
-1.81
4.14
9.24
12.96
15.31
16.77
17.94
19.13
20.13
20.39
19.58
17.78
15.77
14.44
14.30
15.20
16.47
17.43
17.80
17.71
17.35
16.54
14.72
11.38
6.84
2.56
0.72
2.78
8.39
15.22
20.21
21.18
18.14
13.33
9.71
9.09
11.19
14.22
16.22
16.41
15.41
14.58
14.88
16.04
17.03
16.97
15.73
13.89
12.18
11.01
10.20
9.31
7.96
6.20
4.39
2.90
1.96
1.61
1.81
2.38
2.85
2.56
1.13
-1.23
-3.50
-4.37
-3.00
0.08
3.03
3.80
1.51
-2.80
-6.58
-7.19
-3.47
3.40
10.61
15.43
16.75
15.63
14.42
15.31
18.95
24.31
29.35
32.44
33.10
31.99
30.33
29.13
28.64
28.44
27.92
26.66
24.81
22.78
20.95
19.37
17.73
15.63
12.79
9.35
5.64
1.94
-1.57
-4.86
-7.85
-10.42
-12.40
-13.82
-15.05
-16.84
-19.85
-24.15
-28.93
-32.76
-34.37
-33.42
-30.93
-28.83
-29.01
-32.28
-37.93
-44.10
-48.61
-50.01
-48.13
-44.03
-39.29
-35.28
-32.44
-30.32
-27.87
-24.12
-18.98
-13.24
-8.04
-3.93
-0.25
4.43
11.08
19.01
25.94
28.94
26.57
20.05
12.90
8.90
9.66
13.52
16.66
15.79
10.37
3.17
-1.68
-1.62
2.52
7.14
8.36
4.67
-1.99
-7.74
-9.31
-6.22
-0.97
2.98
3.54
1.27
-1.39
-2.27
-1.07
0.36
-0.61
-5.49
-13.46
-22.00
-28.46
-31.55
-31.78
-30.74
-29.77
-29.34
-29.09
-28.39
-27.19
-26.21
-26.43
-28.57
-32.44
-37.07
-41.14
-43.65
-44.09
-42.39
-38.50
-32.20
-23.47
-12.77
-1.23
9.51
17.87
22.91
24.69
24.14
22.46
20.67
19.35
18.78
18.97
20.16
22.57
26.07
29.82
32.38
32.39
29.56
25.19
21.85
21.88
25.69
31.04
34.15
32.10
24.98
16.26
10.63
10.65
14.83
18.51
17.12
9.68
-0.28
-7.11
-7.04
-1.10
5.50
6.91
0.76
-9.92
-18.76
-20.46
-14.28
-4.54
2.41
2.39
-4.27
-13.36
-19.97
-21.62
-19.37
-16.45
-15.61
-17.22
-19.10
-18.42
-13.88
-6.65
0.46
4.78
5.31
3.36
1.66
2.84
7.86
15.67
23.70
29.21
30.64
28.40
24.68
22.34
23.40
27.93
34.05
38.92
40.27
37.91
33.86
31.26
32.44
37.42
43.70
47.71
46.75
40.64
31.81
23.83
19.35
18.75
20.23
21.21
19.88
16.07
10.88
5.57
0.64
-4.08
-8.73
-12.83
-15.38
-15.80
-14.80
-14.32
-16.57
-22.74
-32.10
-42.26
-50.47
-54.79
-54.95
-52.09
-47.77
-43.07
-38.32
-33.28
-27.86
-22.41
-17.66
-14.36
-12.83
-12.68
-12.91
-12.14
-9.40
-4.60
1.21
6.25
8.97
8.97
7.36
5.91
6.30
9.00
13.04
16.51
17.70
16.06
12.61
9.25
7.66
8.49
10.82
12.68
12.28
9.20
4.64
0.60
-1.53
-2.02
-2.73
-5.76
-11.68
-18.68
-23.56
-24.06
-20.62
-16.44
-15.29
-18.83
-25.18
-29.96
-29.15
-22.14
-12.29
-4.78
-3.32
-7.81
-14.76
-19.74
-20.43
-17.93
-15.68
-16.58
-20.65
-24.95
-25.54
-20.21
-10.02
1.33
9.90
13.87
14.22
13.64
14.26
16.12
17.39
15.95
11.37
5.47
1.19
0.74
4.18
9.54
14.27
16.74
16.85
15.62
14.06
12.55
10.90
9.17
7.87
7.82
9.43
12.11
14.41
14.63
11.89
6.59
0.22
-5.58
-9.62
-11.63
-12.10
-11.84
-11.56
-11.59
-11.97
-12.65
-13.58
-14.79
