99.35
102.34
104.35
104.65
103.07
100.11
96.8
94.33
93.5
94.37
96.08
97.09
95.57
89.96
79.42
64.06
44.99
23.92
2.69
-17.36
-35.72
-52.81
-69.71
-87.69
-107.7
-130.01
-154.02
-178.37
-201.2
-220.58
-234.99
-243.61
-246.38
-243.71
-236.06
-223.69
-206.68
-185.28
-160.41
-133.78
-107.61
-83.99
-64.3
-48.78
-36.79
-27.17
-18.86
-11.23
-4.07
2.55
8.6
14.14
19.38
24.4
29.09
32.97
35.44
36
34.54
31.46
27.55
23.64
20.26
17.44
14.66
11.22
6.55
0.42
-6.89
-14.78
-22.52
-29.59
-35.78
-41.34
-46.85
-53.15
-61.04
-71.03
-82.99
-95.88
-107.78
-116.18
-118.67
-113.66
-100.98
-81.86
-58.6
-33.83
-9.83
11.87
30.53
46.03
58.54
68.34
75.69
80.88
84.18
85.86
86.21
85.54
84.17
82.5
80.89
79.67
78.99
78.78
78.72
78.34
77.13
74.72
71
66.15
60.55
54.57
48.42
42.04
35.19
27.6
19.18
10.11
0.82
-8.19
-16.51
-24
-30.79
-37.3
-44.09
-51.76
-60.79
-71.23
-82.46
-93.02
-100.73
-103.25
-98.76
-86.73
-68.16
-45.36
-21.21
1.71
21.69
38.03
50.77
60.24
66.69
70.23
71.02
69.42
66.19
62.31
58.78
56.24
54.8
54.08
53.42
52.25
50.32
47.78
45.01
42.33
39.72
36.77
32.83
27.3
19.93
10.99
1.15
-8.74
-17.96
-26.14
-33.41
-40.24
-47.36
-55.49
-65.21
-76.67
-89.33
-101.84
-112.04
-117.45
-115.93
-106.39
-89.29
-66.52
-40.91
-15.3
8.1
28.11
44.48
57.52
67.7
75.32
80.54
83.45
84.25
83.33
81.27
78.71
76.2
74.02
72.21
70.6
68.9
66.9
64.43
61.45
57.9
53.76
49.01
43.59
37.46
30.57
22.9
14.48
5.5
-3.7
-12.74
-21.25
-29.1
-36.41
-43.52
-50.94
-59.19
-68.74
-79.84
-92.3
-105.17
-116.68
-124.37
-125.74
-119.06
-104.06
-82.17
-56.07
-28.9
-3.27
19.23
38.11
53.61
66.21
76.3
84.08
89.63
93.07
94.68
94.82
93.87
92.13
89.82
87.09
84.08
80.99
78.07
75.5
73.27
71.12
68.52
64.88
59.77
53.16
45.43
37.23
29.23
21.81
14.96
8.3
1.32
-6.38
-14.83
-23.71
-32.43
-40.41
-47.28
-53.08
-58.31
-63.82
-70.61
-79.41
-90.24
-102.1
-112.95
-120.11
-121.02
-114.12
-99.43
-78.56
-54.2
-29.27
-6.11
13.93
30.46
43.66
53.89
61.4
66.32
68.76
69.01
67.56
65.07
62.2
59.46
57.12
55.22
53.61
52.1
50.53
48.79
46.85
44.66
42.16
39.19
35.51
30.87
25.11
18.27
10.64
2.72
-4.98
-12.09
-18.5
-24.37
-30.02
-35.81
-42.03
-48.95
-56.78
-65.59
-75.15
-84.62
-92.57
-97.11
-96.47
-89.55
-76.41
-58.31
-37.34
-15.8
4.36
21.93
36.38
47.7
56.04
61.61
64.66
65.53
64.77
63
60.83
58.69
56.73
54.84
52.89
50.83
48.76
46.88
45.3
43.85
42.15
39.65
35.96
30.99
25.01
18.53
12.06
5.95
0.21
-5.39
-11.21
-17.53
-24.41
-31.64
-38.81
-45.53
-51.56
-56.98
-62.21
-67.89
-74.76
-83.33
-93.59
-104.74
-115.07
-122.27
-124.01
-118.69
-106.09
-87.46
-65.17
-41.87
-19.74
-0.05
16.89
31.32
43.64
54.06
62.59
69.09
73.45
75.71
76.11
75.03
72.99
70.51
68.03
65.78
63.84
62.12
60.51
58.9
57.25
55.44
53.33
50.66
47.15
42.64
37.14
30.88
24.24
17.64
11.38
5.6
0.22
-4.94
-10.15
-15.65
-21.57
-27.9
-34.54
-41.24
-47.78
-53.95
-59.69
-65.14
-70.65
-76.78
-84.11
-93.01
-103.26
-113.77
-122.62
-127.46
-126.17
-117.66
-102.25
-81.61
-58.23
-34.67
-12.95
5.8
21.28
33.67
43.36
50.7
55.96
59.33
61.05
61.4
60.73
59.37
57.58
55.51
53.26
50.91
48.64
46.67
45.21
44.25
43.52
42.48
40.54
37.3
32.7
27.11
21.11
15.24
9.81
4.77
-0.17
-5.37
-11.04
-17.13
-23.38
-29.43
-34.99
-39.91
-44.28
-48.36
-52.56
-57.39
-63.36
-70.66
-78.97
-87.17
-93.49
-95.84
-92.54
-82.9
-67.56
-48.33
-27.57
-7.55
10.17
24.86
36.46
45.25
51.58
55.75
58.03
58.75
58.3
57.13
55.6
53.95
52.27
50.58
48.9
47.33
45.99
44.93
44.02
42.95
41.27
38.59
34.7
29.68
23.86
17.67
11.47
5.43
-0.45
-6.34
-12.44
-18.89
-25.7
-32.72
-39.69
-46.28
-52.31
-57.82
-63.22
-69.15
-76.35
-85.2
-95.34
-105.47
-113.5
-117.06
-114.32
-104.56
-88.51
-68.07
-45.67
-23.58
-3.36
14.23
29.05
41.25
51.01
58.51
63.97
67.69
70.05
71.35
71.72
71.17
69.67
67.3
64.35
61.33
58.7
56.76
55.47
54.46
53.2
51.09
47.77
43.12
37.33
30.82
24.06
17.45
11.12
4.98
-1.27
-7.93
-15.15
-22.81
-30.58
-38.02
-44.81
-50.9
-56.57
-62.44
-69.28
-77.78
-88.13
-99.72
-110.95
-119.47
-122.8
-119.07
-107.77
-89.92
-67.75
-43.98
-21.05
-0.55
16.83
31.07
42.49
51.46
58.29
63.21
66.43
68.24
68.9
68.67
67.79
66.43
64.76
62.93
61.1
59.42
58
56.81
55.6
53.99
51.49
47.78
42.81
36.86
30.38
23.86
17.52
11.34
5.1
-1.45
-8.39
-15.58
-22.65
-29.25
-35.1
-40.22
-44.88
-49.63
-55.18
-62.17
-70.85
-80.78
-90.57
-98.11
-101.02
-97.46
-86.73
-69.64
-48.33
-25.51
-3.74
15.22
30.62
42.55
51.45
57.8
61.84
63.68
63.43
61.44
58.3
54.75
51.48
48.86
46.96
45.53
44.19
42.64
40.69
38.36
35.72
32.89
29.87
26.52
22.58
17.73
11.75
4.64
-3.29
-11.46
-19.21
-26.1
-32.02
-37.28
-42.5
-48.37
-55.48
-64.1
-74.05
-84.54
-94.1
-100.8
-102.62
-98.07
-86.71
-69.46
-48.37
-26
-4.73
13.86
29.11
41.14
50.38
57.27
62.08
64.92
65.94
65.4
63.74
61.45
58.98
56.68
54.74
53.21
52.04
51.09
50.1
48.77
46.79
43.93
40.11
35.42
30.07
24.27
18.16
11.74
4.95
-2.26
-9.79
-17.45
-24.96
-32.06
-38.68
-44.96
-51.23
-57.97
-65.65
-74.6
-84.79
-95.5
-105.29
-112.1
-113.74
-108.63
-96.41
-78.17
-56.14
-33
-11.06
8.25
24.44
37.7
48.45
57.03
63.59
68.22
71.03
72.28
72.29
71.41
69.94
68.07
66.01
63.92
61.94
60.16
58.53
56.8
54.57
51.44
47.15
41.75
35.56
29.03
22.6
16.44
10.47
4.4
-2.06
-9.1
-16.62
-24.33
-31.82
-38.72
-44.86
-50.33
-55.49
-60.93
-67.29
-74.99
-83.95
-93.24
-101.13
-105.42
-104.05
-95.87
-81.11
-61.45
-39.48
-17.92
1.17
16.79
28.93
38.2
45.24
50.43
53.81
55.27
54.85
52.91
50.11
47.24
44.95
43.5
42.72
42.14
41.24
39.72
37.62
35.19
32.7
30.25
27.66
24.58
20.63
15.61
9.63
3.01
-3.76
-10.27
-16.25
-21.65
-26.62
-31.43
-36.46
-42.14
-48.89
-56.9
-65.96
-75.16
-82.9
-87.2
-86.23
-78.97
-65.68
-47.86
-27.82
-7.93
9.99
25.03
37.05
46.39
53.43
58.37
61.24
62.01
60.79
57.99
54.26
50.36
46.97
44.45
42.84
41.88
41.16
40.33
39.11
37.43
35.24
32.49
29.07
24.81
19.56
13.27
6.04
-1.86
-10
-17.94
-25.3
-31.94
-37.96
-43.67
-49.52
-55.97
-63.47
-72.31
-82.51
-93.55
-104.18
-112.55
-116.48
-114.16
-104.79
-88.94
-68.44
-45.83
-23.59
-3.52
13.56
27.6
38.99
48.17
55.4
60.82
64.56
66.79
67.83
68.01
67.57
66.64
65.24
63.41
61.28
59.12
57.23
55.76
54.57
53.18
50.94
47.33
42.14
35.66
28.52
21.42
14.81
8.71
2.77
-3.49
-10.39
-17.94
-25.78
-33.43
-40.49
-46.82
-52.64
-58.49
-65.06
-73.02
-82.69
-93.76
-105.01
-114.45
-119.65
-118.53
-110.02
-94.5
-73.73
-50.27
-26.67
-4.89
14.02
29.76
42.48
52.4
59.76
64.77
67.74
69.09
69.28
68.72
67.69
66.32
64.69
62.82
60.85
58.95
57.34
56.1
55.11
54.01
52.29
49.47
45.34
40.04
34.04
27.94
22.21
16.94
11.89
6.53
0.42
-6.62
-14.4
-22.35
-29.85
-36.42
-41.97
-46.81
-51.64
-57.28
-64.47
-73.47
-83.77
-94.02
-102.08
-105.65
-102.87
-93.03
-76.82
-56.16
-33.63
-11.71
7.75
23.76
36.16
45.23
51.44
55.22
56.96
57.02
55.82
53.83
51.58
49.55
48.08
47.29
47.07
47.13
47.15
46.82
45.94
44.43
42.27
39.48
36.06
31.98
27.18
21.64
15.37
8.51
1.27
-6.07
-13.29
-20.22
-26.81
-33.16
-39.4
-45.82
-52.76
-60.59
-69.5
-79.22
-88.74
-96.24
-99.51
-96.52
-86.24
-69.09
-46.88
-22.31
1.85
23.47
41.4
55.46
66.1
74.02
79.88
84.18
87.27
89.42
90.86
91.77
92.34
92.76
93.3
94.34
96.41
100
105.3
111.97
118.88
124.34
126.51
124.05
116.7
105.49
92.53
80.25
70.49
63.7
58.68
52.93
43.64
28.59
6.88
-21.06
-53.85
-89.76
-127.09
-164.32
-200.1
-233.3
-263.02
-288.53
-308.94
-322.88
-328.34
-323.18
-306.02
-277.22
-239.3
-196.39
-152.98
-112.61
-77.14
-46.79
-20.87
1.34
20.24
35.85
48.17
57.45
64.29
69.48
73.78
77.71
81.43
84.76
87.39
89.09
89.89
90.11
90.14
90.27
90.41
90.08
88.59
85.38
80.22
73.45
65.77
58.02
50.84
44.46
38.66
32.91
26.62
19.39
11.16
2.26
-6.74
-15.24
-22.8
-29.31
-35.05
-40.64
-46.84
-54.41
-63.89
-75.39
-88.28
-101.05
-111.43
-116.77
-114.86
-104.66
-86.83
-63.56
-37.88
-12.7
10
29.4
45.55
58.86
69.58
77.7
83.18
86.17
87.2
87.06
86.53
86.15
86.04
86.09
86.06
85.84
85.51
85.31
85.46
86.01
86.71
87.07
86.5
84.56
81.13
76.54
71.44
66.57
62.46
59.29
56.84
54.66
52.3
49.46
46.07
42.2
38.02
33.68
29.29
24.98
20.79
16.65
12.32
7.45
1.8
-4.44
-10.6
-15.54
-18.03
-17.2
-12.93
-5.9
2.57
10.92
17.75
22.06
23.34
21.61
17.31
11.29
4.66
-1.38
-5.81
-8.17
-8.77
-8.79
-10.03
-14.47
-23.68
-38.32
-57.82
-80.5
-103.84
-125.07
-141.76
-152.24
-155.85
-152.99
-144.93
-133.48
-120.72
-108.54
-98.36
-90.96
-86.43
-84.35
-83.99
-84.56
-85.48
-86.47
-87.66
-89.55
-92.9
-98.45
-106.45
-116.3
-126.34
-133.97
-136.32
-131.09
-117.36
-95.98
-69.34
-40.58
-12.68
12.3
33.45
50.79
64.79
75.89
84.38
90.39
94.11
95.9
96.27
95.79
94.85
93.63
92.14
90.36
88.38
86.43
84.8
83.66
82.87
81.96
80.21
76.93
71.74
64.8
56.71
48.35
40.5
33.53
27.26
21.12
14.45
6.81
-1.8
-10.94
-19.98
-28.36
-35.85
-42.59
-49.09
-56.11
-64.45
-74.7
-86.88
-100.07
-112.27
-120.78
-122.83
-116.6
-101.87
-80.21
-54.48
-27.85
-2.92
18.79
36.82
51.34
62.77
71.47
77.69
81.65
83.7
84.27
83.8
82.63
81
78.97
76.63
74.1
71.62
69.47
67.86
66.76
65.83
64.5
62.16
58.38
53.1
46.65
39.58
32.46
25.64
19.13
12.63
5.74
-1.81
-10.04
-18.58
-26.89
-34.43
-40.94
-46.56
-51.81
-57.52
-64.56
-73.45
-84.02
-95.08
-104.49
-109.57
-107.89
-98.15
-80.76
-57.77
-32.28
-7.43
14.42
32.11
45.58
55.36
62.05
66.05
67.55
66.75
64.13
60.41
56.51
53.22
50.97
49.7
49.02
48.43
47.51
46.08
44.15
41.8
39.02
35.75
31.87
27.31
21.99
15.86
8.91
1.18
-7.13
-15.67
-23.95
-31.59
-38.48
-44.84
-51.22
-58.33
-66.79
-76.91
-88.4
-100.29
-110.78
-117.59
-118.39
-111.54
-96.77
-75.38
-49.96
-23.63
0.83
21.62
38.11
50.62
59.88
66.6
71.26
74.08
75.14
74.58
72.7
69.95
66.85
63.91
61.48
59.73
58.64
58.01
57.54
56.87
55.58
53.27
49.68
44.76
38.72
31.96
24.88
17.71
10.42
2.83
-5.23
-13.71
-22.3
-30.57
-38.12
-44.81
-50.85
-56.78
-63.41
-71.54
-81.74
-93.87
-106.81
-118.33
-125.53
-125.68
-117.13
-100.05
-76.41
-49.44
-22.5
1.78
22.06
38.18
50.65
60.19
67.33
72.37
75.54
77.11
77.44
76.92
75.82
74.31
72.36
69.99
67.26
64.44
61.86
59.82
58.4
57.32
56.04
53.83
50.15
44.81
38.12
30.73
23.41
16.72
10.81
5.42
0
-5.96
-12.72
-20.16
-27.82
-35.07
-41.44
-46.8
-51.46
-56.08
-61.51
-68.55
-77.64
-88.56
-100.22
-110.67
-117.38
-117.91
-110.69
-95.64
-74.32
-49.5
-24.31
-1.37
17.76
32.68
43.75
51.67
57.03
60.23
61.54
61.23
59.64
57.26
54.58
52.01
49.82
48.09
46.76
45.7
44.7
43.61
42.27
40.57
38.4
35.66
32.27
28.13
23.15
17.27
10.52
3.1
-4.63
-12.25
-19.39
-25.88
-31.83
-37.59
-43.61
-50.34
-58.15
-67.17
-77.17
-87.38
-96.34
-102.12
-102.68
-96.56
-83.45
-64.46
-41.87
-18.44
3.36
21.89
36.54
47.49
55.3
60.55
63.63
64.82
64.38
62.68
60.19
57.38
54.64
52.17
49.98
48.03
46.27
44.73
43.41
42.18
40.72
38.62
35.49
31.15
25.77
19.72
13.4
7.02
0.57
-6.15
-13.31
-20.93
-28.75
-36.38
-43.44
-49.75
-55.43
-60.88
-66.7
-73.58
-82.07
-92.25
-103.47
-114.17
-122.03
-124.61
-120.08
-107.94
-89.29
-66.45
-42.22
-19.01
1.7
19.35
34.03
46.05
55.64
62.94
68.06
71.23
72.78
73.12
72.63
71.59
70.19
68.52
66.63
64.57
62.45
60.44
58.73
57.35
56.11
54.55
52.13
48.36
43.06
36.47
29.17
21.84
15
8.83
3.1
-2.69
-9.03
-16.18
-23.97
-31.93
-39.43
-46.01
-51.53
-56.32
-61.04
-66.53
-73.6
-82.66
-93.43
-104.73
-114.5
-120.23
-119.68
-111.61
-96.26
-75.4
-51.71
-28.01
-6.47
11.75
26.49
38.12
47.17
53.99
58.74
61.47
62.29
61.58
59.86
57.74
55.73
54.11
52.89
51.97
51.15
50.31
49.34
48.13
46.5
44.22
41.08
36.98
32.03
26.51
20.71
14.89
9.08
3.16
-3.07
-9.71
-16.65
-23.62
-30.26
-36.34
-41.91
-47.31
-53.15
-60.01
-68.27
-77.7
-87.32
-95.37
-99.65
-98.17
-89.82
-74.83
-54.8
-32.23
-9.75
10.55
27.5
40.83
50.76
57.67
61.95
63.9
63.92
62.5
60.2
57.52
54.81
52.21
49.75
47.45
45.36
43.61
42.25
41.18
40.07
38.42
35.72
31.7
26.42
20.25
13.74
7.3
1.08
-5.07
-11.46
-18.33
-25.65
-33.15
-40.45
-47.21
-53.36
-59.06
-64.72
-70.87
-78.1
-86.86
-97.2
-108.44
-118.97
-126.38
-128.12
-122.33
-108.57
-88.14
-63.6
-37.98
-13.79
7.54
25.56
40.45
52.55
62.02
68.97
73.59
76.31
77.69
78.33
78.58
78.49
77.9
76.59
74.53
71.89
69.05
66.42
64.18
62.2
59.99
56.9
52.35
46.1
38.4
29.89
21.35
13.38
6.13
-0.71
-7.73
-15.41
-23.89
-32.85
-41.61
-49.49
-56.12
-61.64
-66.68
-72.2
-79.15
-88.11
-98.98
-110.66
-121.12
-127.79
-128.24
-120.95
-105.89
-84.59
-59.63
-33.92
-9.92
10.86
27.87
41.24
51.45
58.97
64.13
67.12
68.14
67.47
65.57
63.06
60.62
58.73
57.61
57.07
56.72
56.12
55
53.32
51.16
48.59
45.57
41.95
37.53
32.2
25.96
18.93
11.35
3.51
-4.24
-11.52
-18.08
-23.84
-29.03
-34.2
-40.07
-47.4
-56.58
-67.44
-78.93
-89.23
-96
-96.99
-90.72
-77.06
-57.4
-34.25
-10.56
11.14
29.28
43.38
53.78
61.12
65.94
68.53
69.04
67.74
65.12
61.89
58.75
56.15
54.19
52.71
51.46
50.33
49.32
48.42
47.48
46.11
43.84
40.34
35.58
29.84
23.51
16.91
10.13
3.03
-4.54
-12.62
-21
-29.31
-37.1
-44.09
-50.26
-55.87
-61.47
-67.76
-75.49
-85.11
-96.54
-108.76
-119.78
-126.92
-127.51
-119.84
-103.82
-81.14
-54.74
-27.9
-3.3
17.57
34.38
47.58
57.87
65.83
71.8
75.98
78.54
79.7
79.73
78.88
77.39
75.35
72.88
70.12
67.3
64.72
62.6
60.95
59.49
57.67
54.89
50.69
45
38.15
30.74
23.42
16.57
10.22
4.03
-2.49
-9.75
-17.84
-26.5
-35.13
-43.09
-49.89
-55.47
-60.29
-65.23
-71.39
-79.65
-90.22
-102.25
-113.74
-121.87
-123.82
-117.7
-103.28
-82.17
-57.21
-31.64
-8.06
12.02
28.23
40.94
50.71
58.02
63.16
66.37
67.95
68.27
67.75
66.71
65.39
63.9
62.32
60.65
58.95
57.36
56.01
55.01
54.28
53.49
52.11
49.53
45.35
39.61
32.83
25.79
19.29
13.67
8.78
4.04
-1.2
-7.29
-14.13
-21.18
-27.83
-33.6
-38.48
-42.86
-47.43
-52.93
-59.98
-68.81
-79.05
-89.57
-98.43
-103.24
-101.79
-92.87
-76.82
-55.56
-31.99
-9.06
11.03
27.27
39.62
48.6
54.74
58.36
59.66
58.95
56.77
53.87
51
48.66
46.98
45.83
44.94
44.1
43.26
42.49
41.86
41.25
40.33
38.6
35.62
31.22
25.63
19.39
13.14
7.36
2.1
-2.94
-8.28
-14.4
-21.43
-29.11
-36.87
-44.08
-50.28
-55.4
-59.81
-64.28
-69.77
-77.09
-86.53
-97.47
-108.25
-116.43
-119.36
-115.1
-103.02
-84.17
-60.9
-36.18
-12.71
7.66
24.17
36.93
46.51
53.59
58.64
62.01
63.92
64.62
64.43
63.68
62.71
61.68
60.67
59.59
58.38
57
55.55
54.16
52.88
51.61
50.03
47.71
44.29
39.62
33.88
27.47
20.93
14.66
8.82
3.3
-2.2
-7.97
-14.22
-20.97
-28.05
-35.14
-41.85
-47.88
-53.08
-57.61
-62.04
-67.19
-73.94
-82.83
-93.55
-104.74
-114.05
-118.71
-116.39
-106
-88.13
-64.87
-39.15
-13.82
9.07
28.57
44.66
57.77
68.41
76.81
82.98
86.88
88.58
88.42
86.95
84.8
82.44
80.08
77.69
75.17
72.59
70.24
68.54
67.83
68.06
68.69
68.86
67.69
64.65
59.81
53.84
47.79
42.71
39.31
37.68
37.29
37.18
36.34
34.16
30.65
26.43
22.42
19.42
17.65
16.71
15.7
13.61
9.73
3.85
-3.64
-11.7
-18.7
-22.67
-21.78
-15.07
-3.14
11.73
26.14
36.81
41.89
41.64
38.24
34.59
32.84
33.24
33.94
31.68
23.03
5.62
-21.11
-55.79
-95.6
-136.98
-176.45
-211.11
-238.85
-258.19
-268.09
-267.92
-257.67
-238.35
-212.15
-182.19
-151.82
-123.8
-99.66
-79.66
-63.3
-49.97
-39.54
-32.26
-28.5
-28.14
-30.42
-33.98
-37.42
-39.78
-40.96
-41.77
-43.57
-47.78
-55.12
-65.1
-75.86
-84.47
-87.84
-83.68
-71.33
-51.95
-28.1
-2.85
21.14
42.19
59.67
73.66
84.55
92.65
98.15
101.23
102.16
101.39
99.55
97.2
94.8
92.53
90.38
88.26
86.05
83.78
81.49
79.19
76.72
73.75
69.86
64.69
58.17
50.55
42.35
34.15
26.3
18.84
11.46
3.67
-4.91
-14.34
-24.31
-34.17
-43.3
-51.31
-58.27
-64.81
-71.88
-80.55
-91.5
-104.58
-118.49
-130.84
-138.62
-139.05
-130.57
-113.37
-89.41
-61.77
-33.68
-7.59
15.18
34.35
50.21
63.22
73.66
81.69
87.51
91.37
93.7
94.88
95.27
95.04
94.22
92.87
91.06
88.99
86.94
85.13
83.66
82.38
80.89
78.65
75.11
69.98
63.34
55.67
47.76
40.36
33.92
28.33
23
17.09
9.95
1.42
-8
-17.42
-25.95
-33.06
-38.79
-43.75
-48.78
-54.83
-62.6
-72.31
-83.45
-94.5
-103.01
-106.01
-100.84
-86.15
-62.46
-32.17
1.11
33.72
62.87
87.19
106.71
122.3
135.09
145.94
155.23
162.84
168.46
171.88
173.31
173.37
172.84
172.2
171.43
169.86
166.46
160.13
149.81
134.48
113.13
84.9
49.6
8.25
-36.61
-81.26
-121.86
-155.6
-181.54
-200.59
-214.75
-226.07
-235.81
-244.26
-251.02
-255.6
-257.84
-257.89
-255.98
-252.13
-246.02
-237.13
-224.87
-208.79
-188.67
-164.53
-136.72
-105.95
-73.4
-40.58
-9.18
19.3
43.83
64.03
79.99
92.07
100.68
106.13
108.78
109.06
107.6
105.16
102.47
100.03
98.06
96.52
95.26
94.11
92.87
91.29
89.03
85.75
81.27
75.62
69.11
62.11
54.93
47.64
40.1
32.08
23.41
14.11
4.45
-5.19
-14.36
-22.75
-30.32
-37.31
-44.35
-52.29
-61.96
-73.68
-86.86
-99.76
-109.71
-113.83
-109.96
-97.5
-77.65
-53.04
-26.87
-1.94
19.95
38.13
52.69
64.09
72.73
78.95
83.03
85.32
86.25
86.23
85.58
84.43
82.79
80.66
78.1
75.34
72.7
70.51
68.88
67.62
66.2
63.92
60.15
54.61
47.51
39.53
31.52
24.16
17.71
11.86
5.94
-0.71
-8.51
-17.31
-26.51
-35.31
-43.07
-49.59
-55.22
-60.81
-67.41
-75.92
-86.62
-98.82
-110.8
-119.99
-123.7
-119.92
-108.01
-88.97
-65.16
-39.52
-14.76
7.22
25.56
40.21
51.64
60.41
67.01
71.78
74.95
76.66
77.02
76.17
74.3
71.64
68.51
65.21
62.11
59.44
57.35
55.73
54.25
52.39
49.65
45.7
40.53
34.46
27.95
21.42
15.09
8.89
2.59
-4.05
-11.08
-18.34
-25.43
-31.94
-37.56
-42.29
-46.48
-50.85
-56.25
-63.44
-72.59
-82.95
-92.75
-99.43
-100.43
-94
-79.97
-59.85
-36.4
-12.74
8.6
26.16
39.63
49.41
56.15
60.36
62.33
62.24
60.34
57.13
53.26
49.46
46.34
44.2
43
42.37
41.83
40.9
39.27
36.87
33.75
30.05
25.87
21.25
16.13
10.41
3.96
-3.22
-10.99
-19.02
-26.86
-34.13
-40.64
-46.48
-51.98
-57.6
-63.8
-70.94
-79.21
-88.43
-97.83
-105.96
-110.82
-110.31
-102.94
-88.46
-68.16
-44.48
-20.32
1.84
20.53
35.38
46.79
55.42
61.76
66.04
68.32
68.72
67.56
65.38
62.77
60.21
57.96
56.01
54.28
52.63
51.05
49.53
48.04
46.4
44.26
41.19
36.88
31.3
24.72
17.66
10.64
3.98
-2.31
-8.51
-14.96
-21.84
-29.09
-36.37
-43.28
-49.62
-55.51
-61.44
-68.16
-76.4
-86.5
-98.03
-109.61
-119.01
-123.66
-121.36
-111.14
-93.61
-70.89
-45.92
-21.6
0
17.96
32.29
43.49
52.1
58.48
62.82
65.34
66.33
66.17
65.22
63.7
61.76
59.51
57.13
54.87
52.98
51.59
50.57
49.58
48.12
45.72
42.13
37.37
31.7
25.56
19.32
13.21
7.2
1.08
-5.38
-12.29
-19.5
-26.68
-33.43
-39.5
-44.93
-50.07
-55.57
-62.13
-70.29
-80.11
-90.86
-100.97
-108.22
-110.23
-105.26
-92.78
-73.82
-50.72
-26.42
-3.66
15.71
30.98
42.34
50.45
55.95
59.24
60.47
59.82
57.68
54.71
51.67
49.22
47.66
46.8
46.18
45.26
43.75
41.64
39.19
36.71
34.28
31.7
28.47
24.05
18.1
10.65
2.14
-6.75
-15.34
-23.2
-30.22
-36.6
-42.76
-49.22
-56.48
-64.98
-74.85
-85.7
-96.37
-104.92
-109.03
-106.66
-96.85
-80.18
-58.64
-35.06
-12.2
7.93
24.44
37.39
47.33
54.85
60.31
63.78
65.27
64.92
63.11
60.41
57.51
54.95
53.05
51.83
51.06
50.4
49.52
48.16
46.14
43.39
39.9
35.67
30.76
25.21
19.06
12.29
4.87
-3.22
-11.88
-20.92
-30.01
-38.79
-46.98
-54.53
-61.59
-68.63
-76.29
-85.17
-95.48
-106.62
-117.02
-124.25
-125.74
-119.59
-105.38
-84.37
-59.23
-33.1
-8.75
12.16
29.12
42.52
53.09
61.47
68.04
72.91
76.1
77.65
77.72
76.59
74.6
72.12
69.46
66.83
64.37
62.09
59.91
57.65
55.08
51.91
47.95
43.09
37.41
31.09
24.34
17.32
10.08
2.53
-5.37
-13.6
-21.97
-30.14
-37.76
-44.67
-50.93
-56.94
-63.31
-70.74
-79.75
-90.34
-101.75
-112.26
-119.47
-120.87
-114.68
-100.57
-79.88
-55.29
-29.9
-6.43
13.52
29.49
41.79
51.04
57.7
61.99
64
63.94
62.26
59.65
56.85
54.48
52.77
51.61
50.62
49.4
47.73
45.71
43.62
41.67
39.82
37.67
34.56
29.9
23.45
15.47
6.68
-2.05
-9.98
-16.79
-22.59
-27.86
-33.23
-39.32
-46.64
-55.48
-65.7
-76.51
-86.37
-93.09
-94.42
-88.8
-75.98
-57.24
-35.07
-12.34
8.51
26
39.7
49.91
57.17
61.92
64.43
64.84
63.43
60.65
57.19
53.74
50.9
48.92
47.71
46.89
45.96
44.53
42.43
39.73
36.63
33.31
29.76
25.73
20.85
14.77
7.38
-1.08
-10.09
-19.02
-27.33
-34.78
-41.45
-47.67
-53.92
-60.73
-68.69
-78.17
-89.16
-100.87
-111.59
-118.89
-120.28
-114.01
-99.85
-79.25
-54.89
-29.85
-6.66
13.21
29.42
42.34
52.61
60.68
66.77
70.91
73.11
73.51
72.47
70.46
68.01
65.54
63.3
61.35
59.6
57.89
56.06
53.97
51.46
48.36
44.52
39.86
34.41
28.25
21.51
14.29
6.64
-1.37
-9.64
-17.96
-26.07
-33.7
-40.74
-47.24
-53.51
-60.11
-67.72
-76.91
-87.72
-99.38
-110.09
-117.33
-118.54
-112
-97.51
-76.61
-52.11
-27.16
-4.37
14.79
30.03
41.85
51.02
58.09
63.36
66.88
68.68
68.91
67.88
65.96
63.55
60.93
58.35
55.95
53.92
52.35
51.26
50.47
49.62
48.19
45.73
42.04
37.24
31.66
25.72
19.61
13.33
6.69
-0.48
-8.12
-15.97
-23.62
-30.72
-37.09
-42.85
-48.35
-54.15
-60.87
-68.92
-78.17
-87.66
-95.51
-99.33
-96.93
-87.19
-70.56
-49.04
-25.54
-2.96
16.63
32.31
44.12
52.53
58.02
60.81
61.04
59
55.33
51.01
47.04
44.17
42.66
42.23
42.31
42.28
41.71
40.47
38.68
36.52
34.08
31.28
27.78
23.16
17.07
9.47
0.7
-8.51
-17.32
-25.05
-31.46
-36.79
-41.72
-47.08
-53.67
-62
-72.1
-83.29
-94.19
-102.73
-106.66
-104.15
-94.4
-78.02
-56.9
-33.69
-11.01
9.16
25.82
38.85
48.71
55.94
60.99
64.05
65.25
64.78
62.99
60.42
57.64
55.07
52.92
51.17
49.66
48.19
46.58
44.68
42.36
39.44
35.85
31.54
26.58
21.03
14.87
8.08
0.61
-7.43
-15.8
-24.1
-31.95
-39.12
-45.63
-51.75
-57.91
-64.68
-72.59
-82
-92.77
-103.97
-113.8
-119.85
-119.75
-112.07
-96.86
-75.76
-51.49
-26.97
-4.51
14.6
30.05
42.17
51.48
58.42
63.38
66.63
68.46
69.11
68.75
67.53
65.59
63.17
60.59
58.18
56.17
54.59
53.27
51.81
49.77
46.77
42.64
37.48
31.63
25.52
19.52
13.77
8.21
2.58
-3.37
-9.75
-16.47
-23.27
-29.84
-35.94
-41.54
-46.91
-52.54
-59.15
-67.34
-77.23
-88.1
-98.18
-104.97
-105.91
-99.3
-85.01
-64.63
-41
-17.27
4.06
21.66
35.39
45.8
53.57
59.09
62.39
63.43
62.33
59.68
56.38
53.4
51.43
50.53
50.26
49.89
48.83
46.86
44.23
41.41
38.75
36.27
33.59
30.14
25.42
19.21
11.75
3.57
-4.69
-12.46
-19.46
-25.73
-31.59
-37.52
-44.02
-51.5
-60.19
-70.01
-80.33
-89.85
-96.63
-98.54
-93.92
-82.26
-64.52
-42.95
-20.35
0.73
18.68
32.92
43.71
51.59
57.03
60.24
61.3
60.33
57.7
54.06
50.22
46.97
44.74
43.61
43.24
43.13
42.77
41.84
40.18
37.77
34.64
30.83
26.37
21.32
15.75
9.69
3.15
-3.86
-11.31
-19.06
-26.92
-34.65
-42.08
-49.12
-55.89
-62.7
-70.1
-78.63
-88.54
-99.33
-109.47
-116.6
-118.08
-111.99
-97.86
-77
-52.06
-26.12
-1.8
19.37
37.01
51.44
63.24
72.86
80.46
86.01
89.46
90.86
90.42
88.53
85.7
82.44
79.22
76.36
74
72.17
70.78
69.6
68.29
66.4
63.55
59.5
54.38
48.57
42.62
36.87
31.37
25.86
19.96
13.46
6.46
-0.63
-7.31
-13.2
-18.27
-22.81
-27.44
-32.9
-39.87
-48.62
-58.71
-68.74
-76.44
-79.18
-74.79
-62.42
-42.97
-18.9
6.63
30.66
51.33
68.05
81.18
91.45
99.39
105.15
108.67
109.91
109.14
106.93
103.93
100.62
97.12
93.21
88.44
82.4
74.86
65.88
55.73
44.78
33.33
21.63
9.96
-1.24
-11.28
-19.4
-25.12
-28.67
-31.22
-34.66
-41.02
-51.92
-68.16
-89.8
-116.52
-147.92
-183.35
-221.46
-259.85
-295.33
-324.85
-346.49
-359.91
-365.83
-364.92
-356.79
-339.87
-312.31
-273.36
-224.47
-169.28
-112.69
-59.36
-12.55
26.22
56.82
79.86
96.05
106.11
110.86
111.48
109.54
106.85
104.99
104.83
106.28
108.36
109.72
109.2
106.35
101.52
95.6
89.54
83.96
78.88
73.83
68.07
60.95
52.14
41.81
30.5
19.02
8.17
-1.52
-9.92
-17.32
-24.34
-31.82
-40.58
-51.18
-63.59
-76.89
-89.2
-97.89
-100.29
-94.56
-80.45
-59.5
-34.57
-8.89
14.86
35.14
51.56
64.47
74.41
81.74
86.68
89.36
90.12
89.4
87.72
85.52
83.04
80.4
77.65
74.92
72.47
70.53
69.24
68.42
67.53
65.82
62.59
57.47
50.62
42.72
34.66
27.2
20.63
14.66
8.64
1.86
-6.05
-14.92
-24.11
-32.81
-40.4
-46.7
-52.1
-57.42
-63.74
-72
-82.55
-94.72
-106.64
-115.47
-118.12
-112.29
-97.3
-74.44
-46.52
-16.9
11.55
37.15
59.4
78.54
94.94
108.74
119.87
128.26
134.2
138.35
141.63
144.86
148.57
152.82
157.33
161.68
165.48
168.56
170.93
172.72
174.03
174.87
174.99
173.86
170.58
163.92
152.64
135.89
113.74
87.42
59.18
31.68
7.1
-13.61
-31.11
-47.43
-65.21
-86.86
-113.91
-146.8
-185.06
-227.56
-272.66
-318.17
-361.31
-398.86
-427.56
-444.68
-448.47
-438.47
-415.38
-380.73
-336.45
-284.73
-227.95
-168.87
-110.6
-56.41
-9.15
29.21
58.03
77.95
90.56
97.78
101.41
102.81
102.97
102.71
102.7
103.42
104.91
106.7
107.96
107.83
105.84
102.05
97.02
91.42
85.69
79.82
73.38
65.86
56.96
46.85
36.17
25.75
16.3
8.07
0.79
-6.31
-14.17
-23.65
-35.22
-48.7
-62.98
-76.11
-85.47
-88.52
-83.53
-70.28
-50.3
-26.39
-1.74
20.98
40.27
55.78
67.91
77.19
83.91
88.08
89.7
88.98
86.51
83.03
79.28
75.72
72.55
69.74
67.26
65.14
63.43
62.07
60.8
59.12
56.5
52.54
47.15
40.6
33.34
25.83
18.33
10.89
3.34
-4.52
-12.78
-21.38
-30.09
-38.57
-46.55
-53.92
-60.85
-67.82
-75.55
-84.8
-95.93
-108.47
-120.86
-130.53
-134.54
-130.48
-117.41
-96.25
-69.63
-40.96
-13.45
10.78
30.88
47.06
60
70.36
78.47
84.45
88.32
90.25
90.58
89.75
88.16
86.06
83.57
80.71
77.62
74.5
71.67
69.29
67.28
65.21
62.45
58.43
52.88
45.94
38.13
30.06
22.21
14.68
7.2
-0.68
-9.33
-18.82
-28.79
-38.58
-47.44
-54.92
-61.04
-66.45
-72.2
-79.44
-88.93
-100.51
-112.82
-123.39
-129.25
-127.76
-117.57
-99.13
-74.65
-47.37
-20.54
3.38
23.21
38.9
51.03
60.26
67.04
71.55
73.85
74.1
72.67
70.14
67.14
64.25
61.81
59.94
58.58
57.52
56.56
55.46
54.02
52.02
49.25
45.57
40.92
35.38
29.1
22.27
15.03
7.51
-0.24
-8.1
-15.89
-23.36
-30.26
-36.49
-42.2
-47.84
-54.12
-61.74
-71.13
-82.08
-93.43
-103.15
-108.7
-107.74
-98.93
-82.47
-60.18
-34.93
-9.81
12.71
31.34
45.81
56.6
64.34
69.47
72.22
72.78
71.49
68.9
65.75
62.66
60.01
57.89
56.16
54.64
53.19
51.77
50.29
48.54
46.15
42.74
38.05
32.2
25.58
18.7
11.93
5.29
-1.45
-8.69
-16.64
-25.23
-34.09
-42.71
-50.66
-57.76
-64.12
-70.16
-76.57
-84.11
-93.4
-104.48
-116.35
-126.94
-133.4
-132.98
-123.99
-106.56
-82.63
-55.4
-28.21
-3.55
17.35
34.48
48.39
59.72
68.76
75.57
80.13
82.62
83.43
83.03
81.87
80.17
78
75.4
72.49
69.52
66.77
64.41
62.37
60.29
57.6
53.81
48.6
42.08
34.67
26.99
19.54
12.52
5.77
-1.16
-8.66
-16.85
-25.44
-33.87
-41.61
-48.37
-54.33
-60.02
-66.21
-73.64
-82.81
-93.67
-105.43
-116.4
-124.21
-126.31
-120.79
-107.1
-86.43
-61.41
-35.27
-10.89
9.93
26.64
39.63
49.66
57.39
63.15
67.02
68.99
69.17
67.86
65.55
62.75
59.92
57.38
55.26
53.56
52.14
50.83
49.41
47.65
45.35
42.33
38.48
33.78
28.3
22.21
15.69
8.87
1.83
-5.34
-12.57
-19.69
-26.51
-32.86
-38.68
-44.12
-49.47
-55.27
-62.08
-70.3
-79.79
-89.55
-97.73
-101.96
-100.04
-90.8
-74.6
-53.31
-29.75
-6.76
13.52
30.05
42.71
51.89
58.12
61.78
63.14
62.57
60.53
57.63
54.49
51.61
49.2
47.29
45.76
44.44
43.24
42.12
41.02
39.76
38
35.33
31.44
26.25
20.01
13.2
6.32
-0.31
-6.7
-13.11
-19.92
-27.33
-35.23
-43.17
-50.58
-57.02
-62.48
-67.41
-72.7
-79.34
-88.05
-98.84
-110.68
-121.52
-128.66
-129.51
-122.44
-107.37
-85.89
-60.71
-34.87
-10.85
9.94
27.09
40.9
51.85
60.35
66.62
70.84
73.24
74.18
74.07
73.24
71.9
70.09
67.84
65.2
62.4
59.81
57.74
56.3
55.2
53.81
51.37
47.36
41.71
34.86
27.57
20.51
14.01
7.91
1.78
-4.87
-12.26
-20.24
-28.37
-36.1
-43.04
-49.05
-54.37
-59.53
-65.32
-72.55
-81.81
-93.01
-105.14
-116.13
-123.29
-124.04
-116.75
-101.42
-79.76
-54.64
-29.26
-6.16
13.26
28.79
40.97
50.6
58.26
64.18
68.36
70.77
71.55
71.06
69.77
68.1
66.25
64.22
61.98
59.61
57.36
55.57
54.41
53.68
52.8
50.97
47.53
42.26
35.54
28.13
20.88
14.34
8.6
3.31
-2.13
-8.22
-15.18
-22.85
-30.73
-38.2
-44.77
-50.28
-55.01
-59.64
-65.05
-72.02
-80.86
-91.07
-101.17
-108.88
-111.71
-107.67
-96.05
-77.74
-54.99
-30.78
-7.87
11.86
27.63
39.6
48.32
54.35
58.02
59.49
58.95
56.78
53.61
50.16
47.1
44.84
43.49
42.84
42.49
42.01
41.05
39.45
37.22
34.45
31.23
27.53
23.2
18
11.78
4.58
-3.27
-11.28
-18.89
-25.76
-31.78
-37.13
-42.21
-47.5
-53.56
-60.9
-69.8
-80.11
-90.91
-100.45
-106.39
-106.46
-99.29
-84.92
-64.93
-41.93
-18.73
2.4
20.25
34.56
45.71
54.21
60.45
64.65
66.91
67.42
66.48
64.51
62
59.37
56.94
54.89
53.26
51.97
50.85
49.71
48.28
46.3
43.49
39.66
34.76
28.92
22.47
15.78
9.06
2.31
-4.7
-12.21
-20.3
-28.71
-36.95
-44.58
-51.33
-57.39
-63.32
-69.88
-77.82
-87.55
-98.79
-110.37
-120.23
-125.79
-124.73
-115.76
-99.18
-76.89
-51.69
-26.43
-3.22
16.91
33.85
47.96
59.58
68.92
76.03
80.98
83.94
85.26
85.29
84.39
82.74
80.5
77.79
74.8
71.88
69.42
67.66
66.5
65.45
63.72
60.49
55.32
48.33
40.19
31.85
24.16
17.5
11.67
6.06
-0.1
-7.31
-15.61
-24.58
-33.46
-41.59
-48.55
-54.44
-59.75
-65.34
-72.09
-80.69
-91.2
-102.77
-113.59
-121.17
-122.99
-117.33
-103.91
-84.06
-60.29
-35.49
-12.06
8.5
25.68
39.62
50.71
59.3
65.63
69.94
72.48
73.57
73.58
72.84
71.6
70.05
68.29
66.38
64.4
62.49
60.78
59.34
58.04
56.5
54.2
50.62
45.55
39.17
32.02
24.76
17.89
11.54
5.47
-0.71
-7.28
-14.25
-21.29
-27.95
-33.85
-38.86
-43.18
-47.35
-52.07
-58.07
-65.78
-75.09
-85.06
-93.93
-99.43
-99.41
-92.58
-79.01
-60.18
-38.52
-16.63
3.38
20.35
33.98
44.5
52.3
57.67
60.76
61.76
60.99
58.99
56.43
53.89
51.77
50.16
48.94
47.89
46.91
46.03
45.32
44.73
43.99
42.56
39.9
35.68
29.97
23.28
16.29
9.61
3.48
-2.22
-7.88
-13.91
-20.52
-27.61
-34.84
-41.76
-48.06
-53.65
-58.77
-64.03
-70.17
-77.87
-87.34
-97.98
-108.25
-115.9
-118.53
-114.39
-102.98
-85.28
-63.45
-40.15
-17.77
2.12
18.95
32.85
44.28
53.67
61.19
66.83
70.61
72.7
73.44
73.25
72.5
71.4
69.94
68.09
65.88
63.47
61.16
59.18
57.59
56.12
54.26
51.42
47.14
41.33
34.3
26.73
19.36
12.77
7.08
1.95
-3.21
-9
-15.65
-23
-30.53
-37.63
-43.89
-49.25
-54.07
-59.02
-64.91
-72.44
-81.94
-93.04
-104.57
-114.52
-120.46
-120.22
-112.56
-97.68
-77.23
-53.78
-30.06
-8.24
10.44
25.74
37.96
47.59
55.04
60.55
64.26
66.36
67.17
67.03
66.25
65.05
63.47
61.55
59.34
57.04
54.96
53.38
52.34
51.6
50.6
48.65
45.24
40.22
33.88
26.89
20.05
13.98
8.87
4.39
-0.1
-5.26
-11.43
-18.45
-25.71
-32.44
-38.11
-42.61
-46.34
-50.08
-54.72
-61.01
-69.23
-78.97
-88.98
-97.22
-101.32
-99.28
-90.15
-74.46
-54.11
-31.81
-10.17
8.88
24.46
36.51
45.44
51.7
55.65
57.52
57.65
56.5
54.64
52.59
50.66
48.91
47.22
45.48
43.71
42.12
40.96
40.34
40.02
39.43
37.93
34.99
30.49
24.77
18.46
12.17
6.26
0.73
-4.73
-10.5
-16.79
-23.6
-30.64
-37.54
-43.92
-49.61
-54.66
-59.41
-64.51
-70.72
-78.7
-88.58
-99.57
-109.9
-117.08
-118.59
-112.79
-99.47
-80
-56.88
-32.92
-10.45
9.16
25.47
38.71
49.32
57.67
63.98
68.35
70.96
72.06
72.04
71.3
70.2
68.99
67.76
66.56
65.37
64.24
63.24
62.42
61.7
60.75
59.09
56.22
51.85
46.12
39.6
33.1
27.32
22.53
18.35
14
8.61
1.7
-6.56
-15.41
-23.87
-31.14
-36.97
-41.69
-46.09
-51.09
-57.45
-65.59
-75.37
-85.93
-95.7
-102.49
-104
-98.51
-85.46
-65.83
-41.86
-16.38
8.04
29.7
48
63.2
75.93
86.81
96.19
104.23
110.98
116.55
121.22
125.32
129.18
133.02
136.87
140.61
144.11
147.34
150.49
153.9
157.85
162.25
166.34
168.72
167.52
160.95
147.83
128.01
102.46
73.05
41.99
11.38
-17.18
-42.69
-64.8
-83.71
-100.3
-115.99
-132.61
-151.9
-174.99
-201.97
-231.78
-262.67
-292.77
-320.69
-345.64
-367
-383.72
-393.79
-394.38
-382.6
-356.56
-316.43
-264.8
-206.31
-146.53
-90.7
-42.57
-4.01
24.91
45.28
58.7
66.82
71.15
73.13
74.12
75.32
77.53
80.93
84.97
88.6
90.69
90.56
88.2
84.21
79.55
75.02
70.95
67.06
62.66
56.98
49.58
40.53
30.45
20.21
10.58
1.94
-5.83
-13.33
-21.32
-30.56
-41.52
-54.21
-67.95
-81.29
-92.11
-98.05
-97.22
-88.78
-73.41
-53
-30.17
-7.41
13.52
31.77
47.19
59.97
70.31
78.28
83.92
87.36
88.89
88.99
88.17
86.9
85.48
83.99
82.42
80.73
78.93
77.16
75.55
74.09
72.5
70.3
66.96
62.1
55.75
48.29
40.36
32.57
25.23
18.29
11.39
4.08
-3.95
-12.68
-21.81
-30.85
-39.36
-47.1
-54.13
-60.84
-67.88
-76.01
-85.82
-97.44
-110.12
-122.11
-130.89
-133.75
-128.73
-115.3
-94.66
-69.36
-42.48
-16.66
6.42
26.18
42.78
56.64
68.06
77.12
83.79
88.16
90.5
91.29
91.08
90.32
89.34
88.2
86.85
85.18
83.16
80.88
78.56
76.34
74.19
71.82
68.75
64.46
58.67
51.49
43.38
35.07
27.24
20.36
14.47
9.22
4.03
-1.69
-8.34
-15.92
-24.08
-32.26
-39.88
-46.57
-52.31
-57.45
-62.67
-68.79
-76.57
-86.37
-97.77
-109.4
-118.94
-123.71
-121.38
-110.84
-92.64
-68.94
-42.72
-16.98
6.11
25.45
40.91
52.86
61.77
67.99
71.77
73.39
73.27
72.01
70.23
68.47
66.96
65.72
64.56
63.31
61.97
60.68
59.65
58.94
58.24
56.96
54.46
50.29
44.5
37.6
30.33
23.32
16.81
10.6
4.22
-2.72
-10.31
-18.21
-25.83
-32.6
-38.24
-42.9
-47.21
-52.02
-58.27
-66.54
-76.8
-88.12
-98.62
-105.82
-107.25
-101.26
-87.65
-67.84
-44.43
-20.41
1.69
20.41
35.37
46.94
55.69
62.04
66.14
68.05
67.95
66.34
63.89
61.28
58.91
56.84
54.91
52.99
51.1
49.53
48.55
48.2
48.07
47.42
45.42
41.52
35.71
28.47
20.6
12.92
5.92
-0.3
-6.07
-11.88
-18.22
-25.27
-32.8
-40.3
-47.2
-53.1
-58.07
-62.57
-67.4
-73.44
-81.39
-91.42
-103.01
-114.69
-124.23
-129.04
-126.9
-116.79
-99.31
-76.64
-51.77
-27.62
-6.21
11.64
26.12
37.84
47.4
55.08
60.99
65.21
67.94
69.52
70.28
70.45
70.06
69.03
67.36
65.17
62.81
60.71
59.17
58.21
57.47
56.29
53.92
49.89
44.13
37.09
29.54
22.25
15.71
9.91
4.45
-1.28
-7.76
-15.11
-23.03
-30.94
-38.25
-44.57
-49.95
-54.86
-60.05
-66.35
-74.39
-84.21
-95.04
-105.26
-112.6
-114.78
-110.16
-98.32
-80.3
-58.26
-34.87
-12.52
7.13
23.43
36.49
46.88
55.19
61.89
67.18
71.08
73.53
74.49
74.08
72.56
70.37
67.95
65.67
63.74
62.15
60.76
59.28
57.39
54.8
51.27
46.67
41.01
34.47
27.34
19.97
12.6
5.37
-1.75
-8.84
-15.94
-22.94
-29.66
-35.91
-41.69
-47.24
-53.04
-59.66
-67.5
-76.54
-86.06
-94.6
-100.16
-100.71
-94.84
-82.34
-64.36
-43.14
-21.27
-0.99
16.35
30.35
41.27
49.53
55.49
59.28
61.04
61.04
59.78
57.85
55.79
53.89
52.12
50.2
47.86
44.97
41.71
38.45
35.62
33.33
31.34
29
25.54
20.41
13.52
5.32
-3.41
-11.79
-19.24
-25.6
-31.14
-36.49
-42.41
-49.6
-58.36
-68.36
-78.45
-86.73
-91.03
-89.48
-81.26
-66.89
-48.23
-27.81
-8.16
8.95
22.62
32.79
39.8
44.02
45.77
45.32
43.08
39.61
35.55
31.45
27.68
24.4
21.66
19.48
17.81
16.5
15.26
13.68
11.39
8.18
4.16
-0.41
-5.26
-10.23
-15.38
-20.97
-27.33
-34.8
-43.6
-53.56
-63.94
-73.3
-79.69
-81.14
-76.37
-65.36
-49.39
-30.72
-11.8
5.43
19.9
31.34
39.85
45.61
48.63
48.86
46.44
41.81
35.79
29.36
23.44
18.68
15.27
13
11.35
9.72
7.63
4.88
1.56
-2.03
-5.66
-9.27
-13.11
-17.58
-23.16
-30.32
-39.27
-49.94
-61.72
-73.33
-82.93
-88.38
-87.87
-80.57
-67.04
-49.05
-29.16
-9.85
7.08
20.8
31.22
38.65
43.43
45.72
45.64
43.49
39.82
35.44
31.2
27.7
25.13
23.24
21.46
19.23
16.18
12.3
7.88
3.3
-1.17
-5.53
-10.06
-15.2
-21.47
-29.26
-38.79
-49.99
-62.34
-74.7
-85.31
-92
-92.71
-86.18
-72.39
-52.76
-29.75
-6.17
15.54
33.85
48.2
58.77
66.14
70.93
73.63
74.53
73.84
71.7
68.3
63.94
59
53.93
49.13
44.88
41.2
37.9
34.61
30.91
26.47
21.12
14.85
7.8
0.23
-7.61
-15.53
-23.5
-31.78
-40.86
-51.28
-63.28
-76.32
-88.84
-98.42
-102.37
-98.66
-86.69
-67.6
-43.95
-18.82
5.05
25.91
43.08
56.73
67.34
75.37
81.1
84.72
86.44
86.54
85.4
83.38
80.75
77.67
74.22
70.52
66.81
63.45
60.8
59
57.83
56.69
54.75
51.29
45.98
39.02
31.09
23.02
15.48
8.74
2.6
-3.47
-10.06
-17.52
-25.81
-34.53
-43.04
-50.73
-57.26
-62.69
-67.57
-72.81
-79.43
-88.2
-99.15
-111.28
-122.43
-129.74
-130.45
-122.78
-106.63
-83.68
-56.83
-29.27
-3.63
18.54
36.79
51.37
62.78
71.44
77.62
81.51
83.32
83.42
82.21
80.22
77.88
75.53
73.31
71.2
69.06
66.81
64.5
62.27
60.28
58.5
56.63
54.13
50.43
45.21
38.59
31.14
23.63
16.79
10.99
6.14
1.73
-2.93
-8.4
-14.91
-22.2
-29.74
-36.82
-42.95
-48
-52.25
-56.34
-61.03
-67.06
-74.85
-84.26
-94.4
-103.57
-109.54
-110.05
-103.62
-90.01
-70.52
-47.52
-23.8
-1.72
17.23
32.53
44.32
53
58.97
62.52
63.94
63.66
62.23
60.27
58.26
56.45
54.81
53.15
51.29
49.21
47.09
45.21
43.81
42.91
42.21
41.19
39.29
36.12
31.65
26.15
20.18
14.34
9.11
4.66
0.87
-2.66
-6.44
-10.86
-16.04
-21.72
-27.4
-32.54
-36.84
-40.37
-43.56
-47.04
-51.45
-57.23
-64.48
-72.76
-81.02
-87.64
-90.64
-88.33
-79.77
-65.32
-46.57
-25.95
-5.93
11.54
25.42
35.54
42.22
45.98
47.35
46.78
44.73
41.69
38.12
34.52
31.26
28.63
26.76
25.63
25.1
24.95
24.93
24.83
24.41
23.49
21.92
19.61
16.6
13.03
9.06
4.77
0.19
-4.74
-10.02
-15.51
-20.95
-26
-30.48
-34.42
-38.09
-41.91
-46.36
-51.81
-58.34
-65.63
-72.79
-78.39
-80.73
-78.32
-70.37
-57.18
-40.15
-21.35
-3
13.16
26.07
35.45
41.51
44.71
45.58
44.66
42.46
39.53
36.36
33.36
30.81
28.85
27.47
26.58
26.04
25.7
25.36
24.83
23.9
22.36
20.1
17.16
13.65
9.78
5.71
1.5
-2.92
-7.64
-12.75
-18.19
-23.8
-29.35
-34.62
-39.51
-44.02
-48.28
-52.5
-57.05
-62.35
-68.77
-76.38
-84.63
-92.19
-97.2
-97.66
-92.2
-80.6
-63.9
-44.14
-23.68
-4.62
11.73
24.83
34.76
41.9
46.67
49.45
50.59
50.43
49.35
47.75
45.96
44.15
42.39
40.63
38.89
37.26
35.96
35.15
34.82
34.68
34.17
32.72
29.94
25.83
20.74
15.27
9.92
4.98
0.43
-3.98
-8.6
-13.74
-19.47
-25.71
-32.17
-38.49
-44.37
-49.65
-54.43
-59.14
-64.42
-70.96
-79.08
-88.38
-97.58
-104.68
-107.46
-104.22
-94.35
-78.6
-58.81
-37.37
-16.51
2.14
17.75
30.13
39.42
45.9
49.87
51.64
51.65
50.44
48.58
46.55
44.72
43.22
42.08
41.23
40.61
40.15
39.72
39.15
38.29
37.02
35.35
33.42
31.36
29.22
26.9
24.16
20.7
16.29
10.82
4.4
-2.73
-10.19
-17.57
-24.49
-30.74
-36.35
-41.65
-47.22
-53.73
-61.62
-70.73
-80.13
-88.05
-92.3
-90.91
-82.75
-68.03
-48.27
-25.93
-3.62
16.55
33.32
46.31
55.67
61.74
64.75
64.88
62.41
57.93
52.32
46.63
41.74
38.2
36.08
35.09
34.74
34.54
34.13
33.29
31.91
29.99
27.57
24.75
21.54
17.89
13.65
8.7
3.03
-3.22
-9.74
-16.23
-22.5
-28.55
-34.6
-40.98
-48.09
-56.3
-65.9
-76.9
-88.82
-100.44
-109.77
-114.44
-112.33
-102.39
-85.06
-62.27
-36.84
-11.66
11.07
30.15
45.24
56.54
64.4
69.14
71.07
70.64
68.43
65.16
61.48
57.89
54.64
51.82
49.45
47.59
46.32
45.62
45.29
44.91
43.89
41.76
38.31
33.68
28.31
22.67
17.02
11.29
5.16
-1.68
-9.33
-17.57
-25.94
-33.88
-41.08
-47.46
-53.35
-59.3
-66.04
-74.18
-83.98
-94.99
-105.83
-114.29
-117.78
-114.1
-102.15
-82.51
-57.25
-29.46
-2.26
21.9
41.71
56.92
67.96
75.51
80.16
82.36
82.5
81.02
78.46
75.4
72.29
69.44
66.97
64.91
63.22
61.93
61.01
60.37
59.76
58.77
56.92
53.83
49.35
43.66
37.21
30.54
24.06
17.92
11.93
5.71
-1.06
-8.44
-16.19
-23.85
-30.93
-37.17
-42.65
-47.84
-53.45
-60.22
-68.59
-78.34
-88.36
-96.69
-100.94
-98.98
-89.64
-73.26
-51.62
-27.43
-3.59
17.6
34.79
47.61
56.35
61.54
63.76
63.52
61.36
57.92
53.91
50.04
46.85
44.64
43.36
42.73
42.35
41.81
40.87
39.45
37.64
35.56
33.26
30.63
27.37
23.17
17.76
11.15
3.66
-4.19
-11.8
-18.72
-24.81
-30.21
-35.3
-40.59
-46.6
-53.74
-62.16
-71.47
-80.6
-87.76
-90.82
-87.89
-78.07
-61.83
-41.02
-18.31
3.62
22.71
37.93
49.1
56.58
60.9
62.54
61.91
59.46
55.78
51.54
47.46
44.1
41.76
40.45
39.94
39.87
39.84
39.49
38.56
36.87
34.37
31.13
27.28
22.96
18.22
12.97
7.07
0.42
-6.91
-14.6
-22.19
-29.27
-35.58
-41.17
-46.38
-51.76
-57.91
-65.36
-74.36
-84.61
-95.04
-103.8
-108.58
-107.24
-98.56
-82.71
-61.38
-37.17
-12.93
9.07
27.52
42.04
52.84
60.42
65.25
67.78
68.47
67.77
66.17
64.1
61.87
59.63
57.48
55.45
53.65
52.18
51.11
50.4
49.78
48.79
46.95
43.86
39.48
34.09
28.22
22.39
16.9
11.69
6.41
0.63
-5.93
-13.24
-20.92
-28.46
-35.37
-41.42
-46.76
-51.89
-57.58
-64.6
-73.33
-83.44
-93.64
-101.79
-105.42
-102.5
-92.17
-75.18
-53.64
-30.34
-8.01
11.49
27.25
39.24
47.9
53.8
57.45
59.28
59.66
58.94
57.42
55.36
53.02
50.59
48.26
46.14
44.29
42.71
41.33
40.02
38.56
36.67
33.99
30.25
25.35
19.43
12.87
6.04
-0.78
-7.55
-14.42
-21.59
-29.17
-37.04
-44.91
-52.4
-59.24
-65.33
-70.87
-76.33
-82.39
-89.67
-98.41
-108.09
-117.31
-123.88
-125.36
-119.83
-106.48
-85.97
-60.22
-31.91
-3.7
22.25
44.59
62.71
76.55
86.35
92.47
95.38
95.6
93.73
90.38
86.22
81.87
77.86
74.49
71.83
69.67
67.62
65.29
62.34
58.63
54.18
49.12
43.64
37.88
31.91
25.67
19.05
11.9
4.22
-3.84
-11.94
-19.65
-26.65
-32.79
-38.21
-43.27
-48.48
-54.4
-61.51
-69.99
-79.45
-88.73
-95.94
-98.85
-95.62
-85.46
-69.05
-48.45
-26.41
-5.55
12.33
26.47
37.02
44.59
49.84
53.25
55.15
55.76
55.32
54.12
52.4
50.39
48.23
46.09
44.16
42.66
41.74
41.4
41.37
41.18
40.25
38.1
34.53
29.68
24
18.06
12.31
6.98
1.95
-3.13
-8.65
-14.85
-21.66
-28.68
-35.38
-41.32
-46.34
-50.7
-54.98
-60.01
-66.55
-75.01
-85.09
-95.56
-104.34
-108.92
-107.12
-97.89
-81.8
-60.86
-37.95
-15.8
3.7
19.81
32.64
42.66
50.24
55.5
58.48
59.41
58.8
57.4
55.91
54.71
53.76
52.79
51.49
49.82
48.05
46.57
45.69
45.36
45.15
44.36
42.37
38.84
33.88
28
21.85
15.99
10.7
5.89
1.19
-3.83
-9.5
-15.84
-22.63
-29.41
-35.74
-41.34
-46.21
-50.64
-55.22
-60.67
-67.61
-76.28
-86.15
-95.75
-102.86
-105.03
-100.43
-88.59
-70.64
-49.05
-26.78
-6.42
10.46
23.46
33.02
39.83
44.48
47.24
48.22
47.53
45.5
42.7
39.79
37.36
35.77
35.07
35.04
35.3
35.42
35.06
34.07
32.43
30.24
27.61
24.58
21.07
16.91
11.91
5.96
-0.87
-8.32
-16.02
-23.57
-30.66
-37.09
-42.89
-48.29
-53.69
-59.67
-66.72
-75.02
-84.02
-92.37
-98.05
-98.92
-93.44
-81.25
-63.4
-42.05
-19.77
1.19
19.3
33.9
44.96
52.76
57.69
60.14
60.57
59.49
57.46
55.04
52.69
50.7
49.19
48.13
47.35
46.68
45.93
44.92
43.54
41.66
39.14
35.87
31.84
27.09
21.75
15.88
9.48
2.48
-5.15
-13.27
-21.58
-29.63
-37.01
-43.55
-49.38
-54.93
-60.92
-68.08
-76.97
-87.53
-98.84
-108.99
-115.45
-115.77
-108.42
-93.39
-72.3
-47.82
-22.86
0.25
20.17
36.49
49.37
59.16
66.24
70.93
73.61
74.75
74.81
74.2
73.14
71.76
70.07
68.19
66.26
64.53
63.17
62.2
61.45
60.5
58.83
55.97
51.64
45.93
39.23
32.1
25.08
18.46
12.17
5.89
-0.83
-8.26
-16.38
-24.78
-32.88
-40.17
-46.45
-51.98
-57.41
-63.63
-71.43
-81.05
-91.91
-102.38
-110.06
-112.3
-107.11
-93.88
-73.71
-49.18
-23.53
0.28
20.36
36.1
47.85
56.4
62.43
66.31
68.11
67.94
66.1
63.16
59.86
56.83
54.49
52.9
51.88
51.14
50.4
49.46
48.16
46.38
44
40.93
37.15
32.71
27.63
21.95
15.69
8.85
1.59
-5.86
-13.2
-20.13
-26.46
-32.2
-37.48
-42.59
-48
-54.18
-61.57
-70.18
-79.34
-87.53
-92.58
-92.29
-85.22
-71.29
-51.9
-29.57
-7.11
13.15
29.8
42.36
51.06
56.34
58.71
58.67
56.73
53.58
49.92
46.38
43.42
41.18
39.62
38.52
37.7
37.03
36.41
35.77
34.98
33.85
32.17
29.76
26.5
22.29
17.12
10.99
3.98
-3.71
-11.78
-19.82
-27.42
-34.36
-40.61
-46.43
-52.29
-58.73
-66.3
-75.29
-85.5
-95.98
-104.97
-110.21
-109.51
-101.53
-86.33
-65.46
-41.53
-17.41
4.56
22.97
37.44
48.23
55.91
61.05
64.1
65.47
65.5
64.55
62.94
60.97
58.83
56.7
54.71
52.92
51.38
50.08
48.92
47.68
46.06
43.74
40.51
36.37
31.52
26.27
20.9
15.47
9.84
3.76
-2.92
-10.1
-17.49
-24.67
-31.27
-37.2
-42.58
-47.82
-53.46
-60.08
-68.13
-77.61
-87.83
-97.21
-103.53
-104.5
-98.48
-85.21
-65.95
-43.18
-19.79
1.74
19.83
33.93
44.3
51.53
56.25
58.97
60.07
59.9
58.82
57.22
55.43
53.67
52.06
50.59
49.22
47.97
46.96
46.28
45.9
45.55
44.76
42.97
39.85
35.36
29.86
23.91
18.03
12.5
7.22
1.88
-3.94
-10.44
-17.52
-24.79
-31.64
-37.58
-42.39
-46.28
-49.91
-54.18
-59.92
-67.43
-76.16
-84.57
-90.44
-91.44
-85.95
-73.71
-55.97
-35.13
-13.98
5.12
20.76
32.55
40.79
46.01
48.69
49.15
47.73
44.88
41.24
37.54
34.45
32.35
31.32
31.14
31.44
31.77
31.81
31.36
30.37
28.87
26.91
24.48
21.53
17.92
13.52
8.22
2.01
-4.94
-12.34
-19.78
-26.87
-33.31
-38.99
-44.02
-48.73
-53.63
-59.3
-66.18
-74.27
-82.85
-90.44
-94.97
-94.37
-87.33
-73.76
-55.01
-33.43
-11.69
7.96
24.18
36.59
45.43
51.25
54.6
55.95
55.74
54.41
52.42
50.18
48
46.03
44.31
42.86
41.7
40.84
40.24
39.75
39.09
37.88
35.77
32.59
28.37
23.38
18
12.55
7.17
1.78
-3.83
-9.85
-16.31
-23.05
-29.75
-36.07
-41.81
-46.97
-51.76
-56.61
-62.08
-68.73
-76.81
-85.94
-94.83
-101.46
-103.48
-99.03
-87.48
-69.73
-47.99
-25.04
-3.36
15.45
30.75
42.63
51.46
57.57
61.25
62.83
62.78
61.69
60.15
58.58
57.13
55.75
54.28
52.65
50.96
49.41
48.22
47.46
46.91
46.12
44.48
41.53
37.09
31.38
24.99
18.57
12.64
7.31
2.37
-2.68
-8.29
-14.62
-21.46
-28.3
-34.55
-39.84
-44.2
-48.04
-52.1
-57.16
-63.81
-72.09
-81.28
-89.84
-95.59
-96.34
-90.59
-78.11
-60.14
-39.08
-17.71
1.62
17.5
29.58
38.27
44.22
48
49.96
50.31
49.26
47.2
44.63
42.12
40.16
38.97
38.53
38.57
38.67
38.52
37.88
36.71
35.04
32.92
30.32
27.2
23.5
19.2
14.31
8.91
3.09
-3
-9.13
-15.03
-20.49
-25.36
-29.76
-33.99
-38.56
-44.02
-50.82
-59.04
-68.2
-77.07
-83.83
-86.46
-83.3
-73.76
-58.52
-39.43
-18.99
0.42
17.1
30.26
39.87
46.37
50.28
52.07
52.1
50.71
48.33
45.39
42.39
39.73
37.66
36.27
35.47
35.06
34.78
34.4
33.74
32.6
30.85
28.36
25.11
21.14
16.55
11.44
5.88
-0.12
-6.54
-13.26
-20.05
-26.63
-32.75
-38.31
-43.41
-48.31
-53.38
-59.08
-65.9
-74.18
-83.84
-94.06
-103.12
-108.64
-108.27
-100.51
-85.4
-64.61
-40.95
-17.46
3.48
20.57
33.65
43.28
50.24
55.18
58.46
60.26
60.69
59.93
58.34
56.32
54.28
52.5
51.03
49.79
48.67
47.53
46.31
44.9
43.15
40.77
37.51
33.27
28.17
22.55
16.82
11.26
5.92
0.61
-4.95
-10.94
-17.29
-23.75
-29.95
-35.61
-40.67
-45.39
-50.27
-55.99
-63.1
-71.74
-81.23
-90.03
-95.99
-96.9
-91.31
-79.08
-61.56
-41.08
-20.27
-1.25
14.74
27.37
36.82
43.43
47.51
49.29
49.09
47.39
44.79
41.9
39.13
36.61
34.25
31.86
29.43
27.16
25.43
24.52
24.38
24.53
24.21
22.61
19.29
14.28
8.07
1.39
-5.12
-11.11
-16.63
-22.08
-28.02
-35.02
-43.36
-52.82
-62.45
-70.62
-75.35
-74.85
-68.16
-55.5
-38.38
-19.07
-0.02
16.81
30.31
40.19
46.75
50.48
51.86
51.32
49.32
46.35
42.98
39.74
36.93
34.59
32.5
30.42
28.19
25.88
23.67
21.71
19.88
17.77
14.79
10.46
4.61
-2.47
-10.11
-17.56
-24.3
-30.2
-35.64
-41.36
-48.21
-56.87
-67.4
-79.06
-90.15
-98.33
-101.18
-97.02
-85.49
-67.83
-46.47
-24.28
-3.67
13.93
28.15
39.32
47.88
54.11
58.06
59.78
59.58
58.05
55.95
53.91
52.21
50.7
49.04
46.87
44.16
41.2
38.51
36.51
35.22
34.12
32.35
28.99
23.55
16.15
7.56
-1.2
-9.2
-16.05
-21.9
-27.4
-33.34
-40.47
-49.17
-59.29
-69.95
-79.51
-85.84
-86.83
-81.13
-68.7
-50.92
-30.2
-9.18
9.99
26.17
39.15
49.3
57.1
62.84
66.58
68.31
68.18
66.58
64.13
61.5
59.22
57.5
56.18
54.89
53.15
50.71
47.59
44.1
40.6
37.33
34.18
30.74
26.47
20.96
14.11
6.29
-1.81
-9.46
-16.13
-21.72
-26.57
-31.31
-36.65
-43.17
-51.21
-60.68
-70.95
-80.71
-88.08
-90.98
-87.71
-77.65
-61.57
-41.48
-20.08
0.11
17.43
31.25
41.83
49.76
55.57
59.52
61.66
62.06
60.98
58.96
56.61
54.48
52.87
51.75
50.84
49.82
48.43
46.62
44.43
41.96
39.22
36.11
32.52
28.28
23.35
17.75
11.58
5.01
-1.74
-8.37
-14.62
-20.29
-25.32
-29.88
-34.3
-39.02
-44.46
-50.93
-58.5
-66.85
-75.14
-81.96
-85.54
-84.19
-76.88
-63.74
-46.13
-26.28
-6.66
10.75
24.86
35.45
42.85
47.55
49.98
50.45
49.29
46.96
44.07
41.26
39
37.54
36.79
36.48
36.21
35.66
34.62
33.01
30.89
28.38
25.59
22.59
19.4
15.91
11.98
7.48
2.4
-3.15
-8.94
-14.68
-20.13
-25.18
-29.86
-34.32
-38.79
-43.54
-48.9
-55.1
-62.19
-69.74
-76.65
-81.33
-81.98
-77.23
-66.77
-51.45
-33.18
-14.31
3.07
17.58
28.65
36.32
40.89
42.72
42.15
39.63
35.81
31.5
27.54
24.57
22.81
22.08
21.9
21.73
21.21
20.24
18.97
17.6
16.16
14.41
11.93
8.3
3.39
-2.5
-8.74
-14.58
-19.53
-23.52
-26.98
-30.66
-35.32
-41.5
-49.23
-57.89
-66.21
-72.46
-74.8
-71.9
-63.32
-49.79
-32.99
-15.04
2.05
16.83
28.59
37.17
42.74
45.54
45.85
44.02
40.62
36.38
32.14
28.56
25.99
24.31
23.11
21.87
20.3
18.46
16.62
15.12
13.97
12.81
10.95
7.71
2.77
-3.7
-11.11
-18.68
-25.78
-32.13
-37.86
-43.42
-49.43
-56.5
-65.03
-74.89
-85.22
-94.37
-100.18
-100.56
-94.23
-81.27
-63.13
-42.27
-21.29
-2.27
13.66
26.28
35.91
43
47.83
50.56
51.32
50.47
48.58
46.38
44.49
43.18
42.33
41.47
40.09
37.91
35.04
31.92
29.05
26.69
24.6
22.12
18.5
13.22
6.28
-1.76
-9.99
-17.61
-24.12
-29.61
-34.61
-39.94
-46.43
-54.7
-64.89
-76.5
-88.22
-98.04
-103.63
-102.94
-94.96
-80.1
-60.22
-38.05
-16.29
3.06
19.11
31.88
41.87
49.56
55.15
58.68
60.18
59.94
58.51
56.56
54.7
53.23
52.1
51
49.54
47.49
44.86
41.94
39.09
36.56
34.25
31.66
28.11
23.01
16.18
8.03
-0.59
-8.73
-15.7
-21.39
-26.25
-31.12
-36.91
-44.3
-53.54
-64.28
-75.47
-85.41
-91.99
-93.19
-87.72
-75.48
-57.73
-36.77
-15.23
4.6
21.33
34.47
44.18
50.9
55.07
57.06
57.25
56.03
53.95
51.5
49.09
46.95
45.09
43.4
41.73
40.02
38.34
36.79
35.41
33.99
32.07
29.06
24.48
18.24
10.69
2.58
-5.25
-12.17
-17.99
-23.01
-27.94
-33.63
-40.79
-49.7
-59.88
-70.04
-78.17
-82.06
-79.93
-71.1
-56.3
-37.44
-17.06
2.46
19.37
32.84
42.75
49.36
53.05
54.18
53.17
50.54
46.95
43.11
39.63
36.85
34.79
33.23
31.86
30.46
28.99
27.52
26.05
24.38
22.07
18.58
13.55
7.02
-0.51
-8.23
-15.39
-21.56
-26.81
-31.71
-37.11
-43.88
-52.5
-62.83
-73.83
-83.64
-89.93
-90.58
-84.36
-71.43
-53.35
-32.59
-11.81
6.91
22.38
34.31
42.99
48.92
52.52
54.13
54.06
52.67
50.4
47.74
45.04
42.53
40.18
37.9
35.57
33.25
31.03
29.02
27.13
25.01
22.12
17.92
12.19
5.06
-2.91
-11.01
-18.56
-25.24
-31.08
-36.6
-42.57
-49.84
-58.91
-69.51
-80.37
-89.27
-93.65
-91.43
-81.81
-65.71
-45.41
-23.82
-3.51
13.98
28.24
39.62
48.69
55.81
61.06
64.33
65.63
65.18
63.45
60.99
58.31
55.76
53.5
51.49
49.57
47.52
45.21
42.61
39.84
37.02
34.15
31.02
27.2
22.21
15.81
8.12
-0.35
-8.87
-16.78
-23.75
-29.81
-35.35
-40.89
-46.99
-54.11
-62.57
-72.39
-83.03
-93.3
-101.29
-104.81
-102.07
-92.32
-76.3
-56.03
-34.18
-13.22
5.2
20.52
32.97
43.16
51.58
58.47
63.82
67.56
69.72
70.47
70.16
69.15
67.72
66.05
64.15
62.03
59.72
57.31
54.91
52.56
50.09
47.17
43.35
38.35
32.18
25.23
18.09
11.34
5.22
-0.41
-6
-12.07
-18.88
-26.26
-33.69
-40.5
-46.23
-50.89
-55.01
-59.53
-65.36
-73.14
-82.77
-93.24
-102.71
-108.86
-109.53
-103.41
-90.55
-72.36
-51.27
-29.86
-10.21
6.58
20.38
31.63
40.92
48.56
54.6
58.91
61.46
62.44
62.24
61.3
59.99
58.49
56.84
55.04
53.15
51.35
49.85
48.75
47.96
47.07
45.52
42.74
38.45
32.72
26.09
19.29
13.01
7.63
3.01
-1.33
-6.02
-11.52
-17.91
-24.9
-31.93
-38.46
-44.18
-49.08
-53.53
-58.14
-63.66
-70.74
-79.63
-89.89
-100.16
-108.37
-112.18
-109.74
-100.34
-84.72
-64.82
-43.2
-22.15
-3.21
13.03
26.7
38.19
47.85
55.82
62.07
66.58
69.43
70.87
71.2
70.75
69.75
68.38
66.74
64.9
63
61.21
59.68
58.45
57.37
56.09
54.12
50.98
46.41
40.5
33.67
26.57
19.89
14.09
9.24
5.02
0.84
-3.93
-9.64
-16.27
-23.37
-30.33
-36.61
-42.03
-46.77
-51.31
-56.25
-62.17
-69.46
-78.16
-87.74
-96.92
-103.73
-105.98
-101.91
-90.93
-74.01
-53.4
-31.87
-11.83
5.36
19.44
30.91
40.37
48.18
54.31
58.61
61.06
61.98
61.89
61.33
60.65
59.92
59
57.76
56.19
54.45
52.81
51.49
50.58
49.87
48.94
47.24
44.31
39.91
34.2
27.7
21.13
15.17
10.18
6.09
2.43
-1.39
-5.91
-11.27
-17.27
-23.4
-29.09
-33.94
-37.9
-41.29
-44.7
-48.85
-54.37
-61.59
-70.38
-79.89
-88.6
-94.47
-95.46
-90.18
-78.44
-61.48
-41.57
-21.35
-3.03
12.19
24.11
33.16
39.93
44.77
47.76
48.97
48.62
47.24
45.47
43.89
42.74
41.95
41.27
40.46
39.5
38.59
37.93
37.56
37.26
36.56
34.97
32.22
28.35
23.67
18.65
13.67
8.94
4.41
-0.12
-4.95
-10.26
-16.07
-22.15
-28.02
-33.21
-37.33
-40.37
-42.74
-45.18
-48.6
-53.66
-60.45
-68.22
-75.48
-80.24
-80.63
-75.47
-64.74
-49.56
-31.94
-14.1
2.09
15.5
25.77
33.05
37.65
39.83
39.8
37.8
34.31
30.03
25.83
22.48
20.42
19.68
19.86
20.35
20.58
20.2
19.17
17.72
16.1
14.47
12.72
10.57
7.65
3.72
-1.21
-6.87
-12.8
-18.56
-23.85
-28.62
-33.07
-37.57
-42.57
-48.49
-55.57
-63.67
-72.04
-79.33
-83.77
-83.65
-77.88
-66.46
-50.6
-32.36
-14.06
2.42
16
26.37
33.72
38.27
40.19
39.67
37.12
33.32
29.31
26.11
24.36
24.11
24.91
26.02
26.71
26.52
25.34
23.34
20.83
18.1
15.26
12.15
8.41
3.6
-2.47
-9.66
-17.43
-25.08
-32
-37.93
-43.06
-47.84
-52.9
-58.8
-65.95
-74.51
-84.1
-93.73
-101.68
-105.84
-104.29
-96.01
-81.38
-62.11
-40.7
-19.67
-0.81
15.07
27.96
38.24
46.24
52.04
55.64
57.1
56.79
55.34
53.45
51.67
50.2
48.88
47.34
45.31
42.76
39.98
37.39
35.34
33.78
32.27
30.1
26.58
21.36
14.6
6.87
-1.07
-8.54
-15.21
-21.14
-26.75
-32.66
-39.54
-47.97
-58.13
-69.6
-81.14
-90.76
-96.17
-95.35
-87.33
-72.57
-52.84
-30.73
-8.86
10.79
27.15
39.98
49.53
56.21
60.38
62.36
62.52
61.41
59.61
57.71
56.04
54.63
53.31
51.78
49.86
47.58
45.16
42.86
40.75
38.62
35.97
32.22
26.94
20.12
12.18
3.86
-4.11
-11.31
-17.77
-24
-30.79
-38.92
-48.88
-60.56
-72.97
-84.26
-91.98
-93.72
-87.95
-74.56
-55.09
-32.2
-8.9
12.34
30.08
43.89
54
60.82
64.73
66.03
65.11
62.56
59.14
55.6
52.41
49.71
47.31
44.9
42.32
39.66
37.15
35.01
33.16
31.15
28.27
23.93
17.92
10.59
2.69
-4.94
-11.74
-17.65
-23.05
-28.7
-35.38
-43.67
-53.61
-64.45
-74.54
-81.63
-83.36
-78.13
-65.74
-47.63
-26.48
-5.37
13.12
27.56
37.72
44.16
47.64
48.71
47.64
44.55
39.76
33.89
27.84
22.58
18.78
16.68
16.01
16.12
16.25
15.77
14.29
11.7
8.09
3.68
-1.32
-6.76
-12.51
-18.53
-24.88
-31.73
-39.37
-48.06
-57.73
-67.67
-76.37
-81.68
-81.44
-74.23
-60.01
-40.34
-17.92
4.17
23.4
38.37
48.86
55.44
58.94
60.06
59.25
56.8
53.08
48.6
43.97
39.71
36.11
33.18
30.73
28.54
26.39
24.08
21.37
18
13.69
8.37
2.16
-4.57
-11.44
-18.15
-24.7
-31.38
-38.71
-47.26
-57.29
-68.44
-79.47
-88.33
-92.54
-90.06
-80.02
-63.19
-41.88
-19.12
2.21
20.23
34.29
44.71
52.23
57.48
60.79
62.21
61.78
59.69
56.45
52.68
49.02
45.85
43.21
40.84
38.31
35.27
31.57
27.29
22.62
17.77
12.79
7.56
1.91
-4.38
-11.47
-19.49
-28.54
-38.63
-49.5
-60.35
-69.82
-76.02
-77.09
-71.76
-59.94
-42.84
-22.73
-2.18
16.65
32.44
44.85
54.1
60.6
64.59
66.16
65.35
62.43
57.97
52.81
47.82
43.63
40.49
38.16
36.11
33.78
30.76
27
22.71
18.22
13.76
9.33
4.68
-0.54
-6.69
-14.01
-22.61
-32.45
-43.1
-53.67
-62.61
-67.98
-67.95
-61.43
-48.65
-31.14
-11.38
8.03
25.09
38.69
48.65
55.23
58.89
59.95
58.73
55.61
51.17
46.1
41.1
36.72
33.2
30.53
28.45
26.63
24.73
22.43
19.56
16.01
11.83
7.13
2.1
-3.09
-8.32
-13.6
-19.05
-24.92
-31.55
-39.23
-48.01
-57.43
-66.35
-72.99
-75.32
-71.74
-61.69
-46.05
-26.95
-7.1
10.95
25.56
36.1
42.83
46.37
47.31
46.06
42.93
38.36
32.98
27.63
23.1
19.87
18.01
17.16
16.71
16.06
14.78
12.71
9.9
6.5
2.69
-1.44
-5.81
-10.43
-15.28
-20.39
-25.93
-32.16
-39.41
-47.75
-56.72
-65.04
-70.78
-71.85
-66.8
-55.49
-39.25
-20.51
-1.98
14.2
26.91
35.99
41.76
44.59
44.65
42.05
37.14
30.73
23.99
18.19
14.16
12.11
11.6
11.73
11.58
10.47
8.16
4.77
0.67
-3.75
-8.19
-12.55
-16.92
-21.5
-26.59
-32.59
-39.83
-48.43
-57.98
-67.39
-74.89
-78.39
-76.12
-67.3
-52.57
-33.87
-13.83
4.95
20.68
32.65
41.02
46.42
49.41
50.32
49.31
46.55
42.46
37.66
32.93
28.91
25.95
24
22.69
21.46
19.76
17.22
13.74
9.52
4.92
0.24
-4.4
-9.17
-14.37
-20.3
-27.12
-34.84
-43.37
-52.46
-61.52
-69.43
-74.56
-75.1
-69.68
-58.02
-41.21
-21.49
-1.53
16.35
30.79
41.42
48.58
52.85
54.73
54.61
52.82
49.85
46.28
42.69
39.46
36.66
34.18
31.81
29.47
27.26
25.33
23.68
22.07
20
16.92
12.49
6.75
0.15
-6.67
-13.07
-18.74
-23.79
-28.68
-34.11
-40.77
-49
-58.48
-68.04
-75.76
-79.38
-77.01
-67.85
-52.63
-33.43
-13.06
5.88
21.69
33.81
42.57
48.6
52.34
53.89
53.24
50.57
46.51
42.06
38.25
35.78
34.68
34.46
34.32
33.59
31.99
29.68
27.07
24.57
22.34
20.18
17.69
14.43
10.13
4.79
-1.3
-7.7
-13.92
-19.59
-24.55
-28.88
-32.86
-36.92
-41.58
-47.38
-54.65
-63.24
-72.27
-80.08
-84.52
-83.56
-76.06
-62.29
-43.92
-23.55
-3.88
13.06
26.22
35.41
41.02
43.52
43.39
41.13
37.38
32.97
28.82
25.65
23.76
22.98
22.76
22.49
21.76
20.56
19.18
17.94
16.94
15.86
14.1
11.04
6.4
0.39
-6.32
-12.93
-18.86
-23.94
-28.48
-33.1
-38.5
-45.17
-53.11
-61.64
-69.32
-74.26
-74.56
-69.02
-57.57
-41.45
-22.84
-4.22
12.36
25.62
35.2
41.27
44.27
44.64
42.78
39.19
34.45
29.25
24.28
20.06
16.85
14.67
13.33
12.51
11.85
10.98
9.57
7.37
4.27
0.32
-4.31
-9.4
-14.68
-20
-25.31
-30.68
-36.31
-42.53
-49.73
-58.13
-67.45
-76.65
-83.96
-87.2
-84.55
-75.19
-59.78
-40.3
-19.38
0.43
17.37
30.65
40.3
46.76
50.5
51.93
51.37
49.24
46.05
42.39
38.79
35.62
33.02
30.98
29.39
28.09
26.9
25.6
23.88
21.35
17.62
12.51
6.07
-1.28
-8.96
-16.38
-23.16
-29.27
-35.09
-41.26
-48.49
-57.16
-67.03
-76.91
-84.81
-88.38
-85.65
-75.8
-59.58
-39.1
-17.18
3.51
21.16
35.03
45.17
52.04
56.07
57.64
57.12
55.06
52.2
49.27
46.79
44.94
43.52
42.17
40.6
38.72
36.68
34.73
32.94
31.09
28.66
25.07
19.96
13.36
5.79
-1.95
-9.1
-15.21
-20.4
-25.23
-30.63
-37.46
-46.26
-56.85
-68.16
-78.24
-84.73
-85.43
-79.11
-65.95
-47.61
-26.63
-5.74
12.92
28.15
39.6
47.45
52.05
53.73
52.91
50.19
46.4
42.49
39.21
36.92
35.51
34.52
33.47
32.1
30.46
28.78
27.26
25.8
23.99
21.25
17.16
11.64
5.08
-1.82
-8.34
-14.05
-18.96
-23.48
-28.32
-34.23
-41.71
-50.77
-60.66
-69.84
-76.24
-77.74
-72.88
-61.43
-44.61
-24.75
-4.64
13.32
27.66
37.94
44.44
47.81
48.61
47.25
44.1
39.65
34.6
29.76
25.86
23.3
22.03
21.67
21.65
21.44
20.62
18.99
16.46
13.01
8.72
3.71
-1.78
-7.48
-13.14
-18.71
-24.32
-30.37
-37.33
-45.53
-54.83
-64.37
-72.51
-77.15
-76.35
-69.01
-55.38
-37.06
-16.6
3.32
20.57
34.06
43.62
49.68
52.84
53.6
52.36
49.54
45.68
41.48
37.52
34.23
31.68
29.71
28.01
26.37
24.64
22.76
20.6
17.92
14.37
9.68
3.81
-2.97
-10.2
-17.34
-24.03
-30.2
-36.17
-42.52
-49.9
-58.71
-68.74
-78.92
-87.38
-91.81
-90.21
-81.59
-66.45
-46.66
-24.89
-3.76
14.85
30.07
41.84
50.5
56.4
59.74
60.79
59.96
57.92
55.45
53.2
51.5
50.24
49.04
47.49
45.36
42.74
39.97
37.39
35.13
32.93
30.14
26.11
20.38
13.06
4.74
-3.7
-11.47
-18.18
-23.97
-29.45
-35.42
-42.66
-51.54
-61.88
-72.7
-82.32
-88.6
-89.51
-83.77
-71.37
-53.63
-32.89
-11.74
7.64
23.99
36.97
46.88
54.17
59.21
62.14
63.12
62.43
60.58
58.25
56.01
54.22
52.89
51.8
50.64
49.2
47.45
45.45
43.31
40.99
38.39
35.31
31.56
27.02
21.64
15.52
8.79
1.73
-5.35
-12.13
-18.36
-23.98
-29.14
-34.15
-39.38
-45.26
-52.15
-60.21
-69.18
-78.17
-85.59
-89.48
-88.02
-80.21
-66.37
-48.07
-27.72
-7.79
9.87
24.3
35.38
43.4
48.74
51.63
52.25
50.89
48.11
44.72
41.57
39.32
38.2
37.96
37.98
37.62
36.44
34.45
31.98
29.48
27.22
25.07
22.53
19.05
14.24
8.18
1.39
-5.35
-11.38
-16.41
-20.58
-24.44
-28.69
-33.93
-40.55
-48.58
-57.53
-66.3
-73.29
-76.65
-74.8
-67.01
-53.78
-36.7
-18.04
-0.04
15.66
28.3
37.81
44.42
48.4
49.89
49.09
46.38
42.5
38.39
34.95
32.71
31.73
31.56
31.53
31.05
29.81
27.88
25.55
23.12
20.66
17.9
14.39
9.66
3.59
-3.55
-11.1
-18.29
-24.56
-29.76
-34.22
-38.55
-43.52
-49.74
-57.55
-66.86
-77
-86.63
-93.89
-96.74
-93.61
-83.96
-68.55
-49.32
-28.75
-9.16
7.93
21.94
33.04
41.7
48.33
53.05
55.85
56.74
55.98
54.06
51.63
49.25
47.28
45.79
44.63
43.57
42.36
40.85
38.94
36.62
33.86
30.66
27
22.82
18.08
12.75
6.84
0.48
-6.13
-12.75
-19.16
-25.19
-30.8
-36.08
-41.22
-46.57
-52.53
-59.5
-67.55
-76.2
-84.18
-89.65
-90.56
-85.45
-73.96
-57.08
-36.94
-16.07
3.33
19.92
33.27
43.64
51.49
57.2
60.96
62.9
63.21
62.22
60.39
58.16
55.85
53.65
51.6
49.71
47.98
46.37
44.84
43.26
41.39
38.95
35.7
31.51
26.49
20.92
15.19
9.59
4.22
-1.05
-6.45
-12.13
-18.04
-23.94
-29.52
-34.58
-39.16
-43.58
-48.37
-54.07
-61.03
-69.22
-77.97
-85.96
-91.35
-92.27
-87.39
-76.45
-60.49
-41.49
-21.85
-3.62
11.93
24.35
33.81
40.64
45.12
47.37
47.52
45.85
42.96
39.64
36.7
34.73
33.93
34.06
34.58
34.89
34.54
33.37
31.56
29.39
27.13
24.85
22.36
19.32
15.39
10.4
4.46
-2.09
-8.75
-15.07
-20.77
-25.84
-30.51
-35.17
-40.25
-46.13
-53.07
-61.06
-69.63
-77.75
-83.8
-85.93
-82.59
-73.14
-58.21
-39.58
-19.73
-1.05
14.82
27.19
36.25
42.55
46.65
48.91
49.5
48.66
46.77
44.37
42.05
40.21
39.01
38.33
37.92
37.51
36.86
35.84
34.33
32.24
29.49
26.07
22.07
17.59
12.77
7.66
2.22
-3.59
-9.82
-16.37
-23.03
-29.5
-35.59
-41.23
-46.59
-52.02
-58.03
-65.08
-73.45
-82.93
-92.66
-101.03
-105.96
-105.44
-98.23
-84.4
-65.4
-43.67
-21.85
-1.98
14.84
28.46
39.27
47.75
54.21
58.74
61.38
62.28
61.79
60.4
58.59
56.78
55.15
53.73
52.41
51.04
49.56
47.89
46.01
43.85
41.26
38.1
34.28
29.79
24.74
19.23
13.31
7.02
0.36
-6.55
-13.5
-20.19
-26.4
-32.06
-37.29
-42.41
-47.9
-54.34
-62.21
-71.62
-81.89
-91.47
-98.09
-99.36
-93.67
-80.83
-62.29
-40.68
-18.91
0.68
16.86
29.52
39.21
46.59
52.05
55.72
57.58
57.74
56.53
54.51
52.27
50.29
48.78
47.68
46.8
45.96
45.02
43.92
42.62
40.99
38.9
36.21
32.83
28.74
23.98
18.55
12.48
5.88
-1
-7.82
-14.18
-19.86
-24.88
-29.56
-34.33
-39.7
-46.07
-53.67
-62.44
-71.81
-80.59
-87
-89.06
-85.24
-75.04
-59.33
-40.17
-20.1
-1.43
14.35
26.69
35.71
41.74
45.02
45.78
44.3
41.2
37.42
33.96
31.62
30.66
30.77
31.27
31.45
30.84
29.41
27.47
25.46
23.64
21.97
20.04
17.27
13.15
7.5
0.6
-6.92
-14.3
-20.95
-26.63
-31.55
-36.23
-41.32
-47.4
-54.85
-63.64
-73.23
-82.4
-89.42
-92.34
-89.59
-80.51
-65.73
-46.98
-26.63
-6.98
10.32
24.43
35.32
43.34
48.97
52.52
54.21
54.2
52.81
50.53
47.98
45.76
44.27
43.58
43.4
43.27
42.7
41.4
39.38
36.83
34.03
31.09
27.91
24.19
19.58
13.87
7.11
-0.38
-8.1
-15.55
-22.4
-28.58
-34.27
-39.78
-45.5
-51.84
-59.16
-67.68
-77.23
-87.04
-95.6
-100.89
-100.91
-94.39
-81.32
-63.04
-41.86
-20.31
-0.45
16.57
30.5
41.59
50.27
56.81
61.37
64.07
65.13
64.89
63.77
62.2
60.52
58.94
57.56
56.4
55.4
54.45
53.38
51.93
49.85
46.98
43.24
38.74
33.67
28.22
22.54
16.65
10.52
4.13
-2.5
-9.22
-15.88
-22.3
-28.39
-34.17
-39.79
-45.55
-51.94
-59.43
-68.28
-78.13
-87.8
-95.35
-98.55
-95.6
-85.84
-70.09
-50.37
-29.29
-9.18
8.43
23
34.65
43.79
50.73
55.62
58.58
59.85
59.83
59.04
57.92
56.75
55.6
54.47
53.32
52.17
51.04
49.9
48.6
46.91
44.61
41.53
37.65
33.09
28.06
22.81
17.52
12.29
7.07
1.78
-3.67
-9.31
-15
-20.56
-25.77
-30.52
-34.91
-39.29
-44.19
-50.17
-57.58
-66.18
-74.98
-82.2
-85.75
-83.83
-75.59
-61.54
-43.42
-23.66
-4.65
11.89
25.14
35.08
42.07
46.56
48.9
49.39
48.35
46.31
43.9
41.71
40.16
39.35
39.11
39.1
39.03
38.66
37.95
36.87
35.36
33.3
30.52
26.94
22.56
17.57
12.2
6.65
1.01
-4.76
-10.74
-16.93
-23.23
-29.4
-35.19
-40.46
-45.33
-50.23
-55.78
-62.54
-70.75
-79.92
-88.75
-95.29
-97.44
-93.65
-83.46
-67.74
-48.45
-28.01
-8.57
8.42
22.38
33.36
41.74
47.96
52.33
55.1
56.52
56.89
56.52
55.7
54.64
53.42
52.07
50.6
49.05
47.53
46.11
44.76
43.28
41.3
38.47
34.55
29.62
24.01
18.2
12.61
7.43
2.58
-2.24
-7.36
-13.01
-19.13
-25.45
-31.58
-37.19
-42.24
-47.02
-52.14
-58.3
-65.99
-75.11
-84.82
-93.47
-98.97
-99.4
-93.59
-81.57
-64.62
-44.83
-24.52
-5.62
10.75
24.26
35.13
43.76
50.51
55.57
59.06
61.08
61.83
61.62
60.74
59.46
57.92
56.2
54.33
52.38
50.51
48.87
47.51
46.27
44.77
42.57
39.27
34.77
29.31
23.36
17.48
12.05
7.14
2.49
-2.33
-7.69
-13.69
-20.15
-26.65
-32.71
-38.03
-42.57
-46.66
-50.93
-56.09
-62.71
-70.84
-79.79
-88.07
-93.64
-94.49
-89.37
-78.18
-62.15
-43.35
-24.1
-6.29
9
21.43
31.16
38.51
43.74
47.02
48.5
48.43
47.21
45.35
43.33
41.55
40.18
39.25
38.65
38.2
37.71
37
35.89
34.23
31.94
29.03
25.63
21.88
17.88
13.59
8.88
3.57
-2.34
-8.65
-14.97
-20.84
-25.97
-30.33
-34.22
-38.2
-42.92
-48.95
-56.54
-65.42
-74.61
-82.46
-86.96
-86.31
-79.53
-66.88
-49.86
-30.75
-11.9
4.9
18.71
29.41
37.34
42.95
46.56
48.39
48.68
47.76
46.08
44.17
42.46
41.23
40.52
40.23
40.17
40.15
40
39.56
38.61
36.89
34.19
30.45
25.82
20.63
15.22
9.81
4.38
-1.25
-7.29
-13.79
-20.58
-27.38
-33.89
-39.93
-45.53
-50.85
-56.18
-61.91
-68.5
-76.32
-85.39
-95
-103.59
-108.94
-108.81
-101.81
-87.95
-68.8
-46.93
-25.07
-5.26
11.47
25.06
35.97
44.72
51.63
56.82
60.33
62.32
63.07
62.97
62.36
61.44
60.27
58.84
57.18
55.41
53.76
52.45
51.48
50.62
49.37
47.15
43.57
38.63
32.74
26.56
20.71
15.5
10.8
6.13
0.94
-5.11
-11.96
-19.17
-26.11
-32.3
-37.61
-42.37
-47.23
-52.98
-60.27
-69.33
-79.86
-90.8
-100.44
-106.61
-107.28
-101.1
-87.99
-69.27
-47.34
-24.92
-4.32
13.1
27.02
37.81
46.02
52.1
56.28
58.71
59.63
59.42
58.53
57.31
55.97
54.57
53.12
51.66
50.29
49.08
48.03
46.99
45.69
43.8
41.1
37.54
33.21
28.34
23.15
17.78
12.19
6.31
0.05
-6.54
-13.2
-19.55
-25.26
-30.16
-34.4
-38.39
-42.74
-48.1
-54.95
-63.35
-72.7
-81.56
-87.88
-89.48
-84.77
-73.42
-56.57
-36.51
-15.94
2.85
18.53
30.78
39.91
46.43
50.67
52.77
52.84
51.16
48.27
44.92
41.85
39.58
38.33
37.99
38.17
38.38
38.19
37.29
35.63
33.31
30.51
27.38
23.95
20.06
15.49
10.03
3.66
-3.43
-10.82
-18.02
-24.59
-30.36
-35.43
-40.21
-45.26
-51.2
-58.47
-67.24
-77.22
-87.52
-96.58
-102.37
-102.87
-96.68
-83.59
-64.78
-42.63
-19.96
0.77
18.02
31.38
41.28
48.48
53.67
57.24
59.28
59.86
59.1
57.32
54.95
52.42
50.08
48.16
46.71
45.66
44.86
44.08
43.04
41.46
39.12
35.9
31.83
27.03
21.67
15.9
9.81
3.47
-3.05
-9.67
-16.26
-22.7
-28.89
-34.75
-40.28
-45.64
-51.15
-57.36
-64.84
-73.87
-83.99
-93.77
-100.93
-102.98
-98.07
-85.78
-67.37
-45.33
-22.58
-1.55
16.34
30.73
41.95
50.52
56.87
61.17
63.57
64.25
63.53
61.88
59.75
57.5
55.38
53.49
51.87
50.5
49.36
48.38
47.39
46.11
44.21
41.43
37.71
33.22
28.27
23.18
18.06
12.83
7.26
1.19
-5.35
-12.07
-18.56
-24.48
-29.67
-34.28
-38.69
-43.48
-49.27
-56.54
-65.28
-74.73
-83.23
-88.46
-88.18
-81.01
-67.07
-48.06
-26.73
-5.91
12.26
26.82
37.78
45.69
51.09
54.28
55.38
54.55
52.23
49.05
45.76
42.91
40.8
39.32
38.13
36.83
35.19
33.15
30.9
28.72
26.78
25.02
23.12
20.6
16.98
12.07
5.96
-0.92
-8
-14.77
-20.97
-26.57
-31.83
-37.15
-42.96
-49.7
-57.61
-66.63
-76.11
-84.82
-90.98
-92.7
-88.55
-78.13
-62.27
-42.91
-22.51
-3.3
13.21
26.42
36.44
43.67
48.48
51.09
51.62
50.31
47.63
44.22
40.77
37.86
35.78
34.54
33.89
33.46
32.84
31.76
30.11
27.94
25.39
22.6
19.61
16.3
12.43
7.81
2.32
-3.98
-10.86
-18.05
-25.26
-32.25
-38.9
-45.23
-51.44
-57.93
-65.26
-73.82
-83.58
-93.74
-102.65
-108.14
-108.08
-101.13
-87.35
-68.17
-46.07
-23.75
-3.35
13.91
27.81
38.72
47.14
53.48
57.91
60.58
61.67
61.52
60.52
59.02
57.3
55.51
53.79
52.22
50.88
49.73
48.64
47.33
45.53
43.03
39.75
35.76
31.2
26.21
20.82
14.98
8.62
1.77
-5.37
-12.51
-19.29
-25.52
-31.18
-36.5
-41.9
-47.9
-55.04
-63.66
-73.7
-84.4
-94.24
-101.07
-102.68
-97.51
-85.33
-67.36
-46.01
-24.06
-3.82
13.37
27.24
38.17
46.77
53.36
58
60.61
61.29
60.44
58.7
56.75
55.08
53.84
52.9
51.99
50.92
49.61
48.1
46.42
44.52
42.22
39.31
35.64
31.2
26.13
20.67
14.97
9.07
2.94
-3.46
-10.07
-16.66
-22.96
-28.76
-34.06
-39.09
-44.31
-50.24
-57.32
-65.63
-74.54
-82.72
-88.18
-88.88
-83.42
-71.6
-54.65
-34.85
-14.77
3.53
18.88
31.04
40.27
46.92
51.16
53.03
52.66
50.5
47.31
43.99
41.33
39.74
39.16
39.16
39.17
38.72
37.66
36.09
34.27
32.4
30.46
28.14
25.04
20.73
15.06
8.19
0.62
-7.01
-14.16
-20.51
-26.08
-31.19
-36.32
-41.99
-48.68
-56.63
-65.73
-75.31
-84.03
-90.01
-91.33
-86.63
-75.65
-59.45
-40.08
-19.92
-1.04
15.35
28.86
39.66
48.05
54.23
58.2
60
59.8
58.04
55.38
52.51
50.01
48.22
47.16
46.62
46.19
45.49
44.18
42.13
39.33
35.9
31.99
27.75
23.23
18.41
13.2
7.51
1.31
-5.35
-12.28
-19.24
-25.98
-32.33
-38.25
-43.86
-49.49
-55.6
-62.71
-71.22
-80.97
-91.11
-99.87
-104.97
-104.23
-96.35
-81.47
-61.25
-38.36
-15.64
4.65
21.35
34.34
44.15
51.46
56.82
60.51
62.66
63.42
63.07
61.93
60.35
58.56
56.68
54.77
52.89
51.17
49.69
48.47
47.32
45.89
43.8
40.77
36.71
31.81
26.33
20.63
14.91
9.21
3.47
-2.41
-8.42
-14.43
-20.14
-25.27
-29.67
-33.5
-37.25
-41.66
-47.54
-55.4
-65.22
-76.16
-86.56
-94.24
-96.99
-93.3
-82.86
-66.73
-47.09
-26.53
-7.34
9.03
22.1
32.08
39.42
44.55
47.64
48.81
48.2
46.25
43.59
40.93
38.84
37.58
37.02
36.75
36.29
35.29
33.66
31.57
29.32
27.1
24.91
22.47
19.41
15.36
10.17
3.92
-3.03
-10.18
-17.08
-23.35
-28.89
-33.81
-38.45
-43.34
-49.06
-55.97
-63.99
-72.37
-79.59
-83.74
-83.01
-76.3
-63.69
-46.49
-26.86
-7.2
10.52
25.16
36.41
44.53
49.96
53.04
53.95
52.91
50.3
46.74
43.03
39.89
37.73
36.55
35.97
35.46
34.62
33.22
31.32
29.07
26.6
23.88
20.75
17.01
12.44
6.99
0.72
-6.15
-13.3
-20.38
-27.04
-33.11
-38.63
-43.87
-49.25
-55.27
-62.4
-70.88
-80.54
-90.58
-99.57
-105.53
-106.44
-100.89
-88.58
-70.57
-49.01
-26.51
-5.39
12.85
27.65
39.18
47.93
54.35
58.75
61.31
62.15
61.55
59.93
57.82
55.73
54.02
52.84
52.04
51.35
50.45
49.12
47.23
44.73
41.66
38.05
33.97
29.47
24.56
19.22
13.31
6.72
-0.56
-8.36
-16.33
-24
-31.02
-37.25
-42.91
-48.5
-54.68
-62.07
-70.97
-81.09
-91.35
-99.95
-104.71
-103.73
-96.01
-81.84
-62.83
-41.35
-19.87
-0.33
16.21
29.49
39.78
47.51
53.11
56.89
59.05
59.8
59.38
58.11
56.36
54.51
52.85
51.53
50.54
49.66
48.62
47.15
45.14
42.62
39.69
36.46
32.9
28.83
24
18.23
11.57
4.33
-3.03
-10.04
-16.4
-22.13
-27.49
-32.84
-38.58
-45.02
-52.42
-60.85
-70.07
-79.26
-87.01
-91.37
-90.48
-83.22
-69.68
-51.33
-30.58
-9.98
8.43
23.58
35.28
43.85
49.74
53.25
54.55
53.84
51.54
48.31
44.94
42.14
40.31
39.43
39.15
38.92
38.26
36.93
34.98
32.62
30.11
27.5
24.62
21.1
16.57
10.84
4.03
-3.47
-11.1
-18.33
-24.86
-30.73
-36.29
-42.05
-48.54
-56.16
-65.07
-75.11
-85.7
-95.68
-103.38
-106.86
-104.43
-95.23
-79.68
-59.46
-37.07
-15.11
4.43
20.56
33.26
43.04
50.59
56.31
60.37
62.72
63.35
62.44
60.45
57.98
55.64
53.82
52.65
51.93
51.34
50.53
49.24
47.37
44.89
41.81
38.13
33.82
28.9
23.4
17.39
10.95
4.11
-3.04
-10.42
-17.83
-25.05
-31.86
-38.17
-44.08
-49.92
-56.22
-63.58
-72.44
-82.65
-93.23
-102.31
-107.51
-106.6
-98.39
-83.18
-62.77
-39.86
-17.15
3.35
20.71
34.79
45.94
54.53
60.8
64.99
67.41
68.54
68.87
68.86
68.67
68.24
67.34
65.74
63.47
60.78
58.15
55.97
54.38
53.09
51.5
48.89
44.8
39.21
32.56
25.61
19.03
13.19
8.01
3.01
-2.39
-8.57
-15.55
-22.94
-30.12
-36.57
-42.09
-46.89
-51.6
-57
-63.83
-72.43
-82.47
-92.82
-101.57
-106.47
-105.51
-97.62
-83.08
-63.52
-41.5
-19.66
-0.01
16.39
29.46
39.6
47.32
52.88
56.36
57.79
57.38
55.66
53.32
51.05
49.29
48.13
47.4
46.8
46.09
45.14
43.94
42.45
40.59
38.21
35.21
31.55
27.3
22.52
17.25
11.47
5.18
-1.5
-8.34
-15
-21.19
-26.8
-31.93
-36.92
-42.21
-48.27
-55.47
-63.88
-73.02
-81.77
-88.39
-90.87
-87.57
-77.81
-62.24
-42.72
-21.72
-1.64
15.84
29.98
40.75
48.49
53.57
56.3
56.99
56.04
54.02
51.54
49.14
47.12
45.55
44.39
43.54
42.93
42.46
42.01
41.3
40.01
37.82
34.54
30.18
24.97
19.26
13.4
7.61
1.86
-4.05
-10.37
-17.25
-24.6
-32.11
-39.32
-45.87
-51.63
-56.85
-62.11
-68.22
-75.95
-85.63
-96.81
-108.01
-116.85
-120.69
-117.42
-106.28
-88.21
-65.56
-41.28
-18.04
2.45
19.57
33.48
44.63
53.38
59.89
64.26
66.7
67.64
67.59
67.06
66.31
65.34
64.03
62.28
60.18
58.07
56.36
55.28
54.74
54.2
52.89
50.1
45.51
39.31
32.14
24.87
18.16
12.27
6.98
1.69
-4.18
-10.97
-18.56
-26.43
-33.9
-40.45
-45.94
-50.68
-55.38
-60.92
-68.1
-77.31
-88.24
-99.65
-109.38
-114.89
-113.87
-105.11
-89
-67.46
-43.37
-19.65
1.54
19.18
33.24
44.26
52.82
59.28
63.79
66.42
67.41
67.14
66.12
64.78
63.38
61.95
60.39
58.63
56.73
54.95
53.53
52.59
51.93
50.99
49.1
45.7
40.64
34.29
27.35
20.63
14.7
9.68
5.16
0.49
-4.94
-11.43
-18.77
-26.37
-33.52
-39.64
-44.58
-48.67
-52.62
-57.29
-63.46
-71.5
-81.1
-91.03
-99.3
-103.52
-101.62
-92.58
-76.88
-56.44
-34.02
-12.36
6.57
21.86
33.55
42.12
48.1
51.77
53.29
52.86
50.86
47.94
44.88
42.34
40.71
40.02
39.99
40.18
40.17
39.7
38.66
37.09
35.03
32.5
29.45
25.75
21.26
15.9
9.7
2.84
-4.35
-11.48
-18.19
-24.25
-29.65
-34.55
-39.32
-44.4
-50.27
-57.3
-65.56
-74.63
-83.38
-90.14
-93
-90.38
-81.61
-67.23
-48.83
-28.64
-8.88
8.78
23.43
34.87
43.36
49.32
53.13
55.1
55.49
54.54
52.58
50
47.25
44.73
42.71
41.33
40.51
40.03
39.52
38.62
37.03
34.59
31.3
27.31
22.76
17.74
12.23
6.18
-0.46
-7.61
-15.04
-22.45
-29.56
-36.21
-42.42
-48.34
-54.22
-60.41
-67.33
-75.37
-84.69
-94.87
-104.66
-112.08
-114.84
-111.1
-100.17
-82.85
-61.22
-37.95
-15.49
4.51
21.41
35.31
46.61
55.74
62.89
68.11
71.46
73.09
73.27
72.4
70.86
68.97
66.9
64.76
62.66
60.7
59
57.53
56.08
54.26
51.57
47.62
42.31
35.93
29.03
22.21
15.9
10.14
4.64
-1.05
-7.32
-14.31
-21.78
-29.27
-36.28
-42.52
-48.08
-53.4
-59.23
-66.38
-75.35
-86.01
-97.28
-107.2
-113.31
-113.41
-106.27
-92.08
-72.45
-49.85
-26.85
-5.44
13.3
29.1
42.21
52.96
61.56
68.04
72.4
74.77
75.44
74.88
73.63
72.11
70.59
69.1
67.55
65.86
63.98
61.97
59.95
57.91
55.77
53.26
50.05
45.89
40.7
34.68
28.28
22
16.27
11.21
6.57
1.87
-3.41
-9.52
-16.36
-23.49
-30.3
-36.34
-41.47
-45.89
-50.14
-54.86
-60.71
-68.21
-77.49
-88.12
-98.88
-107.78
-112.46
-110.88
-102.05
-86.5
-66.15
-43.72
-21.79
-2.17
14.37
27.88
38.76
47.37
53.83
58.18
60.55
61.29
60.96
60.16
59.33
58.64
58.04
57.35
56.46
55.39
54.28
53.32
52.52
51.71
50.46
48.27
44.73
39.74
33.54
26.75
20.09
14.17
9.21
4.98
0.91
-3.68
-9.22
-15.69
-22.63
-29.34
-35.2
-39.94
-43.75
-47.2
-51.08
-56.08
-62.69
-70.96
-80.31
-89.44
-96.5
-99.41
-96.48
-87.02
-71.66
-52.17
-30.97
-10.36
7.98
23.25
35.35
44.53
51.09
55.25
57.19
57.21
55.78
53.55
51.24
49.36
48.14
47.43
46.89
46.16
45.08
43.8
42.58
41.61
40.77
39.6
37.51
34.04
29.13
23.22
17.04
11.33
6.5
2.46
-1.31
-5.55
-10.84
-17.34
-24.72
-32.29
-39.32
-45.34
-50.32
-54.64
-58.96
-64
-70.4
-78.54
-88.23
-98.56
-107.77
-113.55
-113.61
-106.52
-92.28
-72.49
-49.76
-26.91
-6.11
11.59
26.08
37.83
47.31
54.82
60.4
64.08
66.07
66.74
66.58
66.01
65.26
64.36
63.17
61.59
59.66
57.61
55.75
54.34
53.4
52.61
51.38
49.1
45.34
40.05
33.61
26.66
19.94
13.97
8.93
4.55
0.32
-4.4
-10.02
-16.61
-23.85
-31.17
-37.95
-43.83
-48.81
-53.26
-57.82
-63.26
-70.25
-79.14
-89.7
-100.87
-110.75
-116.94
-117.13
-109.97
-95.57
-75.58
-52.61
-29.43
-8.17
10.05
25.06
37.26
47.12
54.97
60.92
65.04
67.46
68.45
68.36
67.51
66.2
64.6
62.85
61.06
59.36
57.86
56.64
55.68
54.78
53.58
51.65
48.69
44.59
39.5
33.77
27.84
22.08
16.7
11.79
7.24
2.87
-1.6
-6.45
-11.85
-17.84
-24.22
-30.69
-36.93
-42.75
-48.19
-53.51
-59.15
-65.65
-73.5
-82.88
-93.43
-104
-112.66
-117.14
-115.49
-106.79
-91.55
-71.58
-49.4
-27.42
-7.34
10.01
24.55
36.53
46.21
53.73
59.16
62.63
64.43
64.95
64.63
63.84
62.77
61.5
60.03
58.37
56.65
55.07
53.83
52.98
52.29
51.33
49.54
46.49
42
36.26
29.77
23.19
17.13
11.97
7.66
3.81
-0.24
-5.1
-11.1
-18.1
-25.57
-32.77
-39.12
-44.35
-48.66
-52.54
-56.74
-61.96
-68.73
-77.13
-86.53
-95.5
-101.95
-103.73
-99.27
-88.21
-71.58
-51.48
-30.38
-10.43
6.98
21.26
32.42
40.71
46.43
49.94
51.62
51.95
51.43
50.49
49.43
48.4
47.46
46.62
45.92
45.36
44.91
44.45
43.75
42.52
40.5
37.55
33.72
29.21
24.28
19.16
13.96
8.66
3.17
-2.62
-8.76
-15.16
-21.65
-27.95
-33.8
-39.04
-43.72
-48.11
-52.76
-58.35
-65.4
-73.98
-83.3
-91.78
-97.22
-97.53
-91.35
-78.66
-60.79
-40.02
-18.87
0.59
17.12
30.33
40.42
47.71
52.52
55.03
55.45
54.11
51.55
48.48
45.53
43.18
41.61
40.75
40.36
40.16
39.91
39.41
38.44
36.79
34.3
30.94
26.85
22.2
17.16
11.74
5.83
-0.68
-7.81
-15.36
-23
-30.32
-37.13
-43.4
-49.43
-55.64
-62.52
-70.5
-79.76
-90.1
-100.7
-110.07
-116.24
-117.21
-111.56
-98.98
-80.48
-58.18
-34.68
-12.34
7.25
23.47
36.45
46.74
54.87
61.16
65.74
68.61
69.82
69.6
68.33
66.45
64.34
62.24
60.21
58.19
56.11
53.9
51.5
48.86
45.88
42.41
38.34
33.63
28.28
22.36
15.92
9.05
1.82
-5.62
-13.05
-20.21
-26.93
-33.14
-38.97
-44.78
-51.08
-58.5
-67.48
-77.99
-89.14
-99.12
-105.5
-105.91
-98.94
-84.72
-64.94
-42.3
-19.59
1.09
18.74
33.29
45.11
54.58
61.82
66.87
69.78
70.89
70.72
69.8
68.55
67.17
65.63
63.9
62.03
60.18
58.55
57.15
55.77
53.98
51.32
47.5
42.55
36.82
30.77
24.82
19.1
13.44
7.48
0.91
-6.39
-14.2
-22.07
-29.48
-36.06
-41.79
-46.99
-52.31
-58.5
-66.14
-75.34
-85.44
-94.99
-101.92
-104.05
-99.76
-88.54
-71.33
-50.23
-27.91
-6.8
11.45
26.23
37.68
46.24
52.3
55.97
57.36
56.75
54.73
52.16
49.91
48.5
47.97
47.96
47.87
47.21
45.76
43.61
41.09
38.5
36
33.46
30.53
26.75
21.76
15.48
8.16
0.31
-7.47
-14.7
-21.13
-26.83
-32.09
-37.33
-43.02
-49.59
-57.29
-65.97
-74.93
-82.81
-87.82
-88.15
-82.63
-71.15
-54.79
-35.51
-15.56
3.16
19.39
32.59
42.66
49.75
54.02
55.7
55.19
53.09
50.19
47.22
44.72
42.9
41.57
40.37
38.91
36.97
34.64
32.18
29.9
27.87
25.86
23.33
19.67
14.44
7.58
-0.53
-9.21
-17.7
-25.42
-32.17
-38.17
-43.94
-50.21
-57.66
-66.68
-77.1
-87.95
-97.47
-103.44
-103.77
-97.18
-83.69
-64.74
-42.72
-20.3
0.34
17.91
32.1
43.21
51.77
58.21
62.73
65.42
66.37
65.84
64.26
62.12
59.9
57.89
56.17
54.67
53.2
51.6
49.75
47.58
45.02
42
38.42
34.21
29.28
23.63
17.29
10.32
2.85
-4.94
-12.8
-20.46
-27.75
-34.63
-41.21
-47.82
-54.9
-62.91
-72.22
-82.8
-94.04
-104.49
-112.07
-114.49
-110.03
-98.19
-79.98
-57.67
-34.05
-11.59
8.15
24.62
38
48.76
57.27
63.75
68.27
70.99
72.18
72.21
71.45
70.16
68.46
66.42
64.13
61.77
59.58
57.79
56.46
55.35
53.98
51.78
48.31
43.46
37.52
31
24.44
18.14
12.07
5.92
-0.68
-7.96
-15.78
-23.72
-31.21
-37.78
-43.33
-48.16
-52.94
-58.48
-65.54
-74.51
-85.09
-96.19
-105.83
-111.62
-111.35
-103.77
-89.06
-68.86
-45.79
-22.68
-1.76
15.73
29.51
40
47.81
53.51
57.46
59.91
61.06
61.2
60.69
59.86
58.92
57.95
56.88
55.66
54.31
52.95
51.75
50.69
49.54
47.84
45.12
41.09
35.85
29.8
23.49
17.34
11.47
5.67
-0.4
-6.99
-14.06
-21.32
-28.28
-34.56
-39.98
-44.73
-49.29
-54.33
-60.55
-68.36
-77.57
-87.19
-95.36
-99.73
-98.22
-89.68
-74.48
-54.43
-32.23
-10.6
8.46
23.99
35.93
44.67
50.65
54.16
55.42
54.72
52.56
49.61
46.57
43.97
42.1
40.93
40.26
39.79
39.24
38.46
37.34
35.84
33.89
31.4
28.27
24.41
19.79
14.43
8.41
1.8
-5.23
-12.48
-19.67
-26.53
-32.85
-38.6
-43.96
-49.26
-54.95
-61.53
-69.35
-78.44
-88.18
-97.18
-103.39
-104.6
-99.17
-86.7
-68.34
-46.4
-23.67
-2.52
15.6
30.25
41.66
50.25
56.36
60.18
61.95
62.03
60.94
59.21
57.25
55.3
53.42
51.65
50.04
48.65
47.51
46.5
45.35
43.7
41.18
37.59
32.93
27.44
21.51
15.54
9.78
4.21
-1.41
-7.43
-14.12
-21.48
-29.25
-36.93
-44.09
-50.46
-56.19
-61.78
-68.02
-75.7
-85.13
-95.86
-106.43
-114.52
-117.62
-113.81
-102.46
-84.55
-62.34
-38.64
-15.91
4.29
21.36
35.38
46.67
55.5
62.02
66.39
68.92
70.04
70.23
69.85
69.1
67.98
66.45
64.54
62.42
60.33
58.44
56.72
54.94
52.67
49.49
45.17
39.79
33.7
27.4
21.31
15.59
10.07
4.34
-2.06
-9.34
-17.37
-25.67
-33.61
-40.68
-46.72
-52.02
-57.22
-63.18
-70.65
-79.93
-90.59
-101.23
-109.65
-113.36
-110.3
-99.64
-82.12
-59.92
-35.9
-12.78
7.57
24.38
37.75
48.17
56.16
62.01
65.87
67.88
68.34
67.66
66.33
64.75
63.1
61.42
59.62
57.7
55.74
53.91
52.36
51
49.52
47.4
44.15
39.59
33.91
27.68
21.53
15.88
10.77
5.84
0.53
-5.59
-12.59
-20.13
-27.6
-34.38
-40.15
-45.01
-49.48
-54.35
-60.46
-68.38
-78.13
-88.82
-98.7
-105.38
-106.46
-100.36
-86.96
-67.72
-45.27
-22.52
-1.84
15.51
29.29
39.93
47.9
53.48
56.72
57.67
56.62
54.18
51.13
48.24
46.01
44.62
43.94
43.7
43.61
43.38
42.8
41.69
39.89
37.34
34.06
30.17
25.84
21.15
16.09
10.56
4.4
-2.4
-9.68
-17.07
-24.14
-30.55
-36.18
-41.18
-45.93
-50.94
-56.78
-63.89
-72.32
-81.46
-89.91
-95.68
-96.61
-91.14
-78.92
-61.05
-39.75
-17.73
2.65
19.93
33.62
43.96
51.44
56.47
59.22
59.81
58.45
55.63
52.11
48.69
46.04
44.44
43.74
43.49
43.17
42.36
40.86
38.65
35.85
32.58
28.9
24.8
20.23
15.04
9.15
2.53
-4.7
-12.29
-19.92
-27.28
-34.15
-40.5
-46.43
-52.24
-58.32
-65.17
-73.22
-82.58
-92.78
-102.53
-109.84
-112.45
-108.52
-97.36
-79.75
-57.78
-34.18
-11.53
8.38
24.78
37.76
47.82
55.54
61.3
65.31
67.7
68.62
68.34
67.17
65.46
63.53
61.61
59.86
58.31
56.95
55.64
54.23
52.47
50.09
46.85
42.62
37.46
31.61
25.4
19.12
12.88
6.57
-0.01
-7.04
-14.49
-22.11
-29.5
-36.29
-42.38
-47.98
-53.62
-60.03
-67.91
-77.53
-88.45
-99.22
-107.62
-111.12
-107.75
-96.79
-79.17
-57.18
-33.7
-11.35
8.21
24.41
37.45
47.87
56.07
62.22
66.38
68.7
69.53
69.33
68.58
67.6
66.48
65.16
63.58
61.79
59.97
58.36
57.1
56.08
54.86
52.86
49.5
44.53
38.15
31.02
23.94
17.56
12.12
7.32
2.49
-3.03
-9.57
-17.01
-24.81
-32.3
-38.98
-44.74
-49.86
-54.98
-60.86
-68.19
-77.24
-87.68
-98.32
-107.17
-111.83
-110.23
-101.27
-85.36
-64.35
-40.94
-17.89
2.78
20.05
33.84
44.54
52.61
58.36
61.92
63.48
63.35
62.02
60.08
58.03
56.18
54.61
53.29
52.13
51.12
50.27
49.51
48.67
47.38
45.23
41.95
37.52
32.24
26.58
21.04
15.91
11.22
6.75
2.1
-3.1
-9.04
-15.67
-22.64
-29.47
-35.65
-40.9
-45.33
-49.45
-54.07
-60.05
-67.85
-77.18
-86.84
-94.81
-98.77
-96.81
-88.06
-73.05
-53.58
-32.16
-11.28
7.23
22.41
34.15
42.78
48.7
52.24
53.61
53.03
50.9
47.81
44.47
41.53
39.38
38.11
37.53
37.29
37.09
36.65
35.8
34.46
32.52
29.96
26.74
22.9
18.51
13.61
8.2
2.31
-3.98
-10.52
-17.07
-23.37
-29.25
-34.64
-39.65
-44.55
-49.76
-55.83
-63.21
-72
-81.66
-90.79
-97.31
-99.03
-94.34
-82.86
-65.67
-44.97
-23.38
-3.21
14.11
28.02
38.68
46.57
52.13
55.68
57.42
57.56
56.35
54.18
51.51
48.85
46.55
44.82
43.66
42.88
42.2
41.28
39.85
37.69
34.7
30.88
26.36
21.3
15.89
10.2
4.19
-2.19
-9
-16.16
-23.43
-30.53
-37.19
-43.36
-49.21
-55.06
-61.4
-68.7
-77.32
-87.23
-97.74
-107.37
-113.99
-115.31
-109.65
-96.61
-77.35
-54.27
-30.26
-7.81
11.56
27.37
39.91
49.74
57.34
63.03
67.01
69.46
70.66
70.88
70.39
69.36
67.9
66.13
64.15
62.08
60.07
58.22
56.54
54.89
52.99
50.43
46.81
41.96
35.99
29.36
22.63
16.26
10.36
4.65
-1.39
-8.21
-15.96
-24.34
-32.76
-40.58
-47.39
-53.16
-58.34
-63.68
-70.12
-78.37
-88.61
-100.17
-111.34
-119.63
-122.45
-117.92
-105.59
-86.66
-63.59
-39.29
-16.22
4.13
21.32
35.57
47.32
56.88
64.35
69.74
73.1
74.67
74.86
74.12
72.88
71.37
69.67
67.74
65.6
63.36
61.28
59.61
58.42
57.46
56.18
53.96
50.3
45.08
38.62
31.53
24.49
18
12.24
6.99
1.76
-3.95
-10.48
-17.83
-25.63
-33.34
-40.4
-46.49
-51.64
-56.25
-60.96
-66.58
-73.82
-83.02
-93.86
-105.11
-114.68
-120.05
-119.02
-110.44
-94.68
-73.55
-49.73
-25.93
-4.2
14.36
29.56
41.68
51.16
58.31
63.33
66.36
67.66
67.63
66.75
65.5
64.2
62.99
61.81
60.52
59.07
57.54
56.11
54.91
53.89
52.71
50.9
47.99
43.73
38.26
32.02
25.63
19.59
14.16
9.25
4.51
-0.49
-6.1
-12.36
-19.09
-25.85
-32.22
-37.85
-42.71
-47.05
-51.37
-56.37
-62.69
-70.71
-80.23
-90.24
-99
-104.26
-103.97
-96.92
-83.24
-64.42
-42.89
-21.25
-1.56
15.06
28.35
38.57
46.14
51.33
54.28
55.12
54.17
52.01
49.33
46.84
44.96
43.77
43.12
42.73
42.41
42.09
41.75
41.27
40.36
38.59
35.61
31.36
26.12
20.41
14.71
9.23
3.78
-2
-8.44
-15.55
-22.95
-30.09
-36.44
-41.84
-46.54
-51.15
-56.46
-63.16
-71.58
-81.37
-91.42
-99.85
-104.42
-103.19
-95.11
-80.53
-61.09
-39.23
-17.5
2.17
18.74
32.03
42.39
50.27
56.04
59.89
61.92
62.29
61.31
59.46
57.24
55.1
53.29
51.88
50.79
49.89
49.08
48.26
47.23
45.67
43.16
39.4
34.29
28.14
21.49
14.96
8.93
3.41
-1.97
-7.74
-14.31
-21.76
-29.76
-37.73
-45.08
-51.47
-57
-62.19
-67.89
-74.96
-83.94
-94.62
-105.81
-115.42
-120.91
-120.05
-111.71
-96.31
-75.68
-52.47
-29.28
-7.98
10.57
26.3
39.52
50.54
59.46
66.27
70.98
73.75
74.95
75.01
74.37
73.32
71.99
70.36
68.47
66.42
64.4
62.64
61.18
59.78
57.9
54.94
50.54
44.73
37.99
31.02
24.43
18.47
13
7.56
1.63
-5.11
-12.65
-20.66
-28.61
-35.97
-42.42
-47.99
-53.08
-58.42
-64.89
-73.18
-83.47
-95.08
-106.42
-115.16
-118.82
-115.52
-104.63
-87.06
-64.98
-41.12
-17.99
2.76
20.43
35.12
47.22
57.04
64.72
70.24
73.68
75.27
75.49
74.84
73.8
72.57
71.18
69.5
67.44
65.08
62.61
60.32
58.36
56.67
54.84
52.32
48.58
43.4
37
30.01
23.21
17.21
12.17
7.75
3.26
-2.01
-8.39
-15.75
-23.54
-31.08
-37.85
-43.7
-48.83
-53.75
-59.1
-65.56
-73.59
-83.23
-93.75
-103.57
-110.43
-111.98
-106.55
-93.83
-75.06
-52.65
-29.49
-8
10.35
25.14
36.71
45.6
52.24
56.8
59.3
59.84
58.75
56.58
53.97
51.46
49.37
47.74
46.42
45.23
44.01
42.66
41.12
39.32
37.13
34.45
31.14
27.08
22.21
16.51
10.06
3.06
-4.17
-11.33
-18.14
-24.43
-30.18
-35.49
-40.62
-45.98
-52.07
-59.35
-68.01
-77.58
-86.81
-93.73
-96.15
-92.36
-81.78
-65.25
-44.84
-23.19
-2.72
14.97
29.28
40.38
48.72
54.74
58.61
60.39
60.17
58.32
55.41
52.2
49.35
47.26
45.98
45.26
44.71
43.93
42.63
40.72
38.2
35.13
31.51
27.35
22.54
17.03
10.77
3.84
-3.6
-11.31
-18.99
-26.37
-33.25
-39.58
-45.47
-51.19
-57.19
-64.06
-72.34
-82.27
-93.36
-104.22
-112.65
-116.16
-112.79
-101.83
-84.18
-62.06
-38.26
-15.32
5.05
22.19
36.19
47.44
56.32
63.06
67.8
70.66
71.88
71.78
70.69
68.93
66.76
64.38
61.95
59.62
57.44
55.43
53.48
51.41
48.98
45.94
42.14
37.5
32.09
26.03
19.48
12.52
5.2
-2.53
-10.6
-18.84
-26.93
-34.49
-41.27
-47.3
-52.95
-58.9
-65.94
-74.67
-85.15
-96.63
-107.44
-115.3
-117.83
-113.35
-101.48
-83.3
-61.07
-37.46
-14.77
5.51
22.84
37.3
49.18
58.73
66.09
71.33
74.64
76.35
76.84
76.5
75.58
74.2
72.42
70.28
67.96
65.69
63.68
62.02
60.51
58.71
56.06
52.09
46.68
40.08
32.88
25.74
19.17
13.28
7.82
2.3
-3.79
-10.67
-18.24
-26.08
-33.65
-40.52
-46.51
-51.84
-57.06
-62.92
-70.18
-79.28
-90.02
-101.27
-111.04
-116.83
-116.41
-108.53
-93.49
-73.03
-49.83
-26.6
-5.39
12.8
27.83
40.03
49.79
57.25
62.46
65.45
66.47
66.01
64.66
63
61.36
59.86
58.43
56.97
55.48
54.05
52.71
51.38
49.74
47.37
43.94
39.36
33.9
28.06
22.3
16.87
11.66
6.32
0.48
-6.01
-13
-20.04
-26.63
-32.45
-37.53
-42.28
-47.32
-53.36
-60.85
-69.8
-79.51
-88.56
-94.99
-96.78
-92.49
-81.71
-65.39
-45.51
-24.57
-4.81
12.27
26.11
36.87
45.05
51.08
55.19
57.43
57.87
56.74
54.51
51.76
49.08
46.87
45.28
44.26
43.62
43.1
42.43
41.38
39.71
37.26
33.93
29.75
24.85
19.45
13.77
7.93
1.96
-4.25
-10.81
-17.78
-25.05
-32.33
-39.26
-45.56
-51.2
-56.48
-62
-68.54
-76.7
-86.53
-97.22
-106.99
-113.46
-114.32
-108.12
-94.81
-75.81
-53.57
-30.73
-9.43
9.1
24.53
37.08
47.11
54.89
60.56
64.25
66.19
66.75
66.36
65.4
64.11
62.58
60.82
58.86
56.82
54.89
53.2
51.75
50.31
48.48
45.83
42.07
37.19
31.44
25.22
18.91
12.74
6.69
0.56
-5.91
-12.87
-20.27
-27.81
-35.11
-41.84
-47.9
-53.52
-59.25
-65.78
-73.72
-83.28
-93.97
-104.42
-112.54
-115.97
-112.84
-102.41
-85.42
-63.88
-40.48
-17.69
2.78
20.23
34.75
46.67
56.29
63.69
68.88
71.95
73.22
73.19
72.36
71.08
69.44
67.41
64.94
62.14
59.36
57
55.31
54.16
53.02
51.13
47.83
42.88
36.55
29.54
22.59
16.25
10.57
5.26
-0.2
-6.21
-12.9
-20.08
-27.4
-34.45
-40.98
-46.94
-52.49
-58.03
-64.13
-71.36
-80
-89.65
-99.05
-106.08
-108.42
-104.24
-92.97
-75.59
-54.31
-31.85
-10.57
7.97
23.23
35.31
44.59
51.45
56.15
58.89
59.98
59.77
58.67
57.09
55.31
53.54
51.88
50.35
48.88
47.42
45.85
44.09
42.06
39.74
37.05
33.91
30.17
25.71
20.42
14.36
7.68
0.65
-6.48
-13.47
-20.15
-26.38
-32.06
-37.18
-41.92
-46.69
-52.13
-58.88
-67.21
-76.6
-85.65
-92.22
-94.08
-89.65
-78.6
-62.03
-42.12
-21.41
-2.07
14.53
27.91
38.18
45.64
50.54
53.01
53.24
51.67
48.97
45.95
43.29
41.31
39.91
38.71
37.31
35.49
33.36
31.17
29.2
27.49
25.83
23.71
20.64
16.22
10.32
3.15
-4.83
-12.97
-20.7
-27.63
-33.71
-39.26
-44.81
-50.99
-58.33
-67.09
-77.03
-87.25
-96.17
-101.73
-101.92
-95.44
-82.27
-63.77
-42.32
-20.55
-0.61
16.34
30.06
40.87
49.14
55.05
58.59
59.79
58.95
56.71
53.86
51.17
49.09
47.64
46.58
45.48
44.03
42.07
39.66
36.99
34.2
31.34
28.25
24.6
20.02
14.22
7.14
-0.93
-9.51
-17.96
-25.82
-32.89
-39.32
-45.5
-51.95
-59.17
-67.55
-77.18
-87.71
-98.12
-106.73
-111.48
-110.44
-102.54
-87.95
-68.18
-45.64
-22.86
-1.85
16.26
31.23
43.31
52.88
60.17
65.29
68.29
69.37
68.92
67.41
65.37
63.17
61.01
58.89
56.73
54.38
51.77
48.89
45.81
42.61
39.33
35.91
32.11
27.65
22.26
15.84
8.54
0.71
-7.15
-14.67
-21.62
-28.05
-34.17
-40.32
-46.85
-54.17
-62.63
-72.36
-82.92
-93.08
-100.87
-104.06
-100.82
-90.52
-73.99
-53.31
-31.11
-9.75
9.27
25.39
38.66
49.38
57.69
63.61
67.1
68.31
67.65
65.74
63.24
60.75
58.61
56.93
55.6
54.41
53.05
51.3
49.05
46.31
43.13
39.61
35.76
31.45
26.52
20.78
14.17
6.83
-0.91
-8.63
-15.93
-22.59
-28.59
-34.14
-39.63
-45.53
-52.35
-60.45
-69.81
-79.76
-88.87
-95.13
-96.45
-91.37
-79.67
-62.47
-41.99
-20.79
-1.01
16.02
29.91
40.78
48.89
54.33
57.09
57.23
55.21
51.87
48.27
45.29
43.35
42.27
41.47
40.34
38.58
36.28
33.84
31.62
29.72
27.88
25.58
22.24
17.52
11.37
4.11
-3.71
-11.47
-18.67
-25.07
-30.78
-36.17
-41.81
-48.33
-56.19
-65.5
-75.74
-85.66
-93.31
-96.56
-93.66
-83.96
-68.18
-48.27
-26.82
-6.23
11.82
26.66
38.36
47.33
53.95
58.43
60.83
61.28
60.11
57.85
55.14
52.53
50.39
48.8
47.59
46.57
45.5
44.22
42.59
40.43
37.56
33.85
29.28
24.03
18.36
12.53
6.63
0.57
-5.83
-12.68
-19.91
-27.23
-34.27
-40.75
-46.63
-52.2
-57.99
-64.67
-72.78
-82.46
-93.15
-103.47
-111.33
-114.45
-111.05
-100.49
-83.55
-62.21
-39.01
-16.34
4.11
21.54
35.82
47.21
56.05
62.65
67.25
70.12
71.55
71.83
71.25
70.04
68.37
66.38
64.14
61.79
59.5
57.46
55.77
54.34
52.8
50.62
47.28
42.51
36.45
29.62
22.74
16.41
10.86
5.87
0.89
-4.69
-11.22
-18.6
-26.37
-33.88
-40.57
-46.24
-51.08
-55.68
-60.88
-67.51
-76.13
-86.66
-98.09
-108.45
-115.18
-115.85
-108.98
-94.61
-74.4
-51.04
-27.38
-5.59
13.22
28.89
41.84
52.48
61.01
67.39
71.54
73.6
73.93
73.15
71.85
70.43
69.03
67.52
65.75
63.67
61.44
59.38
57.72
56.44
55.15
53.28
50.27
45.84
40.11
33.55
26.81
20.42
14.67
9.48
4.5
-0.7
-6.48
-12.96
-19.99
-27.18
-34.07
-40.27
-45.62
-50.26
-54.62
-59.3
-64.99
-72.24
-81.17
-91.3
-101.27
-109.11
-112.52
-109.66
-99.7
-83.22
-62.12
-38.99
-16.42
3.64
20.2
33.14
42.89
50.05
55.14
58.49
60.27
60.68
60.01
58.65
57.08
55.68
54.61
53.77
52.94
51.9
50.63
49.28
48.04
46.9
45.53
43.37
39.88
34.89
28.74
22.19
16.09
10.96
6.79
3.05
-1.02
-5.94
-11.82
-18.32
-24.83
-30.81
-36.04
-40.61
-44.94
-49.6
-55.15
-62.04
-70.35
-79.62
-88.66
-95.64
-98.53
-95.62
-86.26
-71.03
-51.7
-30.63
-10.1
8.25
23.56
35.69
44.85
51.28
55.17
56.7
56.15
54.1
51.26
48.41
46.13
44.63
43.78
43.21
42.58
41.74
40.81
39.98
39.35
38.74
37.67
35.55
32.01
27.03
21.05
14.73
8.71
3.28
-1.67
-6.61
-12.07
-18.35
-25.42
-32.93
-40.33
-47.17
-53.23
-58.61
-63.72
-69.17
-75.64
-83.66
-93.27
-103.79
-113.6
-120.4
-121.81
-116.14
-103.03
-83.71
-60.6
-36.52
-13.9
5.78
22.05
35.12
45.45
53.43
59.25
63.07
65.13
65.83
65.64
64.94
63.99
62.83
61.43
59.77
57.97
56.23
54.82
53.81
53.01
51.96
50.05
46.8
42.05
36.11
29.63
23.31
17.65
12.68
7.95
2.79
-3.37
-10.72
-18.9
-27.18
-34.75
-41.12
-46.3
-50.85
-55.67
-61.73
-69.73
-79.83
-91.36
-102.77
-111.77
-115.88
-113.11
-102.7
-85.44
-63.5
-39.73
-16.85
3.25
19.75
32.71
42.71
50.37
56.15
60.28
62.88
64
63.82
62.62
60.79
58.73
56.77
55.11
53.75
52.6
51.47
50.13
48.39
46.11
43.15
39.45
35.01
29.86
24.1
17.84
11.21
4.37
-2.51
-9.25
-15.69
-21.75
-27.4
-32.77
-38.11
-43.83
-50.4
-58.19
-67.16
-76.68
-85.34
-91.23
-92.41
-87.55
-76.44
-60.15
-40.65
-20.26
-0.98
15.91
29.87
40.87
48.99
54.31
56.85
56.81
54.69
51.33
47.71
44.66
42.56
41.29
40.32
39.08
37.21
34.78
32.13
29.65
27.53
25.51
23.02
19.4
14.17
7.3
-0.77
-9.26
-17.33
-24.41
-30.4
-35.68
-40.93
-46.96
-54.39
-63.47
-73.89
-84.6
-93.89
-99.62
-99.8
-93.17
-79.8
-61.08
-39.42
-17.47
2.63
19.69
33.45
44.25
52.49
58.41
62.03
63.33
62.5
60.12
57
54.02
51.82
50.55
49.93
49.35
48.21
46.16
43.23
39.73
36.12
32.63
29.22
25.53
21.01
15.3
8.28
0.25
-8.26
-16.67
-24.54
-31.77
-38.44
-44.88
-51.45
-58.58
-66.67
-76.01
-86.53
-97.44
-107.18
-113.56
-114.35
-108.04
-94.48
-74.99
-51.93
-28.05
-5.59
14.08
30.55
43.99
54.85
63.46
69.95
74.39
76.83
77.47
76.67
74.89
72.6
70.17
67.83
65.63
63.54
61.43
59.22
56.76
53.95
50.66
46.78
42.29
37.24
31.72
25.81
19.52
12.78
5.49
-2.37
-10.65
-19.07
-27.21
-34.73
-41.49
-47.7
-53.91
-60.92
-69.44
-79.64
-90.84
-101.36
-108.81
-110.79
-105.65
-93.09
-74.36
-51.86
-28.38
-6.35
12.71
28.29
40.63
50.29
57.75
63.23
66.72
68.18
67.77
65.94
63.36
60.76
58.62
57.05
55.85
54.65
53.16
51.26
48.97
46.41
43.63
40.55
36.99
32.73
27.59
21.49
14.51
6.94
-0.82
-8.3
-15.17
-21.3
-26.82
-32.09
-37.54
-43.64
-50.78
-59.18
-68.67
-78.46
-87.06
-92.42
-92.51
-86.04
-73.02
-54.87
-34.04
-13.15
5.73
21.53
34.08
43.66
50.63
55.11
57.15
56.88
54.77
51.52
47.99
44.92
42.67
41.24
40.29
39.38
38.15
36.45
34.39
32.19
30
27.74
25.1
21.58
16.8
10.6
3.23
-4.76
-12.71
-20.08
-26.64
-32.47
-37.94
-43.54
-49.82
-57.21
-65.93
-75.73
-85.7
-94.22
-99.24
-98.82
-91.78
-78.23
-59.57
-38.14
-16.51
3.24
19.87
33.05
43.04
50.32
55.3
58.24
59.29
58.67
56.75
54.07
51.25
48.8
47.04
45.97
45.32
44.7
43.72
42.11
39.76
36.69
33
28.8
24.14
19
13.33
7.09
0.35
-6.73
-13.91
-20.98
-27.78
-34.26
-40.47
-46.51
-52.58
-59.03
-66.3
-74.82
-84.61
-94.99
-104.4
-110.6
-111.3
-104.98
-91.5
-72.23
-49.64
-26.47
-4.94
13.67
29.04
41.41
51.21
58.77
64.28
67.88
69.79
70.29
69.73
68.45
66.72
64.75
62.67
60.59
58.59
56.71
54.93
53.13
51.06
48.44
45.02
40.7
35.56
29.84
23.78
17.52
11.04
4.25
-2.91
-10.32
-17.75
-24.88
-31.46
-37.45
-43
-48.46
-54.31
-61.09
-69.23
-78.77
-89.06
-98.64
-105.36
-106.99
-101.94
-89.9
-72.04
-50.62
-28.28
-7.22
11.18
26.41
38.58
48
55
59.84
62.79
64.16
64.28
63.48
62.03
60.14
57.98
55.75
53.66
51.89
50.53
49.52
48.62
47.47
45.69
42.93
39.07
34.21
28.65
22.77
16.89
11.18
5.54
-0.22
-6.32
-12.88
-19.76
-26.66
-33.19
-39.06
-44.21
-48.93
-53.81
-59.57
-66.78
-75.5
-84.91
-93.35
-98.56
-98.39
-91.52
-78.01
-59.32
-37.85
-16.25
3.39
19.83
32.7
42.21
48.79
52.84
54.7
54.68
53.22
50.85
48.16
45.65
43.65
42.24
41.27
40.5
39.65
38.57
37.19
35.48
33.38
30.74
27.43
23.36
18.58
13.27
7.65
1.85
-4.08
-10.22
-16.57
-23.07
-29.5
-35.6
-41.25
-46.53
-51.75
-57.46
-64.23
-72.52
-82.33
-92.98
-102.91
-109.94
-111.78
-106.78
-94.62
-76.49
-54.69
-31.93
-10.48
8.31
24.02
36.81
47.01
54.83
60.36
63.69
65.07
64.93
63.83
62.26
60.57
58.94
57.36
55.79
54.22
52.7
51.29
49.97
48.5
46.45
43.36
38.91
33.14
26.48
19.57
12.99
7
1.39
-4.34
-10.72
-18
-25.99
-34.12
-41.74
-48.41
-54.15
-59.41
-64.99
-71.74
-80.28
-90.71
-102.29
-113.38
-121.67
-124.69
-120.59
-108.78
-90.25
-67.24
-42.57
-18.76
2.49
20.54
35.43
47.59
57.36
64.96
70.49
74.08
75.99
76.54
76.12
75.03
73.47
71.53
69.3
66.88
64.48
62.37
60.73
59.49
58.31
56.57
53.62
49.09
43.05
36.05
28.84
22.11
16.15
10.78
5.43
-0.51
-7.45
-15.35
-23.79
-32.14
-39.78
-46.41
-52.09
-57.32
-62.86
-69.59
-78.14
-88.6
-100.2
-111.26
-119.4
-122.14
-117.66
-105.42
-86.43
-62.99
-37.96
-14.04
6.97
24.26
37.93
48.5
56.54
62.42
66.28
68.22
68.42
67.24
65.19
62.77
60.39
58.29
56.56
55.21
54.24
53.54
52.94
52.07
50.47
47.77
43.8
38.74
33
27.05
21.2
15.46
9.61
3.29
-3.64
-11.1
-18.7
-25.93
-32.37
-37.9
-42.77
-47.54
-52.96
-59.75
-68.32
-78.42
-88.99
-98.08
-103.28
-102.38
-94.13
-78.74
-57.94
-34.44
-11.11
9.8
27.06
40.45
50.33
57.28
61.7
63.83
63.9
62.24
59.39
56.03
52.84
50.28
48.58
47.66
47.25
46.97
46.45
45.36
43.46
40.6
36.74
32
26.57
20.68
14.51
8.15
1.56
-5.36
-12.68
-20.41
-28.37
-36.33
-44
-51.19
-57.94
-64.53
-71.54
-79.62
-89.2
-100.1
-111.2
-120.45
-125.3
-123.43
-113.64
-96.26
-73.18
-47.2
-21.19
2.62
23.03
39.72
52.94
63.07
70.49
75.5
78.41
79.62
79.54
78.56
76.96
74.9
72.47
69.74
66.89
64.14
61.71
59.7
57.92
55.98
53.33
49.52
44.37
38.07
31.08
23.88
16.79
9.77
2.57
-5.11
-13.34
-21.88
-30.27
-38.01
-44.84
-50.91
-56.75
-63.15
-70.94
-80.65
-92.24
-104.82
-116.58
-125.03
-127.59
-122.37
-108.82
-88.07
-62.56
-35.39
-9.35
13.66
32.89
48.45
60.84
70.53
77.72
82.49
84.98
85.5
84.57
82.72
80.38
77.74
74.87
71.82
68.76
65.97
63.7
61.98
60.56
58.9
56.37
52.51
47.14
40.5
33.12
25.66
18.67
12.38
6.6
0.84
-5.47
-12.67
-20.67
-28.99
-36.97
-44.07
-50.19
-55.68
-61.31
-68
-76.48
-86.98
-98.86
-110.53
-119.57
-123.33
-119.68
-107.83
-88.69
-64.64
-38.82
-14.12
7.48
25.2
39.13
49.81
57.72
63.09
66.03
66.65
65.32
62.66
59.44
56.42
54.04
52.44
51.39
50.52
49.45
47.95
46
43.69
41.08
38.15
34.75
30.67
25.67
19.62
12.58
4.81
-3.28
-11.2
-18.54
-25.15
-31.14
-36.84
-42.72
-49.24
-56.78
-65.6
-75.52
-85.8
-94.91
-100.72
-101.02
-94.3
-80.41
-60.72
-37.76
-14.4
7.03
25.17
39.62
50.56
58.31
63.09
65.06
64.46
61.81
57.88
53.6
49.79
46.97
45.27
44.43
43.96
43.3
42.03
39.98
37.24
34.03
30.58
26.93
22.9
18.15
12.3
5.15
-3.16
-12.21
-21.37
-30.09
-38.01
-45.11
-51.65
-58.08
-64.96
-72.83
-82.14
-92.93
-104.57
-115.48
-123.33
-125.53
-120.16
-106.64
-86.11
-61.1
-34.71
-9.69
12.2
30.33
44.9
56.43
65.36
71.96
76.31
78.51
78.8
77.57
75.31
72.49
69.5
66.56
63.78
61.16
58.66
56.2
53.65
50.85
47.62
43.8
39.33
34.14
28.24
21.58
14.16
6.08
-2.42
-10.98
-19.21
-26.89
-33.96
-40.64
-47.3
-54.4
-62.45
-71.82
-82.6
-94.24
-105.36
-113.86
-117.3
-113.72
-102.33
-83.9
-60.58
-35.24
-10.63
11.29
29.59
44.2
55.55
64.16
70.38
74.45
76.5
76.75
75.54
73.32
70.52
67.55
64.66
62
59.63
57.53
55.6
53.66
51.45
48.65
45.04
40.56
35.31
29.53
23.4
17.01
10.28
3.1
-4.53
-12.44
-20.27
-27.64
-34.3
-40.23
-45.7
-51.22
-57.43
-64.96
-74.06
-84.35
-94.55
-102.63
-106.19
-103.28
-93.11
-76.4
-55.21
-32.27
-10.14
9.43
25.68
38.62
48.49
55.51
59.74
61.27
60.44
57.91
54.6
51.36
48.8
47.04
45.83
44.7
43.22
41.24
38.87
36.39
34.06
31.85
29.42
26.19
21.57
15.22
7.29
-1.6
-10.58
-18.88
-26.09
-32.29
-37.98
-43.85
-50.58
-58.65
-68.24
-79.03
-90
-99.41
-105.04
-104.73
-97.15
-82.41
-62.09
-38.84
-15.53
5.65
23.53
37.94
49.26
57.94
64.22
68.11
69.64
69.03
66.79
63.63
60.3
57.29
54.85
52.9
51.22
49.54
47.62
45.33
42.6
39.39
35.66
31.41
26.6
21.2
15.1
8.25
0.65
-7.55
-16.02
-24.39
-32.28
-39.5
-46.1
-52.34
-58.7
-65.76
-74.05
-83.83
-94.8
-105.79
-114.87
-119.62
-117.94
-108.72
-92.38
-70.74
-46.49
-22.3
-0.16
18.96
34.92
48.03
58.58
66.75
72.59
76.22
77.88
78
77.02
75.29
73.06
70.44
67.57
64.65
61.95
59.72
58.03
56.67
55.14
52.85
49.27
44.25
38.06
31.27
24.5
18.14
12.17
6.23
-0.18
-7.4
-15.4
-23.77
-31.91
-39.32
-45.79
-51.51
-57.04
-63.13
-70.49
-79.57
-90.16
-101.24
-110.92
-116.79
-116.56
-108.8
-93.6
-72.54
-48.3
-23.82
-1.47
17.47
32.73
44.73
54.05
61.12
66.11
69.09
70.19
69.75
68.28
66.33
64.35
62.53
60.87
59.29
57.72
56.18
54.74
53.41
52
50.18
47.47
43.51
38.21
31.84
24.98
18.29
12.26
6.99
2.11
-3.01
-8.96
-15.95
-23.65
-31.34
-38.21
-43.77
-48.08
-51.79
-55.91
-61.46
-69.07
-78.67
-89.27
-99.07
-105.71
-106.92
-101.17
-88.22
-69.3
-46.75
-23.38
-1.68
16.76
31.29
42.05
49.51
54.26
56.77
57.45
56.79
55.29
53.49
51.77
50.31
49.09
47.96
46.82
45.67
44.63
43.79
43.12
42.34
40.99
38.54
34.64
29.34
23.1
16.58
10.41
4.9
-0.13
-5.15
-10.75
-17.21
-24.4
-31.84
-38.86
-45
-50.15
-54.65
-59.12
-64.35
-71.05
-79.54
-89.48
-99.68
-108.17
-112.56
-110.78
-101.77
-85.96
-65.15
-41.98
-19.09
1.55
19
33.13
44.31
52.95
59.29
63.46
65.58
65.92
64.94
63.19
61.17
59.23
57.45
55.8
54.14
52.44
50.81
49.42
48.33
47.41
46.17
43.99
40.34
35
28.32
21.06
14.13
8.16
3.23
-1.16
-5.87
-11.63
-18.72
-26.8
-35.06
-42.66
-49.04
-54.18
-58.56
-62.97
-68.25
-75.06
-83.67
-93.72
-104.08
-112.82
-117.63
-116.35
-107.78
-92.17
-71.21
-47.53
-23.89
-2.41
15.84
30.71
42.63
52.11
59.48
64.84
68.25
69.87
70.02
69.14
67.66
65.9
64
62.03
60
57.98
56.14
54.64
53.53
52.6
51.41
49.36
45.93
40.92
34.59
27.58
20.7
14.6
9.49
5.06
0.63
-4.51
-10.78
-18.12
-26
-33.67
-40.49
-46.13
-50.75
-54.92
-59.51
-65.39
-73.23
-83.13
-94.34
-105.15
-113.18
-115.92
-111.56
-99.66
-81.35
-59.02
-35.51
-13.31
5.98
21.78
34.19
43.66
50.62
55.4
58.27
59.48
59.31
58.11
56.24
54.06
51.93
50.1
48.75
47.9
47.4
47
46.33
45.08
42.96
39.88
35.92
31.32
26.39
21.35
16.24
10.92
5.17
-1.13
-7.93
-14.92
-21.72
-27.99
-33.57
-38.55
-43.32
-48.44
-54.56
-62.16
-71.26
-81.1
-90.11
-96.13
-96.98
-91.22
-78.64
-60.49
-39.08
-17.09
3.14
20.2
33.61
43.6
50.66
55.25
57.67
58.1
56.83
54.32
51.17
48.01
45.34
43.39
42.13
41.32
40.62
39.7
38.31
36.29
33.6
30.29
26.45
22.21
17.66
12.8
7.56
1.84
-4.42
-11.16
-18.19
-25.25
-32.11
-38.63
-44.85
-50.92
-57.11
-63.79
-71.39
-80.34
-90.65
-101.66
-111.75
-118.59
-119.69
-113.33
-99.27
-78.94
-55.01
-30.52
-7.96
11.32
27.01
39.57
49.62
57.59
63.62
67.7
69.84
70.25
69.33
67.58
65.43
63.21
61.11
59.21
57.57
56.22
55.03
53.76
52.05
49.52
45.94
41.3
35.85
29.96
23.92
17.87
11.69
5.19
-1.86
-9.46
-17.44
-25.45
-33.08
-40.06
-46.36
-52.25
-58.3
-65.23
-73.68
-83.81
-94.97
-105.53
-113.08
-115.1
-109.81
-96.86
-77.54
-54.35
-30.21
-7.56
12.17
28.53
41.74
52.23
60.34
66.28
70.23
72.48
73.39
73.34
72.61
71.35
69.59
67.4
64.94
62.52
60.49
59.07
58.19
57.44
56.16
53.68
49.63
44.06
37.44
30.51
23.88
17.88
12.4
6.98
1.11
-5.56
-13
-20.85
-28.54
-35.54
-41.59
-46.84
-51.78
-57.12
-63.65
-71.87
-81.77
-92.54
-102.47
-109.25
-110.53
-104.71
-91.54
-72.34
-49.59
-26.2
-4.61
13.69
28.35
39.71
48.42
54.97
59.53
62.13
62.81
61.82
59.7
57.11
54.66
52.67
51.17
49.94
48.69
47.23
45.54
43.67
41.67
39.48
36.91
33.75
29.82
25.08
19.63
13.63
7.28
0.75
-5.84
-12.36
-18.7
-24.77
-30.55
-36.13
-41.77
-47.85
-54.86
-63.13
-72.54
-82.27
-90.67
-95.58
-94.94
-87.5
-73.39
-54.11
-32.14
-10.17
9.65
26.13
38.98
48.52
55.27
59.63
61.89
62.26
61.06
58.77
55.97
53.23
50.91
49.15
47.87
46.86
45.9
44.78
43.32
41.32
38.59
34.98
30.5
25.36
19.85
14.21
8.55
2.72
-3.51
-10.33
-17.73
-25.48
-33.23
-40.65
-47.55
-53.94
-60.11
-66.5
-73.7
-82.16
-91.86
-102.01
-110.86
-116.08
-115.37
-107.36
-92.16
-71.43
-47.78
-23.98
-2.12
16.72
32.34
45.03
55.14
62.93
68.54
72.14
74.01
74.49
73.97
72.71
70.92
68.67
66.1
63.37
60.74
58.47
56.68
55.29
53.88
51.92
48.87
44.46
38.79
32.31
25.6
19.06
12.8
6.61
0.15
-6.87
-14.42
-22.23
-29.87
-36.93
-43.26
-49.01
-54.61
-60.68
-67.86
-76.59
-86.79
-97.65
-107.45
-113.95
-114.91
-108.82
-95.5
-76.22
-53.36
-29.63
-7.36
12.03
28.08
41.04
51.36
59.42
65.37
69.27
71.26
71.65
70.92
69.58
67.99
66.32
64.55
62.61
60.53
58.53
56.88
55.73
54.95
54.05
52.37
49.33
44.69
38.68
31.86
24.96
18.56
12.86
7.71
2.65
-2.84
-9.08
-16.07
-23.48
-30.74
-37.3
-42.81
-47.32
-51.28
-55.5
-60.86
-68.06
-77.24
-87.68
-97.72
-105
-107.14
-102.46
-90.64
-72.88
-51.5
-29.18
-8.2
10.03
25.02
36.9
45.96
52.46
56.58
58.52
58.66
57.51
55.66
53.62
51.67
49.92
48.38
47.04
45.96
45.19
44.68
44.21
43.37
41.72
38.97
35.12
30.43
25.3
20.04
14.79
9.45
3.81
-2.37
-9.12
-16.3
-23.56
-30.51
-36.84
-42.47
-47.59
-52.66
-58.33
-65.21
-73.59
-83.13
-92.68
-100.36
-103.92
-101.45
-92.06
