1626190063.00
64.000000
-0.00
-0.00
-0.00
-0.00
-0.00
-0.00
-0.00
-0.00
-0.00
-0.00
0.00
0.01
0.01
-0.00
-0.03
-0.05
-0.05
0.00
0.13
0.36
0.66
1.01
1.37
1.72
2.06
2.40
2.79
3.24
3.80
4.42
5.06
5.66
6.20
6.68
7.15
7.68
8.31
9.14
10.09
11.04
11.88
12.56
13.14
13.76
14.65
15.96
17.91
20.32
22.90
25.38
27.58
29.57
31.68
34.32
37.81
42.54
48.15
54.10
59.83
64.97
69.58
74.14
79.34
85.71
93.76
103.00
112.62
121.73
129.77
136.75
143.30
150.75
157.77
166.64
177.95
191.79
206.97
220.57
228.25
225.36
208.53
176.87
132.76
80.05
23.07
-34.94
-92.44
-149.16
-205.23
-260.37
-313.74
-363.87
-409.83
-450.91
-486.50
-515.74
-537.23
-549.22
-549.96
-538.37
-514.21
-478.67
-433.88
-382.45
-327.02
-269.84
-212.63
-156.66
-102.95
-52.37
-5.90
35.58
71.43
101.35
125.50
144.38
158.69
169.15
176.37
180.75
182.58
182.07
179.51
175.23
169.65
163.17
156.14
148.81
141.31
133.72
126.05
118.33
110.64
103.03
95.60
88.42
81.53
74.94
68.66
62.67
56.95
51.51
46.35
41.51
37.01
32.85
29.03
25.53
22.28
19.25
16.41
13.78
11.39
9.30
7.55
6.12
4.93
3.87
2.80
1.67
0.51
-0.57
-1.42
-1.95
-2.16
-2.20
-2.33
-2.76
-3.60
-4.77
-5.99
-6.94
-7.40
-7.34
-7.01
-6.83
-7.19
-8.26
-9.89
-11.66
-13.08
-13.80
-13.79
-13.36
-12.98
-13.10
-14.01
-15.85
-18.59
-21.88
-24.96
-26.61
-25.44
-20.51
-11.88
-0.86
10.35
19.51
25.25
27.52
27.36
26.23
25.16
24.44
23.73
22.56
20.79
18.74
16.95
15.82
15.30
14.96
14.23
12.69
10.36
7.73
5.45
4.14
4.01
4.79
5.86
6.56
6.48
5.60
4.40
3.66
4.24
6.82
11.60
18.29
26.10
33.98
40.80
45.61
47.83
47.23
43.94
38.50
31.24
22.69
13.44
4.09
-4.72
-12.44
-18.65
-23.10
-25.75
-26.81
-26.58
-25.49
-23.97
-22.36
-20.90
-19.66
-18.62
-17.70
-16.88
-16.20
-15.72
-15.56
-15.76
-16.22
-16.73
-17.02
-16.86
-16.21
-15.14
-13.90
-12.75
-11.91
-11.52
-11.55
-11.91
-12.41
-12.71
-12.31
-10.58
-6.94
-1.10
6.70
15.64
24.54
32.14
37.47
40.00
39.71
36.93
32.16
25.91
18.73
11.22
4.08
-2.00
-6.47
-9.07
-9.88
-9.28
-7.84
-6.06
-4.31
-2.72
-1.18
0.28
1.49
2.13
1.89
0.57
-1.84
-5.09
-8.82
-12.67
-16.42
-20.01
-23.50
-27.02
-30.78
-34.92
-39.56
-44.63
-49.84
-54.56
-57.79
-58.36
-55.17
-47.51
-35.35
-19.38
-0.88
18.51
37.16
53.66
66.99
76.49
81.82
82.92
80.04
73.76
65.04
55.07
45.09
36.13
28.81
23.26
19.27
16.38
14.19
12.34
10.62
8.89
7.00
4.78
2.02
-1.50
-5.93
-11.29
-17.43
-24.04
-30.72
-37.12
-43.04
-48.43
-53.48
-58.53
-63.97
-70.11
-77.02
-84.31
-91.00
-95.63
-96.48
-92.04
-81.53
-65.15
-44.14
-20.44
3.73
26.43
46.22
62.24
74.13
81.81
85.43
85.34
82.11
76.53
69.54
62.07
54.94
48.69
43.59
39.69
36.84
34.79
33.23
31.85
30.37
28.55
26.23
23.31
19.70
15.33
10.17
4.25
-2.26
-9.12
-16.06
-22.82
-29.25
-35.29
-40.98
-46.43
-51.83
-57.45
-63.57
-70.41
-77.88
-85.42
-91.86
-95.62
-95.01
-88.83
-76.70
-59.29
-38.14
-15.26
7.34
28.04
45.69
59.66
69.59
75.40
77.22
75.45
70.79
64.16
56.56
48.89
41.82
35.77
30.92
27.27
24.69
22.99
21.90
21.10
20.23
18.93
16.93
14.12
10.57
6.40
1.80
-3.13
-8.34
-13.79
-19.34
-24.81
-29.95
-34.62
-38.86
-42.86
-46.87
-51.12
-55.74
-60.81
-66.33
-72.09
-77.57
-81.75
-83.21
-80.45
-72.40
-58.83
-40.49
-18.98
3.73
25.69
45.34
61.58
73.67
81.24
84.14
82.66
77.49
69.74
60.81
52.04
44.51
38.74
34.78
32.23
30.58
29.37
28.32
27.37
26.46
25.47
24.17
22.20
19.24
15.13
9.99
4.15
-1.94
-7.93
-13.67
-19.25
-24.91
-30.98
-37.69
-45.12
-53.07
-60.97
-67.82
-72.27
-72.82
-68.27
-58.06
-42.60
-23.20
-1.78
19.59
39.15
55.60
68.12
76.27
79.90
79.13
74.48
66.82
57.37
47.44
38.25
30.64
25.00
21.19
18.75
17.10
15.73
14.33
12.81
11.16
9.31
7.11
4.29
0.60
-4.08
-9.65
-15.86
-22.36
-28.85
-35.12
-41.07
-46.71
-52.16
-57.66
-63.54
-70.15
-77.62
-85.61
-93.15
-98.65
-100.24
-96.26
-85.81
-69.02
-47.16
-22.28
3.27
27.35
48.35
65.30
77.76
85.71
89.34
89.07
85.49
79.40
71.78
63.59
55.71
48.72
42.89
38.29
34.81
32.34
30.70
29.67
28.91
28.00
26.54
24.22
20.96
16.84
12.02
6.68
0.90
-5.27
-11.77
-18.41
-24.91
-31.01
-36.60
-41.78
-46.90
-52.35
-58.48
-65.45
-73.17
-81.16
-88.52
-93.91
-95.69
-92.35
-82.92
-67.42
-46.94
-23.43
0.83
23.71
43.65
59.71
71.45
78.76
81.77
80.84
76.61
69.94
61.85
53.35
45.25
38.13
32.31
27.91
24.84
22.88
21.63
20.69
19.63
18.18
16.21
13.67
10.63
7.12
3.18
-1.17
-5.88
-10.89
-16.12
-21.47
-26.82
-32.04
-36.96
-41.53
-45.79
-49.95
-54.32
-59.23
-64.85
-71.02
-77.14
-82.06
-84.28
-82.23
-74.72
-61.42
-43.02
-21.17
1.95
24.17
43.73
59.54
71.02
77.97
80.47
78.79
73.54
65.67
56.42
47.09
38.82
32.34
27.89
25.28
24.05
23.61
23.50
23.35
23.00
22.32
21.15
19.31
16.57
12.84
8.14
2.70
-3.11
-8.89
-14.36
-19.41
-24.17
-28.91
-34.04
-39.92
-46.79
-54.55
-62.69
-70.12
-75.37
-76.80
-73.10
-63.66
-48.86
-29.97
-8.86
12.47
32.25
49.18
62.38
71.35
75.90
76.16
72.61
66.14
57.85
48.92
40.40
33.05
27.30
23.21
20.61
19.12
18.24
17.52
16.57
15.16
13.21
10.78
7.92
4.67
0.99
-3.16
-7.87
-13.15
-18.97
-25.16
-31.46
-37.57
-43.24
-48.36
-53.05
-57.65
-62.56
-68.16
-74.61
-81.67
-88.64
-94.35
-97.24
-95.75
-88.63
-75.44
-56.75
-34.10
-9.61
14.50
36.41
54.91
69.38
79.59
85.58
87.52
85.85
81.27
74.76
67.39
60.10
53.61
48.22
43.96
40.63
38.02
35.97
34.40
33.28
32.45
31.60
30.29
28.08
24.71
20.24
15.04
9.61
4.41
-0.37
-4.87
-9.41
-14.34
-19.84
-25.82
-32.01
-38.02
-43.49
-48.25
-52.33
-55.98
-59.60
-63.64
-68.51
-74.38
-80.97
-87.41
-92.23
-93.66
-90.06
-80.47
-64.98
-44.78
-21.85
1.57
23.56
42.73
58.33
70.02
77.69
81.40
81.38
78.11
72.43
65.34
57.91
51.00
45.17
40.62
37.28
34.90
33.21
32.01
31.13
30.41
29.63
28.51
26.73
24.03
20.33
15.78
10.68
5.47
0.52
-4.00
-8.16
-12.23
-16.46
-20.98
-25.72
-30.43
-34.82
-38.71
-42.09
-45.10
-48.01
-51.07
-54.52
-58.58
-63.33
-68.63
-73.91
-78.16
-80.02
-78.09
-71.36
-59.59
-43.44
-24.33
-4.12
15.38
32.67
46.84
57.45
64.41
67.84
67.96
65.15
60.00
53.36
46.27
39.74
34.52
30.93
28.83
27.80
27.29
26.87
26.28
25.43
24.30
22.86
20.99
18.53
15.33
11.36
6.68
1.50
-3.86
-9.13
-14.11
-18.74
-23.08
-27.31
-31.63
-36.26
-41.38
-47.07
-53.12
-58.93
-63.49
-65.52
-63.77
-57.43
-46.37
-31.29
-13.54
5.19
23.27
39.30
52.34
61.76
67.26
68.83
66.77
61.78
54.83
47.06
39.51
32.97
27.82
24.12
21.67
20.16
19.22
18.51
17.72
16.57
14.87
12.54
9.60
6.18
2.39
-1.69
-6.07
-10.78
-15.81
-21.10
-26.49
-31.79
-36.86
-41.66
-46.33
-51.09
-56.24
-62.07
-68.66
-75.81
-82.85
-88.57
-91.46
-89.94
-82.99
-70.40
-53.02
-32.50
-10.83
10.14
29.03
45.02
57.68
66.84
72.45
74.63
73.70
70.26
65.13
59.14
53.03
47.33
42.35
38.24
35.06
32.76
31.25
30.30
29.54
28.58
27.04
24.75
21.69
18.05
14.04
9.86
5.52
0.96
-3.97
-9.35
-15.13
-21.12
-27.06
-32.73
-37.98
-42.83
-47.40
-51.94
-56.76
-62.15
-68.25
-74.82
-81.07
-85.75
-87.28
-84.28
-75.96
-62.47
-44.84
-24.75
-4.04
15.65
33.11
47.55
58.50
65.77
69.39
69.64
67.07
62.41
56.49
50.06
43.76
38.06
33.28
29.56
26.91
25.16
23.99
23.00
21.80
20.09
17.76
14.83
11.41
7.67
3.75
-0.24
-4.26
-8.32
-12.47
-16.78
-21.28
-25.98
-30.76
-35.50
-40.02
-44.24
-48.25
-52.27
-56.67
-61.77
-67.56
-73.50
-78.45
-80.89
-79.30
-72.65
-60.81
-44.55
-25.42
-5.23
14.29
31.81
46.45
57.61
64.97
68.38
67.99
64.35
58.36
51.25
44.23
38.25
33.80
30.85
29.02
27.80
26.80
25.84
24.91
24.05
23.17
22.05
20.35
17.80
14.23
9.73
4.55
-0.98
-6.55
-11.93
-17.06
-21.97
-26.80
-31.75
-37.08
-43.00
-49.56
-56.48
-63.05
-68.10
-70.24
-68.24
-61.33
-49.53
-33.69
-15.25
4.06
22.64
39.16
52.70
62.67
68.74
70.84
69.19
64.39
57.39
49.34
41.39
34.46
29.06
25.28
22.93
21.65
21.03
20.69
20.22
19.29
17.69
15.36
12.38
8.90
5.00
0.65
-4.29
-9.92
-16.18
-22.80
-29.39
-35.57
-41.12
-46.05
-50.62
-55.21
-60.27
-66.11
-72.78
-79.88
-86.48
-91.18
-92.36
-88.67
-79.35
-64.60
-45.50
-23.80
-1.46
19.74
38.41
53.65
65.00
72.33
75.77
75.73
72.80
67.76
61.45
54.67
48.03
41.98
36.74
32.37
28.83
26.02
23.75
21.77
19.74
17.31
14.18
10.17
5.26
-0.41
-6.64
-13.22
-19.97
-26.82
-33.72
-40.60
-47.38
-53.90
-59.95
-65.33
-69.90
-73.63
-76.62
-79.08
-81.21
-82.97
-83.93
-83.19
-79.57
-71.93
-59.59
-42.66
-22.07
0.61
23.57
45.14
64.05
79.51
91.11
98.69
102.32
102.20
98.79
92.79
85.08
76.57
68.09
60.21
53.25
47.33
42.47
38.66
35.84
33.82
32.27
30.74
28.74
25.88
22.02
17.33
12.17
6.96
2.02
-2.56
-6.89
-11.18
-15.60
-20.14
-24.65
-28.90
-32.78
-36.32
-39.69
-43.14
-46.92
-51.22
-56.16
-61.60
-67.09
-71.71
-74.14
-72.94
-67.03
-56.04
-40.55
-21.97
-2.07
17.38
34.97
49.76
61.13
68.76
72.51
72.53
69.29
63.62
56.57
49.28
42.66
37.28
33.32
30.62
28.81
27.52
26.44
25.39
24.31
23.16
21.80
20.06
17.66
14.39
10.17
5.13
-0.40
-6.03
-11.42
-16.39
-21.02
-25.53
-30.25
-35.48
-41.41
-48.05
-55.08
-61.85
-67.35
-70.29
-69.45
-63.97
-53.68
-39.19
-21.80
-3.16
15.07
31.53
45.26
55.67
62.49
65.74
65.68
62.85
57.98
51.89
45.36
39.03
33.35
28.59
24.91
22.30
20.65
19.69
19.00
18.18
16.85
14.78
11.95
8.50
4.65
0.59
-3.60
-7.96
-12.67
-17.83
-23.44
-29.32
-35.21
-40.85
-46.04
-50.79
-55.25
-59.74
-64.62
-70.23
-76.63
-83.35
-89.34
-93.00
-92.61
-86.85
-75.32
-58.67
-38.49
-16.81
4.41
23.69
40.15
53.37
63.24
69.80
73.18
73.63
71.55
67.52
62.22
56.33
50.43
44.95
40.17
36.23
33.14
30.84
29.14
27.80
26.52
25.05
23.15
20.66
17.49
13.64
9.22
4.42
-0.60
-5.76
-11.03
-16.48
-22.14
-27.92
-33.53
-38.58
-42.72
-45.84
-48.20
-50.30
-52.85
-56.50
-61.63
-68.08
-75.07
-81.20
-84.77
-84.15
-78.11
-66.41
-49.99
-30.71
-10.66
8.38
25.30
39.60
51.06
59.85
65.92
68.93
68.55
64.88
58.68
51.12
43.44
36.55
31.34
28.09
26.30
24.99
23.38
21.30
19.04
17.35
16.98
19.25
25.06
34.18
45.28
56.35
65.35
70.55
71.06
62.84
45.30
22.41
0.81
-14.73
-23.50
-27.25
-29.19
-31.27
-34.29
-37.66
-40.80
-43.85
-47.22
-51.04
-54.59
-56.52
-55.14
-49.24
-37.97
-21.66
-2.03
18.43
37.28
52.89
64.46
71.86
75.19
74.98
71.77
66.00
58.15
48.97
39.43
30.46
22.64
16.08
10.65
6.04
1.84
-2.39
-7.11
-12.82
-20.01
-29.12
-40.40
-53.69
-68.45
-83.88
-99.09
-113.25
-125.64
-135.77
-143.44
-148.84
-152.50
-155.27
-158.03
-161.43
-165.61
-170.04
-173.53
-174.48
-171.27
-162.69
-148.32
-128.60
-104.79
-78.62
-51.89
-26.21
-2.81
17.49
34.15
46.91
55.80
61.16
63.67
64.21
63.73
63.07
62.86
63.52
65.31
68.34
72.59
77.85
83.68
89.50
94.69
98.77
101.47
102.75
102.67
101.39
99.04
95.72
91.51
86.44
80.56
73.88
66.47
58.47
50.11
41.67
33.39
25.31
17.23
8.71
-0.63
-10.83
-21.32
-30.88
-37.82
-40.49
-37.75
-29.30
-15.86
1.13
19.80
38.33
55.23
69.45
80.40
87.83
91.75
92.32
89.87
84.86
77.83
69.39
60.15
50.71
41.61
33.41
26.62
21.65
18.73
17.75
18.25
19.50
20.69
21.20
20.77
19.45
17.57
15.51
13.58
11.99
10.82
10.09
9.80
9.92
10.42
11.21
12.21
13.33
14.52
15.77
17.09
18.41
19.66
20.74
21.57
22.25
23.03
24.28
26.37
29.48
33.54
38.20
42.96
47.29
50.77
53.07
53.91
52.97
49.93
44.48
36.55
26.38
14.61
2.16
-9.93
-20.78
-29.78
-36.70
-41.57
-44.58
-46.03
-46.30
-45.87
-45.36
-45.33
-46.25
-48.29
-51.27
-54.88
-58.79
-62.91
-67.37
-72.48
-78.51
-85.58
-93.54
-102.11
-110.94
-119.77
-128.46
-136.97
-145.31
-153.53
-161.58
-169.25
-176.03
-181.03
-183.02
-180.66
-172.80
-158.84
-138.99
-114.25
-86.24
-56.88
-28.08
-1.51
21.51
40.08
53.70
62.38
66.62
67.35
65.82
63.34
61.03
59.65
59.47
60.33
61.79
63.36
64.62
65.35
65.50
65.07
63.99
62.09
59.14
55.00
49.76
43.76
37.54
31.55
26.00
20.76
15.44
9.57
2.75
-5.17
-14.07
-23.48
-32.62
-40.35
-45.36
-46.38
-42.55
-33.68
-20.42
-4.12
13.51
30.81
46.40
59.37
69.14
75.41
78.09
77.34
73.58
67.58
60.29
52.71
45.67
39.69
35.01
31.61
29.28
27.70
26.52
25.41
24.09
22.43
20.37
17.86
14.84
11.18
6.78
1.63
-4.08
-10.04
-15.88
-21.33
-26.34
-31.07
-35.83
-40.98
-46.85
-53.67
-61.47
-69.99
-78.53
-85.92
-90.60
-91.02
-86.03
-75.33
-59.56
-40.23
-19.25
1.52
20.64
37.17
50.63
60.80
67.55
70.92
71.16
68.82
64.68
59.63
54.42
49.53
45.19
41.45
38.33
35.88
34.17
33.16
32.61
32.13
31.28
29.69
27.21
23.92
20.05
15.88
11.64
7.40
3.13
-1.29
-5.95
-10.93
-16.17
-21.50
-26.73
-31.62
-36.10
-40.26
-44.41
-48.98
-54.41
-60.92
-68.21
-75.39
-81.01
-83.37
-81.02
-73.20
-60.13
-42.95
-23.37
-3.17
16.17
33.59
48.44
60.26
68.66
73.44
74.72
73.00
69.18
64.31
59.37
54.99
51.43
48.63
46.39
44.53
42.96
41.69
40.72
39.95
39.15
37.99
36.13
33.37
29.75
25.52
21.04
16.64
12.44
8.36
4.14
-0.45
-5.55
-11.06
-16.68
-22.03
-26.82
-30.95
-34.62
-38.24
-42.35
-47.45
-53.71
-60.91
-68.23
-74.39
-77.85
-77.20
-71.59
-60.97
-46.19
-28.78
-10.52
6.94
22.32
34.81
43.99
49.75
52.18
51.63
48.65
43.97
38.42
32.83
27.86
24.01
21.45
20.09
19.58
19.44
19.21
18.58
17.46
15.96
14.19
12.17
9.80
6.89
3.29
-1.01
-5.83
-10.89
-15.87
-20.56
-24.92
-29.05
-33.18
-37.62
-42.65
-48.41
-54.84
-61.58
-67.88
-72.66
-74.68
-72.78
-66.24
-55.01
-39.84
-22.10
-3.55
14.10
29.53
41.94
50.99
56.64
59.01
58.37
55.16
50.05
43.95
37.80
32.39
28.16
25.18
23.23
21.98
21.18
20.64
20.22
19.74
18.95
17.59
15.47
12.54
8.90
4.69
0.07
-4.88
-10.09
-15.51
-21.04
-26.49
-31.70
-36.56
-41.10
-45.53
-50.20
-55.56
-61.91
-69.26
-77.08
-84.27
-89.26
-90.43
-86.55
-77.18
-62.82
-44.76
-24.72
-4.46
14.57
31.33
45.18
55.81
63.09
67.12
68.18
66.73
63.46
59.10
54.38
49.87
45.90
42.61
39.97
37.91
36.33
35.17
34.30
33.48
32.41
30.76
28.34
25.11
21.21
16.82
12.15
7.31
2.35
-2.78
-8.11
-13.63
-19.24
-24.75
-29.94
-34.70
-39.05
-43.24
-47.71
-52.84
-58.87
-65.66
-72.60
-78.64
-82.44
-82.63
-78.18
-68.67
-54.50
-36.82
-17.28
2.40
20.75
36.73
49.76
59.52
65.94
69.07
69.18
66.82
62.76
57.87
52.91
48.40
44.56
41.41
38.90
37.02
35.76
35.03
34.64
34.18
33.24
31.48
28.81
25.37
21.48
17.40
13.25
8.94
4.26
-0.99
-6.81
-13.04
-19.33
-25.35
-30.84
-35.76
-40.24
-44.58
-49.20
-54.47
-60.59
-67.47
-74.49
-80.57
-84.23
-83.98
-78.75
-68.23
-53.11
-34.87
-15.42
3.40
20.14
33.92
44.35
51.27
54.66
54.66
51.61
46.24
39.60
32.87
27.08
22.81
20.11
18.60
17.76
17.15
16.57
16.02
15.51
14.90
13.89
12.08
9.19
5.18
0.30
-5.01
-10.29
-15.24
-19.75
-23.96
-28.16
-32.69
-37.90
-44.06
-51.18
-58.95
-66.62
-73.02
-76.74
-76.41
-71.15
-60.80
-46.09
-28.45
-9.65
8.63
25.09
38.92
49.72
57.28
61.50
62.40
60.21
55.50
49.19
42.34
36.00
30.91
27.38
25.30
24.26
23.74
23.24
22.43
21.17
19.43
17.24
14.57
11.31
7.32
2.50
-3.09
-9.20
-15.46
-21.50
-27.15
-32.44
-37.60
-42.95
-48.83
-55.47
-62.93
-70.98
-78.97
-85.79
-89.96
-89.93
-84.52
-73.37
-57.11
-37.24
-15.71
5.53
24.88
41.30
54.26
63.55
69.25
71.59
71.04
68.19
63.78
58.52
53.06
47.92
43.44
39.84
37.12
35.16
33.67
32.32
30.83
29.05
26.95
24.56
21.88
18.81
15.21
10.92
5.94
0.42
-5.36
-11.08
-16.53
-21.65
-26.55
-31.42
-36.50
-42.04
-48.24
-55.22
-62.93
-70.94
-78.34
-83.73
-85.49
-82.23
-73.25
-58.86
-40.34
-19.58
1.37
20.79
37.56
51.10
61.27
68.11
71.80
72.59
70.89
67.30
62.49
57.19
52.03
47.45
43.69
40.84
38.81
37.47
36.61
35.94
35.13
33.86
31.92
29.22
25.84
21.95
17.66
13.02
7.97
2.46
-3.51
-9.79
-16.12
-22.22
-27.87
-33.06
-37.89
-42.60
-47.52
-53.00
-59.28
-66.31
-73.60
-80.06
-84.20
-84.47
-79.72
-69.64
-54.86
-36.79
-17.21
2.11
19.75
34.73
46.43
54.50
58.80
59.46
56.90
51.90
45.54
38.96
33.17
28.76
25.85
24.15
23.17
22.43
21.65
20.73
19.66
18.41
16.78
14.53
11.40
7.28
2.26
-3.37
-9.18
-14.80
-20.00
-24.75
-29.20
-33.60
-38.21
-43.27
-48.96
-55.35
-62.19
-68.85
-74.18
-76.71
-75.00
-68.11
-55.97
-39.46
-20.15
0.09
19.55
36.90
51.20
61.85
68.48
71.03
69.77
65.37
58.85
51.33
43.88
37.30
32.07
28.34
26.01
24.75
24.13
23.64
22.86
21.50
19.47
16.87
13.83
10.45
6.74
2.61
-2.04
-7.23
-12.86
-18.70
-24.51
-30.11
-35.42
-40.53
-45.63
-51.02
-57.05
-63.94
-71.73
-79.93
-87.49
-92.82
-94.09
-89.84
-79.42
-63.30
-42.99
-20.59
1.79
22.42
40.21
54.56
65.24
72.22
75.64
75.78
73.16
68.48
62.56
56.25
50.23
45.00
40.81
37.73
35.66
34.43
33.81
33.46
33.00
32.03
30.23
27.47
23.81
19.48
14.77
9.87
4.82
-0.45
-6.05
-12.03
-18.30
-24.68
-30.98
-37.04
-42.80
-48.37
-53.98
-59.98
-66.62
-73.85
-81.07
-87.09
-90.27
-89.00
-82.13
-69.49
-51.86
-30.83
-8.37
13.62
33.58
50.43
63.53
72.60
77.69
79.12
77.49
73.56
68.18
62.13
56.10
50.59
45.96
42.37
39.85
38.26
37.33
36.70
36.01
34.94
33.29
31.00
28.09
24.63
20.68
16.26
11.37
6.05
0.31
-5.78
-12.08
-18.44
-24.69
-30.70
-36.40
-41.86
-47.29
-52.97
-59.24
-66.27
-73.90
-81.49
-87.87
-91.49
-90.83
-84.78
-73.14
-56.64
-36.81
-15.59
5.12
23.77
39.28
50.98
58.57
62.01
61.60
57.97
52.08
45.09
38.16
32.21
27.70
24.64
22.66
21.28
20.14
19.06
18.04
17.05
15.96
14.44
12.08
8.61
3.96
-1.59
-7.61
-13.59
-19.18
-24.23
-28.89
-33.50
-38.57
-44.57
-51.80
-60.15
-68.97
-77.04
-82.77
-84.49
-80.93
-71.58
-56.92
-38.24
-17.41
3.64
23.28
40.32
54.06
64.10
70.23
72.42
70.87
66.11
59.10
51.07
43.27
36.70
31.82
28.59
26.55
25.12
23.85
22.49
21.00
19.35
17.45
15.10
12.03
8.03
3.07
-2.68
-8.84
-15.02
-20.87
-26.24
-31.20
-36.01
-41.06
-46.74
-53.45
-61.36
-70.34
-79.76
-88.38
-94.49
-96.18
-91.94
-81.10
-64.13
-42.65
-18.92
4.72
26.41
44.96
59.85
70.93
78.23
81.83
81.98
79.13
74.01
67.50
60.49
53.70
47.61
42.52
38.49
35.48
33.30
31.70
30.37
29.02
27.45
25.50
23.08
20.05
16.33
11.86
6.70
0.98
-5.05
-11.17
-17.17
-22.95
-28.52
-33.98
-39.49
-45.29
-51.63
-58.65
-66.27
-73.96
-80.67
-84.89
-85.00
-79.68
-68.40
-51.66
-30.93
-8.31
14.01
34.23
51.21
64.43
73.82
79.53
81.78
80.91
77.40
71.93
65.37
58.56
52.23
46.79
42.41
39.01
36.45
34.52
33.01
31.66
30.19
28.36
26.01
23.06
19.49
15.33
10.64
5.51
0.02
-5.66
-11.36
-16.96
-22.43
-27.78
-33.04
-38.24
-43.40
-48.66
-54.30
-60.65
-67.87
-75.63
-82.98
-88.36
-90.00
-86.48
-77.15
-62.42
-43.58
-22.48
-1.04
19.03
36.43
50.23
59.82
64.96
65.79
62.84
57.08
49.69
41.89
34.71
28.80
24.38
21.32
19.25
17.76
16.50
15.26
14.00
12.73
11.42
9.92
7.97
5.25
1.56
-3.10
-8.48
-14.14
-19.69
-24.87
-29.72
-34.49
-39.59
-45.41
-52.16
-59.70
-67.44
-74.34
-78.99
-79.91
-75.94
-66.58
-52.22
-34.03
-13.78
6.67
25.66
41.98
54.86
63.87
68.92
70.13
67.95
63.07
56.45
49.11
42.01
35.82
30.89
27.21
24.56
22.58
20.95
19.42
17.82
16.08
14.12
11.87
9.16
5.83
1.69
-3.29
-8.97
-15.03
-21.06
-26.74
-31.93
-36.73
-41.49
-46.67
-52.69
-59.80
-67.88
-76.32
-83.99
-89.35
-90.75
-86.88
-77.17
-62.02
-42.74
-21.23
0.54
20.90
38.66
53.15
64.03
71.20
74.72
74.83
72.07
67.23
61.27
55.08
49.38
44.52
40.57
37.38
34.75
32.48
30.48
28.66
26.93
25.13
23.09
20.61
17.53
13.77
9.28
4.14
-1.53
-7.55
-13.67
-19.65
-25.35
-30.71
-35.84
-40.99
-46.53
-52.83
-60.06
-68.01
-75.98
-82.68
-86.53
-85.97
-79.97
-68.38
-52.00
-32.46
-11.70
8.43
26.57
41.89
53.97
62.62
67.81
69.63
68.45
64.98
60.16
54.97
50.15
46.07
42.77
40.11
37.97
36.28
35.02
34.11
33.28
32.14
30.32
27.63
24.11
20.02
15.64
11.21
6.73
2.12
-2.76
-7.92
-13.25
-18.54
-23.61
-28.40
-33.01
-37.68
-42.70
-48.32
-54.68
-61.75
-69.16
-76.19
-81.69
-84.29
-82.67
-75.97
-64.10
-47.85
-28.73
-8.57
10.83
28.11
42.39
53.21
60.41
64.05
64.38
61.96
57.56
52.15
46.66
41.75
37.75
34.67
32.31
30.44
28.85
27.42
26.03
24.57
22.88
20.82
18.26
15.12
11.37
7.02
2.18
-3.00
-8.33
-13.59
-18.61
-23.30
-27.70
-31.94
-36.31
-41.15
-46.70
-53.01
-59.67
-65.84
-70.24
-71.50
-68.48
-60.70
-48.49
-32.93
-15.60
1.90
18.18
32.25
43.43
51.33
55.70
56.52
54.11
49.16
42.66
35.74
29.40
24.25
20.51
18.04
16.54
15.63
15.01
14.49
13.88
13.00
11.64
9.54
6.52
2.48
-2.45
-7.97
-13.64
-19.07
-23.99
-28.36
-32.39
-36.45
-40.98
-46.33
-52.69
-60.00
-67.83
-75.32
-81.20
-83.99
-82.33
-75.39
-63.18
-46.61
-27.30
-7.13
12.19
29.46
43.95
55.35
63.51
68.38
70.07
68.87
65.33
60.23
54.40
48.57
43.29
38.85
35.38
32.82
31.03
29.82
28.92
28.07
26.99
25.47
23.36
20.59
17.15
13.06
8.35
3.12
-2.52
-8.40
-14.31
-20.06
-25.49
-30.57
-35.36
-40.04
-44.86
-50.13
-56.11
-62.90
-70.25
-77.43
-83.19
-85.95
-84.27
-77.29
-65.06
-48.53
-29.32
-9.24
10.17
27.79
42.94
55.19
64.25
69.94
72.28
71.60
68.57
64.10
59.12
54.39
50.31
46.97
44.23
41.94
40.01
38.47
37.34
36.53
35.80
34.73
32.93
30.17
26.46
22.06
17.31
12.54
7.88
3.25
-1.53
-6.64
-12.18
-18.06
-24.08
-29.95
-35.44
-40.42
-44.94
-49.25
-53.74
-58.89
-65.04
-72.14
-79.57
-86.07
-90.04
-89.88
-84.53
-73.78
-58.37
-39.72
-19.53
0.58
19.33
35.77
49.25
59.29
65.63
68.31
67.70
64.50
59.64
54.05
48.50
43.49
39.24
35.83
33.19
31.22
29.78
28.65
27.59
26.33
24.63
22.34
19.41
15.92
11.98
7.69
3.14
-1.63
-6.59
-11.72
-16.91
-22.11
-27.27
-32.44
-37.67
-43.05
-48.66
-54.54
-60.69
-66.92
-72.75
-77.27
-79.32
-77.68
-71.53
-60.72
-45.96
-28.56
-10.17
7.67
23.69
36.99
46.96
53.24
55.74
54.74
50.90
45.16
38.62
32.24
26.70
22.31
19.09
16.83
15.25
14.07
13.08
12.09
10.94
9.46
7.50
4.94
1.72
-2.13
-6.50
-11.23
-16.13
-21.01
-25.75
-30.29
-34.70
-39.18
-44.01
-49.50
-55.87
-63.08
-70.72
-77.91
-83.38
-85.62
-83.31
-75.69
-62.80
-45.60
-25.68
-4.90
15.02
32.81
47.62
59.03
66.86
71.13
72.02
69.95
65.63
59.92
53.76
47.96
43.04
39.19
36.36
34.33
32.88
31.77
30.76
29.60
27.99
25.69
22.63
18.91
14.76
10.41
5.91
1.16
-4.01
-9.70
-15.84
-22.11
-28.16
-33.69
-38.66
-43.26
-47.92
-53.10
-59.21
-66.37
-74.28
-82.16
-88.72
-92.39
-91.63
-85.35
-73.30
-56.18
-35.53
-13.31
8.52
28.38
45.27
58.67
68.45
74.66
77.53
77.46
75.00
70.84
65.68
60.15
54.71
49.67
45.25
41.62
38.90
37.11
36.10
35.56
35.03
34.10
32.42
29.85
26.42
22.26
17.54
12.42
6.96
1.24
-4.72
-10.83
-17.00
-23.12
-29.09
-34.86
-40.47
-45.99
-51.63
-57.65
-64.25
-71.38
-78.50
-84.53
-87.90
-87.04
-80.82
-69.00
-52.36
-32.51
-11.38
9.20
27.84
43.63
56.02
64.71
69.52
70.52
68.10
63.04
56.37
49.21
42.51
36.86
32.44
29.12
26.61
24.67
23.08
21.73
20.52
19.28
17.79
15.80
13.13
9.70
5.57
0.85
-4.28
-9.64
-15.07
-20.43
-25.63
-30.66
-35.63
-40.73
-46.22
-52.29
-58.92
-65.82
-72.23
-77.00
-78.77
-76.28
-68.78
-56.32
-39.78
-20.67
-0.73
18.41
35.43
49.32
59.38
65.17
66.62
64.14
58.71
51.63
44.29
37.73
32.43
28.33
25.01
22.03
19.19
16.56
14.32
12.60
11.24
9.81
7.76
4.56
-0.02
-5.83
-12.44
-19.22
-25.63
-31.39
-36.53
-41.44
-46.68
-52.74
-59.95
-68.22
-76.95
-85.06
-91.07
-93.35
-90.46
-81.62
-66.95
-47.60
-25.43
-2.62
18.86
37.60
52.79
64.08
71.38
74.74
74.40
70.84
64.92
57.73
50.42
43.91
38.67
34.67
31.58
28.96
26.52
24.21
22.08
20.22
18.49
16.52
13.80
9.89
4.64
-1.76
-8.75
-15.70
-22.13
-27.88
-33.17
-38.52
-44.52
-51.61
-59.85
-68.80
-77.42
-84.24
-87.59
-86.03
-78.73
-65.73
-47.98
-27.07
-4.91
16.69
36.30
52.87
65.82
74.82
79.82
81.01
78.83
74.03
67.56
60.45
53.60
47.60
42.71
38.84
35.78
33.27
31.17
29.40
27.86
26.35
24.54
22.05
18.57
13.96
8.33
2.03
-4.51
-10.92
-16.98
-22.71
-28.34
-34.22
-40.68
-48.01
-56.30
-65.32
-74.43
-82.46
-87.86
-88.98
-84.52
-73.94
-57.77
-37.48
-15.12
7.14
27.54
44.84
58.36
67.84
73.23
74.69
72.66
67.91
61.45
54.43
47.78
42.06
37.39
33.55
30.24
27.26
24.61
22.38
20.62
19.18
17.70
15.72
12.83
8.82
3.76
-2.07
-8.28
-14.50
-20.49
-26.24
-31.91
-37.82
-44.33
-51.67
-59.69
-67.73
-74.61
-78.76
-78.63
-73.17
-62.14
-46.26
-27.01
-6.27
14.06
32.37
47.47
58.51
65.05
67.06
64.99
59.77
52.66
44.96
37.73
31.58
26.71
22.99
20.15
17.93
16.16
14.67
13.33
11.93
10.19
7.80
4.48
0.09
-5.28
-11.27
-17.38
-23.19
-28.57
-33.76
-39.36
-46.00
-54.03
-63.24
-72.73
-81.03
-86.38
-87.17
-82.30
-71.46
-55.29
-35.17
-12.98
9.31
30.03
47.92
62.19
72.42
78.45
80.41
78.74
74.23
67.93
60.99
54.37
48.67
44.05
40.33
37.21
34.42
31.86
29.55
27.51
25.62
23.56
20.90
17.22
12.32
6.30
-0.46
-7.43
-14.17
-20.41
-26.19
-31.74
-37.44
-43.69
-50.78
-58.87
-67.84
-77.18
-85.94
-92.69
-95.83
-93.90
-86.00
-72.16
-53.36
-31.32
-8.08
14.50
35.00
52.56
66.72
77.26
84.06
87.09
86.55
82.93
77.08
70.04
62.89
56.53
51.46
47.83
45.45
43.90
42.69
41.36
39.49
36.88
33.47
29.37
24.77
19.89
14.83
9.59
4.07
-1.81
-8.02
-14.46
-20.92
-27.23
-33.26
-39.00
-44.50
-49.90
-55.44
-61.38
-67.92
-75.01
-82.10
-88.10
-91.51
-90.76
-84.70
-73.03
-56.40
-36.27
-14.45
7.32
27.66
45.63
60.62
72.14
79.85
83.62
83.65
80.59
75.41
69.26
63.13
57.67
53.14
49.48
46.55
44.16
42.23
40.68
39.42
38.25
36.91
35.08
32.52
29.09
24.84
19.95
14.65
9.18
3.67
-1.85
-7.42
-13.11
-18.92
-24.77
-30.49
-35.93
-40.98
-45.66
-50.18
-54.78
-59.78
-65.44
-71.88
-78.92
-85.95
-91.87
-95.24
-94.58
-88.82
-77.65
-61.65
-42.17
-20.92
0.38
20.29
37.73
51.94
62.36
68.67
70.87
69.35
64.92
58.64
51.72
45.12
39.53
35.18
32.00
29.72
28.04
26.69
25.49
24.29
22.92
21.25
19.16
16.59
13.50
9.90
5.82
1.31
-3.49
-8.39
-13.14
-17.57
-21.66
-25.54
-29.45
-33.66
-38.36
-43.59
-49.23
-54.95
-60.14
-63.91
-65.22
-63.05
-56.78
-46.39
-32.51
-16.31
0.86
17.66
32.99
45.98
55.93
62.30
64.81
63.54
59.11
52.52
45.04
37.80
31.63
26.90
23.50
21.10
19.24
17.53
15.74
13.74
11.50
8.92
5.90
2.28
-2.07
-7.16
-12.86
-18.86
-24.83
-30.49
-35.70
-40.56
-45.33
-50.40
-56.14
-62.81
-70.39
-78.52
-86.43
-92.90
-96.49
-95.83
-89.92
-78.58
-62.44
-42.94
-21.87
-1.01
18.20
34.88
48.53
58.99
66.18
70.13
70.96
69.07
65.10
59.93
54.48
49.51
45.44
42.31
39.90
37.89
36.05
34.30
32.63
31.01
29.30
27.21
24.44
20.84
16.39
11.26
5.72
-0.03
-5.86
-11.76
-17.77
-23.86
-29.92
-35.77
-41.22
-46.24
-50.97
-55.75
-61.04
-67.20
-74.33
-82.04
-89.36
-94.88
-97.04
-94.49
-86.51
-73.24
-55.65
-35.28
-13.87
6.98
26.06
42.54
55.91
65.89
72.41
75.61
75.92
73.98
70.61
66.61
62.63
59.01
55.86
53.14
50.78
48.81
47.30
46.36
45.94
45.80
45.54
44.72
43.00
40.26
36.64
32.47
28.11
23.82
19.69
15.64
11.52
7.22
2.73
-1.86
-6.44
-10.90
-15.18
-19.24
-23.05
-26.64
-30.17
-33.85
-37.96
-42.60
-47.66
-52.82
-57.70
-62.11
-66.15
-70.24
-74.96
-80.79
-87.89
-95.79
-103.46
-109.31
-111.60
-108.75
-99.92
-85.18
-65.60
-42.89
-19.03
4.20
25.39
43.61
58.19
68.76
75.17
77.61
76.63
73.18
68.31
63.04
58.10
53.86
50.36
47.50
45.15
43.20
41.65
40.44
39.44
38.45
37.18
35.39
32.89
29.67
25.80
21.49
16.93
12.25
7.47
2.54
-2.57
-7.84
-13.17
-18.40
-23.37
-28.03
-32.38
-36.48
-40.41
-44.28
-48.25
-52.52
-57.33
-62.78
-68.63
-74.13
-78.09
-79.08
-75.84
-67.70
-54.80
-38.10
-19.10
0.55
19.33
36.04
49.83
60.09
66.45
68.84
67.57
63.37
57.28
50.46
43.92
38.30
33.89
30.67
28.48
27.08
26.26
25.75
25.22
24.33
22.74
20.25
16.86
12.73
8.14
3.34
-1.51
-6.45
-11.67
-17.30
-23.34
-29.59
-35.70
-41.33
-46.33
-50.89
-55.45
-60.55
-66.59
-73.67
-81.41
-88.91
-94.84
-97.67
-95.95
-88.76
-75.99
-58.41
-37.52
-15.20
6.71
26.72
43.75
57.19
66.78
72.56
74.80
73.97
70.69
65.69
59.75
53.63
47.98
43.30
39.83
37.58
36.31
35.69
35.33
34.83
33.89
32.23
29.73
26.36
22.24
17.58
12.62
7.53
2.39
-2.81
-8.15
-13.68
-19.42
-25.30
-31.17
-36.81
-42.07
-46.97
-51.76
-56.91
-62.90
-69.97
-77.78
-85.28
-90.88
-92.82
-89.66
-80.75
-66.39
-47.74
-26.52
-4.55
16.50
35.35
51.10
63.26
71.61
76.20
77.32
75.51
71.53
66.24
60.43
54.74
49.57
45.12
41.49
38.70
36.77
35.60
34.96
34.43
33.54
31.88
29.23
25.64
21.35
16.69
11.91
7.05
2.02
-3.36
-9.26
-15.66
-22.38
-29.08
-35.47
-41.35
-46.78
-51.99
-57.33
-63.18
-69.76
-77.01
-84.37
-90.79
-94.78
-94.70
-89.28
-78.03
-61.46
-41.01
-18.64
3.66
24.26
42.08
56.46
67.06
73.69
76.38
75.43
71.53
65.65
58.88
52.22
46.35
41.67
38.29
36.11
34.90
34.30
33.94
33.46
32.58
31.14
29.12
26.51
23.33
19.52
15.05
9.90
4.19
-1.85
-7.95
-13.89
-19.54
-24.92
-30.17
-35.42
-40.83
-46.54
-52.64
-59.23
-66.25
-73.36
-79.82
-84.46
-85.90
-82.89
-74.72
-61.45
-43.97
-23.76
-2.60
17.81
36.07
51.17
62.49
69.78
73.07
72.71
69.36
63.91
57.38
50.75
44.79
39.95
36.37
33.92
32.39
31.51
30.97
30.44
29.52
27.80
25.03
21.20
16.56
11.54
6.55
1.79
-2.81
-7.53
-12.65
-18.33
-24.51
-30.90
-37.16
-43.00
-48.35
-53.34
-58.28
-63.61
-69.74
-76.88
-84.83
-92.86
-99.67
-103.56
-102.86
-96.37
-83.77
-65.76
-43.87
-20.11
3.51
25.35
44.24
59.56
70.98
78.45
82.13
82.39
79.87
75.41
69.97
64.41
59.39
55.24
52.03
49.62
47.83
46.53
45.59
44.84
44.07
43.00
41.32
38.79
35.32
30.96
25.87
20.30
14.48
8.65
2.96
-2.52
-7.77
-12.89
-18.08
-23.50
-29.26
-35.30
-41.37
-47.11
-52.23
-56.61
-60.44
-64.15
-68.34
-73.57
-80.13
-87.87
-96.06
-103.35
-108.03
-108.34
-102.93
-91.28
-73.88
-52.15
-28.01
-3.48
19.69
40.24
57.36
70.60
79.79
84.98
86.49
84.93
81.18
76.23
70.99
66.19
62.16
59.00
56.59
54.77
53.37
52.24
51.18
49.95
48.34
46.24
43.63
40.60
37.20
33.44
29.28
24.69
19.72
14.54
9.35
4.29
-0.62
-5.48
-10.47
-15.74
-21.27
-26.89
-32.31
-37.26
-41.56
-45.24
-48.57
-51.92
-55.72
-60.41
-66.26
-73.30
-81.09
-88.68
-94.56
-96.95
-94.28
-85.63
-71.17
-52.03
-30.07
-7.32
14.51
34.18
50.95
64.38
74.18
80.20
82.53
81.58
78.11
73.11
67.57
62.26
57.66
53.90
50.90
48.51
46.59
45.01
43.72
42.62
41.57
40.34
38.66
36.26
32.97
28.80
23.95
18.80
13.72
9.02
4.79
0.88
-3.02
-7.21
-11.85
-16.88
-22.01
-26.90
-31.29
-35.14
-38.63
-42.15
-46.06
-50.68
-56.12
-62.25
-68.67
-74.62
-78.99
-80.53
-78.04
-70.77
-58.69
-42.54
-23.69
-3.80
15.51
32.90
47.44
58.53
65.88
69.44
69.47
66.50
61.39
55.14
48.75
43.02
38.41
35.10
32.96
31.73
31.08
30.65
30.09
29.09
27.42
24.94
21.69
17.85
13.67
9.37
5.08
0.77
-3.69
-8.45
-13.57
-18.99
-24.47
-29.74
-34.58
-38.89
-42.76
-46.45
-50.32
-54.78
-60.07
-66.10
-72.31
-77.59
-80.48
-79.54
-73.78
-63.04
-48.03
-30.10
-10.88
8.11
25.67
40.93
53.24
62.11
67.27
68.76
67.05
62.96
57.48
51.57
45.91
40.87
36.60
33.11
30.42
28.55
27.46
26.97
26.73
26.24
25.07
22.93
19.78
15.81
11.37
6.80
2.31
-2.04
-6.32
-10.71
-15.37
-20.33
-25.55
-30.83
-35.98
-40.81
-45.29
-49.50
-53.75
-58.40
-63.78
-70.03
-76.89
-83.56
-88.83
-91.17
-89.21
-82.04
-69.62
-52.78
-33.04
-12.20
8.04
26.40
42.09
54.69
64.05
70.17
73.13
73.21
70.91
66.91
62.01
56.97
52.40
48.64
45.80
43.88
42.76
42.31
42.32
42.48
42.40
41.65
39.89
37.04
33.27
28.93
24.40
19.92
15.54
11.14
6.58
1.84
-3.00
-7.76
-12.27
-16.50
-20.53
-24.52
-28.59
-32.82
-37.17
-41.57
-45.89
-50.04
-53.93
-57.56
-61.08
-64.72
-68.83
-73.78
-79.70
-86.28
-92.66
-97.48
-99.10
-96.13
-87.77
-74.12
-56.20
-35.63
-14.23
6.35
24.88
40.57
52.99
61.93
67.35
69.41
68.46
65.10
60.13
54.40
48.69
43.55
39.31
36.04
33.73
32.24
31.42
31.04
30.80
30.38
29.48
27.92
25.65
22.75
19.37
15.66
11.73
7.63
3.38
-1.01
-5.56
-10.28
-15.15
-20.06
-24.84
-29.29
-33.32
-37.05
-40.77
-44.93
-49.90
-55.85
-62.53
-69.31
-75.14
-78.74
-78.84
-74.50
-65.35
-51.82
-35.00
-16.43
2.26
19.67
34.75
46.76
55.22
59.89
60.76
58.23
53.11
46.50
39.55
33.20
28.00
24.10
21.35
19.45
18.10
17.08
16.22
15.39
14.43
13.15
11.29
8.64
5.06
0.59
-4.59
-10.18
-15.86
-21.44
-26.88
-32.28
-37.88
-43.91
-50.60
-58.11
-66.42
-75.26
-83.95
-91.31
-95.81
-95.94
-90.59
-79.47
-63.20
-43.19
-21.25
0.79
21.35
39.30
53.87
64.65
71.53
74.71
74.65
71.97
67.46
61.89
55.96
50.26
45.18
40.95
37.65
35.26
33.70
32.84
32.44
32.14
31.50
30.08
27.60
24.08
19.82
15.21
10.54
5.82
0.80
-4.85
-11.28
-18.35
-25.64
-32.62
-38.94
-44.52
-49.63
-54.74
-60.40
-67.07
-74.92
-83.70
-92.52
-99.93
-104.11
-103.32
-96.40
-83.13
-64.34
-41.63
-17.02
7.54
30.44
50.51
66.97
79.38
87.57
91.65
92.08
89.63
85.32
80.22
75.25
70.99
67.63
65.04
62.96
61.20
59.64
58.30
57.17
56.09
54.73
52.61
49.22
44.25
37.67
29.83
21.30
12.73
4.56
-3.13
-10.58
-18.18
-26.22
-34.65
-43.13
-51.10
-58.10
-63.95
-68.83
-73.17
-77.59
-82.64
-88.69
-95.70
-103.14
-109.88
-114.29
-114.62
-109.36
-97.77
-80.14
-57.78
-32.67
-7.03
17.23
38.70
56.56
70.42
80.13
85.72
87.42
85.73
81.43
75.53
69.04
62.82
57.41
52.99
49.52
46.82
44.69
42.92
41.33
39.70
37.83
35.52
32.60
28.99
24.67
19.67
14.13
8.19
2.08
-4.02
-9.97
-15.70
-21.22
-26.58
-31.85
-37.13
-42.57
-48.37
-54.62
-61.13
-67.21
-71.62
-72.86
-69.58
-61.04
-47.48
-29.97
-10.19
10.08
29.25
46.06
59.56
69.06
74.12
74.68
71.22
64.73
56.54
48.04
40.29
33.93
29.14
25.73
23.35
21.65
20.34
19.19
18.07
16.78
15.12
12.79
9.52
5.13
-0.36
-6.68
-13.43
-20.15
-26.62
-32.86
-39.13
-45.79
-53.13
-61.20
-69.67
-77.81
-84.43
-88.11
-87.46
-81.51
-70.06
-53.76
-34.05
-12.74
8.36
27.78
44.42
57.57
66.80
71.92
73.01
70.55
65.33
58.40
50.86
43.65
37.38
32.28
28.30
25.21
22.74
20.68
18.87
17.18
15.44
13.42
10.82
7.36
2.84
-2.77
-9.23
-16.14
-23.03
-29.51
-35.49
-41.18
-47.08
-53.74
-61.54
-70.37
-79.56
-87.83
-93.49
-94.87
-90.68
-80.49
-64.75
-44.82
-22.58
-0.01
21.16
39.66
54.72
65.91
73.11
76.43
76.20
73.03
67.74
61.26
54.54
48.29
42.94
38.60
35.14
32.32
29.98
28.03
26.47
25.23
24.08
22.63
20.42
17.05
12.39
6.60
0.06
-6.78
-13.53
-20.02
-26.25
-32.42
-38.81
-45.74
-53.47
-62.08
-71.26
-80.25
-87.79
-92.36
-92.48
-87.15
-76.17
-60.22
-40.72
-19.50
1.60
21.02
37.68
50.88
60.28
65.75
67.44
65.70
61.20
54.88
47.78
40.84
34.71
29.63
25.54
22.22
19.48
17.23
15.47
14.15
13.06
11.84
10.04
7.31
3.48
-1.32
-6.77
-12.39
-17.77
-22.64
-26.96
-30.91
-34.82
-39.09
-44.06
-49.83
-56.16
-62.32
-67.22
-69.51
-67.97
-61.77
-50.74
-35.48
-17.20
2.51
21.99
39.75
54.56
65.56
72.26
74.58
72.86
67.86
60.62
52.35
44.13
36.78
30.71
25.99
22.41
19.73
17.72
16.20
15.00
13.80
12.23
9.86
6.43
1.89
-3.50
-9.33
-15.20
-20.87
-26.32
-31.72
-37.38
-43.62
-50.64
-58.39
-66.40
-73.71
-78.91
-80.43
-76.95
-67.84
-53.39
-34.80
-13.81
7.63
27.76
45.22
59.03
68.56
73.51
73.93
70.31
63.59
55.08
46.17
38.04
31.46
26.64
23.35
21.09
19.36
17.80
16.18
14.37
12.15
9.15
4.97
-0.70
-7.83
-16.03
-24.65
-32.97
-40.50
-47.10
-53.01
-58.69
-64.66
-71.18
-78.04
-84.43
-89.00
-90.03
-85.94
-75.73
-59.31
-37.55
-12.14
14.81
41.15
65.01
84.94
100.00
109.67
113.88
112.88
107.25
97.76
85.39
71.20
56.30
41.74
28.39
16.87
7.49
0.31
-4.83
-8.23
-10.38
-11.86
-13.33
-15.40
-18.51
-22.78
-27.95
-33.50
-38.76
-43.18
-46.48
-48.83
-50.84
-53.36
-57.33
-63.38
-71.54
-81.00
-90.18
-96.92
-99.06
-95.02
-84.21
-67.27
-45.78
-21.88
2.30
24.96
44.80
60.94
72.90
80.52
84.02
83.97
81.19
76.54
70.75
64.26
57.28
49.99
42.67
35.85
30.15
26.09
23.79
22.93
22.79
22.48
21.26
18.69
14.66
9.33
3.00
-4.05
-11.52
-19.19
-26.96
-34.86
-43.11
-51.98
-61.58
-71.59
-81.01
-88.29
-91.62
-89.44
-80.95
-66.44
-47.20
-25.22
-2.64
18.68
37.45
52.95
64.83
73.05
77.71
79.09
77.70
74.24
69.48
64.12
58.66
53.38
48.37
43.70
39.46
35.78
32.72
30.13
27.63
24.73
20.99
16.25
10.67
4.59
-1.63
-7.89
-14.43
-21.64
-29.88
-39.17
-48.94
-57.99
-64.71
-67.38
-64.69
-56.15
-42.26
-24.44
-4.62
15.21
33.45
48.96
61.07
69.38
73.65
73.85
70.31
63.79
55.39
46.31
37.58
29.84
23.36
18.05
13.71
10.07
6.82
3.70
0.43
-3.19
-7.27
-11.83
-16.78
-22.06
-27.65
-33.69
-40.36
-47.92
-56.58
-66.33
-76.78
-87.00
-95.48
-100.34
-99.77
-92.60
-78.65
-58.92
-35.29
-10.11
14.39
36.46
54.97
69.34
79.33
85.01
86.61
84.65
79.85
73.11
65.37
57.41
49.79
42.80
36.57
31.22
26.85
23.56
21.31
19.76
18.32
16.28
13.00
8.16
1.91
-5.30
-12.80
-19.99
-26.55
-32.52
-38.36
-44.72
-52.30
-61.45
-71.92
-82.64
-91.78
-97.11
-96.57
-88.84
-73.87
-52.86
-27.98
-1.77
23.44
45.92
64.64
79.11
89.12
94.67
95.90
93.28
87.62
80.01
71.60
63.35
55.90
49.50
44.10
39.54
35.63
32.24
29.31
26.80
24.63
22.60
20.34
17.36
13.22
7.67
0.80
-6.90
-14.77
-22.21
-28.92
-34.94
-40.62
-46.47
-52.95
-60.45
-69.14
-78.84
-88.84
-97.78
-103.73
-104.64
-98.91
-85.96
-66.50
-42.43
-16.26
9.48
32.72
52.14
67.00
77.05
82.31
83.09
79.96
73.80
65.72
56.85
48.16
40.26
33.42
27.70
23.06
19.45
16.86
15.21
14.24
13.50
12.39
10.34
6.97
2.21
-3.63
-10.02
-16.45
-22.51
-28.11
-33.48
-39.02
-45.21
-52.40
-60.67
-69.64
-78.39
-85.46
-89.13
-87.82
-80.54
-67.23
-48.81
-26.97
-3.73
18.89
39.18
55.83
67.90
74.89
76.75
73.96
67.49
58.65
48.85
39.29
30.81
23.77
18.13
13.66
10.07
7.14
4.70
2.53
0.36
-2.20
-5.51
-9.71
-14.74
-20.30
-26.03
-31.69
-37.28
-42.99
-49.15
-56.09
-63.99
-72.70
-81.61
-89.53
-94.85
-95.80
-90.99
-79.84
-62.83
-41.42
-17.71
6.07
27.98
46.55
60.82
70.28
74.80
74.59
70.32
62.96
53.74
43.88
34.42
26.07
19.19
13.85
9.90
7.09
5.08
3.45
1.75
-0.42
-3.33
-7.02
-11.32
-15.97
-20.70
-25.42
-30.22
-35.42
-41.45
-48.65
-57.15
-66.57
-75.81
-83.16
-86.55
-84.10
-74.74
-58.61
-37.04
-12.26
13.26
37.25
58.07
74.69
86.54
93.48
95.63
93.50
87.90
79.89
70.59
60.97
51.76
43.33
35.84
29.33
23.78
19.20
15.48
12.40
9.58
6.54
2.88
-1.70
-7.21
-13.48
-20.21
-27.07
-33.85
-40.52
-47.28
-54.56
-62.87
-72.46
-83.00
-93.35
-101.56
-105.35
-102.74
-92.68
-75.50
-52.73
-26.70
0.08
25.44
47.79
66.16
80.00
89.08
93.45
93.45
89.76
83.30
75.17
66.43
57.92
50.25
43.64
38.11
33.51
29.62
26.32
23.50
21.07
18.86
16.61
13.95
10.51
6.05
0.50
-5.99
-13.08
-20.40
-27.64
-34.61
-41.27
-47.68
-54.07
-60.78
-68.26
-76.82
-86.41
-96.29
-104.94
-110.24
-110.04
-102.82
-88.21
-67.20
-41.83
-14.63
12.01
36.25
56.88
73.23
84.96
91.97
94.41
92.70
87.63
80.23
71.68
63.03
55.10
48.34
42.84
38.47
34.96
32.06
29.60
27.40
25.29
23.07
20.54
17.50
13.83
9.46
4.38
-1.36
-7.65
-14.29
-21.05
-27.67
-33.92
-39.70
-45.09
-50.41
-56.12
-62.72
-70.54
-79.42
-88.53
-96.31
-100.76
-99.96
-92.63
-78.60
-58.83
-35.17
-9.88
14.90
37.43
56.48
71.24
81.29
86.52
87.20
84.01
78.00
70.37
62.29
54.66
48.03
42.52
38.04
34.33
31.20
28.53
26.29
24.48
23.02
21.67
20.03
17.65
14.13
9.33
3.42
-3.18
-9.92
-16.37
-22.29
-27.73
-32.90
-38.17
-43.91
-50.48
-58.11
-66.70
-75.62
-83.58
-88.79
-89.34
-83.77
-71.63
-53.67
-31.69
-8.01
15.09
35.80
52.85
65.49
73.34
76.29
74.58
68.94
60.50
50.69
40.90
32.19
25.11
19.71
15.74
12.89
10.91
9.66
8.97
8.54
7.93
6.61
4.23
0.63
-4.04
-9.39
-14.96
-20.34
-25.38
-30.20
-35.20
-40.93
-47.83
-55.96
-64.80
-73.13
-79.24
-81.32
-77.94
-68.52
-53.46
-34.11
-12.42
9.45
29.61
46.55
59.30
67.38
70.69
69.56
64.63
56.91
47.55
37.76
28.52
20.54
14.15
9.37
6.01
3.76
2.23
0.94
-0.57
-2.73
-5.78
-9.72
-14.33
-19.31
-24.39
-29.50
-34.74
-40.35
-46.62
-53.85
-62.15
-71.39
-80.89
-89.36
-95.03
-95.99
-90.78
-78.87
-60.94
-38.68
-14.36
9.77
31.85
50.57
65.10
75.00
80.09
80.59
77.13
70.73
62.66
54.17
46.20
39.30
33.60
28.97
25.23
22.23
19.85
17.96
16.31
14.46
11.96
8.40
3.62
-2.24
-8.82
-15.65
-22.38
-28.80
-35.00
-41.29
-48.12
-55.94
-64.94
-74.82
-84.60
-92.60
-96.79
-95.25
-86.83
-71.53
-50.61
-26.20
-0.73
23.61
45.20
63.06
76.63
85.67
90.13
90.23
86.55
80.05
71.98
63.55
55.76
49.19
43.93
39.76
36.34
33.40
30.83
28.61
26.74
25.04
23.15
20.60
16.97
12.09
6.08
-0.67
-7.64
-14.36
-20.64
-26.53
-32.35
-38.54
-45.55
-53.71
-63.08
-73.29
-83.41
-91.94
-97.04
-96.91
-90.29
-76.90
-57.57
-34.10
-8.77
16.12
38.70
57.73
72.47
82.66
88.24
89.40
86.58
80.48
72.13
62.72
53.44
45.30
38.87
34.22
31.04
28.82
27.06
25.41
23.71
21.87
19.78
17.17
13.74
9.26
3.73
-2.58
-9.16
-15.51
-21.29
-26.49
-31.41
-36.54
-42.44
-49.52
-57.86
-67.10
-76.27
-83.90
-88.24
-87.65
-81.07
-68.32
-50.23
-28.42
-4.98
17.95
38.49
55.24
67.30
74.27
76.23
73.73
67.67
59.27
49.81
40.46
32.13
25.30
20.08
16.35
13.88
12.46
11.89
11.89
12.08
11.93
10.85
8.40
4.49
-0.65
-6.48
-12.41
-18.05
-23.34
-28.57
-34.28
-41.01
-49.07
-58.32
-68.02
-76.80
-82.85
-84.28
-79.65
-68.43
-51.20
-29.59
-5.86
17.64
38.94
56.69
70.07
78.71
82.53
81.77
77.02
69.31
59.99
50.46
41.82
34.66
29.00
24.51
20.81
17.67
15.07
13.02
11.41
9.85
7.76
4.56
-0.01
-5.83
-12.44
-19.23
-25.71
-31.71
-37.39
-43.17
-49.59
-57.09
-65.89
-75.75
-85.83
-94.70
-100.48
-101.27
-95.61
-83.02
-64.19
-40.88
-15.46
9.68
32.56
51.93
67.14
77.96
84.38
86.57
84.94
80.20
73.38
65.60
57.88
50.88
44.86
39.76
35.38
31.58
28.32
25.69
23.69
22.21
20.91
19.25
16.65
12.66
7.16
0.40
-7.05
-14.48
-21.38
-27.55
-33.20
-38.85
-45.05
-52.28
-60.72
-70.11
-79.68
-88.12
-93.73
-94.74
-89.77
-78.30
-60.89
-39.07
-15.00
9.11
31.43
50.68
66.18
77.60
84.89
88.15
87.71
84.18
78.38
71.30
63.88
56.89
50.79
45.77
41.78
38.65
36.13
34.02
32.12
30.26
28.24
25.84
22.81
18.96
14.19
8.54
2.21
-4.49
-11.23
-17.77
-23.98
-29.87
-35.53
-41.13
-46.93
-53.26
-60.39
-68.48
-77.20
-85.69
-92.47
-95.70
-93.75
-85.60
-71.31
-51.98
-29.49
-6.04
16.35
36.13
52.31
64.35
72.09
75.60
75.27
71.73
65.92
58.87
51.57
44.80
38.96
34.18
30.33
27.20
24.63
22.50
20.70
19.10
17.52
15.62
13.06
9.53
4.87
-0.82
-7.21
-13.82
-20.16
-25.92
-31.03
-35.72
-40.38
-45.41
-51.11
-57.55
-64.46
-71.13
-76.41
-78.92
-77.27
-70.55
-58.59
-42.13
-22.64
-1.97
18.05
35.86
50.30
60.61
66.37
67.62
64.84
58.98
51.35
43.24
35.76
29.57
24.86
21.52
19.29
17.86
16.97
16.36
15.73
14.78
13.21
10.81
7.46
3.22
-1.75
-7.16
-12.73
-18.22
-23.52
-28.72
-34.09
-39.96
-46.61
-54.06
-61.90
-69.14
-74.38
-76.03
-72.80
-64.09
-50.25
-32.48
-12.52
7.81
26.96
43.75
57.35
67.20
72.93
74.46
72.14
66.73
59.31
51.06
42.98
35.75
29.65
24.68
20.69
17.51
15.00
12.99
11.25
9.40
7.04
3.79
-0.53
-5.81
-11.67
-17.66
-23.39
-28.71
-33.73
-38.82
-44.42
-50.92
-58.57
-67.18
-76.12
-84.14
-89.56
-90.64
-86.05
-75.34
-59.14
-39.03
-17.05
4.78
24.89
42.29
56.45
67.07
74.00
77.25
77.05
73.96
68.81
62.52
55.93
49.71
44.26
39.84
36.58
34.44
33.26
32.66
32.13
31.19
29.48
26.90
23.58
19.71
15.45
10.80
5.68
-0.04
-6.36
-13.14
-20.07
-26.78
-32.97
-38.53
-43.58
-48.42
-53.46
-59.10
-65.59
-72.85
-80.40
-87.22
-91.91
-92.88
-88.79
-79.01
-63.80
-44.36
-22.47
-0.10
21.03
39.69
55.13
66.98
75.16
79.77
81.09
79.61
76.01
71.04
65.45
59.92
54.92
50.73
47.49
45.12
43.51
42.42
41.62
40.85
39.88
38.53
36.66
34.23
31.26
27.83
24.04
19.96
15.67
11.19
6.54
1.78
-3.04
-7.80
-12.43
-16.91
-21.28
-25.66
-30.13
-34.74
-39.38
-43.85
-47.97
-51.66
-55.05
-58.46
-62.38
-67.26
-73.37
-80.63
-88.35
-95.28
-99.71
-99.88
-94.47
-83.07
-66.33
-45.82
-23.54
-1.43
19.00
36.78
51.36
62.41
69.75
73.38
73.59
71.01
66.52
61.08
55.49
50.28
45.76
41.99
39.02
36.87
35.53
34.93
34.88
35.05
35.03
34.36
32.73
29.97
26.17
21.63
16.75
11.89
7.27
2.84
-1.58
-6.21
-11.19
-16.44
-21.72
-26.75
-31.34
-35.48
-39.32
-43.15
-47.33
-52.13
-57.70
-63.90
-70.22
-75.73
-79.19
-79.32
-75.14
-66.31
-53.24
-37.09
-19.35
-1.59
14.86
29.02
40.24
48.08
52.27
52.84
50.15
45.00
38.51
31.87
26.10
21.75
18.84
16.96
15.58
14.30
13.00
11.82
10.91
10.29
9.73
8.78
6.99
4.04
-0.07
-5.11
-10.68
-16.32
-21.69
-26.62
-31.09
-35.27
-39.46
-44.05
-49.40
-55.77
-63.07
-70.74
-77.73
-82.59
-83.85
-80.45
-72.04
-59.10
-42.80
-24.63
-6.05
11.75
27.79
41.31
51.62
58.26
61.07
60.37
56.88
51.61
45.55
39.49
33.94
29.15
25.26
22.36
20.47
19.52
19.28
19.34
19.25
18.61
17.18
14.92
11.89
8.19
3.85
-1.10
-6.64
-12.64
-18.85
-24.97
-30.76
-36.08
-40.97
-45.64
-50.33
-55.34
-60.92
-67.30
-74.56
-82.51
-90.50
-97.31
-101.32
-100.85
-94.68
-82.54
-65.21
-44.33
-21.94
0.04
20.17
37.57
51.83
62.74
70.24
74.39
75.45
73.93
70.53
66.06
61.21
56.46
52.04
48.06
44.55
41.59
39.28
37.65
36.60
35.87
35.08
33.87
31.95
29.21
25.69
21.50
16.80
11.67
6.16
0.29
-5.90
-12.31
-18.73
-24.97
-30.85
-36.32
-41.49
-46.58
-51.94
-57.94
-64.89
-72.79
-81.21
-89.12
-94.96
-96.97
-93.68
-84.38
-69.32
-49.70
-27.33
-4.17
18.02
37.90
54.54
67.36
76.09
80.74
81.65
79.48
75.11
69.48
63.48
57.75
52.69
48.52
45.30
43.06
41.77
41.32
41.43
41.66
41.51
40.55
38.52
35.44
31.51
27.01
22.15
17.02
11.58
5.75
-0.50
-7.12
-13.93
-20.70
-27.17
-33.19
-38.75
-44.03
-49.37
-55.23
-61.96
-69.58
-77.55
-84.72
-89.47
-90.10
-85.27
-74.48
-58.20
-37.85
-15.38
7.11
27.84
45.49
59.30
68.85
74.02
74.90
71.89
65.77
57.72
49.07
41.08
34.61
29.98
26.99
25.16
23.96
23.01
22.17
21.42
20.72
19.94
18.77
16.84
13.88
9.82
4.79
-0.85
-6.74
-12.61
-18.40
-24.20
-30.22
-36.69
-43.78
-51.58
-60.02
-68.78
-77.13
-83.93
-87.67
-86.85
-80.39
-67.98
-50.27
-28.78
-5.47
17.60
38.68
56.40
69.84
78.45
82.08
81.00
75.95
68.13
58.95
49.80
41.76
35.41
30.84
27.80
25.90
24.77
24.14
23.84
23.70
23.51
22.88
21.28
18.17
13.11
5.92
-3.20
-13.66
-24.67
-35.46
-45.48
-54.59
-63.00
-71.19
-79.70
-88.89
-98.78
-108.86
-118.01
-124.63
-126.87
-123.21
-112.81
-95.94
-73.90
-48.74
-22.69
2.23
24.57
43.40
58.27
68.96
75.50
78.12
77.31
73.78
68.45
62.29
56.20
50.87
46.69
43.77
41.94
40.91
40.38
40.13
39.95
39.68
39.08
37.82
35.52
31.89
26.82
20.44
13.15
5.42
-2.32
-9.82
-17.04
-24.17
-31.52
-39.44
-48.21
-57.92
-68.28
-78.47
-87.11
-92.39
-92.51
-86.20
-73.15
-54.16
-30.98
-5.86
19.00
41.75
61.14
76.41
87.12
93.15
94.60
91.91
85.88
77.65
68.50
59.60
51.80
45.44
40.46
36.55
33.36
30.69
28.50
26.78
25.47
24.29
22.79
20.44
16.83
11.77
5.39
-1.89
-9.52
-17.00
-24.04
-30.60
-36.92
-43.37
-50.40
-58.33
-67.18
-76.52
-85.33
-92.03
-94.78
-91.94
-82.60
-66.96
-46.32
-22.77
1.37
24.01
43.62
59.19
70.15
76.23
77.48
74.40
67.99
59.60
50.71
42.55
35.84
30.77
27.11
24.49
22.66
21.47
20.83
20.52
20.11
19.04
16.80
13.07
7.92
1.73
-4.96
-11.61
-17.93
-23.90
-29.79
-36.05
-43.19
-51.54
-61.07
-71.12
-80.35
-86.87
-88.64
-84.07
-72.51
-54.60
-32.06
-7.29
17.25
39.57
58.31
72.69
82.36
87.20
87.35
83.29
75.91
66.52
56.53
47.24
39.45
33.42
28.90
25.37
22.34
19.53
16.89
14.47
12.25
9.99
7.25
3.56
-1.36
-7.49
-14.43
-21.57
-28.32
-34.36
-39.71
-44.80
-50.28
-56.83
-64.94
-74.70
-85.55
-96.25
-104.89
-109.25
-107.36
-98.07
-81.48
-58.96
-32.84
-5.73
20.03
42.81
61.73
76.49
87.08
93.63
96.38
95.69
92.15
86.47
79.48
71.94
64.47
57.53
51.42
46.33
42.32
39.33
37.10
35.20
33.12
30.44
26.90
22.53
17.58
12.38
7.10
1.78
-3.74
-9.67
-16.12
-23.01
-30.07
-37.01
-43.57
-49.74
-55.64
-61.61
-68.02
-75.16
-83.08
-91.40
-99.17
-104.88
-106.71
-102.98
-92.67
-75.80
-53.54
-27.91
-1.27
24.19
46.84
65.74
80.49
90.95
97.16
99.29
97.75
93.28
86.89
79.74
72.84
66.85
62.03
58.32
55.55
53.54
52.17
51.32
50.79
50.22
49.21
47.40
44.60
40.85
36.42
31.70
27.00
22.48
18.05
13.46
8.44
2.84
-3.21
-9.38
-15.26
-20.57
-25.22
-29.44
-33.61
-38.12
-43.21
-48.90
-54.99
-61.17
-67.12
-72.64
-77.74
-82.59
-87.58
-93.16
-99.76
-107.53
-116.09
-124.42
-130.78
-133.10
-129.47
-118.73
-100.91
-77.27
-49.95
-21.43
6.02
30.62
51.21
67.14
78.13
84.26
85.94
83.94
79.28
73.07
66.36
59.96
54.42
49.98
46.63
44.25
42.60
41.48
40.71
40.08
39.34
38.14
36.12
33.00
28.74
23.54
17.78
11.84
5.93
0.04
-5.95
-12.14
-18.47
-24.70
-30.51
-35.66
-40.14
-44.15
-48.11
-52.49
-57.68
-63.85
-70.66
-77.20
-82.01
-83.37
-79.79
-70.49
-55.71
-36.65
-15.16
6.74
27.36
45.47
60.31
71.50
78.83
82.30
82.10
78.74
72.95
65.68
57.84
50.24
43.43
37.70
33.16
29.81
27.57
26.29
25.69
25.37
24.82
23.55
21.24
17.82
13.46
8.48
3.20
-2.22
-7.79
-13.63
-19.83
-26.38
-33.09
-39.65
-45.83
-51.53
-56.90
-62.23
-67.92
-74.26
-81.26
-88.48
-94.97
-99.34
-99.98
-95.49
-85.07
-68.87
-48.01
-24.36
-0.10
22.78
42.82
59.14
71.38
79.50
83.65
84.16
81.58
76.67
70.33
63.44
56.71
50.59
45.32
41.01
37.73
35.52
34.30
33.83
33.67
33.29
32.25
30.27
27.30
23.52
19.13
14.35
9.25
3.82
-2.01
-8.25
-14.81
-21.52
-28.10
-34.33
-40.03
-45.19
-49.97
-54.68
-59.73
-65.55
-72.38
-80.06
-87.81
-94.19
-97.34
-95.49
-87.52
-73.38
-54.17
-31.84
-8.60
13.58
33.31
49.80
62.65
71.68
76.83
78.20
76.16
71.37
64.74
57.25
49.76
42.92
37.11
32.47
29.00
26.59
25.04
24.06
23.32
22.46
21.18
19.24
16.55
13.10
8.94
4.15
-1.18
-6.96
-13.07
-19.41
-25.81
-32.18
-38.38
-44.35
-50.07
-55.63
-61.29
-67.35
-74.03
-81.13
-87.84
-92.76
-94.17
-90.55
-81.08
-65.96
-46.36
-24.07
-1.11
20.71
39.94
55.54
66.87
73.63
75.91
74.20
69.35
62.52
54.88
47.50
41.12
36.03
32.21
29.39
27.28
25.70
24.53
23.66
22.86
21.73
19.79
16.63
12.12
6.38
-0.19
-7.10
-13.93
-20.44
-26.64
-32.72
-39.03
-46.02
-54.03
-63.12
-72.90
-82.36
-89.92
-93.74
-92.18
-84.28
-70.14
-50.89
-28.48
-5.12
17.18
36.91
53.14
65.39
73.48
77.41
77.34
73.75
67.40
59.39
50.90
43.03
36.49
31.55
28.06
25.60
23.73
22.11
20.58
19.05
17.44
15.53
13.02
9.55
4.90
-0.92
-7.65
-14.83
-21.96
-28.66
-34.81
-40.55
-46.23
-52.24
-58.95
-66.62
-75.27
-84.61
-93.86
-101.63
-106.10
-105.38
-98.07
-83.80
-63.47
-39.01
-12.90
12.49
35.37
54.69
69.95
81.00
87.82
90.53
89.48
85.33
79.03
71.70
64.31
57.57
51.74
46.81
42.62
39.03
36.00
33.53
31.57
29.92
28.29
26.28
23.54
19.85
15.11
9.36
2.78
-4.34
-11.68
-18.90
-25.80
-32.35
-38.71
-45.26
-52.42
-60.55
-69.71
-79.52
-89.04
-96.81
-101.09
-100.20
-93.03
-79.40
-60.20
-37.23
-12.72
11.11
32.55
50.48
64.36
73.96
79.27
80.42
77.82
72.18
64.53
56.04
47.76
40.42
34.33
29.44
25.51
22.27
19.54
17.25
15.37
13.81
12.36
10.68
8.37
5.09
0.68
-4.74
-10.82
-17.08
-23.09
-28.56
-33.49
-38.11
-42.81
-48.09
-54.33
-61.65
-69.66
-77.32
-83.05
-85.01
-81.58
-71.90
-56.19
-35.68
-12.39
11.41
33.66
52.75
67.62
77.72
82.91
83.43
79.94
73.41
65.07
56.21
47.90
40.82
35.22
30.97
27.79
25.41
23.63
22.34
21.35
20.30
18.74
16.18
12.36
7.33
1.42
-4.86
-11.07
-17.05
-22.92
-29.07
-35.97
-43.99
-53.19
-63.10
-72.71
-80.50
-84.74
-83.89
-77.02
-64.15
-46.28
-25.12
-2.65
19.27
39.13
55.78
68.38
76.35
79.46
77.95
72.67
64.85
55.92
47.13
39.23
32.55
27.03
22.46
18.71
15.69
13.35
11.54
9.96
8.16
5.65
2.05
-2.79
-8.70
-15.28
-21.99
-28.43
-34.45
-40.20
-46.08
-52.61
-60.17
-68.89
-78.40
-87.74
-95.37
-99.42
-98.11
-90.30
-75.89
-55.99
-32.59
-8.08
15.37
36.20
53.54
67.05
76.65
82.34
84.22
82.59
78.04
71.48
63.98
56.51
49.79
44.12
39.47
35.61
32.29
29.38
26.87
24.77
23.01
21.31
19.19
16.14
11.82
6.19
-0.43
-7.49
-14.42
-20.88
-26.86
-32.63
-38.64
-45.30
-52.86
-61.37
-70.50
-79.49
-87.15
-91.89
-92.15
-86.71
-75.20
-58.23
-37.35
-14.64
7.85
28.43
46.04
60.15
70.52
77.10
79.88
79.03
75.01
68.57
60.76
52.67
45.19
38.86
33.85
30.01
27.12
24.93
23.24
21.84
20.50
18.98
17.08
14.77
12.18
9.63
7.45
5.85
4.86
4.34
3.98
3.50
2.62
1.09
-1.30
-4.66
-8.97
-14.04
-19.48
-24.90
-29.94
-34.52
-38.76
-42.98
-47.56
-52.78
-58.78
-65.49
-72.58
-79.41
-84.99
-87.96
-86.86
-80.48
-68.28
-50.70
-29.12
-5.59
17.71
38.93
56.82
70.72
80.33
85.58
86.52
83.47
77.15
68.72
59.55
50.90
43.59
37.86
33.45
29.95
27.04
24.67
22.92
21.85
21.22
20.50
19.00
16.14
11.72
6.00
-0.39
-6.73
-12.54
-17.71
-22.51
-27.46
-33.05
-39.63
-47.19
-55.37
-63.34
-69.90
-73.57
-72.90
-66.90
-55.35
-38.99
-19.38
1.46
21.60
39.51
54.24
65.31
72.54
75.90
75.54
71.83
65.49
57.51
49.00
40.91
33.84
27.96
23.11
19.08
15.71
13.02
11.04
9.73
8.78
7.66
5.72
2.47
-2.28
-8.32
-15.07
-21.89
-28.24
-33.91
-39.09
-44.29
-50.15
-57.23
-65.76
-75.48
-85.52
-94.42
-100.37
-101.54
-96.62
-85.22
-68.05
-46.79
-23.58
-0.53
20.72
39.16
54.26
65.71
73.32
77.00
76.89
73.55
67.89
61.05
54.04
47.57
41.92
37.11
32.96
29.39
26.38
23.94
22.04
20.46
18.81
16.64
13.52
9.24
3.86
-2.34
-8.99
-15.72
-22.31
-28.75
-35.18
-41.86
-49.05
-56.94
-65.47
-74.23
-82.32
-88.45
-91.10
-88.95
-81.27
-68.20
-50.76
-30.58
-9.55
10.64
28.69
43.80
55.51
63.57
67.90
68.56
65.92
60.64
53.68
46.09
38.78
32.34
27.00
22.69
19.23
16.43
14.20
12.47
11.11
9.91
8.58
6.79
4.36
1.21
-2.59
-6.87
-11.47
-16.24
-21.04
-25.83
-30.59
-35.36
-40.29
-45.62
-51.56
-58.16
-65.11
-71.55
-76.16
-77.40
-73.90
-64.90
-50.56
-31.97
-10.85
10.89
31.51
49.68
64.51
75.44
82.14
84.55
82.91
77.90
70.54
62.08
53.66
46.11
39.76
34.48
29.92
25.79
21.96
18.54
15.69
13.37
11.24
8.77
5.37
0.78
-4.85
-11.02
-17.07
-22.58
-27.49
-32.11
-36.98
-42.57
-49.18
-56.72
-64.76
-72.42
-78.45
-81.44
-80.08
-73.57
-61.84
-45.70
-26.58
-6.19
13.79
32.00
47.41
59.30
67.23
71.03
70.85
67.23
61.03
53.33
45.25
37.70
31.28
26.14
22.08
18.72
15.69
12.78
9.99
7.42
5.06
2.71
-0.05
-3.69
-8.49
-14.40
-21.04
-27.83
-34.25
-40.02
-45.23
-50.25
-55.63
-61.94
-69.58
-78.52
-88.09
-96.89
-102.97
-104.27
-99.26
-87.47
-69.70
-47.81
-24.09
-0.68
20.88
39.68
55.27
67.40
75.86
80.57
81.64
79.55
75.06
69.07
62.45
55.85
49.71
44.24
39.49
35.46
32.12
29.40
27.19
25.33
23.56
21.57
19.07
15.82
11.67
6.59
0.68
-5.90
-12.91
-20.12
-27.28
-34.25
-40.90
-47.25
-53.48
-59.88
-66.82
-74.58
-83.10
-91.77
-99.44
-104.46
-105.11
-100.06
-88.79
-71.80
-50.50
-26.84
-2.86
19.72
39.62
56.04
68.51
76.81
80.92
81.11
77.95
72.28
65.09
57.37
49.92
43.24
37.59
33.03
29.50
26.90
25.11
23.94
23.13
22.34
21.19
19.34
16.50
12.50
7.37
1.26
-5.46
-12.37
-19.06
-25.24
-30.88
-36.18
-41.50
-47.27
-53.80
-61.07
-68.67
-75.66
-80.73
-82.42
-79.45
-71.13
-57.56
-39.64
-18.86
3.04
24.39
43.73
59.91
72.03
79.51
82.16
80.31
74.82
66.94
58.07
49.44
41.84
35.64
30.78
27.05
24.19
21.99
20.29
18.88
17.51
15.82
13.43
10.03
5.44
-0.24
-6.71
-13.47
-20.03
-26.09
-31.66
-37.06
-42.83
-49.51
-57.40
-66.34
-75.61
-83.94
-89.72
-91.27
-87.29
-77.21
-61.36
-41.01
-17.99
5.62
27.99
47.69
63.79
75.71
83.12
85.95
84.42
79.17
71.22
61.92
52.61
44.33
37.61
32.43
28.44
25.21
22.41
19.96
17.89
16.22
14.77
13.15
10.82
7.30
2.36
-3.85
-10.85
-17.99
-24.71
-30.75
-36.23
-41.63
-47.52
-54.43
-62.57
-71.71
-81.03
-89.22
-94.59
-95.43
-90.45
-79.10
-61.84
-40.04
-15.68
9.11
32.47
53.00
69.83
82.44
90.62
94.36
93.90
89.77
82.84
74.14
64.78
55.71
47.58
40.70
35.10
30.64
27.12
24.37
22.25
20.56
19.04
17.32
15.01
11.76
7.35
1.79
-4.70
-11.73
-18.86
-25.71
-32.06
-37.95
-43.62
-49.46
-55.93
-63.37
-71.86
-81.00
-89.84
-96.93
-100.56
-99.14
-91.65
-77.98
-58.99
-36.34
-12.10
11.70
33.38
51.72
65.97
75.78
81.05
82.00
79.10
73.18
65.26
56.54
48.09
40.72
34.85
30.48
27.36
25.12
23.44
22.14
21.06
20.04
18.84
17.09
14.43
10.61
5.59
-0.40
-6.90
-13.42
-19.57
-25.17
-30.26
-35.09
-39.98
-45.25
-51.16
-57.82
-65.12
-72.52
-79.03
-83.20
-83.40
-78.24
-67.11
-50.39
-29.52
-6.56
16.29
37.19
54.85
68.52
77.78
82.50
82.80
79.16
72.51
64.05
55.09
46.68
39.51
33.83
29.55
26.46
24.33
22.93
22.04
21.36
20.53
19.16
16.89
13.52
9.08
3.81
-1.90
-7.66
-13.20
-18.52
-23.91
-29.84
-36.82
-45.09
-54.36
-63.68
-71.46
-75.84
-75.15
-68.44
-55.78
-38.26
-17.70
3.84
24.46
42.62
57.21
67.49
73.11
74.12
71.05
64.83
56.65
47.72
39.01
31.18
24.57
19.28
15.26
12.38
10.40
8.96
7.59
5.82
3.22
-0.48
-5.31
-11.06
-17.37
-23.79
-30.00
-35.86
-41.51
-47.33
-53.79
-61.25
-69.66
-78.36
-85.98
-90.68
-90.58
-84.35
-71.65
-53.30
-31.07
-7.21
16.17
37.39
55.35
69.37
79.08
84.30
85.13
82.05
75.96
68.08
59.65
51.66
44.66
38.73
33.66
29.20
25.20
21.71
18.86
16.65
14.90
13.18
10.95
7.73
3.27
-2.40
-8.96
-15.96
-22.97
-29.67
-35.97
-42.00
-48.08
-54.64
-62.07
-70.49
-79.58
-88.36
-95.31
-98.55
-96.38
-87.79
-72.76
-52.40
-28.64
-3.76
20.13
41.39
59.00
72.43
81.45
86.10
86.60
83.48
77.58
69.98
61.87
54.23
47.73
42.56
38.58
35.42
32.72
30.26
27.97
25.90
24.01
22.12
19.89
16.89
12.77
7.39
0.94
-6.16
-13.38
-20.24
-26.48
-32.16
-37.60
-43.21
-49.43
-56.54
-64.61
-73.37
-82.14
-89.80
-94.82
-95.60
-90.81
-79.83
-63.04
-41.75
-17.97
6.06
28.32
47.29
62.08
72.38
78.30
80.25
78.78
74.55
68.32
60.89
53.07
45.59
39.04
33.74
29.76
26.93
24.94
23.43
22.09
20.69
19.06
17.10
14.68
11.69
7.98
3.42
-2.03
-8.31
-15.14
-22.18
-29.04
-35.45
-41.32
-46.79
-52.12
-57.63
-63.62
-70.27
-77.57
-85.16
-92.26
-97.65
-99.77
-97.08
-88.53
-73.93
-54.20
-31.13
-6.99
16.08
36.45
53.14
65.71
74.03
78.12
78.16
74.59
68.22
60.19
51.78
44.06
37.76
33.07
29.83
27.65
26.20
25.25
24.69
24.42
24.22
23.71
22.42
19.94
16.11
11.06
5.23
-0.85
-6.71
-12.10
-17.07
-21.94
-27.14
-33.09
-40.01
-47.86
-56.12
-63.90
-69.96
-72.90
-71.52
-65.03
-53.32
-37.05
-17.57
3.32
23.67
41.68
55.98
65.72
70.64
71.01
67.52
61.17
53.16
44.68
36.80
30.25
25.29
21.73
19.12
17.02
15.23
13.80
12.98
12.92
13.44
13.99
13.81
12.13
8.49
2.87
-4.35
-12.53
-21.06
-29.54
-37.89
-46.40
-55.50
-65.52
-76.36
-87.26
-96.73
-102.88
-103.89
-98.55
-86.65
-69.05
-47.47
-23.99
-0.61
21.10
40.03
55.42
66.72
73.57
75.89
74.02
68.84
61.52
53.39
45.57
38.76
33.24
28.93
25.58
22.95
20.86
19.23
18.00
17.01
15.99
14.53
12.18
8.58
3.64
-2.45
-9.24
-16.17
-22.75
-28.69
-34.01
-38.99
-44.09
-49.84
-56.69
-64.78
-73.77
-82.66
-89.86
-93.48
-91.77
-83.72
-69.36
-49.87
-27.17
-3.54
19.05
39.12
55.81
68.65
77.44
82.13
82.92
80.35
75.34
69.09
62.82
57.54
53.81
51.68
50.85
50.78
50.90
50.69
49.80
47.97
45.08
41.12
36.15
30.24
23.44
15.70
6.95
-2.86
-13.69
-25.30
-37.30
-49.23
-60.65
-71.27
-81.03
-90.08
-98.66
-106.98
-114.90
-121.86
-126.73
-128.06
-124.43
-114.93
-99.49
-79.01
-55.14
-29.88
-5.13
17.57
37.16
52.90
64.36
71.32
73.86
72.47
68.01
61.65
54.56
47.75
41.86
37.17
33.67
31.18
29.54
28.60
28.21
28.17
28.14
27.65
26.21
23.43
19.20
13.70
7.41
0.92
-5.32
-11.06
-16.37
-21.52
-26.93
-32.95
-39.79
-47.36
-55.10
-62.01
-66.69
-67.67
-63.77
-54.48
-40.15
-21.95
-1.55
19.24
38.76
55.70
69.05
78.12
82.52
82.27
77.91
70.47
61.30
51.74
42.87
35.29
29.13
24.23
20.30
17.13
14.56
12.50
10.75
9.01
6.91
4.03
0.11
-4.91
-10.83
-17.26
-23.75
-29.99
-35.90
-41.69
-47.77
-54.60
-62.42
-71.11
-79.96
-87.73
-92.76
-93.38
-88.31
-77.09
-60.28
-39.32
-16.23
6.91
28.29
46.61
61.05
71.16
76.80
78.15
75.70
70.29
63.00
55.00
47.35
40.76
35.56
31.72
28.98
26.99
25.48
24.29
23.29
22.35
21.19
19.44
16.67
12.59
7.17
0.67
-6.40
-13.52
-20.32
-26.70
-32.80
-38.90
-45.33
-52.36
-60.15
-68.70
-77.69
-86.34
-93.34
-97.03
-95.75
-88.36
-74.69
-55.63
-32.96
-8.82
14.75
36.16
54.32
68.61
78.69
84.49
86.21
84.34
79.64
73.07
65.61
58.14
51.37
45.74
41.46
38.47
36.55
35.29
34.29
33.14
31.52
29.26
26.29
22.62
18.28
13.26
7.57
1.26
-5.56
-12.67
-19.83
-26.80
-33.47
-39.86
-46.15
-52.54
-59.28
-66.51
-74.18
-81.96
-89.06
-94.23
-95.98
-92.86
-83.95
-69.22
-49.65
-27.03
-3.49
18.89
38.57
54.57
66.47
74.18
77.82
77.66
74.23
68.27
60.81
52.99
45.86
40.12
36.06
33.52
32.13
31.44
31.13
30.96
30.71
30.12
28.88
26.77
23.66
19.59
14.68
9.08
2.97
-3.48
-10.05
-16.47
-22.54
-28.19
-33.55
-38.92
-44.65
-50.98
-57.95
-65.17
-71.80
-76.67
-78.34
-75.51
-67.41
-54.09
-36.53
-16.34
4.57
24.46
41.92
55.97
65.95
71.49
72.59
69.68
63.67
55.81
47.40
39.54
32.88
27.65
23.75
20.96
19.04
17.78
16.99
16.41
15.74
14.67
12.88
10.15
6.39
1.62
-3.99
-10.16
-16.53
-22.81
-28.79
-34.47
-40.02
-45.80
-52.19
-59.49
-67.67
-76.30
-84.36
-90.37
-92.66
-89.80
-81.02
-66.48
-47.29
-25.20
-2.27
19.58
38.88
54.63
66.35
73.92
77.51
77.50
74.43
69.00
62.04
54.45
47.09
40.65
35.62
32.10
29.93
28.70
27.91
27.11
25.94
24.22
21.86
18.88
15.32
11.21
6.56
1.43
-4.12
-9.98
-15.99
-22.04
-28.03
-33.90
-39.67
-45.39
-51.18
-57.22
-63.76
-70.94
-78.61
-86.12
-92.25
-95.41
-93.98
-86.84
-73.72
-55.37
-33.40
-9.86
13.16
33.94
51.32
64.67
73.78
78.80
80.08
78.16
73.78
67.72
60.85
53.90
47.48
41.95
37.49
34.13
31.81
30.34
29.48
28.83
27.96
26.47
24.09
20.78
16.67
12.04
7.14
2.10
-3.07
-8.50
-14.35
-20.71
-27.49
-34.42
-41.13
-47.23
-52.56
-57.23
-61.62
-66.29
-71.71
-78.11
-85.23
-92.29
-97.98
-100.75
-99.07
-91.90
-78.94
-60.88
-39.23
-15.99
6.76
27.31
44.51
57.79
66.94
72.05
73.34
71.24
66.42
59.81
52.48
45.46
39.57
35.24
32.48
31.04
30.45
30.31
30.27
30.13
29.76
29.03
27.79
25.83
22.95
19.05
14.17
8.58
2.61
-3.34
-8.98
-14.21
-19.11
-23.84
-28.67
-33.82
-39.44
-45.57
-52.03
-58.26
-63.30
-65.88
-64.66
-58.61
-47.38
-31.52
-12.35
8.29
28.48
46.58
61.35
72.04
78.27
80.01
77.51
71.40
62.71
52.69
42.69
33.78
26.63
21.39
17.83
15.50
13.91
12.73
11.74
10.80
9.77
8.45
6.52
3.67
-0.35
-5.59
-11.84
-18.67
-25.57
-32.10
-38.09
-43.61
-49.00
-54.70
-61.12
-68.54
-76.90
-85.68
-93.85
-99.86
-101.96
-98.64
-89.04
-73.35
-52.77
-29.29
-5.15
17.62
37.54
53.73
65.78
73.62
77.37
77.35
74.14
68.54
61.53
54.10
47.05
40.97
36.09
32.41
29.70
27.68
26.04
24.56
23.08
21.48
19.64
17.34
14.30
10.27
5.18
-0.85
-7.46
-14.19
-20.66
-26.65
-32.20
-37.51
-42.90
-48.64
-54.95
-61.96
-69.66
-77.77
-85.62
-92.01
-95.32
-93.90
-86.54
-72.94
-53.93
-31.25
-7.13
16.33
37.49
55.28
69.17
78.93
84.50
86.06
84.03
79.10
72.24
64.42
56.56
49.31
43.08
38.07
34.30
31.65
29.91
28.74
27.75
26.55
24.83
22.45
19.37
15.60
11.15
6.01
0.13
-6.43
-13.53
-20.93
-28.32
-35.39
-41.92
-47.82
-53.20
-58.31
-63.59
-69.45
-76.20
-83.75
-91.48
-98.17
-102.14
-101.63
-95.29
-82.57
-64.05
-41.30
-16.54
7.96
30.30
49.25
64.10
74.56
80.47
81.89
79.19
73.21
65.24
56.77
49.15
43.17
39.02
36.37
34.71
33.59
32.75
32.12
31.62
31.10
30.25
28.67
26.02
22.13
17.01
10.94
4.31
-2.44
-8.99
-15.23
-21.30
-27.49
-34.15
-41.48
-49.41
-57.44
-64.61
-69.61
-70.98
-67.52
-58.61
-44.52
-26.36
-5.88
14.91
34.21
50.60
63.13
71.24
74.74
73.79
68.96
61.24
51.93
42.36
33.65
26.46
20.98
17.02
14.21
12.19
10.66
9.40
8.14
6.59
4.38
1.19
-3.09
-8.36
-14.29
-20.47
-26.55
-32.43
-38.26
-44.41
-51.32
-59.27
-68.23
-77.65
-86.45
-93.10
-95.88
-93.26
-84.40
-69.44
-49.55
-26.65
-2.97
19.51
39.32
55.55
67.71
75.53
78.93
78.13
73.77
66.89
58.83
50.83
43.73
37.87
33.14
29.25
26.01
23.42
21.55
20.42
19.72
18.89
17.25
14.24
9.70
3.87
-2.67
-9.29
-15.56
-21.35
-26.85
-32.45
-38.66
-45.89
-54.41
-64.08
-74.27
-83.74
-90.77
-93.53
-90.57
-81.27
-66.06
-46.35
-24.07
-1.27
20.38
39.68
55.91
68.63
77.54
82.47
83.46
80.86
75.45
68.29
60.58
53.37
47.35
42.78
39.52
37.20
35.39
33.76
32.10
30.31
28.28
25.87
22.86
19.03
14.19
8.38
1.80
-5.13
-11.97
-18.38
-24.22
-29.63
-34.95
-40.57
-46.83
-53.98
-62.01
-70.67
-79.32
-86.92
-92.06
-93.21
-89.06
-79.03
-63.43
-43.58
-21.39
1.05
21.98
40.20
55.09
66.37
73.94
77.73
77.87
74.74
69.13
62.10
54.80
48.20
42.84
38.86
36.09
34.18
32.84
31.80
30.84
29.71
28.08
25.72
22.44
18.32
13.56
8.44
3.18
-2.19
-7.74
-13.59
-19.75
-26.07
-32.30
-38.20
-43.72
-49.01
-54.41
-60.23
-66.60
-73.26
-79.50
-84.20
-85.98
-83.51
-75.89
-62.89
-45.27
-24.53
-2.66
18.38
36.99
52.19
63.49
70.75
74.00
73.51
69.83
63.84
56.67
49.47
43.16
38.24
34.77
32.46
30.90
29.69
28.57
27.44
26.27
25.00
23.46
21.35
18.32
14.18
8.99
3.13
-2.85
-8.44
-13.36
-17.67
-21.73
-25.97
-30.78
-36.39
-42.77
-49.63
-56.42
-62.30
-66.16
-66.82
-63.25
-54.92
-42.04
-25.58
-7.14
11.47
28.61
43.06
54.15
61.57
65.29
65.43
62.34
56.65
49.31
41.47
34.20
28.24
23.84
20.82
18.74
17.18
15.85
14.67
13.58
12.48
11.09
9.04
6.02
1.88
-3.25
-9.02
-14.99
-20.78
-26.18
-31.16
-35.90
-40.69
-45.90
-51.85
-58.67
-66.07
-73.25
-78.83
-81.16
-78.77
-70.86
-57.56
-39.96
-19.81
1.00
20.82
38.49
53.25
64.68
72.52
76.63
77.05
74.12
68.58
61.46
53.89
46.86
40.98
36.42
32.97
30.27
27.99
25.88
23.84
21.75
19.46
16.79
13.53
9.56
4.84
-0.53
-6.44
-12.69
-19.06
-25.34
-31.36
-37.04
-42.41
-47.64
-52.91
-58.49
-64.57
-71.28
-78.48
-85.70
-91.99
-96.00
-96.24
-91.50
-81.23
-65.80
-46.47
-25.02
-3.31
17.14
35.34
50.74
63.04
72.07
77.66
79.79
78.75
75.17
69.95
64.05
58.26
53.05
48.57
44.82
41.72
39.26
37.45
36.22
35.41
34.63
33.41
31.25
27.89
23.32
17.87
12.05
6.35
1.06
-3.83
-8.63
-13.74
-19.44
-25.71
-32.20
-38.38
-43.78
-48.24
-51.97
-55.45
-59.27
-63.91
-69.63
-76.36
-83.67
-90.72
-96.32
-99.02
-97.46
-90.69
-78.56
-61.78
-41.79
-20.36
0.83
20.43
37.57
51.67
62.40
69.57
73.18
73.46
70.97
66.51
61.02
55.36
50.13
45.60
41.74
38.37
35.34
32.63
30.36
28.68
27.60
26.85
25.90
24.10
20.99
16.47
10.93
5.02
-0.59
-5.55
-9.93
-14.18
-18.81
-24.10
-29.94
-35.75
-40.66
-43.68
-43.96
-41.03
-34.98
-26.70
-17.80
-10.34
-6.32
-7.09
-12.79
-22.22
-33.06
-42.48
-47.86
-47.55
-41.15
-29.54
-14.47
2.07
18.24
32.76
44.87
54.20
60.65
64.23
65.13
63.67
60.39
55.97
51.05
46.17
41.64
37.60
34.09
31.15
28.80
27.07
25.90
25.12
24.46
23.56
22.07
19.69
16.26
11.74
6.26
0.05
-6.55
-13.20
-19.63
-25.69
-31.43
-37.05
-42.83
-49.09
-56.03
-63.68
-71.75
-79.58
-86.12
-90.11
-90.28
-85.76
-76.28
-62.28
-44.83
-25.40
-5.52
13.40
30.16
43.79
53.50
58.76
59.36
55.52
47.88
37.47
25.47
13.07
1.30
-9.04
-17.38
-23.39
-26.95
-28.22
-27.64
-25.96
-24.11
-23.07
-23.59
-26.01
-30.14
-35.32
-40.62
-45.19
-48.53
-50.65
-52.01
-53.31
-55.15
-57.79
-61.08
-64.66
-68.17
-71.53
-75.02
-79.17
-84.48
-91.07
-98.46
-105.46
-110.40
-111.46
-107.21
-96.91
-80.78
-59.98
-36.27
-11.64
12.05
33.42
51.60
66.16
76.96
84.08
87.70
88.19
86.10
82.13
77.09
71.67
66.41
61.67
57.61
54.32
51.77
49.89
48.49
47.30
46.01
44.34
42.06
39.06
35.37
31.07
26.32
21.20
15.72
9.82
3.42
-3.44
-10.54
-17.51
-23.93
-29.48
-34.10
-38.02
-41.68
-45.61
-50.29
-55.89
-62.19
-68.46
-73.49
-75.84
-74.16
-67.59
-55.99
-39.97
-20.81
-0.06
20.68
40.14
57.33
71.67
82.80
90.59
95.08
96.46
95.15
91.70
86.79
81.11
75.25
69.66
64.65
60.41
57.09
54.72
53.26
52.50
52.04
51.37
49.97
47.51
43.87
39.18
33.73
27.80
21.59
15.20
8.66
2.02
-4.56
-10.89
-16.78
-22.19
-27.24
-32.24
-37.58
-43.60
-50.48
-58.14
-66.20
-73.89
-80.04
-83.28
-82.28
-76.14
-64.74
-48.86
-30.00
-9.98
9.47
26.99
41.64
52.81
60.09
63.31
62.64
58.72
52.63
45.67
39.03
33.48
29.31
26.41
24.44
23.06
22.03
21.18
20.39
19.51
18.38
16.85
14.71
11.84
8.11
3.56
-1.66
-7.26
-12.90
-18.32
-23.43
-28.37
-33.42
-38.93
-45.19
-52.29
-59.97
-67.54
-73.87
-77.56
-77.21
-71.85
-61.27
-46.09
-27.72
-7.90
11.61
29.36
44.35
55.96
63.89
68.10
68.75
66.24
61.24
54.62
47.37
40.46
34.67
30.40
27.68
26.15
25.31
24.66
23.87
22.78
21.39
19.72
17.67
15.08
11.71
7.38
2.06
-4.05
-10.61
-17.20
-23.49
-29.30
-34.65
-39.74
-44.85
-50.34
-56.57
-63.83
-72.10
-80.88
-89.07
-95.02
-96.94
-93.39
-83.71
-68.33
-48.58
-26.34
-3.60
17.96
37.07
52.89
64.90
72.87
76.87
77.29
74.83
70.33
64.67
58.56
52.53
46.97
42.18
38.37
35.67
34.06
33.27
32.91
32.47
31.55
29.89
27.43
24.21
20.33
15.87
10.88
5.40
-0.49
-6.67
-12.98
-19.26
-25.35
-31.19
-36.80
-42.30
-47.87
-53.80
-60.36
-67.66
-75.40
-82.74
-88.26
-90.30
-87.38
-78.68
-64.38
-45.62
-24.23
-2.21
18.69
37.22
52.65
64.61
72.96
77.67
78.83
76.76
72.04
65.56
58.32
51.31
45.26
40.55
37.21
34.98
33.49
32.33
31.19
29.89
28.30
26.35
23.91
20.81
16.88
12.07
6.47
0.40
-5.74
-11.61
-17.06
-22.16
-27.18
-32.44
-38.23
-44.76
-52.14
-60.30
-68.79
-76.69
-82.64
-84.99
-82.34
-74.00
-60.28
-42.47
-22.40
-2.01
17.04
33.60
46.88
56.40
61.87
63.30
61.07
55.99
49.15
41.70
34.58
28.32
23.10
18.82
15.39
12.78
11.07
10.26
10.16
10.33
10.09
8.81
6.12
2.01
-3.14
-8.79
-14.46
-19.87
-25.04
-30.20
-35.70
-41.88
-48.95
-56.80
-64.94
-72.40
-77.87
-79.87
-77.23
-69.38
-56.56
-39.82
-20.68
-0.93
17.83
34.24
47.32
56.43
61.33
62.16
59.49
54.22
47.45
40.24
33.41
27.44
22.49
18.52
15.41
13.06
11.40
10.28
9.42
8.41
6.78
4.11
0.27
-4.62
-10.21
-16.06
-21.87
-27.54
-33.24
-39.28
-46.05
-53.80
-62.49
-71.63
-80.17
-86.61
-89.27
-86.72
-78.23
-64.07
-45.46
-24.24
-2.38
18.42
36.94
52.45
64.49
72.79
77.22
77.89
75.23
70.03
63.32
56.15
49.35
43.42
38.51
34.55
31.44
29.07
27.32
25.98
24.67
22.93
20.30
16.52
11.64
5.95
-0.07
-6.01
-11.63
-16.94
-22.19
-27.80
-34.13
-41.41
-49.46
-57.58
-64.55
-68.78
-68.66
-63.02
-51.48
-34.64
-13.91
8.81
31.67
53.19
72.38
88.70
101.75
111.17
116.56
117.64
114.48
107.58
97.89
86.56
74.77
63.40
53.03
43.86
35.88
28.95
22.98
17.84
13.46
9.68
6.26
2.89
-0.78
-4.98
-9.73
-14.82
-19.89
-24.60
-28.78
-32.52
-36.04
-39.65
-43.62
-48.12
-53.25
-58.95
-64.81
-69.94
-73.07
-72.78
-67.92
-58.11
-43.88
-26.61
-8.06
10.04
26.32
39.84
49.91
56.04
57.79
54.96
47.75
36.98
24.02
10.57
-1.82
-12.07
-19.84
-25.39
-29.30
-32.08
-33.96
-34.93
-35.01
-34.47
-33.93
-34.19
-36.02
-39.83
-45.67
-53.21
-61.91
-71.11
-80.09
-88.11
-94.55
-98.98
-101.38
-102.11
-101.89
-101.46
-101.24
-101.08
-100.07
-96.89
-90.14
-78.90
-63.07
-43.40
-21.28
1.71
24.10
44.69
62.57
77.05
87.54
93.72
95.59
93.63
88.78
82.26
75.37
69.11
64.04
60.22
57.33
54.94
52.65
50.28
47.79
45.22
42.55
39.56
35.99
31.52
26.00
19.50
12.31
4.88
-2.39
-9.21
-15.57
-21.66
-27.84
-34.51
-41.93
-50.05
-58.40
-66.07
-71.75
-74.09
-71.90
-64.65
-52.51
-36.42
-17.86
1.53
20.22
36.96
50.93
61.62
68.85
72.66
73.30
71.19
66.95
61.31
55.07
48.97
43.54
39.10
35.67
33.14
31.29
29.94
28.91
28.08
27.26
26.24
24.79
22.66
19.66
15.72
10.90
5.39
-0.47
-6.26
-11.61
-16.32
-20.41
-24.16
-27.98
-32.29
-37.34
-43.12
-49.26
-54.98
-59.16
-60.44
-57.55
-49.62
-36.47
-18.70
2.38
25.13
47.86
69.26
88.45
105.04
119.01
130.54
139.83
146.94
151.67
153.68
152.63
148.34
140.93
130.80
118.53
104.77
90.13
75.24
60.68
46.95
34.28
22.60
11.55
0.60
-10.67
-22.43
-34.53
-46.60
-58.26
-69.27
-79.52
-89.04
-97.84
-105.87
-113.01
-119.18
-124.40
-128.93
-133.21
-137.69
-142.59
-147.51
-151.36
-152.55
-149.40
-140.63
-125.76
-105.25
-80.36
-52.79
-24.36
3.26
28.62
50.52
68.05
80.59
87.90
90.16
87.91
82.01
73.51
63.46
52.76
42.13
32.07
22.91
14.91
8.24
2.95
-1.08
-4.16
-6.75
-9.38
-12.50
-16.39
-21.11
-26.52
-32.35
-38.26
-43.94
-49.14
-53.79
-58.05
-62.21
-66.68
-71.84
-77.89
-84.88
-92.52
-100.21
-106.98
-111.51
-112.42
-108.50
-99.12
-84.45
-65.50
-43.83
-21.25
0.57
20.24
36.75
49.38
57.72
61.73
61.77
58.65
53.47
47.46
41.68
36.89
33.39
31.10
29.66
28.62
27.54
26.14
24.39
22.38
20.39
18.64
17.28
16.25
15.29
14.04
12.16
9.45
5.92
1.75
-2.76
-7.34
-11.91
-16.62
-21.85
-28.12
-35.95
-45.60
-56.85
-68.85
-80.10
-88.76
-92.98
-91.40
-83.48
-69.61
-51.07
-29.61
-7.15
14.65
34.54
51.74
65.83
76.61
84.03
88.19
89.33
87.97
84.77
80.50
75.81
71.20
66.97
63.27
60.20
57.79
55.92
54.30
52.43
49.78
45.98
40.99
35.06
28.64
22.17
15.84
9.56
3.10
-3.85
-11.37
-19.37
-27.53
-35.49
-42.97
-49.90
-56.45
-63.03
-70.09
-78.04
-86.94
-96.35
-105.27
-112.16
-115.33
-113.34
-105.49
-92.04
-74.12
-53.42
-31.69
-10.37
9.51
27.25
42.29
54.08
62.10
66.06
66.08
62.79
57.30
50.87
44.66
39.51
35.76
33.38
32.11
31.64
31.67
31.99
32.35
32.46
31.93
30.40
27.61
23.54
18.31
12.25
5.66
-1.27
-8.48
-15.99
-23.73
-31.49
-38.87
-45.40
-50.73
-54.82
-57.95
-60.59
-63.16
-65.96
-69.07
-72.57
-76.59
-81.35
-86.85
-92.64
-97.57
-99.93
-97.89
-90.10
-76.21
-57.08
-34.47
-10.58
12.60
33.65
51.75
66.43
77.39
84.27
86.83
85.14
79.73
71.62
62.13
52.53
43.78
36.45
30.71
26.52
23.70
22.03
21.15
20.60
19.92
18.73
16.87
14.41
11.60
8.65
5.63
2.43
-1.11
-5.07
-9.27
-13.40
-17.04
-19.97
-22.21
-24.09
-26.06
-28.60
-32.08
-36.56
-41.80
-47.08
-51.29
-53.04
-50.96
-44.12
-32.32
-16.26
2.66
22.68
42.08
59.46
73.84
84.59
91.32
93.89
92.43
87.45
79.85
70.81
61.61
53.35
46.72
41.97
38.92
37.14
36.07
35.19
34.11
32.54
30.32
27.33
23.53
18.90
13.53
7.54
1.13
-5.46
-12.00
-18.30
-24.30
-30.02
-35.59
-41.26
-47.27
-53.91
-61.41
-69.85
-79.00
-88.07
-95.73
-100.20
-99.74
-93.11
-80.07
-61.43
-38.89
-14.53
9.65
32.09
51.70
67.74
79.74
87.46
90.95
90.67
87.44
82.29
76.23
70.06
64.27
59.10
54.64
50.94
48.03
45.86
44.32
43.21
42.29
41.31
40.05
38.29
35.84
32.55
28.35
23.23
17.25
10.52
3.22
-4.44
-12.21
-19.78
-26.94
-33.62
-40.01
-46.55
-53.79
-62.15
-71.60
-81.52
-90.59
-97.03
-98.99
-95.10
-84.87
-68.92
-48.78
-26.48
-4.07
16.80
35.00
49.88
61.11
68.51
72.06
71.99
68.88
63.60
57.16
50.54
44.47
39.35
35.31
32.29
30.08
28.44
27.10
25.78
24.28
22.44
20.21
17.55
14.45
10.86
6.74
2.08
-3.04
-8.49
-14.08
-19.63
-24.99
-30.06
-34.78
-39.26
-43.70
-48.43
-53.82
-60.11
-67.20
-74.43
-80.61
-84.15
-83.43
-77.27
-65.31
-48.17
-27.31
-4.73
17.53
37.70
54.56
67.39
75.90
80.09
80.23
76.86
70.82
63.20
55.19
47.82
41.76
37.19
33.88
31.46
29.60
28.24
27.43
27.24
27.49
27.73
27.38
25.90
23.03
18.95
14.11
9.14
4.55
0.61
-2.72
-5.74
-8.89
-12.61
-17.14
-22.44
-28.05
-33.07
-36.27
-36.34
-32.22
-23.43
-10.29
6.16
24.36
42.60
59.33
73.33
83.75
90.07
92.03
89.70
83.50
74.31
63.35
51.98
41.51
32.80
26.21
21.53
18.18
15.46
12.79
9.88
6.67
3.30
-0.15
-3.71
-7.59
-12.06
-17.27
-23.17
-29.50
-35.88
-42.03
-47.99
-54.15
-61.13
-69.56
-79.70
-91.27
-103.26
-114.08
-121.83
-124.61
-121.00
-110.34
-93.02
-70.31
-44.22
-17.03
9.11
32.43
51.69
66.18
75.61
80.09
80.05
76.23
69.63
61.33
52.37
43.50
35.12
27.37
20.21
13.58
7.57
2.36
-1.88
-5.13
-7.69
-10.11
-13.10
-17.29
-22.95
-29.96
-37.79
-45.79
-53.34
-60.11
-66.18
-71.90
-77.82
-84.40
-91.88
-100.11
-108.38
-115.48
-119.83
-119.80
-114.15
-102.46
-85.30
-64.09
-40.78
-17.33
4.62
23.91
39.76
51.68
59.34
62.69
62.02
58.10
52.02
45.08
38.40
32.73
28.27
24.75
21.64
18.43
14.93
11.34
8.12
5.76
4.36
3.53
2.39
-0.03
-4.35
-10.57
-17.99
-25.52
-32.09
-36.98
-39.97
-41.28
-41.39
-40.92
-40.46
-40.56
-41.47
-42.96
-44.09
-43.32
-38.85
-29.29
-14.30
5.20
27.23
49.37
69.49
86.21
98.90
107.49
112.15
113.10
110.66
105.32
97.77
88.81
79.19
69.43
59.83
50.53
41.59
33.08
25.13
17.95
11.75
6.66
2.68
-0.46
-3.24
-6.25
-9.98
-14.59
-19.85
-25.15
-29.73
-33.01
-34.80
-35.40
-35.59
-36.36
-38.71
-43.32
-50.36
-59.33
-69.04
-77.77
-83.61
-84.86
-80.46
-70.30
-55.22
-36.74
-16.76
2.87
20.54
34.98
45.37
51.32
52.93
50.82
45.98
39.56
32.62
25.96
20.07
15.16
11.29
8.42
6.47
5.32
4.62
3.93
2.68
0.36
-3.34
-8.34
-14.27
-20.47
-26.29
-31.28
-35.31
-38.59
-41.52
-44.56
-48.11
-52.31
-56.98
-61.50
-64.80
-65.64
-62.97
-56.30
-45.93
-32.82
-18.37
-3.88
9.66
21.66
31.81
39.81
45.37
48.18
48.07
45.16
39.86
32.88
24.95
16.83
9.06
1.98
-4.29
-9.74
-14.36
-18.09
-20.79
-22.31
-22.69
-22.17
-21.28
-20.66
-20.83
-21.98
-23.86
-25.94
-27.57
-28.38
-28.36
-27.93
-27.74
-28.46
-30.55
-34.22
-39.28
-45.14
-50.71
-54.46
-54.64
-49.67
-38.69
-21.91
-0.64
23.04
46.86
68.96
88.12
103.84
116.07
124.93
130.53
133.00
132.57
129.69
125.08
119.67
114.47
110.43
108.21
108.05
109.56
111.75
113.19
112.37
108.17
100.12
88.51
74.13
57.91
40.57
22.57
4.17
-14.29
-32.29
-49.15
-64.28
-77.36
-88.49
-98.13
-106.90
-115.41
-124.11
-133.19
-142.52
-151.54
-159.26
-164.21
-164.73
-159.35
-147.21
-128.46
-104.29
-76.71
-48.16
-20.96
3.00
22.48
36.82
45.92
50.10
50.08
46.94
42.11
37.16
33.56
32.35
33.94
37.99
43.62
49.70
55.21
59.54
62.50
64.17
64.63
63.86
61.65
57.85
52.50
45.97
38.84
31.74
25.03
18.76
12.69
6.53
0.06
-6.67
-13.47
-20.14
-26.58
-32.90
-39.39
-46.40
-54.18
-62.70
-71.44
-79.38
-85.06
-86.91
-83.67
-74.81
-60.73
-42.69
-22.49
-1.98
17.32
34.35
48.48
59.33
66.65
70.22
70.08
66.56
60.48
52.92
45.09
38.07
32.54
28.71
26.45
25.35
25.01
25.02
25.09
24.94
24.32
22.95
20.60
17.12
12.54
7.07
1.11
-4.96
-10.79
-16.22
-21.28
-26.14
-31.04
-36.17
-41.75
-47.88
-54.53
-61.32
-67.48
-71.79
-72.88
-69.57
-61.29
-48.28
-31.59
-12.72
6.73
25.33
42.00
55.93
66.55
73.44
76.43
75.69
71.80
65.69
58.46
51.23
44.85
39.84
36.30
33.98
32.34
30.71
28.49
25.26
20.92
15.68
10.07
4.68
0.10
-3.28
-5.31
-6.15
-6.18
-5.92
-5.93
-6.60
-8.15
-10.57
-13.71
-17.42
-21.66
-26.50
-32.04
-38.27
-44.96
-51.75
-58.23
-64.16
-69.52
-74.52
-79.44
-84.55
-90.02
-95.92
-102.05
-107.92
-112.55
-114.52
-112.28
-104.53
-90.73
-71.37
-47.93
-22.48
2.78
26.01
45.97
62.03
73.95
81.79
85.73
86.09
83.42
78.52
72.39
66.10
60.50
56.11
52.99
50.85
49.28
47.93
46.57
45.11
43.54
41.80
39.80
37.46
34.65
31.33
27.42
22.94
17.93
12.55
7.00
1.52
-3.74
-8.71
-13.46
-18.16
-23.06
-28.41
-34.46
-41.31
-48.71
-55.95
-61.83
-64.83
-63.55
-57.16
-45.68
-30.08
-11.98
6.72
24.26
39.28
50.94
58.86
63.09
63.96
62.06
58.09
52.83
46.95
41.04
35.50
30.65
26.70
23.79
21.98
21.25
21.46
22.39
23.71
25.03
25.94
26.05
25.10
23.03
20.04
16.51
12.90
9.52
6.43
3.40
0.10
-3.70
-7.92
-12.23
-16.10
-19.08
-20.97
-21.93
-22.42
-23.00
-24.15
-26.03
-28.31
-30.15
-30.29
-27.36
-20.27
-8.57
7.37
26.33
46.55
66.08
83.14
96.41
105.15
109.11
108.38
103.32
94.47
82.55
68.53
53.55
38.80
25.28
13.66
4.19
-3.28
-9.14
-13.84
-17.79
-21.34
-24.84
-28.62
-33.07
-38.52
-45.23
-53.28
-62.57
-72.78
-83.43
-93.93
-103.67
-112.11
-118.82
-123.58
-126.38
-127.44
-127.18
-126.11
-124.71
-123.38
-122.20
-120.98
-119.11
-115.72
-109.84
-100.65
-87.83
-71.70
-53.20
-33.73
-14.69
2.68
17.53
29.40
38.04
43.41
45.66
45.26
42.96
39.77
36.70
34.50
33.52
33.68
34.62
35.96
37.41
38.87
40.28
41.61
42.70
43.27
43.07
41.95
40.01
37.64
35.37
33.73
33.03
33.24
34.06
34.99
35.56
35.52
34.97
34.49
35.18
38.58
46.32
59.64
78.83
102.91
129.62
155.99
179.04
196.52
207.24
211.06
208.51
200.47
187.89
171.79
153.27
133.58
113.90
95.12
77.73
61.71
46.76
32.50
18.75
5.64
-6.44
-17.03
-25.80
-32.74
-38.19
-42.76
-47.15
-51.98
-57.68
-64.46
-72.26
-80.88
-89.94
-99.06
-107.83
-115.93
-123.18
-129.59
-135.38
-141.00
-147.02
-153.94
-161.91
-170.40
-178.10
-183.10
-183.36
-177.40
-164.75
-146.14
-123.28
-98.24
-72.96
-48.86
-26.83
-7.43
8.88
21.66
30.57
35.58
37.07
35.84
32.89
29.13
25.22
21.43
17.80
14.25
10.81
7.58
4.73
2.33
0.32
-1.53
-3.52
-5.81
-8.49
-11.50
-14.75
-18.28
-22.25
-26.85
-32.16
-38.08
-44.26
-50.27
-55.76
-60.67
-65.30
-70.16
-75.84
-82.54
-89.93
-96.91
-101.82
-102.83
-98.40
-87.88
-71.65
-51.07
-28.06
-4.55
17.95
38.55
56.85
72.76
86.21
97.07
105.33
111.11
114.75
116.75
117.49
117.13
115.52
112.45
107.82
101.81
94.83
87.35
79.65
71.71
63.32
54.26
44.43
33.95
23.12
12.27
1.73
-8.22
-17.36
-25.48
-32.49
-38.46
-43.64
-48.43
-53.29
-58.64
-64.76
-71.81
-79.76
-88.36
-96.96
-104.48
-109.47
-110.34
-105.84
-95.33
-79.13
-58.35
-34.71
-10.14
13.51
34.59
51.80
64.22
71.50
73.84
72.06
67.35
61.03
54.23
47.72
41.88
36.86
32.64
29.17
26.34
23.93
21.56
18.77
15.09
10.21
4.04
-3.24
-11.21
-19.30
-26.84
-33.24
-38.16
-41.56
-43.81
-45.55
-47.52
-50.39
-54.57
-60.18
-66.89
-73.96
-80.15
-83.92
-83.65
-78.13
-66.92
-50.56
-30.45
-8.43
13.64
34.27
52.42
67.36
78.59
85.78
88.92
88.38
84.99
79.85
74.10
68.59
63.76
59.73
56.46
53.90
52.04
50.82
50.04
49.23
47.87
45.48
41.87
37.20
31.83
26.12
20.26
14.19
7.68
0.52
-7.38
-15.86
-24.55
-33.01
-40.85
-47.92
-54.36
-60.63
-67.31
-74.93
-83.63
-93.02
-101.97
-108.84
-111.81
-109.29
-100.42
-85.33
-65.14
-41.68
-17.09
6.64
27.96
45.91
60.04
70.29
76.81
79.98
80.30
78.42
75.12
71.13
67.09
63.35
60.03
57.06
54.37
52.00
50.10
48.82
48.12
47.67
46.89
45.13
41.96
37.32
31.57
25.27
18.94
12.89
7.15
1.55
-4.12
-9.98
-16.04
-22.15
-28.13
-33.82
-39.15
-44.16
-49.06
-54.17
-59.90
-66.52
-74.06
-82.05
-89.43
-94.67
-96.03
-92.06
-82.08
-66.40
-46.35
-23.90
-1.18
20.03
38.49
53.52
64.83
72.33
76.08
76.30
73.52
68.55
62.45
56.21
50.59
46.00
42.52
40.06
38.48
37.68
37.54
37.83
38.19
38.19
37.43
35.69
32.96
29.42
25.32
20.87
16.24
11.47
6.59
1.67
-3.22
-7.94
-12.40
-16.59
-20.65
-24.82
-29.43
-34.78
-41.03
-48.00
-55.09
-61.23
-65.02
-65.01
-60.10
-49.91
-34.96
-16.64
3.13
22.36
39.41
53.23
63.34
69.63
72.21
71.33
67.41
61.15
53.51
45.63
38.53
32.91
28.94
26.39
24.76
23.53
22.31
20.90
19.25
17.32
15.05
12.34
9.05
5.12
0.50
-4.73
-10.48
-16.56
-22.81
-29.04
-35.12
-40.98
-46.72
-52.56
-58.85
-65.94
-74.01
-82.83
-91.67
-99.26
-104.00
-104.31
-99.04
-87.80
-71.15
-50.44
-27.64
-4.82
16.22
34.13
48.20
58.15
64.07
66.27
65.19
61.45
55.82
49.23
42.60
36.69
31.99
28.62
26.41
25.05
24.13
23.34
22.43
21.22
19.60
17.47
14.75
11.34
7.17
2.20
-3.54
-9.91
-16.74
-23.78
-30.82
-37.72
-44.36
-50.76
-56.94
-63.08
-69.42
-76.30
-83.92
-92.19
-100.47
-107.46
-111.44
-110.66
-103.84
-90.64
-71.81
-48.96
-24.20
0.43
23.18
42.87
58.77
70.54
78.19
82.00
82.53
80.55
76.91
72.51
68.08
64.15
61.03
58.84
57.55
57.08
57.28
57.92
58.73
59.32
59.30
58.34
56.24
53.02
48.89
44.13
39.05
33.83
28.46
22.85
16.85
10.40
3.59
-3.40
-10.33
-17.07
-23.63
-30.20
-37.10
-44.62
-52.90
-61.70
-70.24
-77.22
-81.02
-80.16
-73.75
-61.85
-45.50
-26.49
-6.80
11.79
28.03
41.17
50.87
57.02
59.66
59.08
55.81
50.67
44.62
38.57
33.16
28.73
25.33
22.82
21.02
19.75
18.80
17.93
16.86
15.30
13.11
10.36
7.24
3.98
0.67
-2.78
-6.61
-11.05
-16.21
-21.99
-28.11
-34.26
-40.19
-45.81
-51.17
-56.47
-61.94
-67.83
-74.32
-81.43
-88.87
-95.82
-101.01
-102.89
-100.00
-91.46
-77.33
-58.63
-37.16
-15.02
5.90
24.17
38.89
49.69
56.49
59.44
58.92
55.62
50.48
44.67
39.27
35.08
32.46
31.27
31.11
31.49
32.05
32.62
33.17
33.64
33.85
33.49
32.17
29.60
25.71
20.69
14.90
8.76
2.62
-3.37
-9.24
-15.24
-21.73
-29.08
-37.53
-46.96
-56.83
-66.06
-73.20
-76.68
-75.22
-68.20
-55.87
-39.36
-20.35
-0.71
17.87
34.13
47.28
56.85
62.65
64.66
63.15
58.70
52.21
44.75
37.39
30.93
25.83
22.15
19.67
18.06
16.94
16.02
15.06
13.89
12.31
10.16
7.27
3.51
-1.17
-6.74
-13.01
-19.68
-26.40
-32.79
-38.61
-43.75
-48.31
-52.54
-56.76
-61.34
-66.58
-72.66
-79.48
-86.54
-92.80
-96.78
-96.81
-91.47
-80.13
-63.14
-41.88
-18.33
5.41
27.57
46.97
62.93
75.19
83.67
88.40
89.59
87.70
83.43
77.68
71.32
65.07
59.37
54.41
50.19
46.61
43.63
41.18
39.19
37.47
35.70
33.49
30.49
26.54
21.76
16.46
11.07
5.82
0.71
-4.57
-10.35
-16.84
-23.88
-31.02
-37.73
-43.61
-48.67
-53.30
-58.13
-63.81
-70.67
-78.59
-86.84
-94.13
-98.80
-99.19
-94.06
-83.03
-66.69
-46.54
-24.54
-2.64
17.58
35.14
49.46
60.31
67.56
71.24
71.57
69.09
64.59
58.97
53.07
47.48
42.57
38.45
35.16
32.68
30.95
29.87
29.16
28.46
27.36
25.49
22.68
18.96
14.56
9.75
4.81
-0.21
-5.39
-10.96
-17.15
-24.04
-31.53
-39.29
-46.92
-54.05
-60.46
-66.20
-71.58
-77.02
-82.93
-89.59
-96.94
-104.58
-111.75
-117.32
-120.08
-118.93
-113.17
-102.75
-88.27
-70.82
-51.70
-32.13
-13.15
4.38
19.62
31.71
39.88
43.71
43.51
40.37
36.05
32.45
31.11
32.64
36.61
41.70
46.24
48.69
48.16
44.62
38.85
32.13
25.84
21.00
17.98
16.44
15.49
14.05
11.25
6.64
0.27
-7.44
-15.89
-24.47
-32.68
-40.13
-46.58
-51.89
-56.01
-58.86
-60.28
-60.03
-57.75
-53.02
-45.47
-34.85
-21.17
-4.72
13.86
33.58
53.19
71.37
86.84
98.62
106.15
109.46
109.13
106.22
101.96
97.53
93.71
90.82
88.71
86.97
85.08
82.57
79.09
74.43
68.50
61.34
53.21
44.56
36.00
28.15
21.42
15.89
11.22
6.77
1.78
-4.30
-11.64
-19.96
-28.58
-36.50
-42.61
-45.75
-44.89
-39.32
-28.87
-14.11
3.66
22.55
40.53
55.82
67.28
74.43
77.31
76.24
71.59
63.76
53.30
41.01
27.97
15.39
4.31
-4.61
-11.27
-16.05
-19.54
-22.29
-24.62
-26.56
-28.05
-29.09
-29.95
-31.17
-33.38
-36.98
-41.93
-47.60
-53.04
-57.31
-59.98
-61.28
-62.05
-63.37
-66.12
-70.67
-76.75
-83.47
-89.61
-93.78
-94.61
-91.06
-82.57
-69.21
-51.76
-31.53
-10.13
10.84
30.07
46.71
60.32
70.79
78.20
82.71
84.60
84.22
82.07
78.69
74.72
70.67
66.87
63.44
60.26
57.14
53.90
50.48
46.92
43.31
39.63
35.73
31.33
26.16
20.06
13.10
5.52
-2.29
-9.95
-17.22
-24.02
-30.50
-36.94
-43.74
-51.27
-59.70
-68.87
-78.06
-86.03
-91.24
-92.15
-87.75
-77.78
-62.89
-44.43
-24.10
-3.60
15.66
32.65
46.67
57.25
64.16
67.42
67.37
64.70
60.33
55.19
49.99
45.07
40.48
36.12
31.98
28.16
24.93
22.50
20.94
20.06
19.50
18.81
17.60
15.60
12.70
8.99
4.66
0.02
-4.71
-9.44
-14.31
-19.63
-25.74
-32.92
-41.13
-49.96
-58.57
-65.76
-70.17
-70.57
-66.22
-57.07
-43.83
-27.78
-10.43
6.75
22.57
36.12
46.70
53.85
57.34
57.30
54.25
49.03
42.65
35.99
29.72
24.16
19.45
15.54
12.42
10.04
8.30
6.99
5.79
4.31
2.20
-0.74
-4.47
-8.77
-13.28
-17.66
-21.69
-25.39
-28.95
-32.76
-37.23
-42.73
-49.34
-56.68
-63.85
-69.47
-71.95
-69.92
-62.69
-50.49
-34.45
-16.28
2.18
19.41
34.38
46.54
55.61
61.43
63.91
63.13
59.47
53.62
46.53
39.14
32.21
26.18
21.17
17.06
13.67
10.80
8.25
5.77
3.08
-0.11
-4.01
-8.65
-13.87
-19.39
-24.89
-30.20
-35.37
-40.64
-46.40
-52.96
-60.38
-68.25
-75.63
-81.12
-83.21
-80.66
-72.90
-60.25
-43.77
-25.05
-5.76
12.64
28.95
42.32
52.10
57.92
59.69
57.74
52.82
45.95
38.25
30.64
23.74
17.82
12.90
8.86
5.58
2.91
0.66
-1.47
-3.83
-6.70
-10.20
-14.21
-18.41
-22.53
-26.43
-30.27
-34.44
-39.40
-45.48
-52.66
-60.43
-67.81
-73.45
-75.92
-74.09
-67.40
-56.06
-41.02
-23.71
-5.70
11.58
26.98
39.70
49.17
55.08
57.40
56.43
52.84
47.53
41.49
35.65
30.70
27.07
24.88
23.99
24.01
24.35
24.38
23.54
21.52
18.36
14.36
9.93
5.39
0.86
-3.79
-8.85
-14.68
-21.53
-29.50
-38.40
-47.63
-56.12
-62.41
-64.95
-62.53
-54.65
-41.74
-25.08
-6.42
12.43
29.90
44.84
56.50
64.47
68.64
69.18
66.56
61.56
55.06
47.97
41.03
34.70
29.20
24.51
20.50
17.01
13.90
11.11
8.59
6.26
3.90
1.17
-2.26
-6.64
-11.87
-17.61
-23.36
-28.74
-33.69
-38.55
-43.88
-50.25
-57.93
-66.67
-75.64
-83.43
-88.35
-88.75
-83.49
-72.27
-55.77
-35.51
-13.48
8.37
28.48
45.83
59.83
70.19
76.75
79.57
78.93
75.47
70.10
63.82
57.51
51.74
46.70
42.36
38.57
35.23
32.34
29.92
27.92
26.19
24.42
22.21
19.27
15.38
10.56
4.97
-1.10
-7.33
-13.47
-19.33
-24.89
-30.23
-35.57
-41.24
-47.61
-54.85
-62.73
-70.45
-76.61
-79.50
-77.56
-69.86
-56.47
-38.42
-17.39
4.68
26.07
45.45
61.92
74.88
83.97
89.08
90.36
88.29
83.66
77.38
70.36
63.28
56.60
50.50
45.02
40.11
35.72
31.81
28.35
25.30
22.53
19.82
16.85
13.30
8.94
3.67
-2.42
-9.08
-15.97
-22.79
-29.32
-35.48
-41.41
-47.38
-53.77
-60.91
-68.91
-77.51
-85.92
-92.92
-96.97
-96.64
-90.95
-79.68
-63.49
-43.73
-22.18
-0.65
19.36
36.73
50.80
61.20
67.82
70.74
70.32
67.15
62.04
55.92
49.64
43.88
39.02
35.15
32.17
29.91
28.19
26.84
25.75
24.80
23.87
22.87
21.66
20.07
17.89
14.94
11.13
6.54
1.44
-3.75
-8.66
-13.10
-17.14
-21.07
-25.29
-30.18
-35.98
-42.70
-50.03
-57.26
-63.31
-66.80
-66.43
-61.35
-51.39
-37.24
-20.18
-1.84
16.19
32.60
46.34
56.67
63.11
65.50
64.06
59.38
52.43
44.30
36.09
28.58
22.23
17.15
13.17
10.03
7.50
5.40
3.64
2.10
0.59
-1.22
-3.66
-6.99
-11.26
-16.28
-21.71
-27.21
-32.56
-37.81
-43.20
-49.06
-55.68
-63.09
-71.01
-78.75
-85.34
-89.59
-90.41
-87.00
-79.05
-66.89
-51.38
-33.78
-15.54
1.89
17.17
29.23
37.31
41.05
40.61
36.64
30.15
22.36
14.43
7.26
1.40
-2.94
-5.79
-7.36
-7.94
-7.86
-7.54
-7.41
-7.91
-9.34
-11.79
-15.12
-19.02
-23.19
-27.44
-31.76
-36.29
-41.26
-46.88
-53.23
-60.19
-67.28
-73.64
-78.07
-79.26
-76.10
-68.03
-55.23
-38.69
-19.93
-0.68
17.46
33.29
46.04
55.33
61.06
63.30
62.30
58.53
52.68
45.66
38.41
31.74
26.15
21.80
18.57
16.21
14.49
13.17
12.05
10.88
9.30
7.01
3.78
-0.41
-5.33
-10.64
-16.00
-21.22
-26.37
-31.77
-37.89
-45.13
-53.60
-62.87
-71.83
-78.88
-82.25
-80.51
-73.01
-60.04
-42.77
-22.88
-2.16
17.80
35.73
50.69
62.01
69.34
72.62
72.19
68.68
62.98
55.97
48.47
41.12
34.36
28.45
23.57
19.80
17.11
15.38
14.33
13.52
12.49
10.77
8.08
4.34
-0.31
-5.58
-11.13
-16.73
-22.27
-27.81
-33.62
-40.05
-47.44
-55.93
-65.31
-74.77
-82.92
-88.03
-88.39
-82.84
-71.16
-54.13
-33.38
-10.92
11.32
31.76
49.27
63.06
72.64
77.81
78.74
76.04
70.71
63.94
56.82
50.13
44.28
39.38
35.38
32.22
29.90
28.36
27.43
26.82
26.10
24.84
22.71
19.60
15.56
10.75
5.41
-0.22
-5.98
-11.76
-17.65
-23.88
-30.85
-38.88
-47.97
-57.52
-66.24
-72.41
-74.28
-70.62
-61.05
-46.19
-27.41
-6.51
14.66
34.43
51.41
64.56
73.21
77.14
76.62
72.41
65.60
57.40
48.87
40.80
33.64
27.60
22.74
19.05
16.42
14.62
13.28
11.92
10.08
7.46
3.95
-0.32
-5.10
-10.14
-15.32
-20.67
-26.36
-32.69
-39.96
-48.34
-57.69
-67.34
-76.09
-82.28
-84.21
-80.53
-70.75
-55.38
-35.84
-14.11
7.74
27.92
45.05
58.22
66.89
70.89
70.44
66.19
59.09
50.24
40.71
31.38
22.86
15.54
9.64
5.22
2.18
0.23
-1.10
-2.38
-4.23
-7.09
-11.19
-16.49
-22.67
-29.28
-35.84
-41.98
-47.57
-52.75
-57.92
-63.61
-70.23
-77.81
-85.68
-92.48
-96.31
-95.22
-87.80
-73.61
-53.36
-28.71
-1.87
24.93
49.75
71.14
88.08
99.97
106.62
108.27
105.57
99.57
91.45
82.37
73.23
64.67
57.01
50.38
44.83
40.42
37.16
35.02
33.83
33.26
32.86
32.09
30.48
27.73
23.80
18.92
13.48
7.90
2.47
-2.82
-8.23
-14.22
-21.22
-29.40
-38.42
-47.32
-54.52
-58.18
-56.65
-48.90
-34.93
-15.74
6.86
30.75
53.86
74.53
91.63
104.51
112.96
117.07
117.14
113.67
107.32
98.88
89.22
79.22
69.52
60.43
51.84
43.34
34.44
24.85
14.61
4.12
-6.05
-15.36
-23.47
-30.35
-36.22
-41.42
-46.28
-50.99
-55.59
-59.99
-64.10
-67.89
-71.47
-75.01
-78.72
-82.81
-87.43
-92.59
-98.01
-102.95
-106.19
-106.15
-101.31
-90.72
-74.35
-53.23
-29.17
-4.31
19.34
40.20
57.16
69.51
76.82
78.98
76.37
69.88
60.90
51.09
41.95
34.51
29.11
25.53
23.20
21.56
20.28
19.22
18.36
17.59
16.68
15.27
13.03
9.74
5.39
0.20
-5.54
-11.51
-17.50
-23.42
-29.33
-35.39
-41.86
-48.95
-56.76
-65.05
-73.05
-79.48
-82.69
-81.14
-73.84
-60.74
-42.84
-21.91
-0.06
20.69
38.85
53.40
63.83
69.99
71.98
70.17
65.21
58.02
49.72
41.44
34.16
28.47
24.49
21.96
20.32
19.08
17.92
16.74
15.60
14.49
13.26
11.57
9.01
5.27
0.24
-5.94
-12.90
-20.15
-27.22
-33.73
-39.57
-44.88
-50.09
-55.71
-62.25
-69.92
-78.47
-87.03
-94.23
-98.33
-97.68
-91.13
-78.42
-60.33
-38.49
-15.02
7.98
28.76
46.21
59.68
68.98
74.17
75.52
73.54
68.94
62.64
55.60
48.72
42.68
37.88
34.40
32.12
30.75
29.96
29.43
28.88
28.11
26.96
25.27
22.94
19.86
16.01
11.39
6.10
0.26
-5.95
-12.29
-18.52
-24.44
-29.95
-35.10
-40.10
-45.23
-50.80
-57.04
-63.99
-71.40
-78.58
-84.36
-87.26
-85.76
-78.80
-66.15
-48.61
-27.85
-5.90
15.25
34.13
49.82
61.87
70.13
74.62
75.51
73.22
68.43
62.03
54.99
48.19
42.22
37.41
33.82
31.28
29.58
28.48
27.76
27.27
26.82
26.23
25.25
23.65
21.25
17.99
13.92
9.20
4.00
-1.51
-7.25
-13.13
-19.04
-24.89
-30.54
-35.96
-41.23
-46.59
-52.36
-58.74
-65.64
-72.46
-78.04
-80.90
-79.60
-73.19
-61.55
-45.45
-26.42
-6.27
13.23
30.62
44.89
55.41
61.89
64.29
62.89
58.25
51.22
42.87
34.32
26.56
20.26
15.70
12.76
11.08
10.25
9.91
9.84
9.82
9.64
8.96
7.41
4.70
0.80
-4.09
-9.52
-15.03
-20.28
-25.12
-29.69
-34.29
-39.30
-45.11
-51.94
-59.66
-67.63
-74.69
-79.30
-79.88
-75.29
-65.21
-50.24
-31.79
-11.62
8.48
27.04
42.95
55.41
63.85
67.93
67.63
63.46
56.41
47.88
39.30
31.81
26.02
21.95
19.22
17.30
15.76
14.36
13.04
11.85
10.73
9.48
7.80
5.33
1.84
-2.68
-7.99
-13.70
-19.39
-24.77
-29.78
-34.61
-39.57
-45.06
-51.45
-58.95
-67.50
-76.59
-85.11
-91.45
-93.73
-90.38
-80.63
-64.89
-44.65
-22.06
0.67
21.72
39.91
54.56
65.27
71.86
74.32
72.92
68.34
61.57
53.76
46.00
39.14
33.67
29.72
27.16
25.65
24.79
24.24
23.75
23.21
22.49
21.44
19.76
17.07
13.07
7.73
1.32
-5.62
-12.48
-18.79
-24.41
-29.58
-34.75
-40.46
-47.09
-54.77
-63.24
-71.87
-79.60
-84.99
-86.45
-82.61
-72.74
-57.07
-36.93
-14.40
8.20
28.88
46.38
60.14
70.11
76.42
79.15
78.44
74.64
68.46
60.95
53.23
46.26
40.54
36.13
32.76
30.09
27.84
25.91
24.28
22.97
21.89
20.83
19.47
17.42
14.35
10.11
4.79
-1.32
-7.76
-14.12
-20.16
-25.86
-31.42
-37.17
-43.43
-50.50
-58.42
-66.85
-75.00
-81.54
-84.88
-83.53
-76.57
-63.91
-46.48
-25.92
-4.24
16.60
35.00
49.79
60.31
66.31
67.91
65.63
60.34
53.13
45.14
37.37
30.54
25.01
20.83
17.81
15.74
14.41
13.63
13.21
12.86
12.19
10.76
8.26
4.62
0.02
-5.16
-10.49
-15.70
-20.74
-25.77
-31.11
-37.09
-44.00
-51.86
-60.38
-68.72
-75.56
-79.22
-78.16
-71.37
-58.84
-41.57
-21.39
-0.46
19.24
36.16
49.32
58.19
62.66
62.90
59.47
53.25
45.42
37.20
29.62
23.29
18.36
14.65
11.86
9.75
8.26
7.39
7.06
6.99
6.66
5.46
2.93
-1.10
-6.37
-12.30
-18.27
-23.81
-28.85
-33.68
-38.84
-44.90
-52.24
-60.79
-69.99
-78.63
-85.08
-87.50
-84.37
-74.94
-59.53
-39.55
-17.16
5.35
26.04
43.62
57.44
67.26
73.08
75.01
73.35
68.72
62.05
54.43
46.92
40.28
34.88
30.71
27.53
25.03
22.98
21.32
20.00
18.99
18.04
16.75
14.61
11.23
6.48
0.64
-5.76
-12.12
-18.05
-23.51
-28.81
-34.44
-40.87
-48.38
-56.88
-65.82
-74.17
-80.45
-83.00
-80.39
-71.87
-57.63
-38.93
-17.65
4.10
24.50
42.25
56.60
67.19
73.84
76.54
75.50
71.31
64.89
57.46
50.16
43.85
38.94
35.32
32.66
30.57
28.83
27.40
26.32
25.61
25.07
24.32
22.86
20.25
16.25
10.96
4.78
-1.73
-8.04
-13.84
-19.13
-24.22
-29.60
-35.76
-43.00
-51.33
-60.29
-68.90
-75.78
-79.31
-78.03
-71.05
-58.42
-41.11
-20.86
0.28
20.37
37.88
51.79
61.56
67.01
68.25
65.76
60.36
53.15
45.31
37.91
31.64
26.79
23.30
20.87
19.14
17.83
16.70
15.64
14.46
12.97
10.88
7.95
4.06
-0.74
-6.22
-12.03
-17.84
-23.49
-29.03
-34.71
-40.89
-47.89
-55.79
-64.30
-72.57
-79.26
-82.75
-81.53
-74.70
-62.27
-45.24
-25.34
-4.49
15.53
33.41
48.27
59.53
66.74
69.71
68.55
63.86
56.71
48.43
40.29
33.25
27.76
23.75
20.92
18.88
17.33
16.16
15.32
14.71
14.14
13.24
11.62
8.89
4.86
-0.42
-6.65
-13.38
-20.14
-26.56
-32.54
-38.23
-44.01
-50.34
-57.59
-65.84
-74.68
-83.13
-89.72
-92.76
-90.75
-82.85
-69.12
-50.64
-29.16
-6.71
14.85
34.13
50.24
62.72
71.32
76.00
76.89
74.39
69.24
62.41
55.01
48.04
42.24
37.97
35.20
33.64
32.79
32.19
31.49
30.48
29.13
27.47
25.47
23.00
19.86
15.86
10.92
5.17
-1.10
-7.53
-13.80
-19.76
-25.43
-30.98
-36.60
-42.52
-48.87
-55.71
-62.90
-69.99
-76.09
-79.93
-80.05
-75.21
-64.85
-49.37
-30.08
-8.92
12.08
31.23
47.39
59.98
68.78
73.81
75.24
73.45
69.09
63.04
56.27
49.69
43.99
39.54
36.44
34.53
33.53
33.10
32.90
32.60
31.92
30.65
28.64
25.91
22.54
18.63
14.27
9.43
4.05
-1.88
-8.24
-14.74
-20.98
-26.64
-31.59
-36.02
-40.34
-45.05
-50.57
-57.09
-64.40
-71.82
-78.22
-82.15
-82.13
-77.06
-66.62
-51.42
-32.95
-13.17
5.96
22.90
36.72
47.00
53.65
56.73
56.41
53.08
47.46
40.51
33.35
26.91
21.76
18.08
15.69
14.29
13.57
13.29
13.24
13.20
12.92
12.08
10.43
7.78
4.11
-0.43
-5.54
-10.85
-15.98
-20.66
-24.82
-28.61
-32.37
-36.48
-41.31
-47.02
-53.50
-60.31
-66.63
-71.32
-73.06
-70.66
-63.39
-51.28
-35.19
-16.63
2.58
20.73
36.57
49.37
58.78
64.69
67.17
66.38
62.73
56.88
49.76
42.34
35.49
29.84
25.67
23.00
21.63
21.21
21.32
21.54
21.41
20.59
18.94
16.48
13.39
9.90
6.10
1.99
-2.54
-7.53
-12.89
-18.39
-23.77
-28.84
-33.60
-38.20
-42.92
-48.02
-53.75
-60.22
-67.28
-74.38
-80.45
-84.00
-83.42
-77.50
-65.91
-49.37
-29.50
-8.37
12.10
30.49
45.98
58.20
66.98
72.27
74.13
72.89
69.21
63.97
58.11
52.41
47.35
43.16
39.90
37.61
36.25
35.68
35.61
35.57
35.05
33.62
31.05
27.38
22.79
17.56
11.90
5.93
-0.33
-6.94
-13.92
-21.26
-28.81
-36.31
-43.38
-49.67
-55.03
-59.54
-63.57
-67.71
-72.52
-78.27
-84.71
-90.97
-95.66
-97.17
-94.10
-85.69
-72.06
-54.19
-33.69
-12.38
8.00
26.11
41.01
52.17
59.38
62.72
62.61
59.72
54.91
49.13
43.21
37.80
33.30
29.84
27.32
25.55
24.32
23.47
22.88
22.43
21.93
21.06
19.45
16.82
13.10
8.46
3.26
-2.13
-7.51
-12.91
-18.52
-24.54
-31.05
-37.88
-44.73
-51.30
-57.46
-63.33
-69.17
-75.19
-81.43
-87.57
-92.95
-96.72
-97.96
-95.80
-89.55
-78.88
-63.86
-45.11
-23.76
-1.32
20.57
40.48
57.36
70.62
80.01
85.54
87.37
85.85
81.53
75.18
67.74
60.18
53.28
47.50
42.93
39.40
36.65
34.45
32.66
31.16
29.77
28.17
25.99
22.93
18.86
13.90
8.36
2.60
-3.09
-8.56
-13.78
-18.82
-23.86
-29.12
-34.87
-41.34
-48.54
-56.07
-62.97
-67.84
-69.13
-65.58
-56.68
-42.84
-25.35
-6.03
13.21
30.72
45.31
56.23
63.11
65.84
64.65
60.08
53.03
44.63
36.08
28.42
22.29
17.90
15.08
13.42
12.44
11.78
11.21
10.61
9.85
8.79
7.23
4.91
1.68
-2.51
-7.52
-13.08
-18.86
-24.57
-30.08
-35.44
-40.83
-46.55
-52.90
-60.04
-67.85
-75.73
-82.52
-86.68
-86.55
-80.96
-69.56
-53.10
-33.20
-11.94
8.72
27.28
42.84
54.98
63.48
68.26
69.34
67.00
61.88
54.94
47.34
40.12
34.02
29.35
26.03
23.73
22.13
20.97
20.11
19.50
19.03
18.48
17.48
15.62
12.56
8.17
2.58
-3.83
-10.51
-16.97
-22.89
-28.25
-33.33
-38.58
-44.43
-51.13
-58.63
-66.49
-73.86
-79.55
-82.12
-80.22
-72.95
-60.18
-42.75
-22.27
-0.85
19.53
37.32
51.66
62.22
69.02
72.19
71.94
68.63
62.92
55.74
48.15
41.14
35.34
30.91
27.66
25.21
23.27
21.74
20.68
20.19
20.24
20.54
20.62
19.93
18.03
14.76
10.27
4.97
-0.66
-6.20
-11.45
-16.41
-21.25
-26.19
-31.49
-37.37
-43.96
-51.12
-58.30
-64.40
-67.97
-67.52
-62.06
-51.44
-36.46
-18.65
0.19
18.38
34.64
48.08
58.13
64.39
66.70
65.24
60.58
53.71
45.85
38.16
31.55
26.47
22.95
20.70
19.31
18.45
17.87
17.43
16.99
16.36
15.23
13.30
10.34
6.32
1.46
-3.83
-9.09
-14.00
-18.50
-22.81
-27.37
-32.71
-39.19
-46.82
-55.08
-62.96
-69.05
-71.83
-70.05
-63.06
-51.02
-34.93
-16.37
2.82
20.99
36.84
49.52
58.52
63.60
64.76
62.27
56.83
49.44
41.39
33.82
27.56
22.92
19.74
17.58
15.96
14.53
13.09
11.57
9.92
8.00
5.64
2.61
-1.23
-5.86
-11.08
-16.56
-21.92
-26.93
-31.55
-36.01
-40.70
-46.07
-52.45
-59.91
-68.12
-76.29
-83.12
-87.08
-86.65
-80.78
-69.22
-52.67
-32.63
-11.04
10.17
29.42
45.67
58.36
67.28
72.46
74.08
72.47
68.21
62.12
55.17
48.35
42.47
37.98
34.90
32.93
31.61
30.53
29.42
28.17
26.72
24.99
22.85
20.14
16.73
12.62
7.88
2.62
-3.00
-8.84
-14.71
-20.41
-25.81
-30.85
-35.64
-40.41
-45.44
-51.00
-57.20
-63.94
-70.78
-76.84
-80.82
-81.24
-76.79
-66.85
-51.73
-32.73
-11.77
9.13
28.30
44.65
57.60
66.93
72.58
74.65
73.43
69.54
63.83
57.34
51.01
45.56
41.35
38.44
36.68
35.82
35.60
35.79
36.14
36.34
36.02
34.82
32.49
28.98
24.48
19.35
13.97
8.60
3.32
-1.95
-7.34
-12.89
-18.52
-24.06
-29.30
-34.15
-38.65
-43.02
-47.56
-52.61
-58.38
-64.76
-71.15
-76.43
-79.12
-77.66
-70.96
-58.76
-41.84
-21.84
-0.83
19.20
36.81
51.13
61.83
68.83
72.18
72.01
68.69
62.91
55.67
48.13
41.36
36.07
32.52
30.50
29.56
29.12
28.72
28.07
27.05
25.70
24.08
22.16
19.80
16.76
12.85
8.03
2.51
-3.32
-9.08
-14.50
-19.56
-24.45
-29.46
-34.84
-40.77
-47.29
-54.35
-61.64
-68.50
-73.87
-76.33
-74.55
-67.67
-55.72
-39.67
-21.26
-2.46
14.92
29.59
40.75
48.02
51.27
50.63
46.52
39.74
31.39
22.73
14.88
8.60
4.14
1.32
-0.30
-1.24
-1.87
-2.43
-3.00
-3.64
-4.46
-5.67
-7.52
-10.17
-13.59
-17.52
-21.52
-25.19
-28.35
-31.11
-33.87
-37.16
-41.47
-47.10
-53.95
-61.53
-68.84
-74.46
-76.78
-74.36
-66.40
-53.03
-35.36
-15.21
5.40
24.67
41.37
54.83
64.79
71.18
74.01
73.43
69.83
63.91
56.66
49.21
42.55
37.30
33.67
31.47
30.23
29.49
28.82
28.00
26.96
25.69
24.17
22.30
19.89
16.68
12.52
7.38
1.49
-4.77
-10.96
-16.82
-22.25
-27.41
-32.63
-38.24
-44.54
-51.71
-59.70
-68.07
-75.90
-81.78
-84.11
-81.46
-73.08
-59.23
-41.11
-20.59
0.26
19.66
36.39
49.79
59.64
65.99
69.03
69.04
66.48
61.98
56.33
50.35
44.77
40.06
36.40
33.73
31.83
30.45
29.39
28.44
27.42
26.17
24.49
22.25
19.38
15.84
11.67
6.93
1.77
-3.64
-9.12
-14.49
-19.69
-24.71
-29.67
-34.72
-39.99
-45.61
-51.68
-58.24
-65.15
-71.97
-77.82
-81.46
-81.48
-76.73
-66.68
-51.72
-33.15
-12.83
7.26
25.49
40.78
52.60
60.73
65.12
65.87
63.23
57.80
50.52
42.48
34.79
28.28
23.36
20.05
18.07
16.95
16.20
15.50
14.64
13.61
12.43
11.06
9.36
7.10
4.11
0.35
-3.97
-8.57
-13.18
-17.66
-22.08
-26.58
-31.34
-36.46
-42.03
-48.07
-54.56
-61.23
-67.43
-72.03
-73.64
-70.89
-62.97
-49.95
-32.84
-13.34
6.65
25.42
41.75
54.89
64.41
70.10
71.89
69.96
64.86
57.51
49.08
40.78
33.57
28.01
24.15
21.70
20.18
19.21
18.58
18.19
17.91
17.45
16.35
14.09
10.38
5.20
-1.09
-7.94
-14.77
-21.16
-26.89
-32.01
-36.76
-41.54
-46.78
-52.81
-59.68
-67.00
-73.81
-78.76
-80.29
-77.12
-68.58
-54.93
-37.34
-17.59
2.38
20.86
36.72
49.34
58.49
64.12
66.25
65.06
61.02
54.92
47.79
40.73
34.54
29.63
25.96
23.24
21.13
19.43
18.06
17.02
16.22
15.40
14.17
12.10
8.91
4.49
-1.02
-7.35
-14.14
-21.01
-27.61
-33.72
-39.23
-44.20
-48.86
-53.57
-58.72
-64.66
-71.50
-78.93
-86.12
-91.75
-94.18
-91.93
-84.11
-70.74
-52.84
-32.17
-10.76
9.57
27.47
42.20
53.44
61.12
65.35
66.33
64.44
60.28
54.65
48.40
42.32
36.96
32.66
29.48
27.39
26.24
25.81
25.79
25.79
25.44
24.42
22.63
20.12
17.06
13.61
9.84
5.69
1.10
-3.94
-9.24
-14.56
-19.65
-24.37
-28.78
-33.03
-37.37
-42.05
-47.29
-53.23
-59.77
-66.42
-72.14
-75.50
-74.97
-69.41
-58.47
-42.84
-24.00
-3.87
15.71
33.31
47.96
59.11
66.40
69.69
69.09
65.09
58.60
50.84
43.07
36.32
31.18
27.74
25.78
24.90
24.71
24.91
25.28
25.60
25.68
25.28
24.19
22.22
19.25
15.22
10.21
4.39
-1.95
-8.47
-14.85
-20.86
-26.46
-31.78
-37.09
-42.71
-48.88
-55.68
-62.84
-69.72
-75.22
-78.02
-76.83
-70.78
-59.70
-44.26
-25.84
-6.19
12.91
29.97
43.90
54.02
59.97
61.75
59.71
54.56
47.32
39.16
31.18
24.22
18.73
14.77
12.14
10.52
9.61
9.16
8.98
8.84
8.47
7.55
5.75
2.88
-1.05
-5.86
-11.18
-16.59
-21.76
-26.50
-30.88
-35.16
-39.78
-45.18
-51.65
-59.10
-66.86
-73.69
-77.96
-78.05
-72.84
-62.10
-46.62
-27.97
-8.10
11.21
28.59
43.18
54.53
62.34
66.46
66.91
64.00
58.43
51.22
43.50
36.27
30.17
25.39
21.77
19.03
16.87
15.14
13.81
12.85
12.11
11.31
10.06
7.96
4.76
0.48
-4.60
-10.03
-15.45
-20.64
-25.63
-30.64
-35.92
-41.66
-47.96
-54.79
-61.92
-68.84
-74.61
-77.91
-77.30
-71.64
-60.61
-44.83
-25.82
-5.51
14.23
31.94
46.72
58.08
65.85
70.04
70.82
68.58
63.95
57.71
50.79
44.05
38.20
33.66
30.52
28.55
27.37
26.54
25.74
24.85
23.88
22.87
21.74
20.26
18.13
15.02
10.78
5.49
-0.59
-7.06
-13.52
-19.67
-25.38
-30.68
-35.79
-40.99
-46.66
-53.06
-60.18
-67.56
-74.14
-78.45
-78.87
-74.19
-63.97
-48.74
-29.98
-9.66
10.24
28.14
43.05
54.48
62.25
66.35
66.91
64.29
59.17
52.54
45.53
39.10
33.84
29.84
26.86
24.54
22.66
21.17
20.11
19.48
19.11
18.68
17.80
16.13
13.43
9.63
4.83
-0.70
-6.53
-12.24
-17.49
-22.23
-26.66
-31.17
-36.16
-41.89
-48.28
-54.90
-60.91
-65.18
-66.49
-63.76
-56.45
-44.74
-29.51
-12.23
5.54
22.33
36.99
48.63
56.63
60.68
60.81
57.55
51.84
44.87
37.78
31.39
26.08
21.86
18.50
15.79
13.60
11.95
10.90
10.41
10.20
9.80
8.60
6.13
2.23
-2.85
-8.53
-14.15
-19.24
-23.68
-27.73
-31.90
-36.70
-42.49
-49.28
-56.67
-63.77
-69.29
-71.73
-69.73
-62.49
-50.05
-33.41
-14.33
5.22
23.42
39.02
51.33
60.15
65.52
67.58
66.60
62.94
57.22
50.26
42.97
36.23
30.65
26.53
23.79
22.09
21.00
20.11
19.17
18.06
16.71
15.03
12.89
10.09
6.52
2.18
-2.74
-7.99
-13.26
-18.35
-23.18
-27.82
-32.44
-37.32
-42.69
-48.72
-55.38
-62.33
-68.80
-73.65
-75.59
-73.45
-66.56
-54.95
-39.35
-21.07
-1.69
17.28
34.56
49.19
60.53
68.26
72.32
72.96
70.70
66.31
60.68
54.70
49.07
44.20
40.25
37.12
34.62
32.58
30.86
29.34
27.83
26.14
24.02
21.36
18.14
14.51
10.61
6.58
2.45
-1.84
-6.31
-10.97
-15.73
-20.50
-25.14
-29.58
-33.79
-37.84
-41.95
-46.43
-51.62
-57.70
-64.36
-70.76
-75.45
-76.79
-73.39
-64.62
-50.84
-33.31
-13.88
5.58
23.53
38.94
51.27
60.27
65.92
68.34
67.85
64.98
60.40
54.85
49.02
43.50
38.75
35.02
32.42
30.84
30.00
29.51
28.99
28.14
26.79
24.92
22.56
19.73
16.49
12.84
8.79
4.30
-0.68
-6.14
-12.02
-18.09
-24.06
-29.61
-34.59
-39.04
-43.29
-47.76
-52.86
-58.81
-65.42
-72.06
-77.61
-80.72
-80.09
-74.89
-65.02
-51.22
-34.86
-17.57
-0.90
13.98
26.24
35.34
40.98
43.11
41.99
38.23
32.79
26.74
21.04
16.38
13.07
11.02
9.93
9.39
9.05
8.71
8.30
7.81
7.20
6.27
4.76
2.42
-0.84
-4.88
-9.38
-13.96
-18.32
-22.39
-26.25
-30.15
-34.37
-39.16
-44.74
-51.12
-58.05
-64.85
-70.41
-73.36
-72.41
-66.71
-56.20
-41.60
-24.28
-5.89
12.00
28.10
41.49
51.63
58.26
61.42
61.40
58.76
54.26
48.73
42.95
37.55
32.93
29.31
26.73
25.07
24.11
23.57
23.10
22.41
21.27
19.57
17.31
14.54
11.32
7.67
3.61
-0.85
-5.67
-10.72
-15.86
-20.95
-25.88
-30.58
-35.02
-39.27
-43.44
-47.75
-52.50
-57.95
-64.24
-71.12
-77.90
-83.34
-85.92
-84.19
-77.26
-65.10
-48.65
-29.51
-9.55
9.53
26.53
40.74
51.87
59.84
64.69
66.55
65.76
62.83
58.47
53.42
48.36
43.75
39.84
36.71
34.33
32.66
31.63
31.15
30.97
30.75
30.09
28.65
26.23
22.89
18.87
14.49
10.05
5.68
1.29
-3.31
-8.33
-13.83
-19.64
-25.42
-30.79
-35.47
-39.45
-43.05
-46.83
-51.39
-57.05
-63.67
-70.50
-76.26
-79.39
-78.46
-72.55
-61.53
-46.07
-27.58
-7.78
11.58
29.04
43.63
54.84
62.56
66.92
68.17
66.69
62.97
57.67
51.52
45.29
39.62
34.95
31.48
29.17
27.86
27.34
27.33
27.54
27.62
27.28
26.28
24.51
21.97
18.79
15.10
11.00
6.54
1.73
-3.40
-8.74
-14.11
-19.25
-23.98
-28.28
-32.30
-36.42
-41.10
-46.66
-53.10
-59.94
-66.13
-70.28
-70.97
-67.15
-58.44
-45.28
-28.79
-10.55
7.75
24.63
38.95
49.94
57.22
60.65
60.41
56.93
50.93
43.38
35.35
27.89
21.78
17.43
14.81
13.57
13.19
13.19
13.21
13.09
12.73
12.03
10.78
8.73
5.64
1.48
-3.58
-9.15
-14.80
-20.18
-25.16
-29.85
-34.56
-39.64
-45.43
-52.00
-59.14
-66.12
-71.81
-74.81
-73.80
-67.93
-57.09
-42.00
-24.02
-4.88
13.73
30.38
44.02
53.99
59.95
61.88
60.08
55.21
48.27
40.46
32.93
26.58
21.84
18.65
16.61
15.19
14.00
12.86
11.86
11.11
10.53
9.82
8.46
5.93
1.95
-3.34
-9.43
-15.69
-21.55
-26.75
-31.40
-35.84
-40.57
-46.02
-52.52
-60.07
-68.24
-76.04
-81.91
-84.06
-80.92
-71.66
-56.54
-36.93
-14.91
7.31
27.84
45.41
59.35
69.38
75.43
77.60
76.17
71.75
65.28
57.87
50.65
44.44
39.60
36.04
33.37
31.15
29.12
27.25
25.65
24.41
23.44
22.37
20.71
17.92
13.72
8.18
1.73
-5.00
-11.44
-17.25
-22.44
-27.30
-32.30
-37.83
-44.17
-51.37
-59.28
-67.37
-74.72
-79.98
-81.58
-78.10
-68.74
-53.72
-34.27
-12.45
9.46
29.46
46.23
59.19
68.32
73.90
76.22
75.55
72.20
66.69
59.80
52.45
45.58
39.82
35.49
32.51
30.60
29.44
28.73
28.21
27.61
26.66
25.12
22.84
19.81
16.14
11.95
7.35
2.35
-3.04
-8.75
-14.62
-20.44
-25.98
-31.13
-35.93
-40.56
-45.33
-50.58
-56.55
-63.24
-70.20
-76.39
-80.32
-80.31
-75.07
-64.13
-48.11
-28.58
-7.63
12.67
30.71
45.52
56.62
63.85
67.21
66.88
63.30
57.29
50.01
42.67
36.28
31.39
27.98
25.64
23.85
22.24
20.74
19.44
18.47
17.73
16.92
15.56
13.23
9.70
5.04
-0.39
-6.15
-11.82
-17.11
-22.00
-26.64
-31.35
-36.52
-42.44
-49.22
-56.62
-63.89
-69.87
-73.13
-72.35
-66.69
-56.07
-41.21
-23.53
-4.76
13.37
29.46
42.43
51.64
56.79
57.91
55.39
49.98
42.70
34.68
26.95
20.27
15.03
11.28
8.85
7.49
6.90
6.80
6.85
6.64
5.79
3.96
1.02
-2.97
-7.70
-12.75
-17.69
-22.30
-26.58
-30.83
-35.56
-41.27
-48.26
-56.39
-64.92
-72.58
-77.69
-78.64
-74.30
-64.37
-49.52
-31.23
-11.42
8.02
25.53
40.07
50.97
57.92
60.82
59.92
55.78
49.38
41.83
34.20
27.19
21.10
15.82
11.07
6.62
2.45
-1.29
-4.37
-6.61
-8.00
-8.79
-9.39
-10.31
-11.98
-14.65
-18.28
-22.62
-27.30
-32.02
-36.68
-41.43
-46.61
-52.64
-59.78
-68.01
-76.83
-85.24
-91.77
-94.80
-92.92
-85.35
-72.22
-54.55
-33.96
-12.25
8.97
28.53
45.67
59.94
71.02
78.69
82.87
83.78
81.96
78.24
73.57
68.88
64.88
61.99
60.30
59.61
59.57
59.73
59.71
59.26
58.33
57.06
55.76
54.69
54.03
53.76
53.71
53.68
53.61
53.60
53.94
54.93
56.78
59.42
62.56
65.61
67.78
68.19
66.10
61.20
53.90
45.41
37.53
32.20
30.86
34.02
41.14
50.86
61.43
71.14
78.60
82.83
83.24
79.64
72.17
61.40
48.24
33.81
19.31
5.72
-6.24
-16.27
-24.36
-30.68
-35.44
-38.78
-40.79
-41.58
-41.34
-40.43
-39.35
-38.61
-38.62
-39.61
-41.53
-44.14
-47.10
-50.09
-52.90
-55.51
-58.05
-60.76
-63.85
-67.39
-71.26
-75.16
-78.66
-81.35
-82.98
-83.49
-83.06
-82.07
-80.92
-79.92
-79.13
-78.25
-76.64
-73.39
-67.59
-58.66
-46.54
-31.85
-15.78
0.26
15.00
27.58
37.58
44.98
49.85
52.26
52.19
49.73
45.12
38.95
32.06
25.39
19.75
15.63
13.08
11.78
11.13
10.51
9.42
7.63
5.14
2.14
-1.12
-4.46
-7.78
-11.06
-14.36
-17.77
-21.41
-25.37
-29.67
-34.28
-39.01
-43.65
-47.97
-51.86
-55.37
-58.72
-62.21
-66.05
-70.20
-74.17
-76.98
-77.34
-74.00
-66.13
-53.71
-37.59
-19.28
-0.56
17.00
32.21
44.36
53.06
58.09
59.41
57.26
52.26
45.42
37.96
31.02
25.38
21.32
18.62
16.82
15.44
14.15
12.86
11.64
10.55
9.53
8.34
6.61
4.00
0.35
-4.22
-9.39
-14.74
-19.91
-24.71
-29.11
-33.22
-37.25
-41.46
-46.19
-51.70
-58.10
-65.08
-71.80
-76.94
-78.98
-76.60
-69.11
-56.71
-40.43
-21.89
-2.85
15.14
30.93
43.87
53.65
60.14
63.36
63.42
60.68
55.78
49.60
43.12
37.22
32.46
29.03
26.80
25.45
24.65
24.09
23.53
22.78
21.71
20.17
18.10
15.46
12.25
8.49
4.24
-0.43
-5.38
-10.45
-15.48
-20.41
-25.21
-30.00
-34.93
-40.19
-45.97
-52.41
-59.43
-66.59
-72.98
-77.29
-78.04
-74.06
-64.84
-50.77
-33.05
-13.41
6.32
24.57
40.22
52.59
61.38
66.57
68.37
67.21
63.70
58.61
52.76
46.91
41.63
37.28
33.95
31.53
29.80
28.51
27.43
26.38
25.19
23.77
22.02
19.87
17.30
14.29
10.82
6.88
2.45
-2.44
-7.69
-13.10
-18.45
-23.50
-28.14
-32.40
-36.55
-41.00
-46.21
-52.47
-59.71
-67.29
-74.03
-78.32
-78.57
-73.66
-63.29
-48.15
-29.76
-10.05
9.12
26.24
40.40
51.14
58.30
61.94
62.28
59.70
54.84
48.56
41.80
35.42
30.02
25.87
22.87
20.77
19.24
18.04
17.03
16.17
15.36
14.44
13.13
11.15
8.32
4.61
0.18
-4.68
-9.66
-14.49
-19.02
-23.23
-27.17
-31.00
-34.89
-39.07
-43.72
-48.91
-54.40
-59.55
-63.27
-64.26
-61.32
-53.74
-41.54
-25.57
-7.24
11.78
29.92
45.88
58.75
67.95
73.16
74.37
71.91
66.45
58.94
50.53
42.24
34.89
28.91
24.37
21.06
18.63
16.77
15.18
13.69
12.13
10.27
7.89
4.73
0.66
-4.28
-9.85
-15.70
-21.50
-27.07
-32.47
-37.95
-43.91
-50.69
-58.43
-66.88
-75.27
-82.35
-86.57
-86.49
-81.17
-70.57
-55.56
-37.73
-18.91
-0.84
15.22
28.41
38.24
44.42
46.79
45.49
40.94
33.94
25.58
17.01
9.24
2.95
-1.64
-4.62
-6.29
-6.93
-6.60
-5.21
-2.61
1.21
5.90
10.83
15.19
18.28
19.74
19.59
18.16
15.84
12.91
9.41
5.25
0.30
-5.58
-12.48
-20.43
-29.34
-38.80
-47.88
-55.16
-58.90
-57.58
-50.43
-37.71
-20.76
-1.55
17.83
35.69
50.94
63.09
71.99
77.64
80.07
79.42
76.03
70.51
63.74
56.64
50.02
44.38
39.90
36.45
33.79
31.64
29.80
28.14
26.53
24.82
22.83
20.40
17.37
13.65
9.23
4.15
-1.43
-7.33
-13.29
-19.05
-24.44
-29.41
-34.10
-38.80
-43.89
-49.69
-56.27
-63.37
-70.27
-75.87
-78.83
-77.90
-72.19
-61.52
-46.55
-28.59
-9.41
9.32
26.25
40.55
51.78
59.75
64.37
65.62
63.74
59.28
53.13
46.37
39.94
34.42
29.99
26.47
23.57
21.09
18.95
17.14
15.62
14.26
12.79
10.91
8.32
4.88
0.56
-4.47
-9.93
-15.52
-20.99
-26.23
-31.29
-36.35
-41.60
-47.19
-53.12
-59.31
-65.42
-70.91
-74.92
-76.39
-74.28
-67.87
-57.08
-42.54
-25.47
-7.36
10.37
26.55
40.38
51.27
58.80
62.76
63.24
60.69
55.94
50.06
44.08
38.78
34.60
31.59
29.56
28.20
27.22
26.42
25.63
24.77
23.70
22.22
20.10
17.14
13.26
8.65
3.64
-1.34
-6.00
-10.29
-14.45
-18.82
-23.80
-29.60
-36.21
-43.22
-49.88
-55.04
-57.34
-55.56
-48.96
-37.64
-22.53
-5.25
12.39
28.75
42.66
53.43
60.69
64.34
64.43
61.23
55.34
47.57
38.91
30.25
22.24
15.23
9.30
4.40
0.44
-2.63
-4.94
-6.70
-8.29
-10.12
-12.53
-15.64
-19.32
-23.31
-27.38
-31.42
-35.50
-39.77
-44.42
-49.59
-55.28
-61.36
-67.39
-72.48
-75.38
-74.62
-69.00
-58.03
-42.23
-23.08
-2.55
17.38
35.26
50.21
61.88
70.13
74.91
76.28
74.49
70.07
63.82
56.60
49.19
42.09
35.60
29.78
24.64
20.15
16.26
12.87
9.78
6.73
3.45
-0.26
-4.43
-8.97
-13.77
-18.72
-23.86
-29.32
-35.26
-41.77
-48.71
-55.57
-61.43
-65.11
-65.34
-61.13
-52.10
-38.65
-21.91
-3.52
14.78
31.48
45.47
56.16
63.29
66.91
67.28
64.82
60.09
53.81
46.70
39.49
32.81
27.09
22.50
19.02
16.37
14.24
12.26
10.19
7.85
5.14
1.99
-1.64
-5.75
-10.32
-15.27
-20.53
-26.08
-32.01
-38.52
-45.76
-53.65
-61.67
-68.76
-73.48
-74.31
-70.20
-60.84
-46.85
-29.63
-10.92
7.56
24.46
38.82
50.06
57.80
61.84
62.21
59.27
53.74
46.58
38.83
31.37
24.75
19.17
14.56
10.70
7.40
4.51
1.99
-0.22
-2.23
-4.27
-6.65
-9.72
-13.66
-18.48
-23.90
-29.46
-34.68
-39.27
-43.22
-46.89
-50.80
-55.46
-61.11
-67.65
-74.48
-80.61
-84.76
-85.61
-82.05
-73.45
-59.89
-42.15
-21.65
-0.10
20.74
39.35
54.63
65.87
72.83
75.62
74.73
70.88
64.97
57.88
50.41
43.15
36.56
30.90
26.32
22.86
20.42
18.76
17.55
16.43
15.06
13.17
10.62
7.30
3.25
-1.44
-6.58
-11.89
-17.12
-22.13
-27.02
-32.12
-37.77
-44.08
-50.62
-56.37
-59.82
-59.44
-54.15
-43.66
-28.61
-10.43
9.06
28.03
44.97
58.84
69.05
75.36
77.82
76.64
72.27
65.37
56.84
47.67
38.85
31.11
24.82
19.93
16.14
13.07
10.34
7.72
5.06
2.18
-1.08
-4.91
-9.40
-14.50
-20.01
-25.68
-31.32
-36.87
-42.55
-48.73
-55.73
-63.62
-71.92
-79.52
-84.83
-86.15
-82.16
-72.35
-57.22
-38.08
-16.80
4.74
24.88
42.37
56.30
66.11
71.52
72.56
69.73
63.95
56.39
48.28
40.60
33.87
28.19
23.37
19.20
15.62
12.70
10.53
9.00
7.73
6.17
3.78
0.29
-4.27
-9.57
-15.21
-20.88
-26.47
-32.02
-37.72
-43.79
-50.43
-57.82
-65.96
-74.51
-82.63
-88.98
-91.91
-89.89
-81.93
-68.04
-49.21
-27.21
-4.12
18.07
37.86
54.24
66.63
74.76
78.64
78.49
74.85
68.59
60.76
52.45
44.58
37.76
32.21
27.82
24.35
21.49
19.07
16.98
15.13
13.35
11.32
8.59
4.78
-0.31
-6.54
-13.46
-20.47
-27.07
-33.04
-38.53
-43.98
-49.93
-56.84
-64.88
-73.76
-82.66
-90.24
-94.89
-95.00
-89.43
-77.83
-60.81
-39.76
-16.54
6.86
28.68
47.54
62.43
72.78
78.34
79.30
76.24
70.12
62.11
53.34
44.76
36.98
30.24
24.59
19.97
16.37
13.80
12.25
11.49
11.12
10.55
9.18
6.63
2.80
-2.09
-7.63
-13.40
-19.10
-24.61
-30.01
-35.46
-41.22
-47.51
-54.44
-61.81
-68.97
-74.73
-77.54
-75.82
-68.44
-55.13
-36.60
-14.44
9.30
32.51
53.43
70.69
83.43
91.17
93.88
91.93
86.14
77.69
67.95
58.21
49.44
42.18
36.52
32.23
28.94
26.30
24.06
22.06
20.17
18.19
15.83
12.72
8.56
3.22
-3.14
-10.16
-17.35
-24.30
-30.89
-37.31
-44.05
-51.59
-60.13
-69.22
-77.68
-83.80
-85.71
-81.97
-72.02
-56.30
-36.12
-13.37
9.93
31.93
51.05
66.09
76.29
81.33
81.41
77.22
69.84
60.57
50.74
41.50
33.65
27.50
22.94
19.55
16.83
14.44
12.29
10.42
8.82
7.26
5.27
2.31
-1.95
-7.46
-13.82
-20.46
-26.90
-32.91
-38.55
-44.10
-49.88
-56.24
-63.42
-71.50
-80.20
-88.64
-95.36
-98.48
-96.19
-87.28
-71.64
-50.34
-25.43
0.61
25.46
47.29
64.94
77.81
85.70
88.70
87.22
81.97
74.03
64.68
55.17
46.50
39.24
33.53
29.15
25.78
23.12
20.97
19.21
17.76
16.43
14.95
12.93
9.99
5.87
0.54
-5.74
-12.53
-19.32
-25.77
-31.76
-37.42
-43.06
-49.06
-55.74
-63.26
-71.47
-79.78
-87.03
-91.64
-91.87
-86.38
-74.60
-57.07
-35.26
-11.27
12.68
34.69
53.38
67.90
77.80
82.95
83.48
79.85
72.87
63.70
53.68
44.10
35.88
29.45
24.74
21.36
18.88
17.00
15.60
14.64
14.02
13.41
12.36
10.41
7.23
2.85
-2.43
-8.11
-13.70
-18.95
-23.83
-28.55
-33.37
-38.53
-44.19
-50.34
-56.80
-63.03
-68.05
-70.51
-68.90
-62.05
-49.50
-31.84
-10.54
12.37
34.79
54.86
71.20
82.92
89.59
91.27
88.47
82.10
73.31
63.33
53.25
43.91
35.84
29.29
24.29
20.64
18.07
16.18
14.55
12.78
10.52
7.51
3.60
-1.16
-6.60
-12.45
-18.39
-24.20
-29.79
-35.28
-40.91
-47.01
-53.81
-61.21
-68.58
-74.74
-78.07
-76.98
-70.37
-58.06
-40.89
-20.50
1.06
21.87
40.39
55.56
66.74
73.55
75.95
74.18
68.92
61.24
52.41
43.65
35.87
29.51
24.62
20.94
18.16
16.01
14.36
13.11
12.07
10.91
9.17
6.42
2.37
-2.90
-9.04
-15.49
-21.74
-27.52
-32.88
-38.16
-43.84
-50.32
-57.84
-66.22
-74.82
-82.46
-87.51
-88.28
-83.41
-72.37
-55.64
-34.71
-11.61
11.52
32.89
51.24
65.80
76.11
81.97
83.43
80.89
75.13
67.21
58.30
49.42
41.32
34.34
28.57
23.92
20.22
17.25
14.83
12.74
10.78
8.72
6.27
3.14
-0.96
-6.15
-12.36
-19.22
-26.26
-32.97
-39.07
-44.56
-49.74
-55.05
-60.95
-67.70
-75.23
-83.01
-90.02
-94.81
-95.76
-91.48
-81.24
-65.27
-44.77
-21.62
2.04
24.30
43.70
59.32
70.65
77.44
79.68
77.64
71.99
63.74
54.17
44.54
35.83
28.62
23.07
18.98
16.00
13.81
12.17
10.94
10.02
9.24
8.26
6.74
4.31
0.81
-3.64
-8.69
-13.89
-18.84
-23.35
-27.47
-31.42
-35.55
-40.19
-45.57
-51.75
-58.49
-65.08
-70.39
-72.95
-71.26
-64.26
-51.64
-34.06
-12.97
9.69
31.95
52.16
69.10
82.00
90.37
94.07
93.29
88.63
81.15
72.12
62.81
54.16
46.67
40.41
35.22
30.91
27.35
24.48
22.20
20.25
18.20
15.56
11.88
6.95
0.89
-5.94
-13.03
-19.93
-26.40
-32.43
-38.23
-44.17
-50.65
-57.97
-66.13
-74.72
-82.77
-88.87
-91.36
-88.79
-80.35
-66.18
-47.39
-25.78
-3.38
17.94
36.77
52.21
63.68
70.92
73.85
72.71
68.09
60.94
52.49
43.94
36.29
30.15
25.70
22.75
20.93
19.77
18.91
18.08
17.16
16.13
14.91
13.34
11.14
7.99
3.66
-1.84
-8.25
-15.10
-21.90
-28.29
-34.15
-39.59
-44.89
-50.45
-56.61
-63.64
-71.50
-79.71
-87.24
-92.56
-93.93
-89.88
-79.66
-63.58
-42.97
-19.87
3.50
25.18
43.80
58.58
69.20
75.61
77.92
76.46
71.82
64.92
56.85
48.75
41.52
35.69
31.35
28.28
26.13
24.53
23.23
22.05
20.83
19.42
17.62
15.25
12.24
8.60
4.40
-0.25
-5.32
-10.80
-16.69
-22.86
-29.12
-35.18
-40.83
-46.04
-50.95
-55.89
-61.21
-67.20
-73.94
-81.09
-87.79
-92.67
-94.04
-90.39
-80.84
-65.55
-45.74
-23.39
-0.70
20.44
38.69
53.28
63.86
70.31
72.69
71.26
66.61
59.65
51.52
43.34
36.04
30.15
25.81
22.85
20.94
19.74
18.96
18.37
17.74
16.81
15.38
13.32
10.63
7.41
3.79
-0.16
-4.43
-9.04
-13.96
-19.08
-24.25
-29.31
-34.20
-38.97
-43.75
-48.69
-53.93
-59.54
-65.38
-70.98
-75.41
-77.39
-75.55
-68.79
-56.75
-39.97
-19.80
1.96
23.42
42.99
59.47
72.05
80.25
83.84
82.99
78.31
70.82
61.87
52.79
44.65
38.04
33.02
29.31
26.53
24.34
22.54
21.06
19.80
18.56
17.02
14.80
11.60
7.28
1.94
-4.11
-10.47
-16.74
-22.70
-28.31
-33.73
-39.27
-45.28
-52.05
-59.66
-67.83
-75.76
-82.16
-85.38
-83.88
-76.67
-63.71
-45.98
-25.21
-3.45
17.46
36.11
51.59
63.38
71.12
74.63
73.98
69.67
62.60
54.02
45.28
37.48
31.27
26.80
23.84
21.93
20.64
19.63
18.68
17.61
16.30
14.64
12.52
9.90
6.65
2.69
-2.06
-7.58
-13.67
-20.04
-26.32
-32.29
-37.92
-43.39
-48.98
-55.00
-61.70
-69.16
-77.18
-85.17
-92.01
-96.17
-95.94
-89.96
-77.67
-59.62
-37.40
-13.20
10.70
32.44
50.74
64.93
74.73
80.14
81.36
78.90
73.52
66.25
58.14
50.14
42.92
36.83
31.98
28.28
25.59
23.67
22.26
21.05
19.73
18.07
15.88
13.07
9.58
5.36
0.36
-5.44
-11.94
-18.93
-26.12
-33.17
-39.87
-46.17
-52.24
-58.33
-64.75
-71.69
-79.24
-87.24
-95.25
-102.43
-107.55
-109.12
-105.77
-96.61
-81.66
-61.85
-38.88
-14.70
8.87
30.46
49.14
64.33
75.61
82.71
85.55
84.44
80.17
73.94
67.13
60.98
56.26
53.10
51.14
49.76
48.47
47.03
45.52
44.09
42.74
41.21
39.03
35.78
31.25
25.56
19.05
12.11
5.06
-1.94
-8.76
-15.33
-21.59
-27.59
-33.56
-39.90
-47.00
-55.01
-63.50
-71.43
-77.20
-79.04
-75.53
-66.01
-50.85
-31.38
-9.58
12.42
32.72
50.00
63.39
72.49
77.11
77.31
73.44
66.28
57.07
47.34
38.58
31.88
27.65
25.61
25.01
25.01
24.98
24.62
23.90
22.83
21.32
19.10
15.84
11.28
5.40
-1.55
-9.07
-16.63
-23.79
-30.38
-36.49
-42.49
-48.85
-56.01
-64.12
-72.89
-81.42
-88.22
-91.53
-89.74
-81.89
-68.02
-49.26
-27.44
-4.67
17.16
36.63
52.85
65.30
73.69
77.91
78.08
74.72
68.68
61.07
53.02
45.48
39.03
33.92
30.09
27.37
25.52
24.32
23.49
22.73
21.73
20.19
17.88
14.64
10.42
5.21
-0.85
-7.49
-14.34
-21.04
-27.37
-33.32
-39.11
-45.09
-51.57
-58.75
-66.64
-75.01
-83.32
-90.63
-95.60
-96.66
-92.36
-81.90
-65.44
-44.20
-20.14
4.47
27.58
47.71
63.93
75.80
83.22
86.30
85.37
81.04
74.12
65.65
56.73
48.38
41.44
36.35
33.18
31.59
31.01
30.76
30.30
29.32
27.66
25.31
22.26
18.51
14.02
8.83
3.02
-3.23
-9.75
-16.31
-22.77
-29.00
-34.91
-40.52
-45.91
-51.26
-56.84
-62.94
-69.71
-77.00
-84.24
-90.32
-93.75
-92.93
-86.63
-74.44
-56.97
-35.78
-12.95
9.41
29.64
46.66
59.96
69.33
74.71
76.20
74.08
68.98
61.85
53.82
45.94
39.00
33.36
29.02
25.76
23.29
21.36
19.80
18.45
17.15
15.71
13.95
11.71
8.84
5.24
0.84
-4.32
-10.09
-16.19
-22.23
-27.90
-33.06
-37.74
-42.27
-47.04
-52.43
-58.61
-65.32
-71.84
-76.98
-79.24
-77.20
-69.90
-57.17
-39.74
-19.08
2.91
24.32
43.54
59.42
71.26
78.75
81.94
81.17
77.07
70.52
62.62
54.48
47.01
40.82
36.07
32.60
30.05
28.08
26.46
25.07
23.80
22.39
20.42
17.43
13.07
7.33
0.51
-6.77
-13.88
-20.37
-26.17
-31.54
-37.01
-43.13
-50.27
-58.44
-67.15
-75.43
-81.84
-84.80
-82.91
-75.38
-62.28
-44.58
-23.90
-2.13
18.97
38.01
54.01
66.32
74.46
78.20
77.61
73.20
65.94
57.12
48.02
39.63
32.49
26.63
21.81
17.69
14.06
10.83
8.04
5.67
3.60
1.56
-0.82
-3.91
-7.99
-13.08
-18.96
-25.24
-31.43
-37.20
-42.46
-47.43
-52.57
-58.39
-65.29
-73.29
-81.86
-89.84
-95.52
-96.99
-92.60
-81.53
-64.12
-41.88
-17.11
7.65
30.21
49.06
63.49
73.41
79.12
81.09
79.90
76.17
70.65
64.14
57.43
51.17
45.75
41.22
37.42
34.10
31.09
28.33
25.90
23.85
22.11
20.42
18.47
15.92
12.55
8.29
3.19
-2.63
-9.00
-15.73
-22.61
-29.41
-36.04
-42.54
-49.14
-56.21
-64.04
-72.62
-81.44
-89.35
-94.73
-95.82
-91.24
-80.40
-63.73
-42.61
-19.03
4.87
27.15
46.37
61.60
72.32
78.38
79.91
77.35
71.43
63.14
53.65
44.15
35.65
28.81
23.83
20.52
18.40
16.91
15.61
14.19
12.44
10.23
7.42
3.91
-0.29
-5.05
-10.15
-15.39
-20.61
-25.74
-30.73
-35.53
-40.03
-44.19
-48.01
-51.63
-55.34
-59.45
-64.21
-69.54
-74.95
-79.41
-81.44
-79.48
-72.34
-59.59
-41.83
-20.57
2.21
24.54
44.85
62.09
75.60
84.97
89.96
90.54
87.11
80.58
72.25
63.51
55.49
48.85
43.68
39.72
36.63
34.17
32.23
30.75
29.51
28.10
25.95
22.64
17.98
12.16
5.61
-1.15
-7.70
-13.87
-19.71
-25.45
-31.35
-37.72
-44.74
-52.43
-60.43
-67.98
-73.82
-76.46
-74.49
-66.98
-53.84
-35.85
-14.57
8.01
29.89
49.35
65.12
76.46
83.09
85.16
83.19
78.02
70.67
62.19
53.52
45.35
38.13
32.02
27.00
22.94
19.64
16.90
14.50
12.15
9.53
6.28
2.14
-2.97
-8.93
-15.38
-21.90
-28.13
-33.94
-39.52
-45.30
-51.80
-59.41
-68.11
-77.27
-85.60
-91.35
-92.63
-88.01
-76.94
-59.97
-38.65
-15.11
8.49
30.34
49.24
64.45
75.56
82.37
84.92
83.52
78.90
72.08
64.18
56.21
48.88
42.57
37.38
33.27
30.09
27.62
25.62
23.77
21.83
19.61
16.95
13.72
9.74
4.82
-1.17
-8.16
-15.82
-23.64
-31.09
-37.81
-43.76
-49.16
-54.47
-60.16
-66.63
-74.09
-82.37
-90.83
-98.29
-103.10
-103.43
-97.81
-85.56
-67.12
-44.02
-18.52
6.98
30.40
50.31
65.95
77.11
83.93
86.70
85.85
81.96
75.81
68.31
60.42
52.93
46.40
41.06
36.94
33.90
31.78
30.35
29.33
28.36
27.02
24.93
21.86
17.76
12.79
7.19
1.20
-5.04
-11.47
-18.09
-24.84
-31.58
-38.11
-44.26
-49.97
-55.40
-60.85
-66.71
-73.26
-80.52
-87.99
-94.63
-98.92
-99.20
-94.10
-82.98
-66.17
-44.95
-21.24
2.85
25.45
45.12
60.95
72.48
79.62
82.61
81.91
78.23
72.41
65.34
57.85
50.64
44.23
38.92
34.81
31.85
29.87
28.57
27.56
26.39
24.64
22.06
18.62
14.52
10.05
5.45
0.77
-4.12
-9.40
-15.17
-21.37
-27.73
-33.96
-39.81
-45.19
-50.17
-54.93
-59.70
-64.77
-70.43
-76.77
-83.52
-89.81
-94.18
-94.84
-90.23
-79.56
-63.15
-42.38
-19.31
3.90
25.43
44.03
58.92
69.66
76.00
77.93
75.79
70.34
62.72
54.27
46.24
39.49
34.39
30.84
28.49
26.90
25.76
24.91
24.25
23.69
23.08
22.15
20.59
18.13
14.62
10.10
4.79
-0.91
-6.57
-11.89
-16.80
-21.49
-26.34
-31.73
-37.90
-44.81
-52.07
-58.95
-64.42
-67.24
-66.20
-60.40
-49.54
-34.11
-15.33
5.09
25.29
43.61
58.77
69.93
76.68
78.94
77.05
71.65
63.73
54.43
44.87
36.00
28.42
22.35
17.71
14.19
11.43
9.13
7.07
5.17
3.32
1.35
-1.05
-4.24
-8.48
-13.78
-19.83
-26.12
-32.14
-37.60
-42.53
-47.29
-52.35
-58.19
-65.06
-72.85
-81.04
-88.58
-94.01
-95.72
-92.29
-82.95
-67.86
-48.14
-25.56
-2.16
20.24
40.21
56.78
69.36
77.65
81.61
81.48
77.85
71.60
63.81
55.55
47.73
40.92
35.39
31.10
27.84
25.30
23.23
21.40
19.67
17.87
15.85
13.36
10.17
6.07
1.00
-4.92
-11.36
-17.88
-24.11
-29.80
-34.98
-39.88
-44.87
-50.37
-56.70
-64.02
-72.10
-80.31
-87.48
-92.07
-92.45
-87.36
-76.30
-59.77
-39.17
-16.45
6.27
27.21
45.08
59.19
69.27
75.34
77.57
76.27
71.90
65.17
56.98
48.33
40.15
33.11
27.52
23.37
20.38
18.22
16.52
14.98
13.35
11.41
9.05
6.19
2.80
-1.11
-5.51
-10.38
-15.69
-21.38
-27.33
-33.37
-39.31
-44.99
-50.31
-55.35
-60.30
-65.44
-70.98
-76.90
-82.74
-87.54
-89.98
-88.65
-82.43
-70.90
-54.43
-34.19
-11.83
10.84
32.17
50.84
65.87
76.62
82.78
84.42
81.99
76.33
68.54
59.85
51.38
43.98
38.14
33.92
31.08
29.20
27.85
26.72
25.65
24.55
23.28
21.55
19.01
15.32
10.41
4.51
-1.84
-8.10
-13.85
-19.00
-23.77
-28.54
-33.69
-39.47
-45.96
-52.94
-59.87
-65.80
-69.42
-69.31
-64.31
-53.92
-38.56
-19.49
1.48
22.42
41.69
58.04
70.64
78.98
82.81
82.20
77.61
69.98
60.60
50.85
41.93
34.60
29.05
25.04
22.10
19.75
17.65
15.60
13.52
11.31
8.74
5.55
1.52
-3.48
-9.32
-15.72
-22.26
-28.54
-34.36
-39.76
-45.10
-50.90
-57.64
-65.51
-74.13
-82.50
-89.07
-92.07
-90.01
-82.08
-68.41
-50.04
-28.65
-6.12
15.77
35.58
52.26
65.12
73.75
78.04
78.22
74.86
68.83
61.19
53.07
45.42
38.92
33.83
30.05
27.25
25.02
23.05
21.21
19.48
17.86
16.23
14.29
11.64
7.92
2.98
-3.02
-9.65
-16.37
-22.73
-28.51
-33.80
-38.94
-44.35
-50.39
-57.31
-65.12
-73.50
-81.81
-88.96
-93.50
-93.89
-88.85
-77.79
-61.10
-40.10
-16.78
6.69
28.44
47.12
61.96
72.66
79.17
81.69
80.55
76.34
69.87
62.12
54.10
46.69
40.47
35.70
32.31
30.02
28.42
27.10
25.70
23.95
21.70
18.91
15.60
11.78
7.43
2.51
-2.98
-8.94
-15.20
-21.56
-27.82
-33.88
-39.71
-45.31
-50.72
-56.05
-61.50
-67.38
-73.94
-81.13
-88.37
-94.44
-97.68
-96.41
-89.47
-76.61
-58.64
-37.21
-14.39
7.80
27.75
44.38
57.13
65.76
70.34
71.10
68.54
63.40
56.62
49.21
42.09
35.89
30.91
27.12
24.26
22.04
20.23
18.70
17.43
16.37
15.37
14.17
12.42
9.83
6.26
1.76
-3.39
-8.80
-14.10
-19.02
-23.52
-27.76
-32.06
-36.79
-42.26
-48.52
-55.26
-61.74
-66.80
-69.03
-67.09
-60.04
-47.66
-30.61
-10.29
11.40
32.62
51.83
68.04
80.68
89.46
94.23
95.03
92.16
86.37
78.83
70.88
63.77
58.28
54.60
52.33
50.73
48.98
46.47
42.92
38.43
33.38
28.30
23.66
19.81
16.91
14.93
13.73
13.04
12.56
11.94
10.87
9.13
6.56
3.12
-1.16
-6.20
-11.94
-18.21
-24.84
-31.59
-38.27
-44.82
-51.35
-58.12
-65.43
-73.45
-81.99
-90.43
-97.64
-102.18
-102.55
-97.60
-86.90
-70.86
-50.75
-28.37
-5.72
15.47
33.92
48.88
60.05
67.38
71.00
71.20
68.38
63.18
56.41
48.99
41.81
35.55
30.62
27.06
24.64
22.97
21.66
20.41
19.03
17.41
15.47
13.06
10.03
6.18
1.40
-4.30
-10.72
-17.54
-24.38
-30.92
-36.98
-42.57
-47.84
-53.07
-58.54
-64.53
-71.20
-78.44
-85.68
-91.78
-95.17
-94.13
-87.33
-74.35
-55.90
-33.69
-9.97
13.06
33.71
50.96
64.35
73.77
79.22
80.75
78.66
73.50
66.21
57.89
49.65
42.29
36.25
31.58
28.09
25.50
23.52
21.85
20.29
18.58
16.57
14.09
11.05
7.39
3.07
-1.87
-7.36
-13.27
-19.47
-25.80
-32.10
-38.20
-43.98
-49.33
-54.31
-59.07
-63.95
-69.35
-75.54
-82.45
-89.45
-95.30
-98.33
-96.83
-89.57
-76.26
-57.68
-35.53
-11.97
10.88
31.36
48.37
61.32
69.98
74.36
74.76
71.76
66.27
59.38
52.14
45.38
39.58
34.88
31.19
28.31
26.07
24.36
23.12
22.24
21.51
20.58
19.01
16.38
12.45
7.30
1.28
-5.09
-11.32
-17.15
-22.58
-27.81
-33.12
-38.77
-44.89
-51.45
-58.22
-64.63
-69.71
-72.20
-70.80
-64.62
-53.49
-38.13
-19.94
-0.65
18.07
34.88
48.76
58.98
65.04
66.73
64.33
58.60
50.77
42.17
34.01
27.06
21.63
17.66
14.93
13.18
12.14
11.49
10.90
9.97
8.38
5.95
2.68
-1.31
-5.80
-10.60
-15.52
-20.46
-25.28
-29.97
-34.58
-39.31
-44.43
-50.11
-56.15
-61.85
-65.95
-66.88
-63.21
-54.12
-39.75
-21.16
-0.15
21.25
41.17
58.16
71.21
79.70
83.35
82.29
77.09
68.75
58.59
47.96
37.92
29.12
21.80
15.95
11.48
8.30
6.23
4.92
3.88
2.54
0.47
-2.53
-6.35
-10.72
-15.33
-20.00
-24.69
-29.53
-34.72
-40.53
-47.18
-54.69
-62.69
-70.28
-76.09
-78.53
-76.16
-68.19
-54.70
-36.66
-15.70
6.28
27.45
46.28
61.65
72.81
79.40
81.41
79.27
73.77
65.99
57.10
48.16
39.95
32.94
27.29
23.01
20.00
18.08
16.96
16.22
15.32
13.68
10.87
6.76
1.50
-4.49
-10.70
-16.71
-22.37
-27.81
-33.42
-39.72
-47.18
-55.95
-65.65
